time,time,flux,flux_err
1385.9569502185743,1385.9569502185743,1.00021735066477,0.0003568606078304986
1385.9652835327915,1385.9652835327915,1.0000799460324203,0.00035683435106248165
1385.9729224042553,1385.9729224042553,1.0000861325432344,0.0003257363930846696
1385.9798668326553,1385.9798668326553,0.9996726988473045,0.00032560628232202436
1385.9868112609627,1385.9868112609627,0.9997914075484342,0.00032567553959011883
1385.9937556892698,1385.9937556892698,0.9996556465398966,0.0003256594335140814
1386.00070011739,1386.00070011739,0.9999157040771858,0.0003256948035266779
1386.0076445455113,1386.0076445455113,1.000233006778248,0.00032575790059073917
1386.014588973539,1386.014588973539,1.000169634518635,0.00032570753274478606
1386.021533401473,1386.021533401473,0.9999459492598988,0.0003256834146960352
1386.028477829315,1386.028477829315,1.00000992982316,0.00032570779015798397
1386.0354222569708,1386.0354222569708,0.999597768098381,0.00032564559615877063
1386.0423666847184,1386.0423666847184,1.0004069646769278,0.00032574993592233764
1386.0493111122807,1386.0493111122807,0.9998862448069531,0.0003256478652562874
1386.0562555398433,1386.0562555398433,0.9998674570333479,0.00032562210778661613
1386.0631999672187,1386.0631999672187,1.0005013160218055,0.0003257488255605489
1386.070144394501,1386.070144394501,0.9999227702541649,0.0003256520966073306
1386.0770888218772,1386.0770888218772,1.0000376496687984,0.000325706535335525
1386.0840332489736,1386.0840332489736,0.9995511923922825,0.000325632001680047
1386.0909776760695,1386.0909776760695,1.0000055068512235,0.00032570022779985683
1386.0979221030734,1386.0979221030734,1.0000776408468757,0.00032571388084531893
1386.1048665299834,1386.1048665299834,0.9996252633913143,0.00032564383484404906
1386.111810956893,1386.111810956893,1.0005613917939942,0.00032579283327918414
1386.1187553835243,1386.1187553835243,1.0001544452497702,0.0003257494920586225
1386.1256998103413,1386.1256998103413,1.000052468502432,0.0003256786845139235
1386.1326442368784,1386.1326442368784,0.9996413773531018,0.00032562458388628063
1386.1395886633231,1386.1395886633231,0.9997619919239336,0.00032565474557577634
1386.1465330897684,1386.1465330897684,1.0004202253919832,0.000325784790817658
1386.153477516212,1386.153477516212,0.9995014529754764,0.00032565421841154903
1386.160421942377,1386.160421942377,1.000448015925779,0.00032579932838827923
1386.1673663686356,1386.1673663686356,0.9998794663406138,0.000325656266595488
1386.1743107946143,1386.1743107946143,0.9999014710670604,0.00032568553766254815
1386.1812552206861,1386.1812552206861,1.0003216915702846,0.00032572378331453323
1386.1881996466652,1386.1881996466652,0.9999798621104411,0.0003256912234538918
1386.1951440723647,1386.1951440723647,0.9999520362920393,0.000325662348291045
1386.2020884982499,1386.2020884982499,0.9998541774590309,0.0003256672622338561
1386.2090329238567,1386.2090329238567,1.000002885414225,0.0003257139997073249
1386.2159773494634,1386.2159773494634,1.0003104083861887,0.0003257596330744332
1386.2229217749755,1386.2229217749755,1.0002081204048643,0.0003257188498842373
1386.2298662004891,1386.2298662004891,0.999842377150253,0.00032568856577621367
1386.2368106257231,1386.2368106257231,0.9995316154088506,0.0003256186766692421
1386.2437550510494,1386.2437550510494,1.000010231419029,0.00032569999164917834
1386.2506994762837,1386.2506994762837,0.9997405403980453,0.00032566621250432296
1386.2576439013314,1386.2576439013314,0.9999792250409769,0.0003257421480722317
1386.2645883263785,1386.2645883263785,1.0003067149135623,0.0003257710529808592
1386.2715327513329,1386.2715327513329,1.0002590219750997,0.00032580536840421287
1386.2784771761944,1386.2784771761944,0.9999366006871911,0.00032569406585964447
1386.2854216008695,1386.2854216008695,1.0002084354241354,0.00032574792125418495
1386.292366025637,1386.292366025637,1.0000292546853555,0.0003257454839273894
1386.299310450219,1386.299310450219,0.9998840754799749,0.00032569372770559283
1386.3062548747082,1386.3062548747082,1.000107453822435,0.00032573670666885866
1386.313199299289,1386.313199299289,0.9994239904980358,0.00032563380351394167
1386.3201437234989,1386.3201437234989,1.0000001878391582,0.00032571326930188487
1386.327088147988,1386.327088147988,0.9999263780126398,0.0003256919519524879
1386.3340325721033,1386.3340325721033,1.0000725008326117,0.0003257095913854364
1386.34097699622,1386.34097699622,1.0001802109731728,0.00032570058775675966
1386.3479214203367,1386.3479214203367,0.9999875823628909,0.00032567458932214775
1386.354865844173,1386.354865844173,0.9999724242022344,0.0003256511340619947
1386.361810268103,1386.361810268103,1.0002842858989063,0.000325685353281566
1386.3693102457762,1386.3693102457762,0.9997138779953485,0.000325591464160282
1386.3770880003206,1386.3770880003206,1.0001131824321958,0.0003256808573849918
1386.3840324239707,1386.3840324239707,0.9997664929673402,0.0003256195662616165
1386.3909768474355,1386.3909768474355,1.0006190467188905,0.0003257228662607428
1386.3979212709,1386.3979212709,0.9996619496855434,0.0003256038587349657
1386.404865694177,1386.404865694177,1.0001310064899491,0.0003256696741388105
1386.4118101175484,1386.4118101175484,1.0004185553054759,0.0003257030333471134
1386.418754540827,1386.418754540827,0.9999932922416276,0.00032567049824456075
1386.425698963918,1386.425698963918,0.9994990385613811,0.0003256404156216449
1386.43264338701,1386.43264338701,0.9998310530614717,0.00032568731531788786
1386.4395878099158,1386.4395878099158,1.0000876856149432,0.00032573480176110276
1386.4465322329143,1386.4465322329143,0.9998726557580891,0.0003256766167223984
1386.4534766556333,1386.4534766556333,1.0000778033379372,0.00032575504946000185
1386.4604210783527,1386.4604210783527,0.9997234793311943,0.0003256798984176224
1386.4673655009788,1386.4673655009788,1.0000103380630603,0.00032569706708614757
1386.4743099236046,1386.4743099236046,0.9999028251319503,0.0003256723683094665
1386.4812543460446,1386.4812543460446,1.0001632651441974,0.0003257168085206244
1386.4881987684846,1386.4881987684846,1.0001277887351696,0.00032568562261521664
1386.4951431908305,1386.4951431908305,1.0003547897865164,0.0003257238210156698
1386.502087612991,1386.502087612991,0.999980733636295,0.00032567881178077794
1386.5090320351521,1386.5090320351521,1.000226259128353,0.00032573520696804856
1386.5159764574053,1386.5159764574053,0.9999068000723309,0.00032566640382128816
1386.522920879193,1386.522920879193,0.9996930528759964,0.0003256378499152936
1386.5298653011675,1386.5298653011675,0.9994652912784865,0.00032560506808252516
1386.5368097232347,1386.5368097232347,1.0004907081845629,0.0003257740311494998
1386.543754144929,1386.543754144929,0.9997586279753868,0.000325665092751577
1386.5506985663449,1386.5506985663449,1.0002073832216158,0.00032569423096161004
1386.5576429881332,1386.5576429881332,1.0000981810219471,0.0003257082991766562
1386.5648651864192,1386.5648651864192,1.000328805934336,0.0003257453127791709
1386.572920715321,1386.572920715321,0.9995964312986947,0.0003256517232863215
1386.5798651366435,1386.5798651366435,1.0000928832822344,0.0003257108815942739
1386.5868095579656,1386.5868095579656,1.0001986416276059,0.00032572388376053495
1386.5937539791944,1386.5937539791944,0.9998478017578402,0.0003256442131302322
1386.6006984002374,1386.6006984002374,0.9997509001762669,0.00032563967520981034
1386.6076428212805,1386.6076428212805,0.9998010582215737,0.0003256071035644092
1386.6145872422294,1386.6145872422294,1.0004609839590997,0.00032574437350969007
1386.6215316630864,1386.6215316630864,0.9997553830056166,0.0003256620344740742
1386.6284760838503,1386.6284760838503,0.999545897318785,0.00032560383063635684
1386.6354205046127,1386.6354205046127,1.0006835013688746,0.0003258071801940434
1386.6423649251906,1386.6423649251906,0.999971239165653,0.0003256969059786598
1386.649309345768,1386.649309345768,1.0001123071493918,0.0003257010856732558
1386.6562537662517,1386.6562537662517,1.0003859603381369,0.00032578060455718634
1386.6631981865496,1386.6631981865496,0.9998424241984584,0.00032564955502716617
1386.6701426069405,1386.6701426069405,0.9995879079440495,0.0003256069909306303
1386.6770870272383,1386.6770870272383,1.0001778387343707,0.00032573304295092063
1386.684031447256,1386.684031447256,1.0002066540149679,0.00032573140429716964
1386.6909758672748,1386.6909758672748,0.9997755134721478,0.00032567244909337273
1386.6979202873868,1386.6979202873868,0.9994024897028382,0.0003256527474625995
1386.704864707218,1386.704864707218,1.0004369499673431,0.00032581996248109144
1386.7118091271436,1386.7118091271436,1.0003597953445162,0.00032580841105666686
1386.7187535468831,1386.7187535468831,1.0003345252162525,0.00032577956024133797
1386.7256979665287,1386.7256979665287,1.00024372873432,0.0003257206322418801
1386.732642385988,1386.732642385988,0.9993623605786967,0.0003256249971221106
1386.7395868054477,1386.7395868054477,0.9999625393156373,0.00032569617105050606
1386.7465312249078,1386.7465312249078,0.9999893332698606,0.0003257073448483056
1386.7534756443667,1386.7534756443667,1.0000531546865108,0.0003257177722551884
1386.7604200638264,1386.7604200638264,0.9999198831083909,0.00032569747759258886
1386.7673644828205,1386.7673644828205,1.0000337526597616,0.00032573098958781196
1386.7745866788723,1386.7745866788723,1.0005542403871126,0.0003257917435436217
1386.7826422048863,1386.7826422048863,0.9998531150370267,0.00032570096137834423
1386.7895866238805,1386.7895866238805,0.999800481737477,0.00032569927983233313
1386.7965310427812,1386.7965310427812,1.000209456847159,0.0003257695117020559
1386.8034754614953,1386.8034754614953,0.9999873292031086,0.00032571206686273543
1386.8104198802102,1386.8104198802102,0.9996950289820672,0.0003256716641702042
1386.8173642989252,1386.8173642989252,0.9997821536929031,0.0003256943329347402
1386.8243087173594,1386.8243087173594,0.9997444505399932,0.000325678156560028
1386.8312531358883,1386.8312531358883,1.0005802733811415,0.00032582024160860676
1386.8381975542302,1386.8381975542302,0.9998502928585852,0.00032573325218406446
1386.845141972479,1386.845141972479,0.9996811854582196,0.00032566608274464903
1386.852086390821,1386.852086390821,1.0004552174994714,0.00032575387960418086
1386.8590308090702,1386.8590308090702,1.0000462625730004,0.00032572194631273505
1386.8659752271328,1386.8659752271328,1.000468496368459,0.00032576622082195313
1386.8729196451018,1386.8729196451018,0.9995297930622847,0.0003256344934463308
1386.8798640629782,1386.8798640629782,0.9994778268744062,0.0003255841758976865
1386.8868084809483,1386.8868084809483,0.9999433857057278,0.0003257022908209035
1386.8937528986376,1386.8937528986376,1.0001653005738533,0.0003257470513037642
1386.9006973163278,1386.9006973163278,1.000405494735834,0.00032578193838025526
1386.9076417340184,1386.9076417340184,1.0001551283726293,0.0003257341073009842
1386.9145861515221,1386.9145861515221,1.0004220646027853,0.0003258025174059672
1386.9215305689322,1386.9215305689322,0.9998213770194548,0.00032572181473262713
1386.9284749863432,1386.9284749863432,0.9998651606607394,0.00032575668239653285
1386.935419403475,1386.935419403475,1.0001027265530933,0.000325765610834152
1386.9423638210715,1386.9423638210715,0.9990607575931205,0.00032564458626105754
1386.9493082382025,1386.9493082382025,1.000188830326986,0.0003257301522728336
1386.9562526551479,1386.9562526551479,1.0000273617683475,0.000325736823220812
1386.9631970719997,1386.9631970719997,0.999905918605722,0.0003257395739959043
1386.9701414891306,1386.9701414891306,1.0003141217193519,0.0003257975435559725
1386.9770859057967,1386.9770859057967,0.9999831946567049,0.00032570975692321517
1386.9848636526117,1386.9848636526117,0.9999264309986359,0.0003256902431416338
1386.9923636226472,1386.9923636226472,1.0000046577863295,0.0003257150846370171
1386.9993080391264,1386.9993080391264,1.0000039607286113,0.0003257103167058649
1387.0062524556993,1387.0062524556993,1.0000455655662868,0.000325704529633759
1387.0131968720852,1387.0131968720852,1.0000238192743407,0.00032570520757707947
1387.0201412884712,1387.0201412884712,1.0002875065200576,0.000325713320525643
1387.0270857047647,1387.0270857047647,1.0000799826718338,0.0003257104162800056
1387.0340301209649,1387.0340301209649,0.9998707302815081,0.0003256513868974393
1387.0409745370712,1387.0409745370712,0.9996984496817325,0.00032569531939400374
1387.0479189531784,1387.0479189531784,1.0000478426080446,0.000325750615541966
1387.0548633691924,1387.0548633691924,1.0004445218353655,0.00032582135386502974
1387.0618077850197,1387.0618077850197,0.9999441337911776,0.00032573723898893724
1387.0687522008466,1387.0687522008466,0.9995813481827268,0.0003256621352136444
1387.0756966165814,1387.0756966165814,1.0004426752890585,0.00032581479520886117
1387.082641032223,1387.082641032223,1.0000513634588084,0.00032573004717795787
1387.0895854477699,1387.0895854477699,0.9993851831937081,0.0003256502933314273
1387.0965298633187,1387.0965298633187,0.9996909502597763,0.00032566337263930577
1387.1034742787738,1387.1034742787738,0.9998508332014125,0.0003257032838078431
1387.1104186940424,1387.1104186940424,1.0003715776117788,0.00032578704514977673
1387.1173631094036,1387.1173631094036,1.0005654229527798,0.00032577940468652
1387.124307524579,1387.124307524579,0.999783261669851,0.000325612874114732
1387.1312519395692,1387.1312519395692,1.0000545598388046,0.00032571539693702683
1387.138196354837,1387.138196354837,0.9999002472463612,0.00032568274604812474
1387.14514076964,1387.14514076964,1.0004043963188198,0.00032576283824199985
1387.1520851844436,1387.1520851844436,0.9997040796535185,0.00032561459746393434
1387.1590295992462,1387.1590295992462,0.9997927316985283,0.00032567726440161466
1387.165974014049,1387.165974014049,1.0000239144221876,0.0003257278320895757
1387.1729184288524,1387.1729184288524,1.000392633219017,0.0003257584720500132
1387.179862843283,1387.179862843283,0.9998763913879614,0.0003257047506799251
1387.1868072578995,1387.1868072578995,0.9998943084987758,0.0003256968932719267
1387.1937516723297,1387.1937516723297,0.9998262479992226,0.0003256700359496953
1387.2006960866674,1387.2006960866674,0.9999116212503718,0.00032573497189385966
1387.207640500912,1387.207640500912,1.0003979219830135,0.000325785987418703
1387.214584915155,1387.214584915155,0.9996192881957227,0.00032568684595014994
1387.2215293292134,1387.2215293292134,1.0001128189580277,0.00032570795905407965
1387.2284737432717,1387.2284737432717,1.0000752981912528,0.00032573265492025173
1387.2354181572364,1387.2354181572364,1.0001928320080986,0.0003257635395401793
1387.2423625711078,1387.2423625711078,1.000361194580495,0.00032580246634412286
1387.2493069849797,1387.2493069849797,0.99978108298167,0.0003256873007268014
1387.2562513986654,1387.2562513986654,0.9990654764102983,0.0003255739822601774
1387.2631958123502,1387.2631958123502,1.000070376003236,0.0003257432684890575
1387.2701402259427,1387.2701402259427,0.9997216952539866,0.0003256846168904006
1387.2770846394421,1387.2770846394421,1.000315861696747,0.0003257618741874854
1387.284029052848,1387.284029052848,1.000042714866597,0.00032572068142334076
1387.2909734662535,1387.2909734662535,0.9998342899915528,0.0003256681212271446
1387.2979178794735,1387.2979178794735,0.9999275653609102,0.0003257387335449944
1387.3048622926938,1387.3048622926938,1.000685314298193,0.0003257764931641984
1387.3126400355027,1387.3126400355027,0.9999369442433228,0.0003257199652415232
1387.3212511076235,1387.3212511076235,0.9994024571195823,0.00032562253984531696
1387.3284732970635,1387.3284732970635,0.9999587057353567,0.00032570251644766895
1387.3362510394072,1387.3362510394072,1.0002139648248234,0.00032574575472797245
1387.3437510052522,1387.3437510052522,1.0001506910711953,0.0003257348808111952
1387.350973194506,1387.350973194506,0.9998403008958283,0.0003257348445966805
1387.3590287129766,1387.3590287129766,1.0001960923385986,0.00032578103386031183
1387.3659731254506,1387.3659731254506,0.9996678071541366,0.0003256994423044102
1387.3729175379256,1387.3729175379256,0.9999749335566207,0.000325716681365926
1387.3798619504007,1387.3798619504007,1.0001098463742089,0.00032578068895421514
1387.3868063628747,1387.3868063628747,1.0000347033655,0.0003257477590665534
1387.3937507749768,1387.3937507749768,1.0000979450921428,0.00032567579127512945
1387.4006951871725,1387.4006951871725,1.000003847980323,0.000325760588090632
1387.407639599275,1387.407639599275,1.0002309370427505,0.0003257819733430935
1387.414584011283,1387.414584011283,0.9995578356779431,0.0003256932721866791
1387.4215284231996,1387.4215284231996,1.0006050792050152,0.0003258652150920556
1387.4284728351154,1387.4284728351154,0.9993859193599773,0.0003256503093738159
1387.435417246752,1387.435417246752,1.0001248808980672,0.0003257373893604294
1387.4423616584813,1387.4423616584813,1.0001454958009932,0.00032573981373761805
1387.4493060702112,1387.4493060702112,0.9995559950931379,0.00032568309832225177
1387.456250481662,1387.456250481662,1.0000058457334213,0.00032575810879255926
1387.4631948932044,1387.4631948932044,1.0002667511160026,0.0003258020369490957
1387.4701393045616,1387.4701393045616,1.0010462500475348,0.0003259029761571376
1387.477083715826,1387.477083715826,1.0001725611856738,0.00032578289794674896
1387.4840281271834,1387.4840281271834,0.9998570237407917,0.00032571807494625126
1387.4909725383534,1387.4909725383534,0.999686932630891,0.00032567998395848896
1387.4979169494316,1387.4979169494316,1.0001288587683927,0.00032578718287783485
1387.5048613605095,1387.5048613605095,0.9999457717645921,0.000325729654444846
1387.5118057714008,1387.5118057714008,0.9998691816608798,0.00032572587369942066
1387.5187501822918,1387.5187501822918,0.999893364652366,0.0003257419504838366
1387.5256945930907,1387.5256945930907,0.9999489603906657,0.0003257442117128444
1387.532639003796,1387.532639003796,1.000247436320795,0.00032578817030620835
1387.5395834144078,1387.5395834144078,0.9999298952785232,0.0003256905267948415
1387.5465278250194,1387.5465278250194,1.0002023601080454,0.0003257938855216223
1387.5534722355392,1387.5534722355392,0.999661657435829,0.0003256932504638791
1387.560416645872,1387.560416645872,0.9997109843062726,0.0003257000719724205
1387.5673610563897,1387.5673610563897,1.0006179888719537,0.0003258437049928052
1387.5743054666298,1387.5743054666298,0.9995365587881306,0.00032560906670683963
1387.5812498767764,1387.5812498767764,1.0000073068538806,0.0003257066590518162
1387.588194286923,1387.588194286923,1.0003316277719783,0.00032577814003498
1387.5951386970687,1387.5951386970687,1.0001112875861125,0.00032575630180672465
1387.6020831067497,1387.6020831067497,0.9999693359064261,0.00032572961243435916
1387.6090275168965,1387.6090275168965,1.0002725059030655,0.00032572659950342247
1387.6159719265768,1387.6159719265768,1.0001422053507603,0.0003257220671068367
1387.6229163363503,1387.6229163363503,1.0002000975677725,0.0003256900194693636
1387.629860746032,1387.629860746032,0.9998694220193283,0.0003257204194394351
1387.6368051557129,1387.6368051557129,0.9997889671174572,0.00032566398103511405
1387.6437495651135,1387.6437495651135,0.9994578362858381,0.00032565306408992854
1387.650693974608,1387.650693974608,1.0005850448559448,0.0003258142479396288
1387.6576383840097,1387.6576383840097,1.0000323904891972,0.00032573486535051796
1387.6645827932248,1387.6645827932248,1.000219805773893,0.0003256932506698279
1387.6715272025322,1387.6715272025322,1.0001616542973217,0.0003257614628780196
1387.6784716116545,1387.6784716116545,0.9997012497554761,0.0003257150215167931
1387.6854160206838,1387.6854160206838,0.9998103787591269,0.0003256882910920418
1387.6923604297122,1387.6923604297122,1.0001970840751626,0.0003257546549686872
1387.6993048386473,1387.6993048386473,1.000399389554174,0.00032580977874383085
1387.7062492474902,1387.7062492474902,0.9992910489728679,0.00032563092947603047
1387.71319365624,1387.71319365624,0.9999174209814925,0.0003257447901339336
1387.720138064989,1387.720138064989,1.0002959703399432,0.00032574840512728366
