time,time,flux,flux_err
1468.2805464424948,1468.2805464424948,1.0002007064724803,0.00020375857084894205
1468.2888798438714,1468.2888798438714,1.0000355385637916,0.00020374414921722777
1468.2965187949194,1468.2965187949194,1.0000555069060628,0.00018596160162604394
1468.3034632958722,1468.3034632958722,0.9998061251161658,0.00018593625763489458
1468.3104077967323,1468.3104077967323,0.999844945385233,0.00018597431158205697
1468.3173522973125,1468.3173522973125,0.9998920255396131,0.00018599808807465975
1468.3242967978927,1468.3242967978927,0.999948521724869,0.00018599062100885054
1468.331241298287,1468.331241298287,1.0001411212728757,0.00018603820770800983
1468.3381857985883,1468.3381857985883,1.0001341367233905,0.00018601808216850017
1468.345130298796,1468.345130298796,1.0001729689114842,0.0001860122290181631
1468.3520747988173,1468.3520747988173,0.9997719294293516,0.0001859476222393194
1468.3590192987456,1468.3590192987456,0.9999778544489019,0.000185975237622489
1468.3659637984886,1468.3659637984886,0.999727185404151,0.0001859614343120826
1468.3729082983236,1468.3729082983236,0.9994887095234333,0.0001859507825037189
1468.3817972576803,1468.3817972576803,0.9999776179593269,0.0001859987314878634
1468.3965195964406,1468.3965195964406,1.0000550962747945,0.00018602030738406182
1468.4034640956247,1468.4034640956247,0.9999163506567271,0.0001859747963013192
1468.4104085947151,1468.4104085947151,1.000144967361209,0.00018595174605535433
1468.4173530937117,1468.4173530937117,0.9996578862373156,0.0001859690785320176
1468.4242975924292,1468.4242975924292,1.0002781454245895,0.0001860408676045052
1468.4312420910544,1468.4312420910544,0.9997249850956049,0.0001859924844358851
1468.4381865896787,1468.4381865896787,0.9999657372744529,0.0001860106180161786
1468.4451310883032,1468.4451310883032,0.999968682785744,0.0001860141857523204
1468.4520755866486,1468.4520755866486,1.0000223996695818,0.0001860102323955098
1468.4590200849007,1468.4590200849007,1.00000512597546,0.00018599533500336118
1468.4659645829665,1468.4659645829665,0.9999677542678835,0.00018599250882854224
1468.4729090810324,1468.4729090810324,1.0000052567587363,0.00018597367465078403
1468.4798535789118,1468.4798535789118,1.0002609532062758,0.00018603110405936943
1468.486798076698,1468.486798076698,0.9999020048386535,0.00018593180670214206
1468.493742574392,1468.493742574392,0.9999713041055097,0.00018597828182879397
1468.5006870718057,1468.5006870718057,0.9999940144444285,0.0001860221659972905
1468.5076315693127,1468.5076315693127,1.0002370471435742,0.0001860372845819142
1468.5145760665403,1468.5145760665403,0.9998610237424028,0.00018597737131690847
1468.5215205636746,1468.5215205636746,0.9999509977551689,0.00018599531508612
1468.528465060809,1468.528465060809,0.999757869232741,0.00018599515396432469
1468.5354095577575,1468.5354095577575,0.9996767764404186,0.0001859801496955295
1468.5423540546126,1468.5423540546126,1.000370415753834,0.00018600370597718913
1468.5492985513742,1468.5492985513742,1.0000195515921424,0.00018598370979678564
1468.5562430478572,1468.5562430478572,1.0001360381886044,0.0001859991793792672
1468.563187544433,1468.563187544433,0.9998543452107806,0.00018600291342052989
1468.570132040729,1468.570132040729,1.0000435250424606,0.00018602483704718595
1468.5770765370253,1468.5770765370253,0.9999881411513158,0.00018598987927629051
1468.5840210331353,1468.5840210331353,0.9999695543910626,0.0001860014455819659
1468.590965529152,1468.590965529152,1.00023428392448,0.00018603851570079446
1468.5979100249829,1468.5979100249829,1.0001291181255054,0.00018601025136303522
1468.6048545207207,1468.6048545207207,0.9997628239313352,0.00018599485737321543
1468.611799016458,1468.611799016458,1.0000248203725155,0.0001859940872805757
1468.618743512009,1468.618743512009,0.9997416151957477,0.00018594044438081171
1468.6256880073743,1468.6256880073743,0.9999148617009931,0.00018597909534865051
1468.6326325026464,1468.6326325026464,1.0000099051944875,0.00018601095982015103
1468.6395769977316,1468.6395769977316,1.0001881970514355,0.0001860545902223996
1468.64652149291,1468.64652149291,0.9997912761680432,0.00018594111551353072
1468.6534659879028,1468.6534659879028,1.000257172558933,0.00018605185898950738
1468.6604104827088,1468.6604104827088,1.0001533626423809,0.00018600771371280522
1468.6673549774223,1468.6673549774223,0.9999057764973284,0.0001860039012728246
1468.6742994720419,1468.6742994720419,1.0001777314417848,0.00018599527291248325
1468.6812439665687,1468.6812439665687,0.9999238604493978,0.00018599872987698209
1468.688188460909,1468.688188460909,1.0000426234595599,0.00018598477256716791
1468.6951329550634,1468.6951329550634,1.0001066235609375,0.00018599295402388163
1468.7020774494042,1468.7020774494042,0.9998670394140934,0.00018599060524419588
1468.7090219433717,1468.7090219433717,0.9999463334056269,0.00018597100047461568
1468.7159664373398,1468.7159664373398,0.9998062827389494,0.00018601704573449352
1468.7229109309353,1468.7229109309353,0.9999531053500323,0.00018598525706783097
1468.7298554247172,1468.7298554247172,1.0000217346762483,0.0001860024894810884
1468.73679991822,1468.73679991822,0.9998025122769892,0.00018597510872446366
1468.7437444116285,1468.7437444116285,1.0000310671548096,0.0001860024261761439
1468.7506889050378,1468.7506889050378,1.0002180467773756,0.00018601549049741898
1468.7576333981676,1468.7576333981676,1.000179300006866,0.00018600875173038108
1468.764577891298,1468.764577891298,0.9998494701466377,0.00018600986490041176
1468.7715223843343,1468.7715223843343,0.9998400759127222,0.0001859767983730226
1468.7784668770914,1468.7784668770914,1.0003933451595988,0.00018605450871363004
1468.7854113698486,1468.7854113698486,1.000069887658872,0.0001860042666339724
1468.792355862513,1468.792355862513,1.0000051017600815,0.0001860064645775926
1468.799300354991,1468.799300354991,0.999807238216694,0.00018598859423008739
1468.8062448474686,1468.8062448474686,0.9998461527692923,0.00018601147693308063
1468.8131893396671,1468.8131893396671,0.9997504610438567,0.00018601925492628938
1468.8201338317726,1468.8201338317726,0.9998698719349619,0.00018601073268909883
1468.827078323878,1468.827078323878,1.0002514894782712,0.00018601035150723897
1468.8340228157042,1468.8340228157042,1.0001669834871094,0.00018596943294290803
1468.840967307716,1468.840967307716,1.0001647415061168,0.00018599761048491458
1468.8479117994489,1468.8479117994489,1.000052691929154,0.00018598312689854384
1468.8548562909955,1468.8548562909955,1.0000005232747404,0.0001860012935423286
1468.8618007822627,1468.8618007822627,0.9999339590724128,0.00018599491672713247
1468.8687452737163,1468.8687452737163,0.9996996012788705,0.00018594790233609338
1468.8756897649832,1468.8756897649832,0.9999158642340824,0.0001859770786233998
1468.882634256064,1468.882634256064,1.0001811135144867,0.00018603822458557079
1468.8895787471452,1468.8895787471452,1.000224893918347,0.00018603760756654886
1468.896523237947,1468.896523237947,1.0000528351402171,0.0001860158933506056
1468.9034677287482,1468.9034677287482,0.9998796737409631,0.0001859703712119673
1468.9104122194562,1468.9104122194562,1.0001402467305203,0.000186048346656507
1468.917356709885,1468.917356709885,0.9996850657903698,0.00018600802792076792
1468.9243012004076,1468.9243012004076,1.0000773237890805,0.00018604155811281276
1468.9312456906505,1468.9312456906505,1.000020849580823,0.00018598929415194722
1468.9381901808,1468.9381901808,1.000005794918032,0.00018600301546252605
1468.9451346709498,1468.9451346709498,1.0001473075587035,0.00018598625163426935
1468.9520791609125,1468.9520791609125,0.9996965046286748,0.00018596208037337437
1468.9593014304487,1468.9593014304487,1.000345173270271,0.0001860356493436501
1468.9673570384225,1468.9673570384225,1.0000028360290911,0.00018600838583967676
1468.974301528106,1468.974301528106,1.0001720233049984,0.00018601927643934935
1468.9812460175108,1468.9812460175108,0.9998327711580661,0.00018600727905749125
1468.9881905068219,1468.9881905068219,0.9999476131965217,0.00018599721027943154
1468.9951349961334,1468.9951349961334,0.9999617266828814,0.00018598534474803568
1469.0020794853522,1469.0020794853522,0.9999590050287581,0.0001859832192614094
1469.0090239742906,1469.0090239742906,1.0003794289124601,0.00018599823602281128
1469.0159684632295,1469.0159684632295,0.9996942376665251,0.00018599262007752104
1469.0229129519819,1469.0229129519819,1.0003380581445018,0.00018604990442303246
1469.0298574406418,1469.0298574406418,1.000034805888405,0.00018600118455934107
1469.036801929208,1469.036801929208,0.999958695454098,0.00018597113625312564
1469.043746417681,1469.043746417681,0.9999305343007687,0.00018596864351555964
1469.050690906061,1469.050690906061,0.9997893847979432,0.0001859617623699971
1469.057635394255,1469.057635394255,1.000003969162651,0.00018600090550235346
1469.0645798823557,1469.0645798823557,1.0000854081081425,0.00018599486144247663
1469.0715243702703,1469.0715243702703,0.999708174688774,0.0001859810232013003
1469.0784688582778,1469.0784688582778,0.9999750947065584,0.00018600447954018401
1469.085413346006,1469.085413346006,1.00039403352172,0.00018605078555948082
1469.0923578336406,1469.0923578336406,1.000058202362589,0.0001860186252380069
1469.0993023211827,1469.0993023211827,0.9999094454700609,0.00018596911460448917
1469.1062468085381,1469.1062468085381,0.9999165651055538,0.00018595764855766525
1469.113191295801,1469.113191295801,0.9999079360937424,0.00018597346026859437
1469.1201357831565,1469.1201357831565,1.0000248782262127,0.00018599644976546306
1469.1270802702325,1469.1270802702325,1.0000339966136997,0.00018598686049685784
1469.1340247572157,1469.1340247572157,1.0000248645785415,0.0001860179403300172
1469.1409692439192,1469.1409692439192,0.9997262268764782,0.00018595863173580238
1469.1479137307167,1469.1479137307167,1.0000269373532427,0.00018596238471466666
1469.1548582172334,1469.1548582172334,1.0004619283551388,0.0001860515031233381
1469.161802703844,1469.161802703844,1.0000463181591033,0.0001860265675244704
1469.168747190082,1469.168747190082,0.9996995986580977,0.0001859751308306335
1469.1756916765066,1469.1756916765066,1.0003015421306969,0.00018599284940288733
1469.1826361625585,1469.1826361625585,0.9999849407397543,0.00018598535205923675
1469.1895806486102,1469.1895806486102,0.9997718342078933,0.0001859780901482306
1469.1965251345687,1469.1965251345687,1.0000538205783425,0.00018597381385926132
1469.2034696204341,1469.2034696204341,0.9999551089399376,0.00018598598544582079
1469.2104141061134,1469.2104141061134,0.9999581612565226,0.0001860053492933217
1469.2173585916996,1469.2173585916996,1.0001698676682902,0.00018605843863494595
1469.2243030770992,1469.2243030770992,0.9999110305260309,0.00018601123467509108
1469.2312475625922,1469.2312475625922,0.9999107325412016,0.00018602532052781646
1469.2381920478058,1469.2381920478058,0.9998626408121289,0.0001859934291176047
1469.2451365329266,1469.2451365329266,1.0001885495559617,0.00018605577875864892
1469.2520810178607,1469.2520810178607,1.0001352358903957,0.000186024922890567
1469.2590255028877,1469.2590255028877,0.9999469781877902,0.00018604043340619104
1469.2659699875426,1469.2659699875426,0.9998486407934241,0.0001860195786161116
1469.2729144721973,1469.2729144721973,1.0001312625373115,0.00018601859873632566
1469.2798589568524,1469.2798589568524,0.9999289548750706,0.0001859999020734739
1469.286803441321,1469.286803441321,1.0000045669107531,0.00018599359902675216
1469.2937479256962,1469.2937479256962,1.0002862282830711,0.00018602877516779652
1469.300692409885,1469.300692409885,0.9999195528727307,0.00018601637106907787
1469.307636893981,1469.307636893981,0.9995667595219333,0.000185979475308884
1469.3145813779843,1469.3145813779843,1.0000892440121145,0.0001860368366014002
1469.3215258618009,1469.3215258618009,0.9999244197632047,0.00018601403703681347
1469.328470345617,1469.328470345617,1.0001743100187386,0.00018601685798097604
1469.3354148293406,1469.3354148293406,0.9997939757708819,0.0001859815100160199
1469.3423593127845,1469.3423593127845,1.0001438362886734,0.00018600898219527844
1469.3493037963221,1469.3493037963221,0.9999614005065502,0.0001860145945460705
1469.3562482795799,1469.3562482795799,1.000290977272528,0.00018603957130480727
1469.3631927627443,1469.3631927627443,1.0001296801717565,0.00018602462976714562
1469.3701372459093,1469.3701372459093,0.999724067421719,0.0001859994517650208
1469.3770817287943,1469.3770817287943,1.0002112450044374,0.00018604317105677654
1469.3840262116796,1469.3840262116796,0.9998347220999355,0.00018600004299886277
1469.390970694472,1469.390970694472,0.9999116401481345,0.00018598715304682
1469.3979151770777,1469.3979151770777,1.000127996855537,0.00018602992267147212
1469.4048596596836,1469.4048596596836,0.9999048235914809,0.00018600241552064667
1469.4118041420097,1469.4118041420097,0.9999488436933687,0.00018601960039955082
1469.4187486243363,1469.4187486243363,1.000226776975007,0.00018605197857534658
1469.425693106663,1469.425693106663,1.0000221151639705,0.00018600854997081735
1469.432637588524,1469.432637588524,1.0000185378529487,0.00018602041919658474
1469.4395820705709,1469.4395820705709,0.9995393665070903,0.00018598091739385734
1469.4465265524318,1469.4465265524318,0.9999469006877171,0.00018602310712407342
1469.453471034106,1469.453471034106,1.0000397114174409,0.0001860443830101435
1469.4604155157806,1469.4604155157806,1.0002496312563518,0.00018604365622091197
1469.4673599971761,1469.4673599971761,1.000083256276597,0.00018605943612668628
1469.4743044786644,1469.4743044786644,1.0001598984223423,0.000186035943134079
1469.481248959966,1469.481248959966,0.9999341598499802,0.0001859955617148971
1469.4881934410819,1469.4881934410819,0.9999847674756364,0.00018600159919219224
1469.4951379221043,1469.4951379221043,0.9999067848265755,0.0001860447316824085
1469.5020824031276,1469.5020824031276,0.9998159322204941,0.00018602250157028047
1469.5090268838708,1469.5090268838708,0.9999090258213205,0.00018599987213406332
1469.5159713646137,1469.5159713646137,1.0001829282775963,0.0001860158495965951
1469.5229158451705,1469.5229158451705,0.999855969619499,0.000186021967663578
1469.5298603257277,1469.5298603257277,1.0001007723493154,0.00018601250547201637
1469.5368048060986,1469.5368048060986,1.000235377902563,0.00018604602969879422
1469.5437492862832,1469.5437492862832,0.9999995243836806,0.00018599871610934865
1469.5506937666535,1469.5506937666535,0.9999548192579178,0.00018600354057254583
1469.5576382466515,1469.5576382466515,0.9998239233406536,0.00018598691215045377
1469.5645827265566,1469.5645827265566,1.000069192165638,0.00018601969440642147
1469.5715272061825,1469.5715272061825,1.0003012069141235,0.00018606761280924927
1469.5784716859944,1469.5784716859944,0.9999142833926447,0.00018599949404876504
1469.5854161655266,1469.5854161655266,0.9998950748844099,0.00018602178012777675
1469.5923606450597,1469.5923606450597,0.9998558751859582,0.00018603115233183735
1469.5993051244052,1469.5993051244052,1.0000669411275012,0.00018607753659832666
1469.6062496036586,1469.6062496036586,1.0001040202293732,0.0001860378745649006
1469.6131940828186,1469.6131940828186,0.9997948730314322,0.00018605587457676398
1469.6201385618856,1469.6201385618856,1.0000077491498132,0.00018607327081119569
1469.627083040673,1469.627083040673,0.9997521333659893,0.0001860094712126771
1469.6340275195535,1469.6340275195535,1.00015768680388,0.0001860470934438139
1469.6409719982478,1469.6409719982478,1.0000297441517267,0.00018602998594510935
1469.647916476849,1469.647916476849,1.000122880655304,0.00018603911032254584
1469.6548609552642,1469.6548609552642,1.0000721686701417,0.00018604766668119582
1469.661805433586,1469.661805433586,1.0000390883924737,0.0001860156425075371
1469.6687499118143,1469.6687499118143,0.9998426665374864,0.00018603807940812582
1469.6756943899497,1469.6756943899497,1.0001054912416163,0.00018605527731262666
1469.6826388679924,1469.6826388679924,1.000195180959674,0.000186029258630347
1469.6895833458486,1469.6895833458486,0.9998252040110337,0.00018601399222506454
1469.696527823798,1469.696527823798,1.0000628232312574,0.0001860423118697989
1469.7034723014676,1469.7034723014676,1.0000248823818256,0.00018606893431507781
1469.7104167789512,1469.7104167789512,0.9998785329243892,0.00018604532000936655
1469.7173612563413,1469.7173612563413,0.9999450022972847,0.00018601662321404304
1469.7243057337323,1469.7243057337323,0.9998495984383904,0.00018605568287568272
1469.7312502109364,1469.7312502109364,0.9997441280360577,0.0001860653633083047
1469.7381946880475,1469.7381946880475,1.000357088875553,0.00018609986915236906
1469.745139164972,1469.745139164972,1.000102865449909,0.00018606532659834997
1469.752083641897,1469.752083641897,1.0000673122894683,0.00018606390364583084
1469.759028118729,1469.759028118729,0.9998247892232474,0.00018603335515935798
1469.7659725954672,1469.7659725954672,1.0003592704611046,0.00018608591814621068
1469.77291707202,1469.77291707202,0.9996792566712612,0.00018599289108215495
1469.7798615483857,1469.7798615483857,1.0000426621041476,0.000186027458836408
1469.7868060247515,1469.7868060247515,0.9997437734640024,0.00018602148920994062
1469.7937505009315,1469.7937505009315,1.0000798525559953,0.00018606737588261897
1469.8006949770179,1469.8006949770179,1.0001433620236413,0.00018603141465105304
1469.8076394531047,1469.8076394531047,0.9999727744883937,0.00018608243269008093
1469.8145839289123,1469.8145839289123,1.0000544143146342,0.00018604058009900746
1469.821528404626,1469.821528404626,1.0003388500878063,0.00018604884178105634
1469.828472880433,1469.828472880433,0.9996258849407503,0.0001860417235694825
1469.8354173557746,1469.8354173557746,1.0004320597000809,0.00018607744685947958
1469.8423618314887,1469.8423618314887,1.000147222255612,0.00018605264370495455
1469.8493063066442,1469.8493063066442,0.999774560474911,0.0001860244212946839
1469.8562507817999,1469.8562507817999,0.9999999997113485,0.00018603439037753215
1469.8631952570474,1469.8631952570474,0.999826531874187,0.0001860587971357082
1469.870139732017,1469.870139732017,0.9999059947990808,0.00018604457837584283
1469.8770842067995,1469.8770842067995,1.0001623710571503,0.0001860693783164326
1469.8840286815823,1469.8840286815823,0.9999532579235588,0.00018605067801927977
1469.8909731563654,1469.8909731563654,1.0001066659040259,0.00018606592790241307
1469.8979176308687,1469.8979176308687,1.000288490352481,0.00018608380548343933
1469.9048621052784,1469.9048621052784,0.9999361415833784,0.00018605853626987284
1469.9118065795028,1469.9118065795028,0.9996579192787504,0.00018603145211458023
1469.918751053727,1469.918751053727,0.9999953985279879,0.00018605248376886405
1469.9256955278577,1469.9256955278577,1.000084360199094,0.0001860539357751721
1469.9326400018956,1469.9326400018956,0.9999924902837029,0.00018606654061506116
1469.9395844757469,1469.9395844757469,1.0001750038143475,0.00018606983721296478
1469.9465289495051,1469.9465289495051,0.9999055999739971,0.00018603957215080697
1469.9534734231704,1469.9534734231704,0.9999192416687699,0.00018604361542497676
1469.9604178967425,1469.9604178967425,1.0001122651615588,0.00018606729458873532
1469.9673623700353,1469.9673623700353,0.9998719982324221,0.0001860364669883966
1469.974306843514,1469.974306843514,1.0000006914208464,0.000186036928648288
1469.981251316527,1469.981251316527,0.9999578273942115,0.00018605520013752154
1469.9881957895402,1469.9881957895402,1.000256292438242,0.00018606161690394086
1469.9951402625534,1469.9951402625534,1.0000414578043304,0.00018603770406970196
1470.0020847355672,1470.0020847355672,0.999943200610988,0.0001860430689262634
1470.009029208394,1470.009029208394,1.0001055642474799,0.0001860754424644684
1470.015973681035,1470.015973681035,0.9997027399424937,0.00018603165662752896
1470.0229181534892,1470.0229181534892,0.9998094394841172,0.00018604625675417585
1470.0298626259435,1470.0298626259435,1.0003949650426773,0.00018608877355833045
1470.0368070983052,1470.0368070983052,0.9996116959683634,0.00018601610157667345
1470.04375157048,1470.04375157048,1.0002394788626439,0.0001860896476086427
