time,time,flux,flux_err
1354.1193744066866,1354.1193744066866,1.0002359873898008,0.00010330221553367235
1354.1281709575603,1354.1281709575603,0.9998584487894285,0.00010328220914800018
1354.1358100673017,1354.1358100673017,1.0000363731654502,9.428999884881803e-05
1354.14275471214,1354.14275471214,1.000019134386529,9.428441412267843e-05
1354.1496993566993,1354.1496993566993,0.9998686970639861,9.428162566689537e-05
1354.1566440010724,1354.1566440010724,1.0001452950923493,9.42902329970187e-05
1354.1635886450724,1354.1635886450724,1.0000727416639752,9.428644881219457e-05
1354.1705332887936,1354.1705332887936,1.000051115804125,9.428409771093785e-05
1354.177477932235,1354.177477932235,0.9999939441948944,9.428069034720719e-05
1354.1844225755835,1354.1844225755835,0.9998652856719172,9.427181172145795e-05
1354.1913672183732,1354.1913672183732,1.0001520341530838,9.429017616024421e-05
1354.1983118610697,1354.1983118610697,0.9998992091557011,9.427448708474668e-05
1354.205256503487,1354.205256503487,0.9998980275025223,9.427242208552821e-05
1354.2122011456245,1354.2122011456245,1.0000676764504803,9.428832185802991e-05
1354.2191457873894,1354.2191457873894,0.9999958271835014,9.428409122721208e-05
1354.226090429062,1354.226090429062,1.0000477091931799,9.428751849897406e-05
1354.233035070361,1354.233035070361,1.0000957883598303,9.429031734106916e-05
1354.2399797114747,1354.2399797114747,0.9998102927192735,9.427562438238763e-05
1354.2469243522153,1354.2469243522153,1.0001299460029376,9.428935491593824e-05
1354.2538689928626,1354.2538689928626,0.9998537912473647,9.42804050523492e-05
1354.2608136330446,1354.2608136330446,0.9999436085239495,9.428226418705425e-05
1354.2677582730403,1354.2677582730403,1.0000729019850865,9.42879669438418e-05
1354.2747029128498,1354.2747029128498,1.0001439375021586,9.429610561854785e-05
1354.2816475522866,1354.2816475522866,1.000070509463896,9.428885344387068e-05
1354.28859219163,1354.28859219163,0.9998793108835136,9.42787358205704e-05
1354.2955368306016,1354.2955368306016,1.0000026588954312,9.428858768898265e-05
1354.3024814694793,1354.3024814694793,0.9998843564450759,9.427757949237968e-05
1354.309426107799,1354.309426107799,1.0000294236190013,9.428862936617361e-05
1354.3163707461185,1354.3163707461185,0.999908655300063,9.427690867190458e-05
1354.3233153842511,1354.3233153842511,1.000002956498578,9.428270047473638e-05
1354.3302600220115,1354.3302600220115,0.9999977825851009,9.428276970999545e-05
1354.337204659586,1354.337204659586,1.000143318940544,9.428903440149495e-05
1354.3441492969737,1354.3441492969737,1.000113920691687,9.428082103319325e-05
1354.3510939339894,1354.3510939339894,0.9999674690150441,9.427676983714548e-05
1354.358038570725,1354.358038570725,0.9999377271169075,9.427790360001976e-05
1354.364983207368,1354.364983207368,0.9999726070878955,9.427736990248677e-05
1354.3719278438252,1354.3719278438252,1.0000073074868312,9.42793444487416e-05
1354.3788724798158,1354.3788724798158,0.9999537617889324,9.42663346000698e-05
1354.385817115807,1354.385817115807,0.9999692219855758,9.427100617004822e-05
1354.3927617513323,1354.3927617513323,1.0000542607228495,9.427847859798612e-05
1354.3997063867641,1354.3997063867641,1.0000926690257805,9.427787375093505e-05
1354.4066510220105,1354.4066510220105,1.0000280490042772,9.427867097759504e-05
1354.4135956570701,1354.4135956570701,0.9999364652946916,9.427188427386357e-05
1354.4205402916637,1354.4205402916637,0.9999503875086019,9.427273257152686e-05
1354.427484926351,1354.427484926351,0.9999784593162999,9.427519448110653e-05
1354.4344295605722,1354.4344295605722,1.000133162318152,9.428306750438762e-05
1354.4413741946078,1354.4413741946078,1.000020992267365,9.427823097799966e-05
1354.4483188285496,1354.4483188285496,0.999821382099267,9.426835727428225e-05
1354.4552634622125,1354.4552634622125,1.000009309996192,9.428127570076681e-05
1354.4622080955028,1354.4622080955028,0.9999355338271508,9.427413661383189e-05
1354.4691527287928,1354.4691527287928,1.0000512000991495,9.427774684469882e-05
1354.4760973616171,1354.4760973616171,1.0000212665121242,9.428123863552347e-05
1354.483041994442,1354.483041994442,1.000140295032067,9.428978316073746e-05
1354.4899866270798,1354.4899866270798,0.9999449137046748,9.427062334807288e-05
1354.4969312593455,1354.4969312593455,0.9999500026331389,9.427828233678814e-05
1354.5038758915184,1354.5038758915184,0.9998805513220705,9.427086890269675e-05
1354.5108205234112,1354.5108205234112,1.0002486617737723,9.428921296877138e-05
1354.5177651551187,1354.5177651551187,0.9999054401135116,9.427849742223132e-05
1354.5247097867323,1354.5247097867323,0.9999628881971097,9.427876223563661e-05
1354.5316544180664,1354.5316544180664,1.000060051822373,9.428583001452325e-05
1354.538599049028,1354.538599049028,1.000035778000306,9.428656465160763e-05
1354.54554367999,1354.54554367999,1.000022210495175,9.4283364235068e-05
1354.5524883106723,1354.5524883106723,0.999883295067374,9.428488539394975e-05
1354.559432941169,1354.559432941169,0.9999738314648026,9.428402519094298e-05
1354.5663775713851,1354.5663775713851,1.0000185030308817,9.42861892832498e-05
1354.5733222015092,1354.5733222015092,0.9999129581878403,9.42821983290802e-05
1354.5802668313531,1354.5802668313531,1.0000263463021226,9.428771158469449e-05
1354.5872114611045,1354.5872114611045,1.0000386495348255,9.428759008989475e-05
1354.5941560906697,1354.5941560906697,0.9998922076993273,9.427883007223341e-05
1354.6011007197687,1354.6011007197687,1.0000096681368815,9.428645475786765e-05
1354.6080453492402,1354.6080453492402,1.0001539697149264,9.429051706032749e-05
1354.6149899778738,1354.6149899778738,1.0000457277598727,9.428688059424628e-05
1354.6219346066935,1354.6219346066935,0.9999727980503831,9.428220059708888e-05
1354.628879235234,1354.628879235234,0.9999246981972458,9.427962686782892e-05
1354.6358238635883,1354.6358238635883,1.000133538027502,9.42879096023554e-05
1354.6427684917558,1354.6427684917558,0.9999680273817049,9.428216246850844e-05
1354.6497131196445,1354.6497131196445,1.0000619544368807,9.428198948004215e-05
1354.6566577475328,1354.6566577475328,0.9999694689423355,9.428388180774032e-05
1354.663602375049,1354.663602375049,1.000025882511957,9.428592523957483e-05
1354.6705470025652,1354.6705470025652,0.9999415835875366,9.428367783197048e-05
1354.6774916298014,1354.6774916298014,0.9999484265062673,9.428261594818504e-05
1354.6844362567585,1354.6844362567585,0.9999353008118577,9.42868035581762e-05
1354.6913808838087,1354.6913808838087,0.9998305568330565,9.42795435337741e-05
1354.6983255104865,1354.6983255104865,1.000112684993309,9.429465251958019e-05
1354.7052701368852,1354.7052701368852,1.0000632461441488,9.429056041645286e-05
1354.7122147632836,1354.7122147632836,1.0001237691786937,9.428947207335327e-05
1354.7191593894022,1354.7191593894022,0.9998913477909079,9.428080838637444e-05
1354.7261040153353,1354.7261040153353,1.0000427378215344,9.428499957239322e-05
1354.7330486411747,1354.7330486411747,0.9999893189734887,9.428032471242834e-05
1354.7399932668282,1354.7399932668282,1.0000736600426365,9.429167509527143e-05
1354.746937892202,1354.746937892202,0.9998984820425456,9.427958996288936e-05
1354.7538825175757,1354.7538825175757,0.999999785421568,9.428384552888686e-05
1354.7608271426702,1354.7608271426702,0.9999824409752088,9.427866190131911e-05
1354.7677717676715,1354.7677717676715,1.0000166057335405,9.428345977795383e-05
1354.7747163923937,1354.7747163923937,1.0000162009124327,9.428195624667582e-05
1354.7816610171155,1354.7816610171155,0.999835721772056,9.42754804240077e-05
1354.788605641465,1354.788605641465,1.0001581249277938,9.429063899919421e-05
1354.7955502658144,1354.7955502658144,1.0000335922108425,9.428044537241046e-05
1354.8024948897914,1354.8024948897914,1.0001481252771718,9.428739938194229e-05
1354.8094395137684,1354.8094395137684,1.0000296821728933,9.427786339111197e-05
1354.8163841375592,1354.8163841375592,0.9999336746902282,9.428027844177178e-05
1354.8233287611636,1354.8233287611636,0.9999228972877937,9.427640639769519e-05
1354.8302733845815,1354.8302733845815,0.999904587111428,9.42758582515308e-05
1354.8372180078136,1354.8372180078136,1.0000591263931806,9.428651289954948e-05
1354.8441626310455,1354.8441626310455,1.0000163802577131,9.428727672464938e-05
1354.851107253905,1354.851107253905,0.9998970271352599,9.427721902099948e-05
1354.858051876764,1354.858051876764,0.9999790075518415,9.428104390012167e-05
1354.8649964993438,1354.8649964993438,1.0000834332129593,9.428772475924062e-05
1354.871941121924,1354.871941121924,1.0000222207558505,9.428491105566294e-05
1354.8788857441314,1354.8788857441314,0.9999020282169113,9.427568022198756e-05
1354.8858303665252,1354.8858303665252,1.0001054706676231,9.428525662250338e-05
1354.892774988546,1354.892774988546,1.000030885612214,9.428354264944872e-05
1354.8997196101016,1354.8997196101016,0.9998904402060782,9.427141585593181e-05
1354.9066642319367,1354.9066642319367,0.999916283583415,9.427742025098197e-05
1354.913608853492,1354.913608853492,1.0001680082155076,9.429059209394408e-05
1354.9205534749542,1354.9205534749542,1.000001561441087,9.42831790938251e-05
1354.9274980961375,1354.9274980961375,0.9999371278373177,9.427876738788449e-05
1354.9344427172273,1354.9344427172273,1.0001641433354724,9.429368485303268e-05
1354.9427762623486,1354.9427762623486,1.0000715532578373,9.428679614592238e-05
1354.9497208830662,1354.9497208830662,0.9998740125398801,9.427765884275495e-05
1354.9566655036904,1354.9566655036904,1.0000525747846871,9.428639953265351e-05
1354.963610124128,1354.963610124128,0.9998876143079045,9.428183647847445e-05
1354.9705547443798,1354.9705547443798,0.9998394991109834,9.427476371701952e-05
1354.977499364631,1354.977499364631,1.0000211841160174,9.427748916057491e-05
1354.984443984697,1354.984443984697,0.9999697662130191,9.42868216175736e-05
1354.9913886044828,1354.9913886044828,1.000086410303044,9.42835705934731e-05
1354.9983332241757,1354.9983332241757,1.0000403550548358,9.429118066976503e-05
1355.0052778438683,1355.0052778438683,1.0000113141010998,9.428859322500779e-05
1355.012222463189,1355.012222463189,1.000058461866034,9.428423760482017e-05
1355.0191670825093,1355.0191670825093,1.0001243024952546,9.429289224536247e-05
1355.0261117017362,1355.0261117017362,0.9999507775354376,9.427567571833757e-05
1355.033056320591,1355.033056320591,0.9998614906950951,9.427446560009622e-05
1355.040000939539,1355.040000939539,0.999804627787203,9.427650393208848e-05
1355.046945558207,1355.046945558207,1.0001662624233005,9.428849053942421e-05
1355.053890176969,1355.053890176969,0.9999567148431273,9.428244208457262e-05
1355.0608347952646,1355.0608347952646,1.000232532767908,9.429512312558939e-05
1355.0677794135606,1355.0677794135606,0.9998891478590981,9.428069310693789e-05
1355.0747240317633,1355.0747240317633,1.0000611413315632,9.428867238223411e-05
1355.0816686496864,1355.0816686496864,0.9999884608390118,9.428177169632947e-05
1355.0886132676096,1355.0886132676096,0.9999577995532392,9.427944247920228e-05
1355.0955578854403,1355.0955578854403,0.9999757650796273,9.427636760974671e-05
1355.102502502991,1355.102502502991,0.9998454003207593,9.427610866832522e-05
1355.1094471206345,1355.1094471206345,0.9999727396480871,9.427851427444811e-05
1355.1163917379993,1355.1163917379993,1.0001052521540863,9.428404816754722e-05
1355.1233363548981,1355.1233363548981,1.00014532524037,9.428732383156736e-05
1355.1302809721697,1355.1302809721697,0.9998820188799333,9.427761951777186e-05
1355.1372255890687,1355.1372255890687,0.9999635500300539,9.427599447222893e-05
1355.1441702058742,1355.1441702058742,1.000095703935488,9.428733677193094e-05
1355.151114822494,1355.151114822494,1.0001417893964417,9.42906920035038e-05
1355.1580594390202,1355.1580594390202,1.0002311558778423,9.429457135974203e-05
1355.1650040554532,1355.1650040554532,1.000010764385854,9.428462239318513e-05
1355.1719486717006,1355.1719486717006,0.9998223444655313,9.427764993060656e-05
1355.178893287854,1355.178893287854,0.9999589315364522,9.428790369475503e-05
1355.185837903915,1355.185837903915,1.0000055080049262,9.429298251510175e-05
1355.1927825196965,1355.1927825196965,0.9999690401815965,9.428571734985164e-05
1355.1997271354776,1355.1997271354776,1.000013304286346,9.42944182801974e-05
1355.206671751073,1355.206671751073,0.9998823112506097,9.428793735416792e-05
1355.2136163666676,1355.2136163666676,0.999916584411571,9.42846402169244e-05
1355.2205609820762,1355.2205609820762,0.999975990203503,9.427937402258448e-05
1355.227505597206,1355.227505597206,1.0002791394086246,9.430135153102201e-05
1355.2344502122419,1355.2344502122419,1.0000136614985358,9.428667055843354e-05
1355.2413948272783,1355.2413948272783,0.999894610436502,9.428514509971898e-05
1355.2483394423143,1355.2483394423143,0.9999681726828278,9.428232097015321e-05
1355.2552840568849,1355.2552840568849,1.0000377164764542,9.428690040223148e-05
1355.2622286715489,1355.2622286715489,1.000003576435081,9.428967890807256e-05
1355.269173286026,1355.269173286026,1.0001292760321938,9.429235000678367e-05
1355.2761179004106,1355.2761179004106,0.9999609725330523,9.42843905144388e-05
1355.2830625146084,1355.2830625146084,1.0000321613899428,9.428889502115998e-05
1355.2900071287136,1355.2900071287136,1.0000538219954827,9.429053363935806e-05
1355.2969517428185,1355.2969517428185,0.9998979903613137,9.428020987395525e-05
1355.3038963566437,1355.3038963566437,0.9998648752513477,9.42807173202993e-05
1355.310840970283,1355.310840970283,1.0000535716216197,9.428741798391382e-05
1355.317785584016,1355.317785584016,0.9999670869946531,9.428111217467234e-05
1355.3247301974686,1355.3247301974686,0.9999479315140307,9.427893498990674e-05
1355.3316748108286,1355.3316748108286,1.00006075870761,9.428809615136515e-05
1355.3394527776202,1355.3394527776202,0.9998802119064459,9.428252290253658e-05
1355.3469529599035,1355.3469529599035,1.0001111420628128,9.429077342416195e-05
1355.3538975727977,1355.3538975727977,0.9998997182223549,9.428119346178721e-05
1355.3608421858783,1355.3608421858783,1.0001618939665005,9.429526333975121e-05
1355.3677867985862,1355.3677867985862,1.000284973559338,9.429926947419835e-05
1355.3747314112939,1355.3747314112939,0.9998803266958785,9.426993946936357e-05
1355.3816760235363,1355.3816760235363,0.9998657506326198,9.427486663830668e-05
1355.3886206360582,1355.3886206360582,0.9998500394515121,9.426956642533954e-05
1355.3955652483005,1355.3955652483005,0.999927671165944,9.428072324140666e-05
1355.403620998483,1355.403620998483,1.0001897175115455,9.429486176517608e-05
1355.4108433949536,1355.4108433949536,0.9999787930037668,9.428509467510068e-05
1355.417788006824,1355.417788006824,0.9999461677573649,9.42812973971615e-05
1355.4247326186937,1355.4247326186937,1.000162358601398,9.429769882867846e-05
1355.4316772303766,1355.4316772303766,1.0000269049427062,9.42804257270986e-05
1355.4386218419672,1355.4386218419672,0.999998176043477,9.428450320255437e-05
1355.4455664533712,1355.4455664533712,0.999922435626855,9.428003756249803e-05
1355.4525110646823,1355.4525110646823,0.999835465010537,9.427919217668976e-05
1355.4594556759002,1355.4594556759002,0.9999051366409508,9.428299411704163e-05
1355.4664002871182,1355.4664002871182,1.0001060211692152,9.429283133989647e-05
1355.4733448980564,1355.4733448980564,1.000014042834635,9.428477546289482e-05
1355.480289508902,1355.480289508902,1.0000126953013078,9.428933213994033e-05
1355.487234119747,1355.487234119747,1.0002832305825837,9.43028058612307e-05
1355.494178730313,1355.494178730313,1.0000224340253763,9.429519792028734e-05
1355.5011233408788,1355.5011233408788,0.999797545596947,9.42796773588689e-05
1355.5080679515377,1355.5080679515377,0.9999252121468164,9.428298918837702e-05
1355.5150125616378,1355.5150125616378,1.0000043151235578,9.428869270319179e-05
1355.5219571718317,1355.5219571718317,0.9999712240754686,9.429048343297744e-05
1355.5289017820246,1355.5289017820246,1.0001199459059391,9.429974037948005e-05
1355.5358463919385,1355.5358463919385,0.9999006157037643,9.429078060380311e-05
1355.542791001853,1355.542791001853,1.0000866416949763,9.428597833202864e-05
1355.5497356116734,1355.5497356116734,1.0000383015064644,9.42955185034958e-05
1355.556680221215,1355.556680221215,1.000073836127738,9.429606038294298e-05
1355.5636248308497,1355.5636248308497,0.9998283931964508,9.428422755175791e-05
1355.570569440298,1355.570569440298,0.9998438683961556,9.428589971933682e-05
1355.5775140496532,1355.5775140496532,1.000128452826027,9.430020929665144e-05
1355.584458658822,1355.584458658822,0.9999579452638292,9.429227657892662e-05
1355.5914032679907,1355.5914032679907,1.0000812246539712,9.429846478987924e-05
1355.5983478769735,1355.5983478769735,1.000010096610437,9.429569139675128e-05
1355.605292485863,1355.605292485863,0.9999838967342429,9.428678164620386e-05
1355.6122370946593,1355.6122370946593,1.0000621980048874,9.429529570730855e-05
1355.6191817033628,1355.6191817033628,1.0000928790614623,9.42905619607647e-05
1355.6261263119727,1355.6261263119727,0.9999255252989503,9.428607380859662e-05
1355.6330709203967,1355.6330709203967,0.999967268182662,9.428968617811798e-05
1355.6400155287279,1355.6400155287279,0.9999186707367004,9.428756930099e-05
1355.6469601371512,1355.6469601371512,1.0000132196557405,9.428747818944556e-05
1355.653904745296,1355.653904745296,1.0000485499280698,9.429410665033754e-05
1355.6608493533472,1355.6608493533472,1.0001850523135727,9.429698309382672e-05
1355.6677939613983,1355.6677939613983,0.9996930002528599,9.427035327360766e-05
1355.6747385689844,1355.6747385689844,0.9999361642973106,9.42929790394035e-05
1355.6816831768492,1355.6816831768492,1.000277220478761,9.430918749779195e-05
1355.688627784435,1355.688627784435,1.0000833512811742,9.430233106607934e-05
1355.6955723920207,1355.6955723920207,0.9999650478255827,9.429296613277317e-05
1355.702516999513,1355.702516999513,1.0000363579630822,9.430149890663091e-05
1355.7094616067263,1355.7094616067263,0.9996726590944476,9.427977861603781e-05
1355.7164062139395,1355.7164062139395,1.000010180158592,9.428904565734881e-05
1355.7233508210593,1355.7233508210593,0.9998585151628511,9.428677787817538e-05
1355.7302954281795,1355.7302954281795,1.0001991414831752,9.430129193023341e-05
1355.73724003502,1355.73724003502,0.9998160244118452,9.428354483109513e-05
1355.7441846418606,1355.7441846418606,1.0002003340064847,9.430694315040939e-05
1355.7525181698459,1355.7525181698459,1.0001784236749953,9.430255043032013e-05
1355.7594627765002,1355.7594627765002,1.0000923579262138,9.429441522247256e-05
1355.7664073829683,1355.7664073829683,0.9998720834912274,9.429094500358963e-05
1355.7733519893432,1355.7733519893432,1.0001076165573963,9.429812346664476e-05
1355.7802965956248,1355.7802965956248,0.999868019021279,9.429162050584603e-05
1355.7872412018137,1355.7872412018137,0.9999758488238161,9.429553168536084e-05
1355.7941858079093,1355.7941858079093,1.0000291103238799,9.429663470500244e-05
1355.801130413912,1355.801130413912,0.9997026115299154,9.428674504243372e-05
1355.808075019821,1355.808075019821,1.0002567531566202,9.430743328438911e-05
1355.815019625544,1355.815019625544,0.9999134291502297,9.429221438327014e-05
1355.8219642312674,1355.8219642312674,1.000022100793573,9.429193011153717e-05
1355.828908836897,1355.828908836897,0.9999459642383985,9.429080766378957e-05
1355.8358534422475,1355.8358534422475,1.0001072839189213,9.429219224114565e-05
1355.8427980476913,1355.8427980476913,0.9999534752488655,9.429071533558502e-05
1355.8497426529484,1355.8497426529484,1.0000315178306198,9.4297017361544e-05
1355.8566872582057,1355.8566872582057,1.000023578109348,9.429257853291043e-05
1355.863631863277,1355.863631863277,0.9999417476279362,9.429062158231795e-05
1355.870576468255,1355.870576468255,0.9999699259140087,9.428971235784965e-05
1355.87752107314,1355.87752107314,1.0000712456466303,9.42973030260025e-05
1355.8844656779318,1355.8844656779318,1.0000433055244005,9.429486546009248e-05
1355.891410282537,1355.891410282537,0.999984504410057,9.428683329359211e-05
