time,time,flux,flux_err
1468.2804200801863,1468.2804200801863,0.9999965632134312,0.00026914089200368523
1468.2887535081054,1468.2887535081054,1.0000467442704994,0.00026914924036538726
1468.2963924837404,1468.2963924837404,0.9998155577964198,0.0002455941626475208
1468.3033370066728,1468.3033370066728,0.99998687664042,0.00024562957011870385
1468.310281529605,1468.310281529605,1.0001731902040856,0.00024569763569454726
1468.3172260523509,1468.3172260523509,0.9998768835775635,0.0002456387298188145
1468.324170575003,1468.324170575003,0.9999150974656779,0.0002456658316742332
1468.3311150976563,1468.3311150976563,1.0001849070637288,0.00024571835369153024
1468.3380596201227,1468.3380596201227,1.0002149561005147,0.0002457355815768191
1468.3450041424028,1468.3450041424028,1.0002090797914565,0.00024568581430449844
1468.351948664683,1468.351948664683,0.9995821026458886,0.00024558073531348254
1468.3588931866839,1468.3588931866839,0.9997499886764836,0.00024560086574439296
1468.3658377089641,1468.3658377089641,0.9993415077202543,0.00024565152178243545
1468.3727822306853,1468.3727822306853,0.999479738057266,0.00024565515961667237
1468.3816712183548,1468.3816712183548,1.0001904497839325,0.0002456592219976535
1468.3963936041469,1468.3963936041469,1.0003433742239984,0.0002457184590204749
1468.4033381255892,1468.4033381255892,0.9996612335509365,0.0002456141392884118
1468.410282646752,1468.410282646752,0.9998990069543231,0.00024559429164552687
1468.4172271680072,1468.4172271680072,0.9998829361076365,0.00024564831352196816
1468.4241716889835,1468.4241716889835,0.9996066134578416,0.0002456444149376876
1468.431116209867,1468.431116209867,1.000252361943018,0.00024568368706809205
1468.438060730657,1468.438060730657,1.0003819383219805,0.0002456926198712076
1468.445005251354,1468.445005251354,1.0002101614011991,0.0002456852161242476
1468.4519497718647,1468.4519497718647,0.9999637848534949,0.0002456758741493408
1468.4588942922824,1468.4588942922824,0.9995700788437318,0.0002455924922733064
1468.4658388126063,1468.4658388126063,1.0000779137886615,0.0002456561824032501
1468.4727833329312,1468.4727833329312,0.9999894872413895,0.0002455986505535965
1468.4797278529759,1468.4797278529759,0.9999227767784158,0.00024561895321209256
1468.4866723729278,1468.4866723729278,0.9998440586320898,0.00024560101927139277
1468.493616892973,1468.493616892973,1.0000901661130743,0.0002456875142449654
1468.5005614125525,1468.5005614125525,1.0000190169096939,0.0002456992512399613
1468.507505932132,1468.507505932132,1.0002704781736855,0.000245679683713968
1468.514450451711,1468.514450451711,1.0002216183514512,0.0002456454854844425
1468.5213949712906,1468.5213949712906,1.000012971146587,0.0002456768680337129
1468.5283394904043,1468.5283394904043,0.9997173113910922,0.0002455993205846517
1468.5352840097044,1468.5352840097044,0.9997042755216633,0.00024566190618728053
1468.5422285288182,1468.5422285288182,1.000093047168196,0.0002456281483293698
1468.549173047745,1468.549173047745,1.0003863563117608,0.00024567295236429436
1468.5561175665794,1468.5561175665794,0.9998546523589324,0.00024566094279696124
1468.5630620853212,1468.5630620853212,1.0000115714681168,0.00024567415680037323
1468.570006603876,1468.570006603876,1.0001438871048822,0.00024567086659242984
1468.5769511224305,1468.5769511224305,0.9998507253754594,0.00024563436965915637
1468.5838956407993,1468.5838956407993,0.9999613636116453,0.0002456528161475072
1468.5908401590746,1468.5908401590746,1.0003446259676672,0.00024574944195663434
1468.5977846771639,1468.5977846771639,0.999947770319696,0.0002456583418674224
1468.6047291952534,1468.6047291952534,1.0000216619425408,0.00024566778109895643
1468.6116737131563,1468.6116737131563,1.0001997077903169,0.0002457100464129171
1468.618618230966,1468.618618230966,0.9999275186336183,0.0002456207149091264
1468.625562748683,1468.625562748683,1.0000977909289523,0.00024571541145098865
1468.632507266307,1468.632507266307,1.0000004929274653,0.00024571455508383725
1468.6394517836504,1468.6394517836504,0.9994640175310507,0.00024565477224136465
1468.6463963009016,1468.6463963009016,0.9999230998224687,0.00024562568763415396
1468.6533408181526,1468.6533408181526,0.9999697852527072,0.0002456693734393878
1468.6602853354038,1468.6602853354038,1.000150855331724,0.0002456972230997906
1468.6672298524688,1468.6672298524688,0.9999690489223511,0.0002456859846366047
1468.6741743694402,1468.6741743694402,0.9997711584353819,0.0002456746863687871
1468.6811188861325,1468.6811188861325,1.000302005248683,0.00024567782442509663
1468.6880634028248,1468.6880634028248,1.0005797791935982,0.0002457140055198405
1468.6950079193307,1468.6950079193307,0.9999439371064641,0.00024561780404659585
1468.7019524358373,1468.7019524358373,0.9996949181425114,0.00024559990081456865
1468.7088969521565,1468.7088969521565,0.9998464821995359,0.0002456786754595084
1468.7158414683831,1468.7158414683831,0.9998190138948815,0.00024564766557301314
1468.7227859845166,1468.7227859845166,1.0003339761353094,0.00024564678151524626
1468.7297305004638,1468.7297305004638,0.9997906870174706,0.00024561654103483026
1468.7366750163183,1468.7366750163183,1.0003135780676788,0.000245649664448087
1468.7436195321718,1468.7436195321718,1.0000651499896,0.00024566027226974557
1468.7505640477466,1468.7505640477466,0.9998234674598481,0.000245636234512919
1468.7575085633214,1468.7575085633214,0.9996638961441426,0.0002456532231368763
1468.76445307871,1468.76445307871,1.000278098655484,0.00024568807720028293
1468.7713975940985,1468.7713975940985,0.999807039706799,0.0002456954646063701
1468.778342109114,1468.778342109114,0.9999377078838613,0.00024561810848002744
1468.7852866245023,1468.7852866245023,1.0002310178303582,0.00024570359073769184
1468.7922311394257,1468.7922311394257,0.9999502669853081,0.00024563712414283435
1468.7991756542551,1468.7991756542551,0.9999624122618259,0.0002456875854817349
1468.8061201688051,1468.8061201688051,1.000181267624853,0.0002456826166404236
1468.8130646835414,1468.8130646835414,1.0003972216918577,0.00024572137648427183
1468.8200091980918,1468.8200091980918,0.999516684402268,0.0002456747639480212
1468.8269537124559,1468.8269537124559,1.0004265858581007,0.00024571151504815605
1468.83389822682,1468.83389822682,1.0000857355223634,0.00024564188922211955
1468.8408427409045,1468.8408427409045,0.9998361949439134,0.000245638024876376
1468.847787254989,1468.847787254989,0.9998861690447404,0.00024567419335455896
1468.8547317689804,1468.8547317689804,0.9998147423202883,0.0002456549409951351
1468.8616762826925,1468.8616762826925,1.0002322050500259,0.00024571058725139427
1468.868620796498,1468.868620796498,1.00026111859226,0.0002456789885962972
1468.8755653101164,1468.8755653101164,0.9997988525596394,0.0002456668042270354
1468.8825098236423,1468.8825098236423,1.0001709765124172,0.0002457286610106357
1468.889454336982,1468.889454336982,0.9997816108532567,0.00024564514906383594
1468.8963988503215,1468.8963988503215,1.0000971016766518,0.0002457063617011789
1468.9033433634747,1468.9033433634747,0.99978053275665,0.00024565063373968305
1468.9102878765348,1468.9102878765348,1.0000334693876198,0.0002457166491237774
1468.9172323894084,1468.9172323894084,1.0001967978773676,0.0002457365469293657
1468.924176902376,1468.924176902376,0.9997834247078405,0.0002456652837411461
1468.9311214150632,1468.9311214150632,1.0002576325751176,0.0002456924626995426
1468.9380659276576,1468.9380659276576,1.0004146477699394,0.00024569123196091844
1468.945010440159,1468.945010440159,0.999969542913054,0.0002456378395115355
1468.9519549523807,1468.9519549523807,0.999568551275899,0.0002456060718344664
1468.9591772451997,1468.9591772451997,0.9996757616970408,0.00024562983359032494
1468.9672328792506,1468.9672328792506,1.0000542329491713,0.00024567090477893187
1468.974177391286,1468.974177391286,1.0000639097734951,0.0002457104402785758
1468.9811219032285,1468.9811219032285,0.9999063549048977,0.00024576814791782756
1468.9880664149846,1468.9880664149846,1.0004850084734085,0.00024574649391041677
1468.9950109266479,1468.9950109266479,0.9998178763496952,0.00024568642592828917
1469.0019554383111,1469.0019554383111,0.9998948353705245,0.0002456843470533906
1469.0088999496948,1469.0088999496948,1.0000984196483182,0.0002456655801742581
1469.0158444610784,1469.0158444610784,0.9998600469152346,0.00024564950868762665
1469.022788972276,1469.022788972276,1.0000663054212757,0.0002456974486087959
1469.0297334833806,1469.0297334833806,1.0002416560714333,0.00024580700658380486
1469.0366779943918,1469.0366779943918,1.0001714197436238,0.00024571767964308444
1469.0436225053097,1469.0436225053097,1.0003127930463538,0.0002457278067804638
1469.0505670160414,1469.0505670160414,0.9997079591192662,0.0002456494413337844
1469.0575115266802,1469.0575115266802,0.9996130337237441,0.0002456700958824834
1469.064456037319,1469.064456037319,0.9998171542080392,0.0002457032341939143
1469.0714005475852,1469.0714005475852,0.9996225273319789,0.00024569652834646196
1469.0783450578515,1469.0783450578515,1.0002646569943971,0.00024575071538467797
1469.0852895681173,1469.0852895681173,1.000058174337176,0.00024573709495175034
1469.0922340783836,1469.0922340783836,1.0003763319877383,0.00024577719849037033
1469.0991785883703,1469.0991785883703,1.0005300071034067,0.00024585124245204076
1469.1061230982637,1469.1061230982637,0.999463256682297,0.0002456864652961566
1469.1130676080647,1469.1130676080647,1.0000804300468251,0.0002456827840024617
1469.1200121177717,1469.1200121177717,0.9996269188308048,0.00024567659367979365
1469.1269566271997,1469.1269566271997,0.9997444981501282,0.0002456689121929311
1469.133901136721,1469.133901136721,0.9997265846042607,0.0002456832121317088
1469.1408456460556,1469.1408456460556,1.0003814653528191,0.0002457591288409262
1469.1477901552976,1469.1477901552976,1.0002406280906093,0.000245715412022325
1469.1547346643529,1469.1547346643529,1.0003328379399592,0.0002457542096784361
1469.1616791733147,1469.1616791733147,1.0000805359118021,0.0002457773277658574
1469.1686236822775,1469.1686236822775,1.0005826631695605,0.0002457999880245385
1469.1755681910538,1469.1755681910538,0.9994094631684712,0.0002456587497199835
1469.1825126996434,1469.1825126996434,0.9997337549153054,0.00024570936918579905
1469.1894572082333,1469.1894572082333,0.9996123818970417,0.00024569951840365425
1469.1964017166365,1469.1964017166365,0.9997791351235519,0.0002456952814212933
1469.203346224947,1469.203346224947,0.9998119499477605,0.00024567649391683306
1469.2102907332574,1469.2102907332574,1.0005402811582251,0.0002458178017838732
1469.2172352412883,1469.2172352412883,1.000167602103811,0.0002457931052680145
1469.224179749226,1469.224179749226,1.0004116207345592,0.0002457599591592703
1469.2311242571639,1469.2311242571639,0.9998758697483959,0.00024571936785504876
1469.2380687649154,1469.2380687649154,0.9993663890428659,0.0002456540687031425
1469.2450132725742,1469.2450132725742,1.0004354797879493,0.0002457762659590943
1469.251957780139,1469.251957780139,0.9998314568095303,0.0002456875616314607
1469.2589022876114,1469.2589022876114,1.0001930723798111,0.00024576776643827345
1469.265846794804,1469.265846794804,0.9999091285703214,0.0002457040641486413
1469.27279130209,1469.27279130209,1.0002029010001423,0.0002457714129508725
1469.27973580919,1469.27973580919,1.0000080576315253,0.00024568406095863194
1469.2866803161032,1469.2866803161032,0.9997848213312187,0.00024571087161635993
1469.29362482311,1469.29362482311,0.9999364044093901,0.0002457392371292331
1469.300569329837,1469.300569329837,1.0004528352800448,0.0002458164556678363
1469.3075138364707,1469.3075138364707,0.9999990225186535,0.0002457057302217372
1469.314458343012,1469.314458343012,1.0002383272442896,0.0002457865733778911
1469.3214028494594,1469.3214028494594,0.9998685906588214,0.00024579254772730735
1469.328347355814,1469.328347355814,0.9996701495241693,0.0002456970843346632
1469.3352918619821,1469.3352918619821,1.000109837733372,0.0002458202210977899
1469.3422363680575,1469.3422363680575,0.9998033019602961,0.0002457527149136988
1469.3491808740398,1469.3491808740398,1.0003834240203395,0.0002457599029841087
1469.3561253800217,1469.3561253800217,1.000135437606585,0.0002457725294808295
1469.3630698856311,1469.3630698856311,0.9998084580988035,0.00024574655105980556
1469.3700143912406,1469.3700143912406,1.0001603969277868,0.0002458117106948584
1469.3769588968503,1469.3769588968503,0.9999932777230371,0.0002457621289026485
1469.3839034024597,1469.3839034024597,0.999966384423298,0.0002457224659330461
1469.390847907604,1469.390847907604,0.9999249730374464,0.00024569315918774134
1469.397792412934,1469.397792412934,0.999830070209641,0.00024573847966003626
1469.4047369179848,1469.4047369179848,1.0001688845675614,0.00024576863749137186
1469.4116814229421,1469.4116814229421,1.000233704219573,0.000245769705760784
1469.4186259279,1469.4186259279,1.000007483778516,0.00024577548849118207
1469.4255704326715,1469.4255704326715,0.9998783999552685,0.0002457433806148011
1469.4325149373497,1469.4325149373497,0.999712688012211,0.0002457420417122274
1469.4394594418413,1469.4394594418413,0.9998730525248307,0.00024576363763854887
1469.4464039463335,1469.4464039463335,1.0000327868791108,0.00024576595371992563
1469.4533484506392,1469.4533484506392,1.0004610065911346,0.00024586802372319967
1469.4602929548514,1469.4602929548514,1.0006092475811492,0.00024583584207794407
1469.467237458878,1469.467237458878,1.00010364424992,0.00024575418447200174
1469.4741819629976,1469.4741819629976,0.9999435359591358,0.0002457958351549506
1469.4811264668374,1469.4811264668374,1.0001761658450212,0.00024579259957965827
1469.4880709705842,1469.4880709705842,0.9996236832062465,0.0002457797565272411
1469.495015474331,1469.495015474331,0.9999074500099301,0.0002457707382020273
1469.5019599777988,1469.5019599777988,1.0001964462641058,0.00024577770090242033
1469.5089044811732,1469.5089044811732,1.0001330565820854,0.0002458004138743007
1469.5158489848268,1469.5158489848268,1.000232275011585,0.0002458335372470371
1469.5227934877353,1469.5227934877353,0.999752905676775,0.0002457457352341471
1469.5297379909234,1469.5297379909234,0.9998645945088962,0.0002457395588721218
1469.5366824939258,1469.5366824939258,0.9999876725137096,0.0002457701979070087
1469.5436269968345,1469.5436269968345,1.0000348083741375,0.00024573354776024513
1469.5505714996498,1469.5505714996498,1.0002001076973586,0.0002457794566002467
1469.5575160023723,1469.5575160023723,0.9999779767044039,0.00024579340474581256
1469.564460504815,1469.564460504815,0.9998524448452167,0.0002457882969503566
1469.5714050073516,1469.5714050073516,1.000532045104209,0.00024580059129577055
1469.5783495097014,1469.5783495097014,0.9999364581001965,0.00024576233103561055
1469.585294011958,1469.585294011958,1.000008189821217,0.00024580184920063584
1469.5922385140288,1469.5922385140288,0.9995243434375125,0.00024572560437997117
1469.599183016006,1469.599183016006,0.999890555197849,0.00024575308541833227
1469.6061275179834,1469.6061275179834,0.9996348902640702,0.00024573118808659
1469.6130720197743,1469.6130720197743,1.0002942571711242,0.00024581301836741696
1469.6200165213795,1469.6200165213795,0.9998611389936019,0.0002457803690866324
1469.6269610229842,1469.6269610229842,1.0002986645525385,0.0002458288437212771
1469.6339055244957,1469.6339055244957,1.000067068120798,0.00024574921054473705
1469.640850025728,1469.640850025728,1.0002286676845105,0.0002457491547187819
1469.647794527147,1469.647794527147,0.9998889234777483,0.00024570330277331326
1469.6547390280998,1469.6547390280998,1.0003328131331286,0.00024577088763686936
1469.6616835290529,1469.6616835290529,0.9999817173508383,0.00024573765455306094
1469.668628030006,1469.668628030006,0.999588142636769,0.0002456881795310691
1469.6755725309583,1469.6755725309583,0.9998367597439127,0.0002457508749988301
1469.6825170316322,1469.6825170316322,0.9997598983900448,0.00024578935719047165
1469.6894615322126,1469.6894615322126,1.0002054997375889,0.00024577884074334207
1469.6964060327002,1469.6964060327002,1.0001708521877923,0.00024579940906177604
1469.7033505330942,1469.7033505330942,1.0003612159846937,0.0002458018762430114
1469.7102950332087,1469.7102950332087,0.9998393040516568,0.00024577820489921304
1469.7172395334164,1469.7172395334164,0.9998774247438142,0.0002457658647836812
1469.7241840335314,1469.7241840335314,1.0002740507919128,0.00024586801060035187
1469.7311285333665,1469.7311285333665,0.9996377085589204,0.0002457731688632112
1469.738073033109,1469.738073033109,0.9996858489702417,0.00024580506939258167
1469.7450175329443,1469.7450175329443,1.000317094838641,0.0002458466033926679
1469.7519620325002,1469.7519620325002,0.9999318995429747,0.00024579081880425266
1469.758906531963,1469.758906531963,1.0001004526026942,0.0002458206702020407
1469.7658510314259,1469.7658510314259,1.0001707319623192,0.0002458288135276034
1469.7727955306093,1469.7727955306093,0.9997759986470239,0.0002457940200865153
1469.7797400297927,1469.7797400297927,0.9998339206910678,0.0002458007086401112
1469.786684528883,1469.786684528883,1.000152459570263,0.00024585586170880296
1469.7936290277871,1469.7936290277871,1.0001181490083701,0.00024581407312624455
1469.8005735266909,1469.8005735266909,1.000014459204626,0.00024578374366305845
1469.8075180253156,1469.8075180253156,0.9997650686839898,0.0002457364179590538
1469.8144625239406,1469.8144625239406,1.000077911053153,0.00024576509649315125
1469.8214070225647,1469.8214070225647,0.9998977929170657,0.00024572998325883067
1469.8283515207236,1469.8283515207236,1.0002339665706885,0.0002458433717304852
1469.8352960191621,1469.8352960191621,1.0000390565401367,0.00024581424737045833
1469.8422405173212,1469.8422405173212,0.999833344580019,0.0002457823792202003
1469.8491850153873,1469.8491850153873,1.000178351694543,0.0002457934768222031
1469.85612951336,1469.85612951336,1.000276100616423,0.00024583670021923354
1469.8630740111457,1469.8630740111457,0.9997527530388813,0.00024577121870969753
1469.8700185088394,1469.8700185088394,1.0000648247008255,0.0002458556315868191
1469.8769630065328,1469.8769630065328,0.999730033352557,0.0002458100189525888
1469.88390750404,1469.88390750404,1.0000423408426524,0.0002457895401690839
1469.8908520014538,1469.8908520014538,1.0000386134573545,0.00024584367448649686
1469.8977964986811,1469.8977964986811,1.0000929910510958,0.0002458150384584985
1469.904740995909,1469.904740995909,0.9998612723829341,0.0002457934934133951
1469.9116854930437,1469.9116854930437,0.9999253037898844,0.00024585673300329047
1469.9186299899916,1469.9186299899916,1.0000712850414626,0.0002458339675141468
1469.9255744868472,1469.9255744868472,0.9999418964619526,0.0002457970770807236
1469.932518983609,1469.932518983609,0.9999345744239327,0.0002458269020613837
1469.9394634801847,1469.9394634801847,0.9999088853492539,0.00024578762521990517
1469.9464079768536,1469.9464079768536,1.00009872509196,0.0002458245758969118
1469.9533524731496,1469.9533524731496,1.0004447555179325,0.00024583237559833577
1469.960296969446,1469.960296969446,0.9997146375615096,0.0002457553824666832
1469.9672414657427,1469.9672414657427,1.000420515612765,0.00024587122816734205
1469.9741859617595,1469.9741859617595,0.9997014484160516,0.00024576393360955053
1469.9811304577765,1469.9811304577765,0.9999707009509649,0.0002458035806045538
1469.9880749536067,1469.9880749536067,0.9998913715593767,0.0002457971766729837
1469.9950194494372,1469.9950194494372,0.9999636774236768,0.0002458001492119075
1470.001963945082,1470.001963945082,1.0001013138161778,0.0002458741840915597
1470.0089084405404,1470.0089084405404,1.0000117762600418,0.0002458088442458109
1470.0158529360917,1470.0158529360917,0.999872608556054,0.00024584170388366257
1470.022797431363,1470.022797431363,0.9999722267382385,0.0002458300940410462
1470.029741926728,1470.029741926728,1.0000197984867967,0.0002458202509421898
1470.0366864217208,1470.0366864217208,0.99978933138305,0.0002458533793318481
1470.0436309167133,1470.0436309167133,1.0002329937189012,0.00024586277727588874
