time,time,flux,flux_err
1325.3040450593448,1325.3040450593448,0.9992124682667108,0.0028021272233401096
1325.3123786882234,1325.3123786882234,1.000368071052322,0.0028070454647863403
1325.320712316637,1325.320712316637,1.0011935461982964,0.002810763777907635
1325.3290459448945,1325.3290459448945,1.0012969887460585,0.0028134033517769434
1325.3366851037829,1325.3366851037829,0.9993948565850388,0.002570131318711176
1325.3436297934416,1325.3436297934416,0.9999753983194083,0.002573009245073486
1325.3505744830072,1325.3505744830072,0.997207691391351,0.0025747856179183922
1325.3575191722002,1325.3575191722002,1.0018947106745446,0.0025785488412525944
1325.364463861207,1325.364463861207,0.996503896473904,0.0025783001470228843
1325.3714085503073,1325.3714085503073,0.9988762587163,0.0025829134953993986
1325.3783532388477,1325.3783532388477,1.0001212639582857,0.0025862249572323626
1325.3852979273893,1325.3852979273893,1.002238548025621,0.0025903509667404645
1325.3922426156507,1325.3922426156507,1.0010553897406953,0.0025916220642347755
1325.399187303726,1325.399187303726,0.999868182294182,0.0025912193547353883
1325.4061319917084,1325.4061319917084,0.9998298284259508,0.0025951205139297965
1325.413076679411,1325.413076679411,1.0016242951101793,0.0025965691205452335
1325.4200213669278,1325.4200213669278,1.0031399954067861,0.0026003433203913772
1325.4269660543514,1325.4269660543514,0.9970445980781122,0.0025987423585433736
1325.4339107414955,1325.4339107414955,0.9981489332173146,0.002601469874401893
1325.4408554284535,1325.4408554284535,0.9998740994472246,0.0026047752391214814
1325.447800115225,1325.447800115225,1.0006889199537015,0.0026060103122188404
1325.4547448019964,1325.4547448019964,1.0000972292364116,0.002609680122184078
1325.4616894884887,1325.4616894884887,1.0000639990859213,0.0026107458956153053
1325.4686341746083,1325.4686341746083,0.9993799529997304,0.0026129065503115332
1325.4755788607279,1325.4755788607279,1.0005060244231916,0.0026146488469743685
1325.4825235466615,1325.4825235466615,1.0010896301190204,0.0026167785741159
1325.4894682324084,1325.4894682324084,0.9951990014365816,0.002616084275957609
1325.4964129180626,1325.4964129180626,1.002233045637427,0.002621914810686171
1325.5033576035303,1325.5033576035303,1.0005699633133416,0.002621624787529224
1325.5103022887185,1325.5103022887185,1.0009430321691457,0.0026235445420807442
1325.5172469738136,1325.5172469738136,0.9988246188278203,0.002625833899774024
1325.524191658816,1325.524191658816,1.0024270050760005,0.00262810752987627
1325.5311363435383,1325.5311363435383,0.9989509073181766,0.002629298783738249
1325.538081028168,1325.538081028168,1.0002763184129653,0.002631706792023113
1325.5450257127043,1325.5450257127043,0.9993019076014855,0.002633885586154215
1325.5519703968685,1325.5519703968685,0.9980332421855831,0.0026358792138546634
1325.5589150813114,1325.5589150813114,1.0022080440717565,0.0026386935382422187
1325.56585976501,1325.56585976501,1.0004743944354757,0.0026408869639612757
1325.5728044489874,1325.5728044489874,0.997362670377624,0.0026411527423175927
1325.5797491326855,1325.5797491326855,1.0028351197179703,0.002644518865412924
1325.5866938161978,1325.5866938161978,0.9964867345732651,0.0026443438930260433
1325.593638499616,1325.593638499616,1.0018023211214462,0.0026470675957998113
1325.600583182849,1325.600583182849,0.9995895980443212,0.002646840191720117
1325.6075278659882,1325.6075278659882,1.0014065692701246,0.0026486855092410647
1325.6144725488484,1325.6144725488484,0.9979182420944743,0.0026491990527118935
1325.6214172318016,1325.6214172318016,1.0008251980641087,0.0026515279232320068
1325.6283619143821,1325.6283619143821,1.0050378615882505,0.002653186187056927
1325.635306596963,1325.635306596963,0.9984694728050538,0.0026510984906664083
1325.6422512793574,1325.6422512793574,0.9973220205302337,0.0026510905560089915
1325.6491959616583,1325.6491959616583,1.0025833657081198,0.0026528687933384783
1325.6561406437734,1325.6561406437734,0.9965943950394689,0.002652390203242442
1325.6630853256088,1325.6630853256088,0.999212401934981,0.0026535603639484457
1325.6700300076307,1325.6700300076307,1.0000439306234612,0.002655048098466436
1325.6769746891866,1325.6769746891866,1.00030225803349,0.002653665209552519
1325.6839193708363,1325.6839193708363,1.0005184852982911,0.0026560957134049643
1325.6908640523925,1325.6908640523925,1.000273677605821,0.002656819644614763
1325.697808733669,1325.697808733669,1.0008709708350465,0.0026591104153045934
1325.7047534148533,1325.7047534148533,1.0025651765416606,0.0026602862551704564
1325.7116980959436,1325.7116980959436,1.0004492911387346,0.0026606619945579195
1325.7186427769407,1325.7186427769407,0.9950428324659027,0.002659205869278125
1325.7255874576585,1325.7255874576585,1.0011142533983723,0.0026624518780988633
1325.7325321384699,1325.7325321384699,1.0004190319646382,0.0026640356282473234
1325.7394768190015,1325.7394768190015,1.0004145072432382,0.002663708274453377
1325.7464214994402,1325.7464214994402,0.9970345000135534,0.002664686049256769
1325.7533661796922,1325.7533661796922,1.0031652025579805,0.0026685985407500644
1325.7603108599449,1325.7603108599449,0.9971924986095662,0.0026679173167308634
1325.7672555400109,1325.7672555400109,1.0011381236901382,0.00267130546975161
1325.7742002199839,1325.7742002199839,0.9993475405238679,0.002671463500489156
1325.7811448998634,1325.7811448998634,1.0017116362557519,0.0026743901405297983
1325.7880895796502,1325.7880895796502,1.0010393598262453,0.002675199856141809
1325.7950342591575,1325.7950342591575,1.0002411655199144,0.0026783675089357044
1325.8019789385714,1325.8019789385714,0.9989641159967689,0.0026797507584046345
1325.8089236179862,1325.8089236179862,0.9991637936801757,0.002680483892333596
1325.8158682974,1325.8158682974,1.0012417274151453,0.0026833905036104137
1325.8228129764416,1325.8228129764416,0.9963443072011782,0.0026816033658996806
1325.8297576555765,1325.8297576555765,1.0039230497152838,0.0026848037856239664
1325.836702334525,1325.836702334525,0.997158990310161,0.002684055719084641
1325.8436470133802,1325.8436470133802,0.9966679672962195,0.0026852873009306838
1325.8505916919562,1325.8505916919562,1.0033139654667074,0.002688605835753452
1325.8575363706248,1325.8575363706248,1.0021843340006364,0.002687551561817937
1325.864481049201,1325.864481049201,0.9987933133944467,0.0026876207494289832
1325.8714257274976,1325.8714257274976,1.0013362425549936,0.002687499589926647
1325.8783704057012,1325.8783704057012,1.0048718581145235,0.002688397664051435
1325.8853150839975,1325.8853150839975,0.9986609721833277,0.0026867485769577495
1325.892259762108,1325.892259762108,0.9999366918124594,0.0026866293792046666
1325.899204440125,1325.899204440125,0.9952688677293526,0.002684009928696618
1325.906149117956,1325.906149117956,1.0006905401695534,0.002687307113220649
1325.9130937956938,1325.9130937956938,0.9997901277041702,0.0026859349505302843
1325.920038473431,1325.920038473431,0.9984398334289226,0.002685829550651212
1325.9269831508896,1325.9269831508896,0.9983526729785211,0.0026864459270097858
1325.9339278283483,1325.9339278283483,1.0013335501634593,0.002687001511652809
1325.9408725058995,1325.9408725058995,0.9998398303135219,0.0026848714367292506
1325.9478171829853,1325.9478171829853,1.0035313525487264,0.0026874760334236704
1325.9547618600714,1325.9547618600714,1.0008446772379695,0.0026838379273363285
1325.9617065371572,1325.9617065371572,0.9947576186777901,0.0026808270048984274
1325.9697623625766,1325.9697623625766,1.0001208537750563,0.0026841407643721097
1325.9769848264666,1325.9769848264666,1.0031001430389854,0.0026843061026866183
1325.983929503273,1325.983929503273,0.999549305128659,0.0026833080674059486
1325.9908741798931,1325.9908741798931,1.0013236161778991,0.0026859334316424242
1325.99781885642,1325.99781885642,0.9995428367125152,0.002686512431824166
1326.0047635329474,1326.0047635329474,1.004584414095555,0.0026903720626590922
1326.011708209381,1326.011708209381,0.9958771048856603,0.0026879731284112137
1326.0186528856289,1326.0186528856289,1.0007573596580555,0.002693892694790576
1326.0255975617833,1326.0255975617833,0.9991467807397532,0.002694399764268641
1326.0325422379378,1326.0325422379378,0.9990707698254904,0.002697071605843453
1326.039486913906,1326.039486913906,0.9965837918786885,0.0026973135016811634
1326.046431589781,1326.046431589781,1.001510921484331,0.0027000335370598798
1326.0533762657494,1326.0533762657494,0.9981234457595167,0.0026974867721475324
1326.060320941438,1326.060320941438,1.0044486422094454,0.0026998663788885
1326.067265617034,1326.067265617034,1.0001084755718526,0.002697696290357273
1326.0742102926295,1326.0742102926295,1.0023631713351533,0.002698433634833921
1326.0811549681318,1326.0811549681318,0.9942122521802732,0.0026944395254665855
1326.088099643542,1326.088099643542,1.0014183904704055,0.0026976073253626967
1326.095044318858,1326.095044318858,1.0001412716654676,0.0026991136296874345
1326.1019889940812,1326.1019889940812,1.0016082133748023,0.0026994558652556925
1326.1089336691184,1326.1089336691184,1.0017222942103083,0.0027009997418757873
1326.1158783442481,1326.1158783442481,0.9960023143503165,0.0027003169438054838
1326.1228230190989,1326.1228230190989,1.0047515866075194,0.0027051355356491258
1326.1297676942286,1326.1297676942286,0.9997516984471689,0.00270287948362051
1326.1367123689865,1326.1367123689865,0.9996475743635955,0.0027042731506407066
1326.1436570437438,1326.1436570437438,0.9960685131135125,0.0027037832895504643
1326.150601718036,1326.150601718036,0.9990475904686063,0.0027068694297397804
1326.1575463927934,1326.1575463927934,1.0029665408057913,0.002709540350116454
1326.1644910670852,1326.1644910670852,0.9963817965629896,0.0027076244392286266
1326.1714357415635,1326.1714357415635,0.99817691857066,0.0027112113037012094
1326.178380415855,1326.178380415855,1.0071570294569836,0.0027146178072046646
1326.185325090054,1326.185325090054,0.9997824395011964,0.0027132781683641694
1326.1922697641596,1326.1922697641596,1.0014597912411802,0.0027152017723502076
1326.199214438265,1326.199214438265,0.9974348382486967,0.002712783653509884
1326.2061591121844,1326.2061591121844,1.0014901261477283,0.0027157048670685474
1326.213103786104,1326.213103786104,0.9957915411591337,0.002715033038723517
1326.22004845993,1326.22004845993,1.0030338990209544,0.002719388125300732
1326.2269931336632,1326.2269931336632,0.9996063966764914,0.002716737082033585
1326.233937807303,1326.233937807303,0.9948184196891173,0.0027155244225713334
1326.240882480943,1326.240882480943,1.002956723971258,0.0027213257490944216
1326.247827154303,1326.247827154303,1.0025947212245414,0.002720886371304876
1326.2547718277576,1326.2547718277576,1.0015917191562331,0.002720576639522944
1326.2617165011177,1326.2617165011177,0.9961313712168351,0.002719168666466344
1326.268661174292,1326.268661174292,1.0015877659849561,0.0027221522319709965
1326.2756058475595,1326.2756058475595,0.999482380831657,0.002722573759474931
1326.2825505206406,1326.2825505206406,1.0041371443711236,0.0027250103601851277
1326.289495193722,1326.289495193722,0.999010643931,0.002723022096213385
1326.2964398667095,1326.2964398667095,0.9943876058038856,0.0027213769970460553
1326.3033845395116,1326.3033845395116,0.9993298154993873,0.0027249639797962584
1326.310329212313,1326.310329212313,1.0035322162833142,0.0027262960547879966
1326.3172738852084,1326.3172738852084,0.9959315464273517,0.0027249224743577513
1326.3242185576376,1326.3242185576376,1.002969227970404,0.002728317931423848
1326.331163230439,1326.331163230439,0.9998760334136249,0.0027273379930992684
1326.3381079029614,1326.3381079029614,1.00066183662607,0.002729452103667638
1326.3450525753906,1326.3450525753906,1.0013831689084896,0.002731120836308095
1326.3531083953155,1326.3531083953155,1.0016597712547994,0.0027321158736934963
1326.361719788755,1326.361719788755,0.9995924244868803,0.0027321250420240676
1326.3686644610912,1326.3686644610912,0.9971599845007454,0.0027321154334049398
1326.3756091331477,1326.3756091331477,0.9982257328773517,0.0027343988763396943
1326.3825538052047,1326.3825538052047,1.0001245748936198,0.002737871597734176
1326.389498477168,1326.389498477168,1.0004588016952376,0.002738807563017035
1326.3964431491318,1326.3964431491318,1.001147105926238,0.002741484414197806
1326.403387820909,1326.403387820909,0.9996816905069805,0.002743837973272426
1326.4103324926862,1326.4103324926862,1.0007121076507846,0.002745848178998807
1326.4172771642777,1326.4172771642777,1.0011438781041666,0.0027476368338090864
1326.4242218359616,1326.4242218359616,1.0039813652256224,0.0027496526854996696
1326.4311665075525,1326.4311665075525,0.9971796010168678,0.0027482656096980205
1326.4381111790503,1326.4381111790503,0.9981376161125943,0.0027510496422635507
1326.4450558504554,1326.4450558504554,0.9958417358586242,0.0027527637464936777
1326.4520005218599,1326.4520005218599,0.9973376284374499,0.002754698531077257
1326.4589451930783,1326.4589451930783,1.0024825776944244,0.002757735815266499
1326.465889864297,1326.465889864297,1.00416087512999,0.002761756067578917
1326.4728345354222,1326.4728345354222,1.0029439945184306,0.002763647950286091
1326.4797792064544,1326.4797792064544,1.0016449504883704,0.0027649633593436877
1326.4867238773938,1326.4867238773938,0.9971366604904046,0.0027664902887639415
1326.4936685484258,1326.4936685484258,1.0012867108666896,0.002770313163189346
1326.500613219272,1326.500613219272,0.9981625953417147,0.002770184517647822
1326.5075578900246,1326.5075578900246,0.996834189669841,0.0027704803618295642
1326.5145025607776,1326.5145025607776,1.0011235009118284,0.002776296113810008
1326.5214472314374,1326.5214472314374,0.9976233687034737,0.0027754620924426415
1326.528391902004,1326.528391902004,0.9996265471636241,0.0027797304348835834
1326.5353365725707,1326.5353365725707,1.002262048946424,0.00278325920218193
1326.5422812430438,1326.5422812430438,1.0046355042118864,0.002783699620210094
1326.5492259134246,1326.5492259134246,1.000369363368092,0.002784501701410807
1326.5561705837113,1326.5561705837113,1.0012911345766518,0.0027875271646630013
1326.5631152539056,1326.5631152539056,1.0012938200547408,0.002789268471972867
1326.5700599243787,1326.5700599243787,0.9976146552845101,0.0027898458183582644
1326.5770045944798,1326.5770045944798,0.9999977050738604,0.002791695876149096
1326.583949264581,1326.583949264581,1.0024122042853452,0.002795758480364765
1326.590893934216,1326.590893934216,0.9985123862341257,0.0027976910044448804
1326.5978386043173,1326.5978386043173,0.9997341535663115,0.0027994455300168935
1326.6047832742317,1326.6047832742317,0.9999400979335403,0.002802639405844805
1326.6117279440532,1326.6117279440532,0.9991680591026639,0.0028036477727735715
1326.6186726136887,1326.6186726136887,0.9969473229414595,0.002803566414317687
1326.6256172834164,1326.6256172834164,0.9999053798760376,0.002805761573999422
1326.6325619530521,1326.6325619530521,0.9991719172059774,0.002805376254461749
1326.639506622501,1326.639506622501,1.001290722207634,0.0028098759217813274
1326.6464512920434,1326.6464512920434,1.0019768187424996,0.002812631265096797
1326.6533959614924,1326.6533959614924,0.9989007755588677,0.0028136699631934954
1326.6603406308482,1326.6603406308482,1.000885858028126,0.0028165218736108666
1326.6672853001107,1326.6672853001107,1.0022038969353564,0.002819570334116511
1326.6742299693733,1326.6742299693733,1.0052133241894794,0.00282225820710232
1326.6811746385433,1326.6811746385433,1.0004144852100971,0.0028224728555601617
1326.6881193076194,1326.6881193076194,0.9960012427037637,0.0028221652637824422
1326.69645291053,1326.69645291053,0.9907441949664835,0.002820883598298467
1326.7033975795134,1326.7033975795134,0.9939157857009778,0.0028239742162799956
1326.7103422484033,1326.7103422484033,0.9931434547781921,0.0028259706586677784
1326.7181202774264,1326.7181202774264,0.9934321333392994,0.00282794131166358
1326.7256205197386,1326.7256205197386,1.001382330347546,0.002833948898420812
1326.7325651884425,1326.7325651884425,0.9999439302094139,0.0028355870950513336
1326.739509857053,1326.739509857053,1.0003676852994594,0.002839919494816247
1326.7464545256644,1326.7464545256644,0.9944877101921307,0.002833907382599855
1326.7533991941814,1326.7533991941814,0.9955713056566221,0.0028302414138737684
1326.760343862606,1326.760343862606,0.9939342149252628,0.00282556242310221
1326.7672885309375,1326.7672885309375,0.9947212292911549,0.002822056594212484
1326.774233199362,1326.774233199362,0.9943414890425242,0.002819789213002815
1326.7811778676,1326.7811778676,0.9999456241876079,0.0028187930518864916
1326.7881225358385,1326.7881225358385,1.0049292856474488,0.0028175390924744604
1326.795067203984,1326.795067203984,1.0022442925345372,0.0028140811538018675
1326.8020118721288,1326.8020118721288,1.004073080101689,0.002814395430330084
1326.808956539995,1326.808956539995,0.9995965549974926,0.00281032668668968
1326.8159012082328,1326.8159012082328,1.0036692864033194,0.0028111713931268613
1326.8228458760054,1326.8228458760054,0.9994114470096598,0.0028082841773030345
1326.829790543778,1326.829790543778,0.9980393075565113,0.002807719258306538
1326.8367352115508,1326.8367352115508,0.9959865457220431,0.0028051966012057816
1326.8436798793234,1326.8436798793234,0.998615320314413,0.0028081790765899705
1326.8506245470958,1326.8506245470958,1.0011978589317754,0.0028092621215909004
1326.8575692145891,1326.8575692145891,0.9986843361624962,0.002810558748145629
1326.8645138821755,1326.8645138821755,0.99926872154414,0.0028075626346123644
1326.8714585496691,1326.8714585496691,1.0007915847653794,0.002808811834041503
1326.878403217162,1326.878403217162,1.0032004240701258,0.0028067585100727023
1326.885347884469,1326.885347884469,1.000532343878049,0.0028050511034537202
1326.892292551776,1326.892292551776,0.9998648416117326,0.0028023965939970147
1326.8992372189896,1326.8992372189896,1.0011503842715115,0.0028020681060423876
1326.906181886204,1326.906181886204,0.9984905169347016,0.002797291347502154
1326.9131265534174,1326.9131265534174,0.9998771080554556,0.002795378481104834
1326.9200712204452,1326.9200712204452,1.0017753698699026,0.0027941273037680927
1326.9270158874726,1326.9270158874726,0.99554028893484,0.0027884384538873117
1326.9339605544071,1326.9339605544071,0.9955586502342996,0.0027858678075961454
1326.9409052213414,1326.9409052213414,1.0048489813104051,0.0027862879000886045
1326.9478498881824,1326.9478498881824,1.001667208539034,0.002781982436847714
1326.9547945549311,1326.9547945549311,0.9998838573726287,0.0027786839367503298
1326.961739221679,1326.961739221679,1.0028417640109466,0.0027782499263773906
1326.9686838884274,1326.9686838884274,0.9944293047356215,0.002771083641183313
1326.975628554989,1326.975628554989,0.9974880930596857,0.002769732656276205
1326.9825732214579,1326.9825732214579,0.9987703944132879,0.002768914952123241
1326.98951788802,1326.98951788802,1.0059505720065514,0.0027707426715244086
1326.9964625543955,1326.9964625543955,0.9981504548755193,0.00276542288635963
1327.0034072207711,1327.0034072207711,0.995074250469339,0.0027651800199954336
1327.0103518870535,1327.0103518870535,1.00316912079906,0.0027693809191040204
1327.017296553336,1327.017296553336,1.0021766161483978,0.0027687051637443625
1327.0242412195253,1327.0242412195253,1.000306245159107,0.0027690766882986877
1327.0311858857149,1327.0311858857149,0.9995267902847547,0.0027687454252914435
1327.0381305518113,1327.0381305518113,0.9961365404589028,0.0027686924147269894
1327.045075217907,1327.045075217907,0.9989489822901317,0.0027704378017087234
1327.0520198838174,1327.0520198838174,1.0041914294602035,0.0027740188725075875
1327.058964549727,1327.058964549727,0.9984847934209787,0.0027730511093815324
1327.0670203621085,1327.0670203621085,0.9954675427381321,0.0027727905016862787
1327.074242814543,1327.074242814543,1.0033090479829236,0.002775781552813759
1327.0811874803599,1327.0811874803599,0.9997833217211392,0.0027777911560608426
1327.088132145897,1327.088132145897,0.9967728830013594,0.0027760937800693232
1327.095076811714,1327.095076811714,0.9985544849249157,0.0027788515157182916
