time,time,flux,flux_err
1410.9087257416916,1410.9087257416916,1.0002912225522744,0.0003397696007918563
1410.9163648681756,1410.9163648681756,1.0000253724295287,0.0003101329514397215
1410.923309528756,1410.923309528756,1.0001635377083722,0.0003101735762733171
1410.930254189289,1410.930254189289,0.9996791246130272,0.0003101001150404781
1410.9371988497292,1410.9371988497292,0.9995717329434946,0.00031006014773671324
1410.9441435101694,1410.9441435101694,1.000025324736992,0.0003101096496359805
1410.951088170796,1410.951088170796,1.0002649201182798,0.0003100964809752226
1410.9580328312832,1410.9580328312832,1.000162822320322,0.0003101521665685312
1410.9663664238108,1410.9663664238108,1.0000063669536505,0.0003099564234349244
1410.9824780360323,1410.9824780360323,1.0011327057097654,0.00030999539945541935
1410.989978269308,1410.989978269308,0.9999350043818952,0.000309979301514486
1410.9997007939241,1410.9997007939241,0.9998283007696482,0.00030977830877365663
1411.009423318541,1411.009423318541,1.0000359012114541,0.0003100014591926776
1411.0163679789807,1411.0163679789807,0.9997553491786217,0.000309927626506453
1411.0233126394214,1411.0233126394214,1.0000175415357317,0.00030995737686177413
1411.0302572998153,1411.0302572998153,1.0003610630897302,0.0003100204460889216
1411.0372019600686,1411.0372019600686,1.0003226507072545,0.0003099755607008429
1411.0441466205093,1411.0441466205093,1.0004038237375819,0.0003100181515167008
1411.0522024263869,1411.0522024263869,1.0002271056967242,0.0003099676041225511
1411.0594248731054,1411.0594248731054,1.0004797296702137,0.00031001589315481066
1411.0663695333592,1411.0663695333592,0.9996448380250993,0.0003099210128176749
1411.073314193613,1411.073314193613,0.9993474048616318,0.000309896965581166
1411.0802588538209,1411.0802588538209,1.0001021128316823,0.0003099524862889307
1411.0872035139814,1411.0872035139814,0.9996729388588838,0.00030987905214751584
1411.0941481741422,1411.0941481741422,1.0001446779181762,0.0003099992538537877
1411.1010928343035,1411.1010928343035,0.9999668400293379,0.00031001767238805636
1411.1080374943708,1411.1080374943708,1.0002955397712667,0.00030995408813366
1411.114982154439,1411.114982154439,0.9995030829271038,0.0003098699076363358
1411.1219268145062,1411.1219268145062,1.0006994658098323,0.0003100580802177073
1411.1288714745274,1411.1288714745274,1.0001345509945319,0.00030985299902092935
1411.135816134502,1411.135816134502,0.999826560511005,0.00030992834937318056
1411.1427607944297,1411.1427607944297,0.9999674427185656,0.00030989948061146066
1411.1497054543586,1411.1497054543586,1.0005278420393313,0.00030997806310957267
1411.1566501142393,1411.1566501142393,0.9999835317513096,0.00030986490501797384
1411.1635947740747,1411.1635947740747,0.9999548930539206,0.0003099245058884855
1411.1705394338164,1411.1705394338164,0.9996190329900385,0.0003097872692900302
1411.1774840936043,1411.1774840936043,1.0001297696041014,0.0003099478079035657
1411.184428753347,1411.184428753347,0.999737588706263,0.00030985733185165436
1411.1913734129948,1411.1913734129948,1.0005048840758113,0.00030999837650548805
1411.1983180726438,1411.1983180726438,1.0001063262643097,0.0003099601266994014
1411.2052627322923,1411.2052627322923,1.000283126882874,0.00030992667255213267
1411.2122073918472,1411.2122073918472,1.0000383896000136,0.0003098985484790736
1411.219152051357,1411.219152051357,1.0000838419818971,0.00030986763507614013
1411.2260967108189,1411.2260967108189,0.9995306096974442,0.00030985051314898443
1411.2330413702816,1411.2330413702816,1.0002923132625559,0.0003098537461863946
1411.239986029651,1411.239986029651,0.9995656144176859,0.00030983413301926296
1411.2469306890664,1411.2469306890664,1.0011371749939142,0.00031010582587451334
1411.253875348343,1411.253875348343,0.9999596917579547,0.0003098898985892555
1411.2608200076188,1411.2608200076188,1.0002162662358896,0.0003099186464220836
1411.267764666709,1411.267764666709,1.0001997738683488,0.00030993257781767463
1411.2747093259381,1411.2747093259381,0.999772577175805,0.00030980362743402866
1411.2816539850278,1411.2816539850278,0.999376117906273,0.00030974748134446795
1411.2885986440717,1411.2885986440717,1.0000425713464831,0.00030986104925125177
1411.2955433031143,1411.2955433031143,1.0007585651419906,0.0003100042165005265
1411.3024879620184,1411.3024879620184,0.9994710468385304,0.0003098096822889658
1411.309432621015,1411.309432621015,0.9998568347589254,0.0003099155806653354
1411.316377279825,1411.316377279825,1.000320814212962,0.00030995095151790714
1411.3233219386361,1411.3233219386361,0.9999882131758637,0.000309913024350819
1411.3302665973995,1411.3302665973995,0.9997342297539941,0.0003098373486180848
1411.337211256117,1411.337211256117,0.9999271148333488,0.00030982293799368735
1411.3441559147413,1411.3441559147413,1.000325068700846,0.0003099659409082544
1411.3511005733653,1411.3511005733653,1.0003883819013981,0.0003100031960961677
1411.3580452318968,1411.3580452318968,0.9999313753529755,0.0003099069193656795
1411.364989890381,1411.364989890381,0.9997098898819712,0.00030981436816190715
1411.3719345487727,1411.3719345487727,0.9996664913386238,0.00030989376822121233
1411.3788792071637,1411.3788792071637,1.0002194341500046,0.00031001856942282303
1411.3858238655084,1411.3858238655084,0.999833964229149,0.0003098891698153332
1411.3927685238068,1411.3927685238068,1.0001457156245435,0.00030992755387057656
1411.3997131819647,1411.3997131819647,1.000123513340324,0.00030985117182050345
1411.4066578400775,1411.4066578400775,0.999609523225749,0.0003098880993325992
1411.4136024981892,1411.4136024981892,0.9999386403348322,0.0003099022281116564
1411.4205471563012,1411.4205471563012,1.0000692249046648,0.00030984919449597017
1411.4274918141805,1411.4274918141805,1.000683232533056,0.00030994185125490694
1411.4344364721521,1411.4344364721521,0.9997664604954541,0.00030980286396479107
1411.4413811300321,1411.4413811300321,1.000330809908395,0.0003098315241578394
1411.4483257878176,1411.4483257878176,1.000009466903168,0.0003098240725488756
1411.4552704455568,1411.4552704455568,0.9998231692527323,0.0003098229011362137
1411.4622151032036,1411.4622151032036,0.9998424787925518,0.000309859563461167
1411.4691597608028,1411.4691597608028,0.9999613410022528,0.0003097869256225337
1411.4761044183567,1411.4761044183567,1.0003531012581008,0.0003099094187439888
1411.4830490758627,1411.4830490758627,0.9998635914150966,0.00030982927105758335
1411.4899937333232,1411.4899937333232,1.0001904758748394,0.00030993549250717714
1411.49693839069,1411.49693839069,1.0002359193605068,0.00030997630821096446
1411.5038830479632,1411.5038830479632,0.9999547793757955,0.00030989238319950753
1411.5108277052375,1411.5108277052375,0.9998989751192722,0.00030988801883174343
1411.5177723624179,1411.5177723624179,1.0003591209934155,0.0003099075547640437
1411.524717019552,1411.524717019552,1.0000248120905577,0.0003099176635125548
1411.5316616765465,1411.5316616765465,1.0000368890680287,0.0003099576706076718
1411.538606333494,1411.538606333494,0.9998866155601066,0.00030988829450410884
1411.5455509904425,1411.5455509904425,1.0000632022558702,0.00030983837018514415
1411.5524956473898,1411.5524956473898,0.9998125364271695,0.0003098502749678194
1411.5594403041055,1411.5594403041055,1.0000419690798394,0.0003099265196138683
1411.5663849608663,1411.5663849608663,1.0001089269563315,0.00030988715661051314
1411.573329617535,1411.573329617535,1.0004725493009112,0.00030995850773017316
1411.5802742741566,1411.5802742741566,1.0002848451332902,0.00030991471530337496
1411.5872189306385,1411.5872189306385,1.0006353884848167,0.0003100315981555415
1411.5941635871682,1411.5941635871682,0.9999961966897422,0.00030994148912687495
1411.6011082435095,1411.6011082435095,0.999724059355818,0.0003099160923665711
1411.6080528998527,1411.6080528998527,0.9996485961238888,0.0003099005612358275
1411.614997556102,1411.614997556102,1.0002691495403586,0.0003099847235089238
1411.6219422123042,1411.6219422123042,1.0000345188153783,0.0003099695117392381
1411.6288868684146,1411.6288868684146,1.002984008176283,0.00031037778411843926
1411.6358315245236,1411.6358315245236,1.0000942212645672,0.0003100127241790955
1411.642776180494,1411.642776180494,1.00030324714808,0.0003099716815453203
1411.6497208364638,1411.6497208364638,0.9993480210343613,0.00030992744191153936
1411.6566654922935,1411.6566654922935,0.9995523791988031,0.00030989941392298826
1411.6636101480776,1411.6636101480776,1.0000769516737589,0.00030995108550861206
1411.6705548038608,1411.6705548038608,1.0000967081013665,0.00030992996400975307
1411.6774994594125,1411.6774994594125,1.000064388481006,0.00030993833037496355
1411.6844441150095,1411.6844441150095,1.0004335522968009,0.00030993619426580594
1411.6913887705603,1411.6913887705603,1.0001833618608706,0.0003099430259035737
1411.6983334259717,1411.6983334259717,0.9996546389435415,0.00030991896411287776
1411.705278081336,1411.705278081336,1.000062779317193,0.00030993359020049647
1411.7122227366544,1411.7122227366544,1.0000837390098956,0.0003098868560464011
1411.7191673918321,1411.7191673918321,0.9996557482601223,0.0003099449907633413
1411.7261120470575,1411.7261120470575,0.9998863614117297,0.0003098759865556926
1411.7330567021424,1411.7330567021424,0.9998542667536778,0.00030987640084951694
1411.740001357181,1411.740001357181,1.0001309159524514,0.0003098636753359194
1411.7469460120801,1411.7469460120801,1.000316892489344,0.000309939274576316
1411.7538906669786,1411.7538906669786,1.0001249082449744,0.00030988952193811896
1411.7608353218316,1411.7608353218316,0.9997187663112396,0.00030987246173064346
1411.7677799764506,1411.7677799764506,1.0002127253535469,0.0003099622555106367
1411.7747246313033,1411.7747246313033,0.9996908323900833,0.00030979796238600433
1411.7816692857832,1411.7816692857832,1.0001237879319718,0.0003098883124088421
1411.788613940309,1411.788613940309,1.0002690154454892,0.000309892553627933
1411.7955585947432,1411.7955585947432,0.999886005846732,0.0003098988155085946
1411.8025032491755,1411.8025032491755,1.000164599529476,0.00030999957277447454
1411.8094479034694,1411.8094479034694,1.000101282740035,0.0003098755791480625
1411.8163925577164,1411.8163925577164,0.9996660582255039,0.0003098800789162005
1411.8233372118234,1411.8233372118234,1.000317227845271,0.00030994841448713195
1411.830281865978,1411.830281865978,0.9998875852645874,0.00030995107555094813
1411.8372265199446,1411.8372265199446,0.9999980988449646,0.0003099351687731999
1411.8441711739129,1411.8441711739129,0.9999003829125617,0.0003099336306868371
1411.8511158277875,1411.8511158277875,0.9992961226521733,0.0003098880179420474
1411.8580604815684,1411.8580604815684,0.9998624374550626,0.000309952548257765
1411.8650051353034,1411.8650051353034,1.0003864851309063,0.00031000402678813454
1411.871949788991,1411.871949788991,1.000254896300797,0.00031000108927605586
1411.878894442447,1411.878894442447,1.0000512527537897,0.00030993517310951436
1411.8858390961348,1411.8858390961348,1.0000243171717418,0.00030995357033387287
1411.8927837494512,1411.8927837494512,1.000129919637062,0.0003100060461226174
1411.8997284028126,1411.8997284028126,1.0002892572600905,0.00031000201896577424
1411.906673056129,1411.906673056129,0.9999272327111164,0.00030992622855455937
1411.9136177093515,1411.9136177093515,0.999911657691149,0.00030994134632445793
1411.9205623624805,1411.9205623624805,0.9998363485319773,0.0003098786155443939
1411.9275070155174,1411.9275070155174,0.9997504543466531,0.00030992124485245716
1411.9344516685064,1411.9344516685064,1.0000872573555322,0.00030996364191467247
1411.9413963214033,1411.9413963214033,0.9996965894592114,0.00030989122924723075
1411.948340974253,1411.948340974253,1.000039542547013,0.0003099571200698876
1411.9552856270561,1411.9552856270561,1.0003217096366623,0.000310017461469472
1411.9622302797204,1411.9622302797204,1.0001328990707123,0.00030999150297140223
1411.9691749323836,1411.9691749323836,0.9996277909634577,0.00030991531652187107
1411.9761195849082,1411.9761195849082,1.000466253118124,0.0003099553760234345
1411.9830642373388,1411.9830642373388,0.9998014097817359,0.0003098630563354606
1411.9900088898169,1411.9900088898169,0.9995119788640586,0.00030985875577553
1411.996953542108,1411.996953542108,1.0007229169291851,0.00031000301944994057
1412.0038981943987,1412.0038981943987,1.000268503506836,0.0003100345408527527
1412.0108428464575,1412.0108428464575,0.9998827617063949,0.00030993179814587095
1412.0177874986086,1412.0177874986086,0.9998868850530114,0.0003099597099298937
1412.0247321506674,1412.0247321506674,1.000534251878507,0.00031006588451546304
1412.0316768025393,1412.0316768025393,0.9998546909711781,0.00030991751479903743
1412.0386214544578,1412.0386214544578,0.9994593462820879,0.0003098324310773329
1412.045566106237,1412.045566106237,0.9997645068223939,0.00030979498640002206
1412.0525107579228,1412.0525107579228,1.0000296735549288,0.00030993920276791814
1412.0594554096092,1412.0594554096092,0.9997090285233409,0.00030987278003186185
1412.0664000612012,1412.0664000612012,0.9999226074966412,0.00030991819072456885
1412.0733447127018,1412.0733447127018,0.999952655417391,0.000309994892967712
1412.0802893641073,1412.0802893641073,1.0003236448725452,0.00030994360478996385
1412.0872340154674,1412.0872340154674,1.0004936181019963,0.00030992343669657835
1412.0941786667343,1412.0941786667343,1.0002183524498067,0.00030991913282453455
1412.101123317861,1412.101123317861,0.9999599212385035,0.00030989323488149825
1412.1080679689887,1412.1080679689887,0.9996977363430031,0.0003098554138892981
1412.1150126201153,1412.1150126201153,0.9993340406631207,0.0003098832437571122
1412.1219572710563,1412.1219572710563,1.0000797648501125,0.00030990802440025505
1412.1289019219505,1412.1289019219505,1.0000879976862147,0.0003098923186411563
1412.1358465727983,1412.1358465727983,0.9999214044262479,0.00030988965225234056
1412.1427912235529,1412.1427912235529,1.0004788934040891,0.00030991018124163573
1412.1497358741674,1412.1497358741674,1.000062484987128,0.0003099234990927483
1412.1566805248294,1412.1566805248294,1.000057206285541,0.000309875936762049
1412.1636251752575,1412.1636251752575,0.9999165517415263,0.00030988605348234035
1412.1705698257329,1412.1705698257329,0.9995775655357484,0.00030985834759712533
1412.1775144761145,1412.1775144761145,0.9999215940881738,0.0003099083292084146
1412.1844591264037,1412.1844591264037,1.0002371820545326,0.0003099879836715422
1412.1914037765994,1412.1914037765994,1.000034768783988,0.000309937035877188
1412.1983484267482,1412.1983484267482,1.000209003838514,0.00030996097792556986
1412.2052930768518,1412.2052930768518,1.0004897160866093,0.0003100166897619045
1412.2122377268138,1412.2122377268138,0.9999336274658536,0.0003099635421979449
1412.2191823767776,1412.2191823767776,0.9998519161437811,0.00030990971007376804
1412.2261270265071,1412.2261270265071,0.9992295613297226,0.0003098487849230653
1412.2330716763304,1412.2330716763304,1.0001737271320557,0.00031001755266713184
1412.240016326014,1412.240016326014,0.9998292497082428,0.00030994007402515713
1412.2469609756038,1412.2469609756038,1.000299799256035,0.0003099939904462282
1412.2547389830042,1412.2547389830042,0.9999366584373073,0.0003099266270626927
1412.2633503483992,1412.2633503483992,1.0002396152451456,0.00030975239565632145
1412.2733506434147,1412.2733506434147,0.999896418687434,0.000309822029268133
1412.2847398681436,1412.2847398681436,1.0004869194920425,0.00030981511971454477
1412.292795661122,1412.292795661122,0.9998091610130277,0.0003097597935702852
1412.2997403101072,1412.2997403101072,0.9997923248111273,0.00030991059244439096
1412.3066849590923,1412.3066849590923,0.9997899793485872,0.00030990666242592345
1412.3136296078908,1412.3136296078908,1.000143713525301,0.0003099249640094115
1412.3205742566897,1412.3205742566897,0.999669801704421,0.00030990523821639845
1412.327518905488,1412.327518905488,1.000068846493761,0.0003098591115516283
1412.3344635541475,1412.3344635541475,0.9999569222368209,0.00030997188867791064
1412.3414082027134,1412.3414082027134,0.9999278518011696,0.000309904976510205
1412.3483528511865,1412.3483528511865,1.0002748716875791,0.0003098453288655044
1412.3552974996126,1412.3552974996126,1.0003841432572806,0.0003099245833067366
1412.3622421479924,1412.3622421479924,0.9999625217464481,0.00030982990697384094
1412.3691867962323,1412.3691867962323,1.000313356272911,0.00030996402693835994
1412.3761314444723,1412.3761314444723,0.9998159856972737,0.00030993440994060717
1412.3830760925262,1412.3830760925262,0.9999582863094869,0.0003099306768017342
1412.390020740579,1412.390020740579,0.9994570024301576,0.0003098879634388841
1412.3969653885406,1412.3969653885406,0.9999113603128718,0.00030996755024587504
1412.403910036454,1412.403910036454,1.000083478175893,0.0003099508690155968
1412.4108546842751,1412.4108546842751,0.9996157567648268,0.00030983947515072043
1412.4177993319568,1412.4177993319568,1.0001369444092068,0.0003098779802792354
1412.4247439795906,1412.4247439795906,1.0008927292122174,0.00031008250474037557
1412.4316886272259,1412.4316886272259,0.9998020178216829,0.00030995864154580334
1412.4386332747667,1412.4386332747667,1.0000421021780899,0.0003099988596028133
1412.4455779221692,1412.4455779221692,0.9997708736775976,0.00030987694585865003
1412.4525225695238,1412.4525225695238,0.9998955195955738,0.00030991372946829814
1412.4594672168328,1412.4594672168328,0.9998198543979988,0.0003098384302071801
1412.466411864048,1412.466411864048,1.0000267080760215,0.0003098873885288596
1412.4733565111242,1412.4733565111242,0.9999714137186901,0.00030988494378886625
1412.4803011581532,1412.4803011581532,1.0002718255268426,0.00030970891809261204
1412.487245805182,1412.487245805182,1.0003884912094028,0.00031000062574932784
1412.4941904520722,1412.4941904520722,0.9999221826024005,0.00030991440656364603
1412.5011350988684,1412.5011350988684,0.9993114751422822,0.0003097584269241611
1412.5080797456656,1412.5080797456656,0.9999078435916464,0.0003098810814402531
1412.5150243923217,1412.5150243923217,0.9999965223504896,0.0003099421480663593
1412.5219690389786,1412.5219690389786,1.0006627742485723,0.00031007020181959
1412.5289136854956,1412.5289136854956,0.9998895133853025,0.00031000574411989425
1412.535858331966,1412.535858331966,1.0004078905594949,0.0003100142235956633
1412.5428029782038,1412.5428029782038,0.9996647244538724,0.0003099486448774741
1412.5497476245341,1412.5497476245341,0.9997467544315672,0.0003099185109836128
1412.5566922707724,1412.5566922707724,0.9995534708719548,0.0003098822662208365
1412.5636369169165,1412.5636369169165,0.9997653794014998,0.0003099059075316649
1412.570581562968,1412.570581562968,0.9997527200539263,0.00030993278005557755
1412.5775262089726,1412.5775262089726,1.000650524232787,0.00031005318079139116
1412.5844708548848,1412.5844708548848,1.000350111006923,0.000309997128912671
1412.5914155007497,1412.5914155007497,0.9999737880930338,0.0003099657792834348
1412.5983601464748,1412.5983601464748,1.0001168917009213,0.00030996818331003467
1412.6053047921541,1412.6053047921541,1.000421062956995,0.00030996115277765824
1412.6122494377857,1412.6122494377857,0.9999117633198672,0.0003099142793862908
1412.6191940833257,1412.6191940833257,0.9998195629736522,0.00030992339993563976
1412.6261387288178,1412.6261387288178,0.9995188872500552,0.00030972794213082337
1412.6330833741708,1412.6330833741708,1.0001218017333868,0.0003099424946406525
1412.640028019477,1412.640028019477,1.0000998156712628,0.000309990062751564
1412.646972664737,1412.646972664737,1.0002732505141334,0.0003099605357088243
1412.653917309857,1412.653917309857,0.9997201045190451,0.00030990001688651475
1412.6608619549302,1412.6608619549302,0.9998291981967867,0.0003099001665133174
1412.667806599911,1412.667806599911,0.9999719208608004,0.0003099611823632485
1412.6747512448444,1412.6747512448444,0.9998541990270855,0.0003099221444035983
1412.681695889732,1412.681695889732,0.9999928008365442,0.00030981195414182973
1412.688640534479,1412.688640534479,1.0004586553989907,0.00030995990053512786
