time,time,flux,flux_err
1570.6838809322744,1570.6838809322744,0.9945285032610913,0.006186852081854484
1570.6922145406663,1570.6922145406663,0.9949938222541271,0.006158675664339756
1570.700548149214,1570.700548149214,0.9949963958715724,0.006141929340838951
1570.7081872904246,1570.7081872904246,1.0010604505010996,0.005583205386931347
1570.715131964359,1570.715131964359,0.9925759641735056,0.0055606958819248474
1570.7220766382932,1570.7220766382932,0.9972426794506989,0.005547721988630851
1570.7290213123206,1570.7290213123206,0.9927299050656406,0.005531411226302028
1570.735965986162,1570.735965986162,0.9944700406539335,0.005500784503235506
1570.74291066047,1570.74291066047,0.9990431444056218,0.005480213762926966
1570.749855334311,1570.749855334311,0.9946384141588916,0.005455883064341595
1570.7568000086183,1570.7568000086183,0.9890277449537928,0.005423329911752425
1570.7637446829247,1570.7637446829247,1.0016787744057674,0.005409375980454663
1570.7706893572317,1570.7706893572317,0.9988137744622885,0.005379072623026051
1570.7776340310743,1570.7776340310743,0.9998833343226913,0.005355449344599088
1570.7845787056601,1570.7845787056601,0.9972160713061861,0.005339764502279743
1570.7915233801534,1570.7915233801534,0.9982642664799368,0.005317088562053095
1570.79846805446,1570.79846805446,0.9970407893946913,0.005297541383310239
1570.805412728767,1570.805412728767,1.0025949278252206,0.005277471202911056
1570.8123574031683,1570.8123574031683,0.9981684120662605,0.005265172093578957
1570.8193020778476,1570.8193020778476,0.9938579047984522,0.005249314562750011
1570.8262467522472,1570.8262467522472,0.9927264754557699,0.005238783051332645
1570.8331914269268,1570.8331914269268,1.0005214299108194,0.0052147505936749935
1570.840136101513,1570.840136101513,1.0011621486983031,0.005199016771018698
1570.8470807761005,1570.8470807761005,1.000385516910478,0.005185532835830276
1570.85402545078,1570.85402545078,1.0002975122818336,0.005174357919371817
1570.8609701255523,1570.8609701255523,1.003954777078271,0.005167527829017698
1570.8679148003248,1570.8679148003248,0.9966600738246054,0.005156955314485426
1570.8748594750973,1570.8748594750973,1.0015442137432715,0.005147269935461996
1570.8829152979463,1570.8829152979463,0.9935126592694183,0.005134420458180395
1570.8901377596912,1570.8901377596912,0.9947259762362279,0.005127556014928721
1570.8970824345565,1570.8970824345565,0.997431630083191,0.0051175467430666
1570.9040271095153,1570.9040271095153,0.9969523960765845,0.005107038334916206
1570.9109717844744,1570.9109717844744,0.9993469749757204,0.005108930786995613
1570.917916459341,1570.917916459341,0.9981059788307703,0.005084408636918373
1570.924861134486,1570.924861134486,0.9986542203378205,0.0050768347693685035
1570.9318058093518,1570.9318058093518,1.004218473207441,0.005060487787462553
1570.9387504844967,1570.9387504844967,1.0008513567108208,0.005047589228372911
1570.945695159549,1570.945695159549,0.9999522695281945,0.005034149249463521
1570.9526398346018,1570.9526398346018,0.9984341947311911,0.00502787806874206
1570.959584509747,1570.959584509747,0.9976954391392739,0.005007395921722791
1570.9665291849847,1570.9665291849847,0.9996629722060517,0.00499603394581471
1570.9734738601303,1570.9734738601303,1.0023406044639134,0.004979065881551294
1570.9804185352752,1570.9804185352752,0.996670356814261,0.004967828290097862
1570.987363210514,1570.987363210514,0.9978441803030377,0.004953471999657237
1570.9943078857527,1570.9943078857527,1.0025809071158824,0.004950865775770601
1571.0012525609905,1571.0012525609905,1.0009330418758289,0.004935484984207904
1571.0081972363218,1571.0081972363218,1.003277787194559,0.0049219030300869234
1571.0151419115602,1571.0151419115602,1.0020865731779807,0.004907254572567151
1571.0220865869856,1571.0220865869856,1.001227754704789,0.004906488172173
1571.0290312623172,1571.0290312623172,0.9984994074843921,0.0048975310056859666
1571.0359759376483,1571.0359759376483,1.0041419213000822,0.004875307430413993
1571.0429206129793,1571.0429206129793,0.9969815294233879,0.004860631672994194
1571.049865288497,1571.049865288497,0.9979240036332404,0.0048560556512871975
1571.0568099639224,1571.0568099639224,0.9974325413466101,0.004844768850138936
1571.0637546394403,1571.0637546394403,1.0024935341431207,0.004834626628029221
1571.0706993147717,1571.0706993147717,0.9978247235455351,0.00482434995750623
1571.0776439902893,1571.0776439902893,1.0067658439389078,0.004823070136149942
1571.0845886658067,1571.0845886658067,0.9963726361642117,0.004807961194641585
1571.0915333413247,1571.0915333413247,1.0061999507826536,0.004796052203805202
1571.0984780167498,1571.0984780167498,0.9978335072310868,0.00478643447000109
1571.1054226922674,1571.1054226922674,1.0011345704307957,0.004777665952780407
1571.1123673678783,1571.1123673678783,0.9987212318147132,0.0047696440098674575
1571.1193120433954,1571.1193120433954,0.9943254711330031,0.004752152084858866
1571.1262567190065,1571.1262567190065,1.0000570071118107,0.004747216104902225
1571.133201394618,1571.133201394618,0.9877542981795863,0.004735199622270551
1571.1401460701359,1571.1401460701359,0.998086336778325,0.0047301732738511204
1571.1470907457467,1571.1470907457467,1.0026322848478757,0.004726068154936208
1571.1540354214503,1571.1540354214503,0.9936095983536507,0.004708284067874799
1571.1609800970612,1571.1609800970612,0.9992854803165143,0.004693526091021326
1571.1679247726727,1571.1679247726727,0.9982871234201951,0.004695268959052065
1571.174869448377,1571.174869448377,1.0054689456575236,0.004681448016314801
1571.1818141240806,1571.1818141240806,0.9990908826900664,0.0046755864497080276
1571.1887587996912,1571.1887587996912,1.0042549798351232,0.00466078003874492
1571.195703475395,1571.195703475395,1.0004258806462656,0.004651827788755459
1571.2026481510998,1571.2026481510998,0.9982452324794637,0.004646546906866951
1571.209592826804,1571.209592826804,0.9960897308818261,0.004637945667616599
1571.216537502508,1571.216537502508,0.998623520071428,0.004628430567029313
1571.2234821782115,1571.2234821782115,0.9967210932663482,0.004631597363715072
1571.230426853915,1571.230426853915,0.9976378052530286,0.0046214182412708206
1571.2373715297128,1571.2373715297128,1.0055387210746791,0.004616622893427404
1571.2443162054174,1571.2443162054174,1.000726862212114,0.004605741505542118
1571.2512608812142,1571.2512608812142,1.0008383192614199,0.0046067192657011325
1571.258205556918,1571.258205556918,1.000927673454026,0.004601712108243821
1571.2651502327146,1571.2651502327146,0.9987311293394987,0.004592065320135224
1571.272094908512,1571.272094908512,0.9958653802767966,0.004584235450947141
1571.279039584217,1571.279039584217,1.0020418568578167,0.004578629385310884
1571.2859842600137,1571.2859842600137,0.9988728767407642,0.0045763886800038065
1571.2929289357178,1571.2929289357178,1.0030067830790335,0.004569610337792601
1571.2998736116074,1571.2998736116074,1.0013310394736592,0.0045677532426878125
1571.3068182873117,1571.3068182873117,0.9965884166711391,0.004557524636187308
1571.3137629632024,1571.3137629632024,1.0015925888155646,0.004552034954404095
1571.3207076389067,1571.3207076389067,0.9974180631096583,0.00455112349442141
1571.3276523147038,1571.3276523147038,0.9978903404430607,0.0045386871634910805
1571.3345969905008,1571.3345969905008,1.0003313648610948,0.004531411674294373
1571.3415416662976,1571.3415416662976,1.004213866201934,0.004523117548723368
1571.3484863420947,1571.3484863420947,1.0021346443695607,0.0045225922721655815
1571.3554310178927,1571.3554310178927,0.9971692847328821,0.004511383188698969
1571.3623756936897,1571.3623756936897,1.0059323953391663,0.004509192918890574
1571.3693203693936,1571.3693203693936,0.9986441618238076,0.004504677217368541
1571.3762650452834,1571.3762650452834,0.9964592272488485,0.004487585514533968
1571.3832097209875,1571.3832097209875,0.9991263768824166,0.004480862242750696
1571.3901543968782,1571.3901543968782,0.9995626392101358,0.0044755053049815256
1571.3970990726757,1571.3970990726757,0.9984075719535939,0.004466810795271005
1571.4040437483795,1571.4040437483795,1.000270919285906,0.004454356544391988
1571.4109884242691,1571.4109884242691,1.003392754207346,0.0044558417293322624
1571.4179330999732,1571.4179330999732,0.9954276111621232,0.004439449840705274
1571.4248777757703,1571.4248777757703,1.0040798184251336,0.004438823580015391
1571.4318224515682,1571.4318224515682,1.001379673986046,0.004437942659530425
1571.4387671273655,1571.4387671273655,1.000353013908236,0.004428815769994808
1571.445711803069,1571.445711803069,0.9978187636591258,0.004430173082467284
1571.4526564788662,1571.4526564788662,1.002021544393243,0.0044302211940531805
1571.4596011546632,1571.4596011546632,0.9990585460184189,0.004422000439931418
1571.4665458303673,1571.4665458303673,1.000492034539443,0.004436981753210736
1571.473490506165,1571.473490506165,0.9974149733380397,0.004429744611338816
1571.4804351819619,1571.4804351819619,0.9988053512596528,0.004435378651483176
1571.4873798576657,1571.4873798576657,1.0003466827666574,0.004427967251078183
1571.4943245333698,1571.4943245333698,0.9984725705257873,0.004438004834452208
1571.5012692091668,1571.5012692091668,0.9994088625378652,0.004427699497882418
1571.5082138848716,1571.5082138848716,0.9970958324728214,0.004423991172444434
1571.5151585605756,1571.5151585605756,0.9981609020303367,0.004420364347875879
1571.5221032362792,1571.5221032362792,1.0007650531507746,0.004428679014461412
1571.5290479119828,1571.5290479119828,0.9992357945386999,0.004418547789973729
1571.535992587687,1571.535992587687,0.9995969362036596,0.004415191020615926
1571.5429372633912,1571.5429372633912,1.002869875046523,0.004409341774585394
1571.5498819390957,1571.5498819390957,1.0026998783351724,0.004412106309896273
1571.556826614706,1571.556826614706,1.0036480551392881,0.004411059352737084
1571.5637712904102,1571.5637712904102,0.9988498506876752,0.004410611852960553
1571.5707159660208,1571.5707159660208,0.9979178201422915,0.004410490777739924
1571.5776606417244,1571.5776606417244,0.9985126522905567,0.004408928287273
1571.5846053173366,1571.5846053173366,1.0006405288735871,0.004415605433726533
1571.5915499929467,1571.5915499929467,0.9981205027344817,0.00440639256723448
1571.5984946686508,1571.5984946686508,0.9991874858562916,0.00441255562145345
1571.6054393441686,1571.6054393441686,0.9977400699365827,0.004407617565654104
1571.612384019779,1571.612384019779,1.000283194490597,0.004404737043364725
1571.6193286953903,1571.6193286953903,1.0024450886276663,0.004408347267904938
1571.6262733710018,1571.6262733710018,1.0006904056364079,0.004403601897705502
1571.6332180464262,1571.6332180464262,1.001736313153185,0.004409032022775678
1571.64016272213,1571.64016272213,0.9995068206810807,0.004401355575784952
1571.6471073976475,1571.6471073976475,1.0039236807589993,0.00440859117416421
1571.6540520730719,1571.6540520730719,0.9988430300103003,0.004401813391276826
1571.6609967485902,1571.6609967485902,1.0024586165628075,0.004398061029279131
1571.6679414242947,1571.6679414242947,0.9995210764420637,0.004399380978340983
1571.674886099719,1571.674886099719,0.9977499316435235,0.004404893196778056
1571.6818307752367,1571.6818307752367,0.9951361004970348,0.004405150666883611
1571.6887754506606,1571.6887754506606,1.0030971659628567,0.004402602685080486
1571.6957201261782,1571.6957201261782,1.0054087266531666,0.004404361690774588
1571.7026648015112,1571.7026648015112,0.99931771482595,0.00440041295017716
1571.7096094768422,1571.7096094768422,1.0001935413346739,0.004400689006776356
1571.7165541523598,1571.7165541523598,1.0013780135516257,0.004394482313993636
1571.723498827784,1571.723498827784,0.9975235929600433,0.004391104030211939
1571.730443503115,1571.730443503115,0.9927227199847712,0.004389647474228096
1571.7373881785402,1571.7373881785402,1.0018592225111533,0.00438271301391347
1571.7443328538725,1571.7443328538725,1.002646678458961,0.004374650314655716
1571.7512775292037,1571.7512775292037,1.0001067574378821,0.004378218102653502
1571.7582222044418,1571.7582222044418,0.9993527075432898,0.00436956491838604
1571.765166879773,1571.765166879773,1.0061049920579106,0.004370901121543786
1571.7721115551044,1571.7721115551044,0.9936637961227761,0.004366502630977755
1571.779056230436,1571.779056230436,1.00368199637934,0.004358358483938015
1571.786000905675,1571.786000905675,1.0012554590731493,0.004348594765916911
1571.792945580913,1571.792945580913,1.0027994517169594,0.0043449920370585106
1571.7998902560582,1571.7998902560582,0.9961749431456999,0.004341186506998125
1571.8068349312966,1571.8068349312966,0.9961138050120487,0.004338956577601249
1571.8137796065344,1571.8137796065344,0.9949491015977655,0.004337149840480852
1571.8207242816802,1571.8207242816802,1.005492730713042,0.004330429171130104
1571.8276689568258,1571.8276689568258,0.9995074712282748,0.004327298420904969
1571.8346136319708,1571.8346136319708,1.0020745840681395,0.004326359593356975
1571.8415583070228,1571.8415583070228,1.000836395131809,0.004326056957504923
1571.8485029821675,1571.8485029821675,0.9993517504651311,0.004328050196881634
1571.8554476572194,1571.8554476572194,1.0022374781595023,0.004324726079987398
1571.8623923322725,1571.8623923322725,1.0017380416484443,0.004327051396530646
1571.8693370074175,1571.8693370074175,1.0040135425744783,0.004331358698896839
1571.8762816823762,1571.8762816823762,1.0000663827990224,0.0043262073450101544
1571.8832263574284,1571.8832263574284,0.9964686080721614,0.004342425273340057
1571.8901710322937,1571.8901710322937,0.9945740558271353,0.004337145200236382
1571.8971157073458,1571.8971157073458,0.9955419953303309,0.004331138598663702
1571.9040603823055,1571.9040603823055,0.9958536953812993,0.004337702256131088
1571.9110050571712,1571.9110050571712,1.0031138886967905,0.0043326572082266375
1571.9179497321304,1571.9179497321304,1.0046086917652068,0.004331809319384384
1571.9248944069957,1571.9248944069957,1.002660833953535,0.004329032769893374
1571.9318390818612,1571.9318390818612,1.002021495389436,0.00433127787137153
1571.938783756727,1571.938783756727,0.9975214650054346,0.004326547376223854
1571.9457284315001,1571.9457284315001,1.00169245695151,0.004328507397939852
1571.9526731062733,1571.9526731062733,1.0008351119008516,0.004326618808084334
1571.959617781139,1571.959617781139,0.9972947670157943,0.004323886644473138
1571.9665624559113,1571.9665624559113,1.0022637962516154,0.004327971736755697
1571.9735071305906,1571.9735071305906,0.9994908356190987,0.0043269677555390195
1571.98045180527,1571.98045180527,0.9954315330429715,0.00432975289775245
1571.9873964799503,1571.9873964799503,1.0010026903242646,0.004324236950438462
1571.99434115463,1571.99434115463,0.9981121192388214,0.0043261518231773695
1572.0012858293092,1572.0012858293092,1.0003082607106646,0.004316338103067397
1572.0082305039887,1572.0082305039887,1.0040125543195435,0.004320980084770743
1572.0151751784817,1572.0151751784817,0.9956793150092998,0.00431982197007486
1572.022119853161,1572.022119853161,1.000789868473717,0.00431206083034906
1572.029064527562,1572.029064527562,1.004988797758314,0.0043129915413834515
1572.0360092022415,1572.0360092022415,0.9963601590813429,0.004308931981775767
1572.0429538765484,1572.0429538765484,1.0035925675710264,0.004310234478029209
1572.049898551321,1572.049898551321,1.0004031583653188,0.004306870882530367
1572.0568432256277,1572.0568432256277,0.9995333681472548,0.004309305308533595
1572.0637878999346,1572.0637878999346,0.9975752920798768,0.004316096424795241
1572.0707325743351,1572.0707325743351,0.9993950065808402,0.0043072018901947565
1572.077677249015,1572.077677249015,1.0014775871343906,0.00430679866808008
1572.0846219233222,1572.0846219233222,0.9993619879197437,0.004298240963117919
1572.0915665976286,1572.0915665976286,1.0014346479357883,0.00430783348152434
1572.0985112719356,1572.0985112719356,1.001816755509867,0.004301821705356862
1572.1054559462423,1572.1054559462423,0.9932482039281373,0.004297690536369437
1572.1124006205498,1572.1124006205498,0.9987034779192138,0.004298170172192488
1572.119345294485,1572.119345294485,0.9996419435887176,0.0042976065298936375
1572.1262899686985,1572.1262899686985,1.0069187017636163,0.004298544704219848
1572.133234643005,1572.133234643005,1.0003128929942924,0.004291392429154854
1572.1401793172188,1572.1401793172188,0.9970409244331847,0.004290635153212575
1572.1471239911532,1572.1471239911532,1.0003603463411495,0.004288439049330723
1572.1540686654603,1572.1540686654603,1.003317822587565,0.004294979003744825
1572.1610133393026,1572.1610133393026,1.0024124913805903,0.0042932219680426355
1572.167958013516,1572.167958013516,0.9957718347997038,0.0043004697974624705
1572.1749026874502,1572.1749026874502,0.9968403419910251,0.004305209921112891
1572.181847361478,1572.181847361478,1.0036659478313026,0.00429771451979929
1572.1887920355052,1572.1887920355052,1.0009105788523784,0.004290048577485122
1572.1957367094396,1572.1957367094396,0.9975915450184563,0.004295349059623749
1572.202681383282,1572.202681383282,0.9957684430916581,0.004290715383218452
1572.2096260572162,1572.2096260572162,1.005437533798595,0.004293501003758969
1572.2165707310576,1572.2165707310576,0.9999240984985626,0.004290552856762192
1572.2235154048988,1572.2235154048988,0.9988324999609027,0.004286060519524214
1572.2304600786467,1572.2304600786467,1.004351050204964,0.0042890351039876606
1572.2374047523942,1572.2374047523942,0.998253359467449,0.004278183486860746
1572.2443494261436,1572.2443494261436,1.000688519819192,0.004285417763136774
1572.2512940998922,1572.2512940998922,1.0026031512892473,0.004276603260064163
1572.2582387736397,1572.2582387736397,0.9975468055384423,0.004276428442425852
1572.2651834472017,1572.2651834472017,1.0007114229766148,0.0042726632174044455
1572.2721281208567,1572.2721281208567,1.0008937915661544,0.00428506754971909
1572.2790727944184,1572.2790727944184,0.9981643243913834,0.00426957586767546
1572.2860174679809,1572.2860174679809,0.9990793210396859,0.00427103967446363
1572.292962141543,1572.292962141543,1.000335160839903,0.004270493921436447
1572.2999068150116,1572.2999068150116,0.9999753077757225,0.004273692390426313
1572.3068514885736,1572.3068514885736,0.998874259241118,0.0042673230362508755
1572.313796161949,1572.313796161949,1.0047859209301155,0.0042657634283462635
1572.3207408354178,1572.3207408354178,1.000803940642281,0.004264016795755864
1572.3276855087934,1572.3276855087934,0.9943598734707937,0.00426256163711976
1572.3346301821698,1572.3346301821698,1.001997362502172,0.004261048328844771
1572.3415748554523,1572.3415748554523,1.000703750537638,0.004257766721490121
1572.348519528735,1572.348519528735,0.9983926807180454,0.004263295479888782
1572.3554642021102,1572.3554642021102,1.0008156552646683,0.0042566700058992
1572.3624088752063,1572.3624088752063,0.9994899132737434,0.004251771145269563
1572.3693535483953,1572.3693535483953,1.0021218250125108,0.004251349395494688
1572.3762982217718,1572.3762982217718,0.9973686807245421,0.004255154508564172
1572.3832428948685,1572.3832428948685,1.0070057626619597,0.004254589603779517
1572.3901875677782,1572.3901875677782,0.997722608278562,0.00424232931865654
1572.3971322409675,1572.3971322409675,0.9924359672740799,0.004240740453217819
1572.4040769140634,1572.4040769140634,1.0015266273207106,0.004239974772473226
1572.4110215869732,1572.4110215869732,0.9986976256047748,0.004238761673782837
1572.4179662599765,1572.4179662599765,1.0021039952135227,0.0042360758418638
1572.4249109329805,1572.4249109329805,1.000334927732751,0.00423213664090543
1572.4318556058902,1572.4318556058902,1.0025334711571046,0.004235904558884909
1572.4388002788,1572.4388002788,0.9998903996247451,0.004229920523877837
1572.445744951617,1572.445744951617,1.0004388324337679,0.004228865764825075
1572.4526896244338,1572.4526896244338,1.0019167516261465,0.004232570656898029
1572.4596342972502,1572.4596342972502,1.0003634339330123,0.004227413088688622
1572.4665789699748,1572.4665789699748,0.9960244280733888,0.004233436093141224
1572.4735236427919,1572.4735236427919,1.000418983525495,0.00422501413916552
