time,time,flux,flux_err
1410.9083142975808,1410.9083142975808,0.9993860744896025,0.00019019568423555427
1410.9159534025978,1410.9159534025978,0.9995812500432969,0.0001736366452159395
1410.922898043574,1410.922898043574,0.9995940717949996,0.00017364215648339563
1410.9298426845023,1410.9298426845023,0.9998678138455428,0.00017365358541430057
1410.9367873254782,1410.9367873254782,0.9998970972235153,0.00017364195645367907
1410.9437319665,1410.9437319665,1.0003589151154244,0.00017369101470384932
1410.9506766075224,1410.9506766075224,1.000353208731425,0.000173674088162402
1410.957621248545,1410.957621248545,1.0002686931922722,0.00017368871238518258
1410.965954817836,1410.965954817836,1.0008203807614078,0.0001736502861795563
1410.9820663851679,1410.9820663851679,0.9999765928272101,0.00017347783800041207
1410.989566597582,1410.989566597582,0.9997738288928781,0.00017347331000602123
1410.9992890951899,1410.9992890951899,1.0001133994503761,0.00017339952158088203
1411.0090115927517,1411.0090115927517,1.000391794257738,0.00017351070157652781
1411.0159562339597,1411.0159562339597,0.9999650746832472,0.00017343069232247135
1411.0229008751219,1411.0229008751219,0.9998801335198111,0.00017341571468242688
1411.029845516284,1411.029845516284,0.9999712725788867,0.00017339596809782477
1411.0367901574452,1411.0367901574452,1.0001627765885825,0.00017339737341952378
1411.0437347986076,1411.0437347986076,0.999614676285837,0.00017334101614002707
1411.0517905824127,1411.0517905824127,0.9999361670340775,0.00017335679808751697
1411.059013009201,1411.059013009201,1.000050234013156,0.00017334055409036557
1411.065957650409,1411.065957650409,1.0003383731901911,0.0001733502749165932
1411.0729022915707,1411.0729022915707,0.9995411263714977,0.00017328382376331067
1411.0798469327333,1411.0798469327333,0.9996926457237262,0.00017327889264335335
1411.0867915739414,1411.0867915739414,1.0002344917097215,0.0001732926123174435
1411.093736215103,1411.093736215103,1.0003125112958526,0.00017330940475027888
1411.1006808562654,1411.1006808562654,1.0002846800991896,0.00017332126391429248
1411.107625497427,1411.107625497427,1.0003451192538955,0.00017327510158672116
1411.1145701385426,1411.1145701385426,1.0001449569937242,0.00017324641599823413
1411.121514779704,1411.121514779704,0.9997726214656698,0.0001732290715145862
1411.1284594208196,1411.1284594208196,1.000011367640275,0.00017316862658863804
1411.1354040619349,1411.1354040619349,1.0000496287813143,0.00017321107706815786
1411.1423487030497,1411.1423487030497,0.9999323810184944,0.00017318069287343332
1411.149293344166,1411.149293344166,0.9995729777759262,0.00017316910748352635
1411.1562379852337,1411.1562379852337,0.9999531899565278,0.00017315386250411812
1411.1631826263033,1411.1631826263033,1.0000219945253481,0.00017317151193208446
1411.1701272673254,1411.1701272673254,1.0005991860883765,0.000173159241415929
1411.1770719083936,1411.1770719083936,1.00021174866582,0.00017316236649083877
1411.1840165494166,1411.1840165494166,0.9996870818545844,0.00017310760434661944
1411.1909611903916,1411.1909611903916,0.9998671652535508,0.00017311090572441672
1411.1979058313675,1411.1979058313675,0.9997750925652907,0.00017310240283898958
1411.2048504723896,1411.2048504723896,1.0001645963460681,0.00017309398402364133
1411.211795113318,1411.211795113318,0.9999098227569239,0.00017306413712280997
1411.2187397542014,1411.2187397542014,1.0000952572116462,0.00017306029812942322
1411.2256843951297,1411.2256843951297,1.0005515434352337,0.0001730863478128114
1411.232629036013,1411.232629036013,0.9998218163756419,0.00017300465526758047
1411.2395736768487,1411.2395736768487,0.9999344621526156,0.00017302071806204772
1411.2465183176841,1411.2465183176841,1.0002174931286778,0.00017305249184443094
1411.253462958474,1411.253462958474,1.0001994483657874,0.0001730171284147895
1411.2604075993097,1411.2604075993097,1.0005470228189468,0.0001730564250644062
1411.2673522400062,1411.2673522400062,0.9999275305218209,0.00017299310843378132
1411.2742968807954,1411.2742968807954,1.0001347856818221,0.0001729659508873512
1411.2812415215378,1411.2812415215378,0.9997056957551506,0.00017293850208075087
1411.2881861621881,1411.2881861621881,0.9996202463464627,0.000172916925508224
1411.2951308028373,1411.2951308028373,0.9998427849540331,0.00017298220405021693
1411.3020754434872,1411.3020754434872,0.9998348786607018,0.0001729417374575712
1411.3090200839972,1411.3090200839972,1.0002698880916667,0.00017300755418849328
1411.3159647245534,1411.3159647245534,1.0002687871797156,0.0001729932123555494
1411.3229093651103,1411.3229093651103,1.0000550070844714,0.0001729836758495465
1411.3298540056198,1411.3298540056198,1.0001904368003196,0.00017297254615384106
1411.3367986460369,1411.3367986460369,0.9996675430165757,0.000172908777624894
1411.3437432865005,1411.3437432865005,0.9998060362802527,0.00017293319304593704
1411.350687926917,1411.350687926917,0.9998326415426128,0.00017294899980996553
1411.3576325672411,1411.3576325672411,0.9999932550094079,0.00017293875593279165
1411.3645772075645,1411.3645772075645,1.0001042596972445,0.0001729264282955666
1411.3715218478887,1411.3715218478887,1.0001634868279914,0.00017295489736903516
1411.3784664881655,1411.3784664881655,1.0000647338620818,0.00017297192855232168
1411.3854111283495,1411.3854111283495,1.0002957953064213,0.00017296136597565697
1411.3923557685334,1411.3923557685334,1.0002672510685342,0.00017295258154462702
1411.3993004086703,1411.3993004086703,0.9996906856674113,0.00017289400373712429
1411.4062450487622,1411.4062450487622,1.0000555446610768,0.00017292263520237106
1411.4131896888061,1411.4131896888061,0.9999044158049157,0.0001729002175061112
1411.420134328897,1411.420134328897,0.9995131788541947,0.00017285586565507545
1411.4270789688949,1411.4270789688949,0.9998843363433325,0.00017290322271864517
1411.4340236088453,1411.4340236088453,0.9999849140861944,0.00017291061050538891
1411.4409682487974,1411.4409682487974,0.9997743126308759,0.0001728526638045366
1411.4479128886549,1411.4479128886549,1.0001947377066303,0.00017289212464948516
1411.4548575284662,1411.4548575284662,1.0003383754606225,0.00017292234146095803
1411.4618021682782,1411.4618021682782,1.0003127842838855,0.000172909442608579
1411.468746807996,1411.468746807996,1.0001996414998862,0.00017287808942281134
1411.4756914477152,1411.4756914477152,0.9996902455725852,0.00017283912809183994
1411.4826360873399,1411.4826360873399,0.9997536919745336,0.000172844129175474
1411.4895807270584,1411.4895807270584,1.0000468138472727,0.00017289309542936938
1411.496525366544,1411.496525366544,1.0000917404249101,0.00017290536819350452
1411.503470006029,1411.503470006029,0.9998402352584081,0.00017287290840564638
1411.5104146455149,1411.5104146455149,1.0002078401344605,0.0001728912674996403
1411.517359285,1411.517359285,1.0000656238013097,0.00017286769980343313
1411.5243039244858,1411.5243039244858,1.0000139120821685,0.00017288557299502316
1411.5312485638317,1411.5312485638317,0.999973876187304,0.00017289029865767778
1411.5381932031307,1411.5381932031307,0.9999013600088211,0.00017286416828112976
1411.5451378424304,1411.5451378424304,1.0000265885037711,0.0001728569454479806
1411.5520824816363,1411.5520824816363,1.0000686979575617,0.00017288240259834753
1411.5590271208428,1411.5590271208428,0.9998754382205919,0.0001728871955557371
1411.5659717599087,1411.5659717599087,1.000084733352081,0.00017287095445506627
1411.5729163990218,1411.5729163990218,1.000144113367794,0.00017289308575441792
1411.5798610380416,1411.5798610380416,0.999701872427134,0.00017285851819088746
1411.5868056770146,1411.5868056770146,1.0002605520369783,0.00017291254493273918
1411.5937503158955,1411.5937503158955,0.9999242644797512,0.00017288141387863406
1411.6006949548214,1411.6006949548214,0.9997386472748389,0.00017286262650159507
1411.607639593702,1411.607639593702,0.9997604474250543,0.0001728616404032626
1411.614584232489,1411.614584232489,1.0000201011785483,0.00017286692256070725
1411.621528871229,1411.621528871229,0.9998418375708356,0.0001728439138300625
1411.6284735099239,1411.6284735099239,1.000238535550962,0.0001728925350506691
1411.6354181485237,1411.6354181485237,1.0003642982606873,0.00017290591780978152
1411.642362787125,1411.642362787125,1.000184538326791,0.00017287901135068184
1411.6493074256791,1411.6493074256791,1.0000542169165532,0.0001728816926272167
1411.6562520641862,1411.6562520641862,1.000342525985672,0.0001729177580565312
1411.6631967025546,1411.6631967025546,0.9998995514505117,0.00017288283561215693
1411.6701413408755,1411.6701413408755,0.9997918820451016,0.00017287858329396647
1411.677085979291,1411.677085979291,0.9996263655634159,0.00017284919983317966
1411.6840306175186,1411.6840306175186,0.9998283621964491,0.00017286620086248776
1411.69097525584,1411.69097525584,0.9999053534014415,0.00017288117151585745
1411.6979198939753,1411.6979198939753,1.0001842320843457,0.00017293389051445415
1411.7048645321102,1411.7048645321102,0.9998902790743817,0.0001728955112545961
1411.711809170199,1411.711809170199,1.000106273677614,0.00017291971928963266
1411.7187538082405,1411.7187538082405,1.0001418490464613,0.0001729346737439624
1411.7256984461899,1411.7256984461899,1.0002952558167366,0.00017294149691112723
1411.732643084092,1411.732643084092,1.000242472414405,0.00017294427579068328
1411.7395877219474,1411.7395877219474,0.9997328299950471,0.0001728958128026751
1411.7465323598035,1411.7465323598035,1.0000247620390406,0.00017292532523821263
1411.753476997519,1411.753476997519,0.9999496473727127,0.00017293209877391867
1411.7604216351892,1411.7604216351892,1.0000837284917183,0.00017295384501138521
1411.767366272858,1411.767366272858,0.9998379297034301,0.00017294578857604065
1411.7743109104347,1411.7743109104347,1.0007296475618366,0.00017298973969895253
1411.7812555479645,1411.7812555479645,1.0001316550515615,0.00017297326070887223
1411.7882001854473,1411.7882001854473,0.9996491182814597,0.00017293239752864576
1411.7951448228846,1411.7951448228846,0.9996039453411217,0.00017293424855365023
1411.8020894602273,1411.8020894602273,0.9998060247456595,0.00017296071381989853
1411.8090340975245,1411.8090340975245,1.0001099811628724,0.00017297307974724116
1411.8159787348216,1411.8159787348216,1.0000479065910004,0.00017297491781081232
1411.8229233720715,1411.8229233720715,0.999892062763309,0.00017297910347526655
1411.8298680092294,1411.8298680092294,1.000305664157842,0.00017300519563935606
1411.8368126461996,1411.8368126461996,0.999837703243067,0.00017295423695368254
1411.8437572833109,1411.8437572833109,1.0002086010540359,0.00017300080749590286
1411.8507019202352,1411.8507019202352,0.9999950069418524,0.00017299358471835268
1411.8576465571593,1411.8576465571593,1.0000801744613868,0.00017301881589210086
1411.8645911939907,1411.8645911939907,0.9999578746273935,0.00017301777056237105
1411.8715358308682,1411.8715358308682,1.0000990650633006,0.00017302452286127828
1411.8784804675602,1411.8784804675602,0.9997471226528235,0.00017299416201436296
1411.8854251042515,1411.8854251042515,1.0000658530013036,0.000173039366463188
1411.892369740897,1411.892369740897,1.0001459177922165,0.00017305405505464556
1411.8993143774946,1411.8993143774946,0.9999981253675341,0.00017304645489340286
1411.9062590140006,1411.9062590140006,0.9996708813451678,0.00017302511764815903
1411.9132036504593,1411.9132036504593,0.9998187373353122,0.00017303195352159022
1411.9201482868245,1411.9201482868245,1.0000694661689242,0.00017304606487781958
1411.927092923191,1411.927092923191,0.9999548073300589,0.00017306128029469746
1411.9340375594625,1411.9340375594625,1.000271796208697,0.0001730919901637305
1411.940982195689,1411.940982195689,0.9999300343284665,0.0001730550799335614
1411.9479268318214,1411.9479268318214,1.0000138701564805,0.0001730656437000094
1411.9548714680004,1411.9548714680004,1.0003752242503725,0.00017311896824201339
1411.9618161040405,1411.9618161040405,0.9999235110837171,0.0001730850132159214
1411.968760740033,1411.968760740033,1.0005776246503804,0.00017313682844015025
1411.97570537598,1411.97570537598,0.99973705641817,0.00017307564929829915
1411.9826500117865,1411.9826500117865,0.999657180635889,0.0001730643701871583
1411.9895946476404,1411.9895946476404,1.0001437451124022,0.00017313225106169037
1411.9965392834006,1411.9965392834006,0.9997514333872328,0.0001730737975599923
1412.0034839190673,1412.0034839190673,1.0001305777725353,0.00017316726671236972
1412.0104285546881,1412.0104285546881,1.0000533280239479,0.00017314074491031338
1412.0173731902619,1412.0173731902619,0.9999620336958877,0.00017314987282035957
1412.0243178257897,1412.0243178257897,1.0000976044851055,0.000173173626321998
1412.0312624612238,1412.0312624612238,0.9997758751589643,0.00017312212136723397
1412.0382070966577,1412.0382070966577,1.0000008641287201,0.00017314396491094707
1412.045151731999,1412.045151731999,1.00022620902676,0.00017311963391897065
1412.0520963672473,1412.0520963672473,1.0000211127449927,0.00017316461512840244
1412.0590410024956,1412.0590410024956,0.9996635337804918,0.00017315816073688268
1412.0659856376033,1412.0659856376033,0.9999316047106033,0.00017320195487112905
1412.0729302727125,1412.0729302727125,1.000497894443706,0.00017326520552329557
1412.0798749077735,1412.0798749077735,1.0001407503033,0.0001732256935391932
1412.0868195427422,1412.0868195427422,1.000056498953034,0.000173232392292582
1412.0937641776643,1412.0937641776643,1.0000613551094542,0.0001732472601876117
1412.100708812493,1412.100708812493,0.9997971022148263,0.00017323598741000092
1412.1076534473225,1412.1076534473225,1.000262069390965,0.00017330257782224742
1412.1145980820113,1412.1145980820113,0.9996914790445871,0.00017326863447209262
1412.1215427167006,1412.1215427167006,0.9998619467898209,0.00017328861292259182
1412.1284873512966,1412.1284873512966,1.0000855967776423,0.00017331630077821106
1412.1354319858463,1412.1354319858463,1.0160182549164023,0.0001745994606428821
1412.142376620303,1412.142376620303,1.0086412263418467,0.0001739063711713389
1412.149321254759,1412.149321254759,1.003440410184064,0.0001734312394367765
1412.1562658891228,1412.1562658891228,1.0009728269762987,0.0001731953083657579
1412.163210523439,1412.163210523439,0.9998023595760991,0.00017314611332238598
1412.1701551577094,1412.1701551577094,0.9994387308583649,0.00017315895473125488
1412.1770997918395,1412.1770997918395,0.9995827930671872,0.0001732083355785015
1412.1840444259235,1412.1840444259235,0.9994658548726143,0.00017325794747172522
1412.1909890600073,1412.1909890600073,0.9996477120716184,0.00017331140345458132
1412.1979336939978,1412.1979336939978,0.9996306594683805,0.00017334217065959398
1412.2048783279429,1412.2048783279429,1.0000584302594824,0.00017343621808546653
1412.2118229618395,1412.2118229618395,1.0000521148445665,0.00017346178282462858
1412.2187675955981,1412.2187675955981,1.000035843800928,0.00017348382192982899
1412.2257122294022,1412.2257122294022,1.0001134992316172,0.00017352337064848253
1412.232656863067,1412.232656863067,1.000131483567045,0.00017354711804222245
1412.2396014967321,1412.2396014967321,0.9998534827474816,0.00017353062257334455
1412.2465461302097,1412.2465461302097,1.00041239319733,0.00017359185568478864
1412.2543241197288,1412.2543241197288,1.0002132383982043,0.0001736005626231259
1412.2629354651936,1412.2629354651936,1.0001841932824784,0.0001735242521074622
1412.2729357372052,1412.2729357372052,0.9997808339389407,0.00017357208156221248
1412.2843249357174,1412.2843249357174,0.9994031772551514,0.00017354510177570206
1412.2923807102093,1412.2923807102093,1.0001492468141049,0.00017362754248856875
1412.2993253432687,1412.2993253432687,1.0002584451568222,0.0001737288088684894
1412.3062699762818,1412.3062699762818,0.999660446400193,0.0001737102299326381
1412.3132146092478,1412.3132146092478,0.9997250235515386,0.0001737105443519636
1412.320159242121,1412.320159242121,0.9998984731606949,0.00017378416032092772
1412.3271038749938,1412.3271038749938,1.000488036794446,0.00017376244856211854
1412.3340485077742,1412.3340485077742,1.0001661806621744,0.00017384587847612073
1412.3409931405074,1412.3409931405074,0.9999351535415396,0.00017381262060149012
1412.347937773055,1412.347937773055,0.9997396420400358,0.00017375458535598862
1412.3548824057884,1412.3548824057884,1.0001296160158963,0.00017384546930687288
1412.361827038289,1412.361827038289,1.0000922759635311,0.0001738383611195591
1412.3687716707432,1412.3687716707432,1.0000856300293592,0.00017388085822246866
1412.3757163030573,1412.3757163030573,1.0000950506536903,0.0001739287527201899
1412.3826609354187,1412.3826609354187,0.9997731505260911,0.00017392378529783878
1412.3896055676855,1412.3896055676855,1.000304900957016,0.00017399421291466513
1412.3965501999542,1412.3965501999542,0.999707326854409,0.00017396467998373466
1412.4034948320352,1412.4034948320352,0.9997574383823533,0.00017396739789349557
1412.4104394641636,1412.4104394641636,0.9997644110296626,0.00017394753582755028
1412.4173840961523,1412.4173840961523,1.0003748024149766,0.0001739983890983831
1412.4243287281865,1412.4243287281865,1.0002239010230274,0.00017409671377090202
1412.4312733599893,1412.4312733599893,1.0002817835381586,0.00017413140654621645
1412.4382179918375,1412.4382179918375,0.9998856514708434,0.00017411640889002344
1412.44516262364,1412.44516262364,0.9997726395707609,0.0001740953262622268
1412.4521072553487,1412.4521072553487,1.0000347403179695,0.00017416606490901324
1412.4590518869647,1412.4590518869647,1.000130316839845,0.0001741396268946606
1412.4659965185804,1412.4659965185804,1.000370189627213,0.000174203070489827
1412.4729411501035,1412.4729411501035,1.0000842544175206,0.00017419022465957326
1412.4798857814862,1412.4798857814862,1.0001004471686412,0.00017411063678669594
1412.4868304128224,1412.4868304128224,1.0001340207338982,0.00017427054230063332
1412.4937750441593,1412.4937750441593,0.9995981736427175,0.00017421948175850278
1412.5007196754955,1412.5007196754955,0.9996176213026825,0.00017418271562612335
1412.5076643066932,1412.5076643066932,0.9996359226745041,0.00017423938262587589
1412.5146089378427,1412.5146089378427,0.9993314544943426,0.00017422493457457854
1412.5215535689,1412.5215535689,1.0005050585404676,0.00017434840172953986
1412.5284981999105,1412.5284981999105,1.0019111552213065,0.00017447745044964842
1412.5354428308742,1412.5354428308742,1.0012456721388057,0.00017441902048624783
1412.5423874617452,1412.5423874617452,1.000440992727554,0.00017435063709712618
1412.5493320925693,1412.5493320925693,1.0001737261671475,0.0001743667714049485
1412.5562767233473,1412.5562767233473,0.9997812102024787,0.0001743456303883368
1412.5632213540316,1412.5632213540316,0.9999758963480385,0.0001743688106109583
1412.5701659846698,1412.5701659846698,1.0000282496917932,0.0001744073918364713
1412.5771106152145,1412.5771106152145,0.9998261334154431,0.0001744165671575967
1412.5840552457598,1412.5840552457598,1.0000720069520586,0.0001744679076019125
1412.5909998761647,1412.5909998761647,0.9996872530374846,0.00017447930129172305
1412.597944506523,1412.597944506523,0.9999669457761693,0.00017452405953574245
1412.6048891369287,1412.6048891369287,0.9999354856379314,0.00017453389875422492
1412.6118337671003,1412.6118337671003,0.9999808363052631,0.00017456654236342654
1412.6187783972734,1412.6187783972734,0.9998742216356046,0.00017457497848272644
1412.6257230274452,1412.6257230274452,1.0001272604766989,0.00017457667903471197
1412.632667657478,1412.632667657478,1.0002553689239575,0.0001746563774087255
1412.6396122874642,1412.6396122874642,1.0000131430148946,0.00017466595254481848
1412.6465569174038,1412.6465569174038,1.0000061540416674,0.00017469442484162556
1412.6535015472966,1412.6535015472966,1.0000846907365089,0.0001747151509992117
1412.6604461770494,1412.6604461770494,0.9997741161195268,0.00017470974687554708
1412.6673908068499,1412.6673908068499,0.9999805161683287,0.00017474374350524117
1412.6743354365094,1412.6743354365094,0.9995159215421621,0.0001747188075300284
1412.6812800660769,1412.6812800660769,1.0000795382879093,0.00017471655163928525
