time,time,flux,flux_err
1354.1190320772955,1354.1190320772955,0.9994987030978892,0.004220180129814635
1354.1278285801284,1354.1278285801284,0.9983262632861533,0.004217100164123239
1354.135467648162,1354.135467648162,1.0023152028500593,0.003851903850623661
1354.142412255189,1354.142412255189,0.9967345309671497,0.0038476027405715146
1354.1493568619364,1354.1493568619364,1.003047105366071,0.003846309899087034
1354.1563014685908,1354.1563014685908,0.9977447535614065,0.0038445124901623023
1354.1632460748724,1354.1632460748724,1.0032484957547945,0.003846505161730495
1354.1701906810613,1354.1701906810613,1.0007206695135877,0.0038453652089860237
1354.1771352869703,1354.1771352869703,1.0036486033171987,0.003842779333370174
1354.1840798926937,1354.1840798926937,1.0025120253759943,0.003842781689838935
1354.1910244980438,1354.1910244980438,0.9990541070639976,0.003838932093510499
1354.1979691033011,1354.1979691033011,0.9999970204669093,0.003837808507464948
1354.204913708279,1354.204913708279,0.9941190436564868,0.003837046739104952
1354.211858313164,1354.211858313164,0.9988698145589618,0.003837880021078064
1354.2188029176762,1354.2188029176762,1.000545044571158,0.0038411341429515967
1354.2257475220954,1354.2257475220954,1.000505680670361,0.0038413665750227726
1354.232692126328,1354.232692126328,1.0033661142700372,0.0038429959882491918
1354.2396367301887,1354.2396367301887,0.9973339823402941,0.0038401247266378093
1354.2465813339556,1354.2465813339556,1.0031783905866214,0.003841765893210225
1354.2535259373503,1354.2535259373503,1.0046661074445962,0.003841759966009696
1354.260470540745,1354.260470540745,0.9952059822122525,0.0038379943733674324
1354.2674151439537,1354.2674151439537,0.9979492242998621,0.003838919949997711
1354.2743597468823,1354.2743597468823,0.9999340578275167,0.003840433004706137
1354.2813043495323,1354.2813043495323,1.0023945298378254,0.003844251768730092
1354.2882489520885,1354.2882489520885,0.998061277754155,0.003841878070209778
1354.295193554366,1354.295193554366,1.0015555502213462,0.0038455328339539055
1354.3021381564565,1354.3021381564565,0.9999325728636018,0.003842559774304745
1354.3090827582678,1354.3090827582678,0.999162525526363,0.0038412620831629494
1354.3160273599865,1354.3160273599865,0.996861247692814,0.003840109846277531
1354.3229719615185,1354.3229719615185,1.002173880789277,0.003839870758034504
1354.3299165626777,1354.3299165626777,1.0000485599376705,0.00383942874353225
1354.3368611638375,1354.3368611638375,0.9996857833059138,0.003838568739635216
1354.3438057647174,1354.3438057647174,0.9960296452333681,0.003837755135490649
1354.3507503655048,1354.3507503655048,1.0027354272848175,0.0038367298434538086
1354.357694966012,1354.357694966012,1.0034802082197376,0.0038386774856301958
1354.3646395663334,1354.3646395663334,1.002300205177276,0.0038370896447501015
1354.3715841664687,1354.3715841664687,0.9977076385007196,0.0038323936473108285
1354.3785287664173,1354.3785287664173,0.9989192630604433,0.0038341706562773316
1354.385473366087,1354.385473366087,0.9984964555251292,0.003836958843483744
1354.392417965663,1354.392417965663,0.9967735289726672,0.003832861603092157
1354.3993625650528,1354.3993625650528,1.0051892428609084,0.003837035599412653
1354.4063071641635,1354.4063071641635,0.9994617736955986,0.00383536513215465
1354.4132517632743,1354.4132517632743,0.9975428727769264,0.0038379181647415868
1354.4201963620121,1354.4201963620121,0.9997743135113641,0.0038400982977378185
1354.4271409607506,1354.4271409607506,1.0039375798483507,0.0038437025360211806
1354.4340855590224,1354.4340855590224,1.0060938363383138,0.0038440340891116747
1354.4410301573882,1354.4410301573882,0.9901736417637774,0.003838317619128193
1354.4479747553812,1354.4479747553812,1.001046787368455,0.0038445188046439286
1354.4549193532812,1354.4549193532812,1.0015450110573658,0.0038455841209863854
1354.4618639510882,1354.4618639510882,1.0012879367295526,0.0038460194849691933
1354.4688085486152,1354.4688085486152,0.995754613528201,0.0038459779746059545
1354.475753145956,1354.475753145956,0.9985415565638386,0.0038461946576404046
1354.4826977431114,1354.4826977431114,1.003781653335039,0.0038471353968675646
1354.4896423401728,1354.4896423401728,1.0001257083639117,0.0038443750923180487
1354.4965869369553,1354.4965869369553,1.0014490172526769,0.0038459743696084943
1354.5035315337377,1354.5035315337377,0.9972692934958622,0.0038411281466240073
1354.5104761302405,1354.5104761302405,1.0003925842144064,0.0038428435026469205
1354.5174207265572,1354.5174207265572,0.9971459481091006,0.0038413535694619043
1354.5243653225943,1354.5243653225943,1.0042777572366892,0.0038392186879846802
1354.5313099186315,1354.5313099186315,1.0045695871859128,0.0038410916646649538
1354.5382545143898,1354.5382545143898,0.9944219186106608,0.0038367038454022043
1354.5451991101472,1354.5451991101472,1.0026511644248444,0.003840307616631862
1354.5521437055327,1354.5521437055327,1.0014923150594535,0.0038394270130108904
1354.5590883008251,1354.5590883008251,1.0001110513352356,0.0038403733481923684
1354.5660328960234,1354.5660328960234,0.993716806875834,0.0038350478179586716
1354.5729774910367,1354.5729774910367,0.9988661429489287,0.003840677060683963
1354.5799220857698,1354.5799220857698,1.0083973728844362,0.003843968480018143
1354.5868666805034,1354.5868666805034,0.9956063675182018,0.0038410835200645295
1354.5938112750507,1354.5938112750507,1.001865450813489,0.0038424776420386978
1354.6007558693184,1354.6007558693184,1.002709743188404,0.003844477953562236
1354.607700463679,1354.607700463679,0.9987722668039964,0.0038404767965037117
1354.6146450575743,1354.6146450575743,1.0002086801270702,0.003840124555499063
1354.621589651376,1354.621589651376,1.002729688589423,0.0038421301444974817
1354.6285342450851,1354.6285342450851,0.999268301410471,0.0038397993119340416
1354.6354788387011,1354.6354788387011,0.9923379315933838,0.0038400309084519885
1354.6424234320373,1354.6424234320373,1.0073001652680253,0.0038461948044701587
1354.649368025281,1354.649368025281,1.0008883918764275,0.003844705283718243
1354.6563126184308,1354.6563126184308,0.9984036396313384,0.0038413186240362487
1354.6632572113017,1354.6632572113017,1.0022706269120922,0.0038451177782049843
1354.6702018040796,1354.6702018040796,0.9995383575388258,0.0038440896822034875
1354.6771463967636,1354.6771463967636,1.0018591653941704,0.003847534937890079
1354.6840909891694,1354.6840909891694,0.993625619725435,0.0038408306361402524
1354.691035581481,1354.691035581481,0.9969249646952573,0.0038430690811042728
1354.6979801736993,1354.6979801736993,1.0008914689304222,0.003842669424304958
1354.7049247657324,1354.7049247657324,1.0039258182738646,0.003843207066085723
1354.7118693576717,1354.7118693576717,1.000721664379089,0.003842008018404626
1354.7188139494249,1354.7188139494249,1.0027436274293933,0.003839448031334511
1354.7257585408988,1354.7257585408988,0.9968126220849903,0.003837774057969504
1354.7327031323723,1354.7327031323723,1.0001793589121892,0.0038408072658879244
1354.739647723567,1354.739647723567,1.0016819294998602,0.003840547888007074
1354.7465923147613,1354.7465923147613,1.0017315943917242,0.003842142055444179
1354.7535369057691,1354.7535369057691,1.0003899376005727,0.003837855970904869
1354.7604814965912,1354.7604814965912,1.0047576227618142,0.0038436367760081385
1354.7674260874128,1354.7674260874128,0.9935486642887202,0.0038408303713985416
1354.7743706779552,1354.7743706779552,0.9962570420541759,0.003843994322094551
1354.7813152683116,1354.7813152683116,0.9956034199930477,0.003844821852609456
1354.7882598586675,1354.7882598586675,1.0008900830058722,0.0038472789574937106
1354.7952044487442,1354.7952044487442,1.006095730493041,0.0038510495826374427
1354.8021490388214,1354.8021490388214,1.0030386786973924,0.003847593799877118
1354.809093628712,1354.809093628712,0.9986726033603995,0.0038477869813461373
1354.8160382185092,1354.8160382185092,1.004352687120964,0.0038504549737625278
1354.822982808027,1354.822982808027,0.9948768873948503,0.003843568901057684
1354.8299273974521,1354.8299273974521,0.996240866968742,0.003842144791696573
1354.836871986877,1354.836871986877,1.0005220259636904,0.003843804588825988
1354.8438165759294,1354.8438165759294,0.9978862360979163,0.0038412383363616172
1354.850761165075,1354.850761165075,1.001003493467174,0.0038425621490242776
1354.8577057539405,1354.8577057539405,1.0029917404003714,0.003844202468812007
1354.8646503427137,1354.8646503427137,1.0019316641809406,0.003842293138774261
1354.8715949313937,1354.8715949313937,0.998670397086779,0.003837768552476583
1354.878539519887,1354.878539519887,1.0010516516667618,0.0038387134656497957
1354.8854841082875,1354.8854841082875,1.0003243506517632,0.0038384560766957475
1354.8924286965946,1354.8924286965946,0.9962083800128279,0.0038353812411231598
1354.8993732847157,1354.8993732847157,1.0010431940715712,0.003838472439876864
1354.906317872744,1354.906317872744,0.9981172167897018,0.003836298087083987
1354.9132624605852,1354.9132624605852,1.005042415560246,0.003841361127595556
1354.9202070482404,1354.9202070482404,0.9982017546630333,0.00383952572670533
1354.927151635896,1354.927151635896,0.9991756593382142,0.0038408569196071206
1354.9340962234583,1354.9340962234583,0.9999254298198904,0.0038412755743032615
1354.9424297281603,1354.9424297281603,1.0030325266885378,0.0038424981313535736
1354.9493743155365,1354.9493743155365,0.9987611639129617,0.0038445491286855
1354.9563189026328,1354.9563189026328,1.004206700447737,0.0038475596271449627
1354.9632634892637,1354.9632634892637,0.9938327388266901,0.0038435777082741936
1354.9702080762677,1354.9702080762677,0.9996074072283516,0.0038472086740593985
1354.9771526628979,1354.9771526628979,0.9980295128905702,0.0038470034394078234
1354.9840972494362,1354.9840972494362,1.0042637448008707,0.003848562552928638
1354.9910418359736,1354.9910418359736,1.0000983604527356,0.003844664862213306
1354.9979864222319,1354.9979864222319,0.9942293968677504,0.003841236468361925
1355.0049310084903,1355.0049310084903,0.9994475005879243,0.003842790397664591
1355.0118755945623,1355.0118755945623,1.001387346290482,0.0038422897977277554
1355.0188201805415,1355.0188201805415,1.0025255623296123,0.0038405403763795637
1355.0257647663343,1355.0257647663343,0.9991587398352841,0.0038405828731835705
1355.0327093520336,1355.0327093520336,0.9979896054297065,0.0038371913367432134
1355.0396539377336,1355.0396539377336,1.000446348119988,0.003837725343420148
1355.0465985230603,1355.0465985230603,0.999365718630753,0.0038405577162853788
1355.0535431083877,1355.0535431083877,1.0019349622516553,0.0038415195836755435
1355.0604876937145,1355.0604876937145,0.9983299675866272,0.003835784791142149
1355.0674322788552,1355.0674322788552,1.0000172322773833,0.0038378451886524403
1355.0743768637167,1355.0743768637167,0.9966953477059135,0.0038379472778595587
1355.081321448485,1355.081321448485,0.9963438814122515,0.0038411891483794342
1355.088266033253,1355.088266033253,1.005752563732733,0.003844127870184557
1355.0952106180214,1355.0952106180214,0.9995824606391214,0.0038420271276698613
1355.1021552026036,1355.1021552026036,0.9973546711967742,0.003842207342051931
1355.109099786999,1355.109099786999,1.0007556601387175,0.003842021277869821
1355.116044371302,1355.116044371302,1.0077115389615483,0.00384554335264721
1355.1229889555111,1355.1229889555111,1.0013626891791136,0.0038432286091633927
1355.1299335395342,1355.1299335395342,0.9939940049525597,0.0038398603047220667
1355.1368781235576,1355.1368781235576,0.9971390208878279,0.0038394722870901876
1355.143822707301,1355.143822707301,0.9975031846250001,0.0038387871637725808
1355.1507672910454,1355.1507672910454,1.001806448767319,0.0038439984199153065
1355.157711874696,1355.157711874696,1.0008222216154257,0.0038450698489192387
1355.1646564581602,1355.1646564581602,1.0025177934110048,0.003847045154944212
1355.1716010415316,1355.1716010415316,1.0044377895701704,0.0038502656024815562
1355.1785456248097,1355.1785456248097,0.997858728327577,0.003847369063932362
1355.1854902079947,1355.1854902079947,1.0059934868520515,0.003853050229696246
1355.1924347909937,1355.1924347909937,0.9963503337343631,0.0038495614741760665
1355.199379373992,1355.199379373992,1.0020943132368973,0.0038495277894438932
1355.2063239567117,1355.2063239567117,0.9926108055585449,0.0038460535492506253
1355.213268539524,1355.213268539524,0.9999019224577536,0.00384626797553161
1355.2202131219642,1355.2202131219642,1.0032973847026385,0.0038491073083579243
1355.2271577044041,1355.2271577044041,0.9978911990764979,0.0038455705845440386
1355.234102286844,1355.234102286844,1.0024459505263226,0.0038480658131682744
1355.241046869284,1355.241046869284,0.9988130093105132,0.003844518821109274
1355.247991451351,1355.247991451351,0.9980499262802015,0.003843868098034812
1355.2549360335117,1355.2549360335117,1.0067850476933962,0.0038463040334609016
1355.2618806153932,1355.2618806153932,1.0036515622160234,0.003847830973208133
1355.268825197274,1355.268825197274,0.9973522057261819,0.003844304900612464
1355.2757697789689,1355.2757697789689,0.9984827358309424,0.003845487231793831
1355.282714360664,1355.282714360664,1.001786509857563,0.003850958781929971
1355.2896589421723,1355.2896589421723,0.9905853957233793,0.0038466210008208214
1355.2966035235881,1355.2966035235881,1.001076152051509,0.0038506132524190385
1355.3035481048173,1355.3035481048173,0.9994844374699341,0.0038479788372440976
1355.3104926861397,1355.3104926861397,0.9958015498512045,0.0038460726917787834
1355.3174372671829,1355.3174372671829,1.0003598960786495,0.003849008996437244
1355.3243818481326,1355.3243818481326,1.0010402395250124,0.0038484153159381767
1355.3313264290823,1355.3313264290823,0.999952324204545,0.0038498189551463237
1355.3391043595525,1355.3391043595525,1.0012295537418565,0.0038481848987749695
1355.3466045066318,1355.3466045066318,1.000945461164664,0.003850989972173529
1355.353549087209,1355.353549087209,1.0020566177790446,0.003850590759244621
1355.3604936676936,1355.3604936676936,1.0078304444281594,0.00385003073083478
1355.3674382479912,1355.3674382479912,0.9998854907028518,0.0038484204987941214
1355.374382828382,1355.374382828382,0.99234746502773,0.003846842603843538
1355.381327408494,1355.381327408494,0.9939658257548704,0.0038451875449419235
1355.3882719886055,1355.3882719886055,0.9961890943944469,0.003849809292600307
1355.3952165682517,1355.3952165682517,1.0048754753576752,0.0038549107315243884
1355.4032722809948,1355.4032722809948,1.0019715825758007,0.0038546731870586918
1355.4104946439381,1355.4104946439381,1.0026233636208113,0.003854472014591173
1355.4174392234913,1355.4174392234913,1.0041653517005054,0.0038537715931206925
1355.4243838030443,1355.4243838030443,0.9992683624262074,0.0038539154018530503
1355.4313283824108,1355.4313283824108,0.9964861692376171,0.003848935664816785
1355.4382729617773,1355.4382729617773,1.0005149603535544,0.0038476808005373517
1355.4452175409576,1355.4452175409576,0.9980845041038219,0.003845703222261726
1355.452162120138,1355.452162120138,0.9933208276432508,0.0038436192241433262
1355.459106699132,1355.459106699132,1.0040350934802866,0.003848693620873567
1355.466051278033,1355.466051278033,1.002332643627656,0.0038492360453242745
1355.472995856841,1355.472995856841,0.9985259031070639,0.003845121339878078
1355.4799404355556,1355.4799404355556,1.0046265735493045,0.0038469564803398767
1355.486885014177,1355.486885014177,1.0018559973059609,0.003843872295261208
1355.4938295926124,1355.4938295926124,0.9989975806752781,0.0038421335518306317
1355.5007741711408,1355.5007741711408,0.9971022284853021,0.003844187042372884
1355.5077187494826,1355.5077187494826,0.9972395597972072,0.0038446825832548466
1355.5146633276386,1355.5146633276386,1.0011083244398549,0.0038479476759392603
1355.5216079057948,1355.5216079057948,1.0002266271868598,0.003849237365751548
1355.5285524838569,1355.5285524838569,1.0040971361887052,0.0038536409890192838
1355.5354970618266,1355.5354970618266,1.0037998957509415,0.0038573820449109278
1355.5424416396104,1355.5424416396104,0.997396305947446,0.003852794096632093
1355.5493862173935,1355.5493862173935,0.999276126629384,0.0038567712146417798
1355.5563307950838,1355.5563307950838,0.9971892538165754,0.00385506359484685
1355.5632753724947,1355.5632753724947,0.9973419042587992,0.003856606302176166
1355.5702199499985,1355.5702199499985,0.9975389919380815,0.0038574095967178284
1355.5771645274094,1355.5771645274094,1.0045697842538188,0.003860058470270195
1355.5841091046339,1355.5841091046339,0.9973520066753331,0.003859515933850012
1355.5910536818585,1355.5910536818585,1.0052200853264912,0.003859123844582083
1355.597998258897,1355.597998258897,0.9972060985581248,0.003854593811279764
1355.604942835935,1355.604942835935,1.001976958994578,0.0038521559968596603
1355.6118874127872,1355.6118874127872,0.9993358082390861,0.003850058159527345
1355.618831989546,1355.618831989546,0.9959872344297738,0.0038492686469047905
1355.6257765663045,1355.6257765663045,0.9955295706598278,0.003849810947263831
1355.6327211428775,1355.6327211428775,1.0007421883522956,0.003852061917818376
1355.639665719357,1355.639665719357,1.0067526902911976,0.0038566631160487203
1355.6466102958361,1355.6466102958361,1.0041038701299683,0.003855085804736999
1355.6535548721297,1355.6535548721297,1.0036920671221412,0.0038553070091464367
1355.660499448423,1355.660499448423,0.9991567113008489,0.003856203337728062
1355.6674440245297,1355.6674440245297,0.9953554283188275,0.0038513839770775516
1355.6743886005438,1355.6743886005438,0.9963228228204397,0.003852606688084991
1355.6813331765575,1355.6813331765575,0.9962597444467773,0.0038538494218441147
1355.6882777523854,1355.6882777523854,0.9988129554625289,0.0038559185845442427
1355.6952223281196,1355.6952223281196,1.002570546322264,0.0038577380559283907
1355.702166903947,1355.702166903947,1.0008657105390701,0.003858903181844226
1355.7091114794023,1355.7091114794023,1.005614759450997,0.003862187853597254
1355.7160560548573,1355.7160560548573,1.0031558790171593,0.0038596383883031165
1355.723000630312,1355.723000630312,1.0003606499998612,0.0038548166710499774
1355.7299452057675,1355.7299452057675,0.9994752785409113,0.0038531130143312927
1355.7368897808497,1355.7368897808497,0.99832870728546,0.00385100337514003
1355.7438343560257,1355.7438343560257,0.9991602583008616,0.003851833223840503
1355.7521678461057,1355.7521678461057,1.004018786398385,0.0038522500586696587
1355.7591124210023,1355.7591124210023,1.0007414424911933,0.003854470747261884
1355.7660569958985,1355.7660569958985,0.9945072769483654,0.003851852981034172
1355.7730015706086,1355.7730015706086,1.0023090878480727,0.0038556432534026033
1355.779946145318,1355.779946145318,0.9982036609322105,0.0038530264180894397
1355.7868907198422,1355.7868907198422,1.0016750409068593,0.003854392925399993
1355.7938352943659,1355.7938352943659,1.0047806461717312,0.003858286255125998
1355.8007798687966,1355.8007798687966,0.9989171315122366,0.0038538756811645853
1355.8077244430406,1355.8077244430406,0.9981481651919838,0.0038543406727202093
1355.814669017378,1355.814669017378,1.0011611635329536,0.0038560631398294647
1355.8216135914367,1355.8216135914367,0.9957676399296371,0.0038530037589719957
1355.8285581654943,1355.8285581654943,1.0008333222197285,0.003856583115502428
1355.8355027394591,1355.8355027394591,0.998543144185844,0.003853643156496308
1355.8424473134244,1355.8424473134244,1.0015681577495814,0.0038549287029890924
1355.8493918871095,1355.8493918871095,0.9959410646940045,0.003852755975056789
1355.8563364607955,1355.8563364607955,1.0041624926560107,0.0038537397111279847
1355.8632810343877,1355.8632810343877,1.0028668204453175,0.0038538379398237155
1355.87022560798,1355.87022560798,0.998455421901696,0.003850025196320587
1355.8771701812934,1355.8771701812934,0.9994167888252891,0.0038496981051599774
1355.8841147547926,1355.8841147547926,0.9996497364166208,0.003852277418285198
1355.891059327919,1355.891059327919,1.0017334159000595,0.003851535868623031
1355.898003901046,1355.898003901046,0.9990057376650769,0.003852192447072829
