time,time,flux,flux_err
1325.3042465063143,1325.3042465063143,1.0004169387177904,0.0008950104765416986
1325.312579806203,1325.312579806203,1.0004675029808903,0.0008953887910447102
1325.3209131057822,1325.3209131057822,0.9988538328366561,0.0008951989977183392
1325.328551963729,1325.328551963729,1.0004774480074379,0.0008176378145094903
1325.3354963800443,1325.3354963800443,1.0002963428165863,0.0008178945199208843
1325.3424407961736,1325.3424407961736,0.9997154306954051,0.000817885630591668
1325.3493852121167,1325.3493852121167,0.99929468335481,0.0008180265386228951
1325.3563296279667,1325.3563296279667,1.000537989788318,0.0008184732014200455
1325.363274043723,1325.363274043723,0.9993927395228658,0.0008184858262263188
1325.370218459387,1325.370218459387,1.000651236379282,0.0008189724205341893
1325.377162874864,1325.377162874864,0.9991585292591585,0.0008188964395221127
1325.3841072903415,1325.3841072903415,1.0001747985707032,0.0008194297348007796
1325.3910517056327,1325.3910517056327,0.9997170838073515,0.0008195858722025394
1325.3979961209236,1325.3979961209236,1.0001828137807218,0.0008198410941665466
1325.4049405361213,1325.4049405361213,1.0003641648916703,0.0008200965613050814
1325.4118849510403,1325.4118849510403,0.9997461908905809,0.0008203584195840524
1325.4188293659586,1325.4188293659586,1.0010509230868834,0.0008209071330352518
1325.4257737807839,1325.4257737807839,0.9996179187916419,0.0008207910400589841
1325.4327181956091,1325.4327181956091,1.0008238670934655,0.0008211318041001349
1325.4396626102484,1325.4396626102484,0.9996098978402082,0.0008213342699962035
1325.4466070248877,1325.4466070248877,1.00057695477693,0.0008215610894989026
1325.4535514393401,1325.4535514393401,0.9983905611287491,0.0008212777437598495
1325.4604958537002,1325.4604958537002,0.9993420638601496,0.0008215433518287081
1325.4674402681528,1325.4674402681528,1.000739795191666,0.00082203342958348
1325.4743846822332,1325.4743846822332,0.9994226751788252,0.0008217655766019726
1325.4813290965928,1325.4813290965928,0.9993229857670191,0.000821885182339256
1325.4882735105798,1325.4882735105798,1.000754440401281,0.0008222400939153418
1325.4952179245674,1325.4952179245674,1.000610738461069,0.0008223723490431188
1325.5021623385546,1325.5021623385546,1.0001257330921391,0.0008223689293465298
1325.5091067524486,1325.5091067524486,1.0012297099761067,0.0008226642698528026
1325.5160511660636,1325.5160511660636,0.9990793026804399,0.0008223447138659907
1325.522995579864,1325.522995579864,0.9983045141893399,0.0008223961240327582
1325.5299399934788,1325.5299399934788,1.0012673614644636,0.0008231573484720606
1325.5368844070003,1325.5368844070003,1.0004682688671886,0.0008229955155978095
1325.5438288205219,1325.5438288205219,0.9994810785221068,0.0008229197543568236
1325.5507732339506,1325.5507732339506,0.9999579680594495,0.0008233630894988469
1325.5577176473787,1325.5577176473787,1.0002016744492364,0.0008236021257456247
1325.564662060621,1325.564662060621,0.998800731005181,0.0008234773663800858
1325.5716064739563,1325.5716064739563,1.001265462528308,0.0008240099879183879
1325.578550887012,1325.578550887012,1.000385110193553,0.0008241420676354281
1325.5854953001613,1325.5854953001613,0.9998365654287913,0.0008242518173557069
1325.5924397132171,1325.5924397132171,1.000261727870206,0.0008244338803225365
1325.5993841260865,1325.5993841260865,0.9994564914905807,0.0008244968490974926
1325.6063285391424,1325.6063285391424,0.9998019881768079,0.0008244752110368065
1325.6132729520118,1325.6132729520118,1.0003137696399926,0.0008244818397178163
1325.6202173647885,1325.6202173647885,0.998142194226593,0.0008244825611342122
1325.627161777565,1325.627161777565,1.000987825091456,0.0008248120833586238
1325.6341061902483,1325.6341061902483,1.0008388617600064,0.0008247519520998656
1325.6410506028387,1325.6410506028387,0.9995262508545938,0.0008244784157967434
1325.6479950154285,1325.6479950154285,0.999707539671134,0.0008246884233417111
1325.654939427926,1325.654939427926,0.9998748099792987,0.0008245343719668655
1325.661883840423,1325.661883840423,1.0004992453774784,0.0008246694709978083
1325.6688282528269,1325.6688282528269,1.0009551018080676,0.0008249156170385783
1325.6757726652309,1325.6757726652309,1.0002173707907995,0.0008249797396127561
1325.6827170776348,1325.6827170776348,0.999043453378525,0.0008248935336002565
1325.6896614898526,1325.6896614898526,1.0008078809274934,0.000825116526273223
1325.6966059020701,1325.6966059020701,0.9994806592069638,0.0008251898342538803
1325.7035503142881,1325.7035503142881,0.9987973993895892,0.0008253561363073195
1325.7104947264127,1325.7104947264127,1.0003029564089498,0.000825851651197604
1325.7174391385367,1325.7174391385367,1.0001675153532317,0.0008260612665962747
1325.7243835505683,1325.7243835505683,1.000592669574386,0.0008263857009885597
1325.7313279625068,1325.7313279625068,1.0001340857938912,0.0008264135909541141
1325.7382723745382,1325.7382723745382,1.0005939618384077,0.0008268069791439433
1325.7452167863835,1325.7452167863835,0.9984561125602893,0.00082659821986857
1325.7521611983216,1325.7521611983216,0.9997454396164152,0.0008271176551291417
1325.7591056099805,1325.7591056099805,1.000146136060621,0.0008273031264428574
1325.7660500218258,1325.7660500218258,1.0003953961205365,0.0008277640432795998
1325.7729944337639,1325.7729944337639,1.0001434792623045,0.0008280710265993529
1325.7799388454227,1325.7799388454227,1.001062695397713,0.0008284868286906532
1325.7868832570816,1325.7868832570816,0.9997836340093341,0.0008285633911041505
1325.7938276687405,1325.7938276687405,0.9999230542912316,0.0008287649942439005
1325.800772080027,1325.800772080027,0.9998317279335259,0.0008288945821563322
1325.8077164915928,1325.8077164915928,0.9995402776456143,0.0008291893801921173
1325.8146609032515,1325.8146609032515,0.9997821632015459,0.0008293490982768032
1325.8216053145377,1325.8216053145377,0.9997459483658305,0.0008298398425617383
1325.8285497261036,1325.8285497261036,1.0001824769405778,0.0008298680602703388
1325.8354941373902,1325.8354941373902,1.0005133005594407,0.000830211438272301
1325.8424385487697,1325.8424385487697,1.0006555561203816,0.0008305234599695092
1325.8493829601491,1325.8493829601491,1.0000504176006897,0.0008304100384535377
1325.856327371342,1325.856327371342,0.999273303763934,0.0008302690779146294
1325.8632717825355,1325.8632717825355,0.9999551393529394,0.0008303039635980008
1325.8702161938218,1325.8702161938218,1.0000207814845468,0.0008303740531469403
1325.8771606050154,1325.8771606050154,0.999125249014987,0.0008301181053801891
1325.8841050160222,1325.8841050160222,1.0004540233753292,0.0008304923243610555
1325.8910494271222,1325.8910494271222,0.9996844190525002,0.0008302515601672989
1325.8979938382224,1325.8979938382224,1.0017845434240102,0.000830582527140337
1325.9049382493226,1325.9049382493226,1.000257444841493,0.0008303482819780602
1325.911882660236,1325.911882660236,0.9998529865440166,0.0008303010821543394
1325.9188270713362,1325.9188270713362,0.9991341922973241,0.0008299035259852372
1325.9257714821567,1325.9257714821567,0.9997192090208167,0.0008302508041440069
1325.9327158930712,1325.9327158930712,0.9994854117915069,0.0008302915170188144
1325.9396603039845,1325.9396603039845,0.9999065176241875,0.0008305224994769247
1325.9466047148057,1325.9466047148057,0.9998806398344389,0.00083040312747941
1325.9535491255333,1325.9535491255333,1.0000014746569443,0.0008304466394959898
1325.9604935363536,1325.9604935363536,1.0004545542375394,0.0008307090545595834
1325.9682712763874,1325.9682712763874,1.0012884610142287,0.0008308635890484037
1325.9757712399546,1325.9757712399546,1.0002360201511804,0.0008306258075497751
1325.982715650589,1325.982715650589,0.9989464227858418,0.0008305108437295227
1325.9896600613163,1325.9896600613163,0.9981255809756266,0.0008303550928562626
1325.9966044718574,1325.9966044718574,1.0009333087121788,0.0008308937789388238
1326.0035488824924,1326.0035488824924,1.000684252693101,0.0008311349836187144
1326.0104932930333,1326.0104932930333,0.9994626701510366,0.0008311703516225061
1326.017437703575,1326.017437703575,1.0005705552866762,0.0008317285778791237
1326.024382114023,1326.024382114023,1.0015697699194575,0.0008321532408830235
1326.0313265245645,1326.0313265245645,0.9994872643534581,0.0008319151932902899
1326.0382709350124,1326.0382709350124,0.9995631187065834,0.0008319726676822983
1326.0452153453673,1326.0452153453673,0.9990880003023186,0.0008319948758915922
1326.0521597558159,1326.0521597558159,1.0005968760312995,0.0008321178311057707
1326.0591041660778,1326.0591041660778,0.9991685938259078,0.0008320612509162733
1326.0660485764324,1326.0660485764324,0.9989854796140822,0.00083188473310191
1326.0729929867878,1326.0729929867878,0.9990988196692141,0.0008320322728002701
1326.079937397049,1326.079937397049,1.0024420051017204,0.0008327085498894092
1326.0868818072188,1326.0868818072188,1.0005951542801883,0.0008324052949788248
1326.0938262174802,1326.0938262174802,0.9998952260279201,0.0008323891441201605
1326.1007706277426,1326.1007706277426,0.9999013853092997,0.0008323315548684794
1326.1077150378183,1326.1077150378183,0.9992525567774706,0.0008321484747772032
1326.1146594479865,1326.1146594479865,1.0009429276129864,0.0008325204257247941
1326.1216038580624,1326.1216038580624,0.9996696285524458,0.0008322762380627907
1326.1285482681376,1326.1285482681376,0.9998388124370035,0.0008324706373428551
1326.135492678307,1326.135492678307,1.0000347940328669,0.0008327095392871179
1326.142437088196,1326.142437088196,0.999051401752016,0.0008327430725609786
1326.149381498365,1326.149381498365,0.9999996495436416,0.0008328663841422875
1326.1563259082545,1326.1563259082545,1.001007177103869,0.0008330699391943337
1326.1632703181435,1326.1632703181435,0.9995321536030477,0.0008329081964778835
1326.1702147281262,1326.1702147281262,0.999514360865497,0.0008330798121901619
1326.1771591380154,1326.1771591380154,1.0003094182021512,0.0008333868608182542
1326.1841035479051,1326.1841035479051,1.0009864957741719,0.0008336159853071367
1326.1910479577944,1326.1910479577944,1.00019965287655,0.0008333827995819828
1326.1979923675904,1326.1979923675904,1.0001592763663858,0.0008335986123870669
1326.204936777387,1326.204936777387,0.9994475703913294,0.0008334681457602931
1326.2118811871828,1326.2118811871828,0.9988270864536725,0.0008334755643087265
1326.2188255969797,1326.2188255969797,1.000501591792927,0.0008338247038154796
1326.2257700066825,1326.2257700066825,0.9994163365072165,0.0008334586392228525
1326.2327144162925,1326.2327144162925,0.999604553908671,0.0008336926251257624
1326.2396588259955,1326.2396588259955,1.0002875540792275,0.0008336548702411403
1326.2466032356983,1326.2466032356983,1.0004636530737245,0.0008336924584692208
1326.253547645309,1326.253547645309,1.0008325782441159,0.0008336134822489853
1326.2604920549186,1326.2604920549186,1.0004833358507743,0.0008335199987451419
1326.2674364645288,1326.2674364645288,0.9990003629807204,0.0008331793578651334
1326.2743808740456,1326.2743808740456,0.999199757564066,0.0008333815933403916
1326.2813252834692,1326.2813252834692,1.0010318470056294,0.0008336554550594955
1326.2882696931727,1326.2882696931727,1.0008967421086814,0.0008337698324350112
1326.295214102503,1326.295214102503,1.0005472060233065,0.0008333620211487356
1326.3021585118336,1326.3021585118336,0.9997507592484391,0.0008335738140919553
1326.3091029215364,1326.3091029215364,1.0001182709914058,0.0008336476207938497
1326.3160473309604,1326.3160473309604,0.9992701222887442,0.0008333962384528082
1326.322991740291,1326.322991740291,0.9993422024216112,0.0008335253014680251
1326.3299361496215,1326.3299361496215,1.0002681324679579,0.0008335798839586133
1326.3368805589525,1326.3368805589525,1.0000966738194568,0.0008340421405539875
1326.343824968283,1326.343824968283,1.0006912380286166,0.0008342022987389496
1326.35132493036,1326.35132493036,0.9997457696976342,0.0008341274978421562
1326.360491550397,1326.360491550397,1.0009783444430478,0.0008344347546738937
1326.3674359595411,1326.3674359595411,1.0001023407569956,0.0008343383436130164
1326.3743803688717,1326.3743803688717,1.0006587742356976,0.0008344927042927455
1326.381324778109,1326.381324778109,0.9997245021701866,0.0008342932366314727
1326.3882691870672,1326.3882691870672,0.9987174211205261,0.0008343042940314382
1326.3952135963978,1326.3952135963978,0.9991328035284017,0.000834400931196984
1326.402158005356,1326.402158005356,1.000056230993557,0.0008345898105919101
1326.4091024145932,1326.4091024145932,1.0006101493992938,0.00083464537509604
1326.4160468234586,1326.4160468234586,1.000142938964058,0.0008347287000583174
1326.4229912326027,1326.4229912326027,0.9993500968683143,0.0008345496701294891
1326.4299356416539,1326.4299356416539,0.9993799773111516,0.0008344511929595507
1326.4368800505188,1326.4368800505188,1.0011179845957865,0.0008348991005014421
1326.4438244594767,1326.4438244594767,1.0015305462661666,0.0008348998018301022
1326.450768868435,1326.450768868435,1.0000523318981671,0.0008346029044053995
1326.4577132773932,1326.4577132773932,0.9997379251332237,0.0008346643342026637
1326.464657686258,1326.464657686258,0.9991064295005272,0.0008347094607934043
1326.4716020951228,1326.4716020951228,1.0001827497912703,0.0008350565906204062
1326.4785465038944,1326.4785465038944,0.9994533243768157,0.0008349768082827613
1326.48549091276,1326.48549091276,0.9997387282348233,0.0008351698031847764
1326.4924353215313,1326.4924353215313,1.0009068806617374,0.0008353949824378267
1326.4993797302104,1326.4993797302104,1.0003742693984576,0.000835582215791671
1326.5063241389819,1326.5063241389819,0.999479712896332,0.0008355266088736024
1326.5132685477538,1326.5132685477538,0.9986160806073372,0.0008353151302237913
1326.5202129564325,1326.5202129564325,1.0007343114904805,0.00083603767824173
1326.5271573651112,1326.5271573651112,1.000219826738423,0.0008359863941751995
1326.5341017736966,1326.5341017736966,0.9997416635433772,0.0008359834277388526
1326.5410461823753,1326.5410461823753,1.0007896059842747,0.000836411101435091
1326.547990590961,1326.547990590961,1.0005348417592412,0.0008365320698470605
1326.5549349995465,1326.5549349995465,1.0005371880149556,0.0008367725724338065
1326.5618794080387,1326.5618794080387,0.9985095649316664,0.0008366747377835286
1326.5688238166244,1326.5688238166244,1.0002901177804564,0.0008368924638922507
1326.5757682250235,1326.5757682250235,0.9988228037820093,0.0008363881565149609
1326.5827126336094,1326.5827126336094,1.000805003568266,0.0008369426650635644
1326.5896570420082,1326.5896570420082,0.9992690217990594,0.0008369742910820134
1326.596601450408,1326.596601450408,1.0002193740958165,0.0008368048834375625
1326.6035458588071,1326.6035458588071,0.9997268736318403,0.0008367730203982864
1326.6104902672064,1326.6104902672064,1.001150149712141,0.0008373149316133926
1326.6174346755124,1326.6174346755124,1.000437543215455,0.0008373412149915736
1326.6243790839114,1326.6243790839114,0.9998732811477226,0.0008370315958857895
1326.631323492125,1326.631323492125,1.0002275686881759,0.0008369847300606047
1326.6382679004305,1326.6382679004305,0.9990693319313457,0.0008367903253540705
1326.645212308644,1326.645212308644,1.000024844304076,0.0008369471352612156
1326.652156716857,1326.652156716857,0.9994242658859738,0.0008367901057338886
1326.6591011249766,1326.6591011249766,1.0007913152113113,0.0008372297780383567
1326.6660455331898,1326.6660455331898,0.9994448386977931,0.0008368373197244176
1326.6729899413094,1326.6729899413094,0.9997448071052908,0.0008370199484082845
1326.679934349523,1326.679934349523,1.0010363380817533,0.0008369374675810705
1326.6868787576427,1326.6868787576427,0.9998602294571954,0.0008366241125466278
1326.6949342709759,1326.6949342709759,1.0002368382009355,0.0008365688189239051
1326.7021564553756,1326.7021564553756,1.000857855827254,0.0008366424380678533
1326.7091008633095,1326.7091008633095,0.9996203615786159,0.0008363187925549138
1326.7166008239897,1326.7166008239897,0.9983611407269342,0.0008359140353314285
1326.7243785609498,1326.7243785609498,0.9997452839335402,0.0008359588136799603
1326.7313229688834,1326.7313229688834,0.9994875077209999,0.0008355656049834016
1326.7382673767238,1326.7382673767238,1.0015886126334708,0.000835913556561939
1326.7452117846576,1326.7452117846576,0.9995180821977039,0.0008355188145988668
1326.752156192498,1326.752156192498,1.0005855754744217,0.0008356702707994306
1326.7591006003381,1326.7591006003381,0.9987311594531519,0.0008350711105166338
1326.7660450080857,1326.7660450080857,1.0004263334196148,0.0008354948719985469
1326.7729894158329,1326.7729894158329,1.0009333439456083,0.0008353287429903593
1326.7799338236734,1326.7799338236734,1.0007857812261598,0.0008350462351248523
1326.786878231421,1326.786878231421,1.0002654823198558,0.0008351331345085285
1326.7938226390752,1326.7938226390752,0.9985618752588621,0.0008350612221684305
1326.8007670467293,1326.8007670467293,1.0000441661011323,0.0008353617245603323
1326.807711454477,1326.807711454477,0.9999822325966683,0.0008354398520197036
1326.8146558620379,1326.8146558620379,1.0008283901891508,0.0008356314721606258
1326.8216002695985,1326.8216002695985,0.998160706717122,0.0008352272380669778
1326.828544677253,1326.828544677253,1.0008904262710234,0.0008357945945119372
1326.835489084814,1326.835489084814,1.0007302150454507,0.0008359475872224137
1326.8424334922825,1326.8424334922825,0.9995784800714237,0.0008356616666304083
1326.8493778998431,1326.8493778998431,0.999562204701013,0.0008356351486780451
1326.856322307311,1326.856322307311,1.0004955894550074,0.0008355456843854873
1326.863266714686,1326.863266714686,1.0002381444602757,0.0008354238859738961
1326.8702111221542,1326.8702111221542,0.9990327015981351,0.0008353741517800528
1326.877155529529,1326.877155529529,1.0000852061881624,0.000835234973164351
1326.8840999369036,1326.8840999369036,0.9990539759522485,0.0008349481459720412
1326.8910443442787,1326.8910443442787,1.0013385763498466,0.0008351294266481758
1326.8979887514665,1326.8979887514665,1.0007886567201776,0.0008348128484057497
1326.904933158842,1326.904933158842,0.9991471098981201,0.0008341635449726588
1326.9118775661234,1326.9118775661234,1.000537087153531,0.0008341049945313822
1326.918821973312,1326.918821973312,1.0000154661232301,0.0008340590608802741
1326.9257663805006,1326.9257663805006,0.9988952125204008,0.0008334864850929465
1326.9327107877823,1326.9327107877823,1.0009745705459951,0.0008336683940033627
1326.9396551947848,1326.9396551947848,0.9998495568798624,0.0008334676313459084
1326.9465996017866,1326.9465996017866,1.0003009215499428,0.0008332322794033086
1326.953544009255,1326.953544009255,0.999846827304004,0.000832948642525945
1326.960488416257,1326.960488416257,1.0016393663273522,0.0008331758198384075
1326.9674328232597,1326.9674328232597,1.000132440992195,0.0008327024231122181
1326.974377230262,1326.974377230262,0.9988172241349638,0.0008320637172916907
1326.9813216372636,1326.9813216372636,0.998653307196111,0.0008320427467527345
1326.9882660442668,1326.9882660442668,1.0011189018089932,0.0008325054879616064
1326.9952104511754,1326.9952104511754,0.999120239998977,0.0008318067690344351
1327.0021548578056,1327.0021548578056,1.0012094956205022,0.0008320946880305945
1327.0090992648077,1327.0090992648077,1.0003924116195015,0.0008319728102474681
1327.01604367181,1327.01604367181,1.0006210991300633,0.0008317707874362047
1327.0229880784398,1327.0229880784398,0.9997961753377889,0.0008315724154736864
1327.0299324853488,1327.0299324853488,1.000754037270375,0.0008318109676718102
1327.036876892072,1327.036876892072,0.9997107145952796,0.0008316878608351005
1327.0438212988877,1327.0438212988877,0.9993025118081048,0.000831564271275881
1327.0507657054245,1327.0507657054245,1.0006232646907172,0.0008317715184601159
1327.0577101122403,1327.0577101122403,0.9983437267624635,0.0008315575572551447
1327.0654878476175,1327.0654878476175,0.9998330683934453,0.0008320162224720446
1327.0729878068073,1327.0729878068073,1.0002456938459157,0.0008321002722564953
1327.0799322134374,1327.0799322134374,1.0002788768423623,0.0008320461210024639
