time,time,flux,flux_err
1517.3650714177384,1517.3650714177384,0.9999319572519014,0.00029138209737420323
1517.3745622865185,1517.3745622865185,0.9998067409552831,0.00026333834987528055
1517.3815068250456,1517.3815068250456,0.9995606268527805,0.00026138546711091575
1517.3884513638989,1517.3884513638989,0.9996643524888551,0.000259716363887792
1517.3956736846503,1517.3956736846503,0.9998784262118011,0.00025805591798317145
1517.4037293505858,1517.4037293505858,1.000296443511795,0.0002561395666624639
1517.4106738904634,1517.4106738904634,1.000268603011761,0.0002549221040936125
1517.4176184307134,1517.4176184307134,0.9998396633556638,0.0002536351911839148
1517.4245629711959,1517.4245629711959,1.0001247058180756,0.0002525593114868779
1517.4315075120053,1517.4315075120053,0.9995872915634161,0.0002515789569703826
1517.438452053093,1517.438452053093,0.9999887305835852,0.000250600050562387
1517.4453965945072,1517.4453965945072,1.0000676564746578,0.00024976074351138887
1517.452341136154,1517.452341136154,0.9997919221287805,0.0002489508421525534
1517.4592856780341,1517.4592856780341,1.0001431510124847,0.0002482454045162453
1517.466230220193,1517.466230220193,1.000051412406849,0.00024759093132761
1517.4731747625854,1517.4731747625854,1.0002124553398564,0.000246898682217229
1517.480119305303,1517.480119305303,1.0000114596235306,0.00024636737763102063
1517.4870638482075,1517.4870638482075,0.999905020192366,0.000245684644795236
1517.4940083913912,1517.4940083913912,0.9999759967243534,0.0002451425560869072
1517.5009529347608,1517.5009529347608,1.000076159884726,0.0002446434765146565
1517.5078974784105,1517.5078974784105,0.9999741121199941,0.00024414736538191375
1517.5148420221528,1517.5148420221528,1.0003184390701898,0.0002437050575915008
1517.5217865663142,1517.5217865663142,0.9996242542289782,0.00024315081856246578
1517.528731110569,1517.528731110569,0.9997537876055389,0.00024275922980340295
1517.5356756550566,1517.5356756550566,1.0002064774293313,0.00024236622429949176
1517.5426201997766,1517.5426201997766,0.9998381085439461,0.00024194464963318203
1517.5495647445903,1517.5495647445903,1.000232812883985,0.0002416102085931229
1517.5565092897298,1517.5565092897298,0.9998681692894433,0.00024117917993917207
1517.5634538349623,1517.5634538349623,1.0004399152609609,0.000240913449298069
1517.570398380381,1517.570398380381,0.9997192378792832,0.00024050206867229557
1517.5773429260325,1517.5773429260325,0.9999666177811356,0.00024025538178470697
1517.5842874718242,1517.5842874718242,1.0000229804748713,0.00023994177973421174
1517.5912320178018,1517.5912320178018,0.9998592676345405,0.00023962786588392274
1517.5981765638724,1517.5981765638724,0.999876788328824,0.0002393772964141104
1517.605121110176,1517.605121110176,1.0003284287264698,0.00023917774583266365
1517.6120656566657,1517.6120656566657,0.9996960105810284,0.00023894366277723723
1517.6190102032954,1517.6190102032954,1.0001483672093694,0.0002386869123565312
1517.6259547500183,1517.6259547500183,1.0002857331037673,0.00023848777444675156
1517.6328992969268,1517.6328992969268,0.9997493426388763,0.00023820746310988295
1517.6398438440222,1517.6398438440222,1.0000613119917001,0.00023802416492367903
1517.6467883912105,1517.6467883912105,0.9998176979631184,0.00023781748390179483
1517.6537329384455,1517.6537329384455,1.0000403966612637,0.0002376595161114597
1517.6606774859133,1517.6606774859133,1.00003768765637,0.00023743531168193122
1517.667622033567,1517.667622033567,0.9999673051627205,0.0002372726248555881
1517.6745665812678,1517.6745665812678,0.9999173075677822,0.00023704669286945466
1517.6815111291078,1517.6815111291078,1.0001178544791671,0.00023687033202502306
1517.6884556770415,1517.6884556770415,1.000177708150175,0.00023668850862356683
1517.695400225161,1517.695400225161,0.9997572451688169,0.00023646661432438765
1517.7023447733275,1517.7023447733275,1.0000923424547667,0.00023627158623196908
1517.7092893215863,1517.7092893215863,1.0000456463130614,0.0002360360916718558
1517.716233870032,1517.716233870032,0.9999015215580466,0.0002359047458869564
1517.7231784184776,1517.7231784184776,0.9999842550510294,0.00023567621085621282
1517.7301229671098,1517.7301229671098,1.0002665167155904,0.0002354896905977191
1517.7370675157883,1517.7370675157883,1.000010796666773,0.00023531542229141187
1517.744012064653,1517.744012064653,0.9999533396342232,0.00023512459693743356
1517.750956613564,1517.750956613564,1.0000636929682956,0.00023497457424771022
1517.7579011624753,1517.7579011624753,0.9996865906381813,0.00023477673948333138
1517.7648457116197,1517.7648457116197,1.0001139254397304,0.00023461397034740824
1517.7717902607171,1517.7717902607171,0.9999132503755584,0.00023443685085275048
1517.778734810001,1517.778734810001,0.9998404208471612,0.00023425688465124965
1517.7856793593312,1517.7856793593312,0.9998586856290856,0.00023414195218118936
1517.792623908708,1517.792623908708,1.0003587021575686,0.0002340029847597078
1517.799568458225,1517.799568458225,1.000106766364174,0.0002337911563244006
1517.8065130077414,1517.8065130077414,1.0000196290246675,0.00023369340188933305
1517.8134575574445,1517.8134575574445,1.0001312150219643,0.0002335367810798412
1517.8204021070076,1517.8204021070076,1.000137666526626,0.00023341883036585238
1517.8273466568037,1517.8273466568037,1.0000077852044584,0.00023323465769923597
1517.8342912065996,1517.8342912065996,0.9994847890076389,0.00023310459423867444
1517.8412357566285,1517.8412357566285,0.9996723290502647,0.0002330252599703736
1517.8481803065174,1517.8481803065174,1.0003651767853798,0.00023298382359651692
1517.8551248565468,1517.8551248565468,0.9998170367700743,0.00023283587105450126
1517.8620694065753,1517.8620694065753,1.0003831270493755,0.00023275752875384824
1517.8690139567439,1517.8690139567439,0.9999788243779154,0.00023266483836983159
1517.8759585069129,1517.8759585069129,1.0000399023281326,0.00023256150278950165
1517.8829030571274,1517.8829030571274,0.999819745120973,0.0002324843543170142
1517.8898476074357,1517.8898476074357,1.0001577818075662,0.00023238059515557434
1517.8967921577446,1517.8967921577446,0.999856676157816,0.00023228115753791252
1517.903736708099,1517.903736708099,1.0000740582563181,0.00023227319574547602
1517.910681258547,1517.910681258547,0.999921185061597,0.00023221544111125546
1517.917625808995,1517.917625808995,0.9998757020824749,0.00023209640190296598
1517.9245703595357,1517.9245703595357,1.0001512243967126,0.0002320348348398075
1517.9315149100303,1517.9315149100303,1.000120775646336,0.00023201581036207635
1517.9384594606647,1517.9384594606647,0.9998711942315118,0.00023191584705717518
1517.946792921398,1517.946792921398,1.0001265070954894,0.00023186625502493835
1517.9537374720785,1517.9537374720785,0.9996279812673838,0.00023177680923768218
1517.9606820227596,1517.9606820227596,1.0001494796546626,0.0002317875382267404
1517.9676265734865,1517.9676265734865,1.0002801942246953,0.00023174862049532203
1517.9745711243074,1517.9745711243074,1.0000600649943272,0.00023170369781223263
1517.981515675081,1517.981515675081,0.9999754570871799,0.0002316149047435155
1517.9884602258549,1517.9884602258549,0.9997565294395592,0.00023159233774422568
1517.995404776769,1517.995404776769,1.0001664274484166,0.0002315506760688551
1518.0023493276356,1518.0023493276356,0.9993449689423841,0.0002314251103195305
1518.0092938784564,1518.0092938784564,1.000265234233162,0.0002314629776813361
1518.0162384294167,1518.0162384294167,1.0002844611934116,0.0002313725888821221
1518.0231829803765,1518.0231829803765,1.0002202711659096,0.00023134623609291361
1518.030127531337,1518.030127531337,0.9998198826301234,0.00023130424019145935
1518.037072082297,1518.037072082297,0.9998701778439022,0.00023127655080101847
1518.044016633257,1518.044016633257,1.0004777476089541,0.00023131195079370876
1518.05096118445,1518.05096118445,1.0001031984744642,0.0002312194005268098
1518.0579057354103,1518.0579057354103,0.9995885324759961,0.00023113487083609315
1518.0648502864167,1518.0648502864167,0.999850381640212,0.00023110337049244987
1518.0717948375636,1518.0717948375636,0.999855607231838,0.00023101995718701526
1518.0787393885703,1518.0787393885703,1.0000662636697626,0.00023103023433241067
1518.0856839397165,1518.0856839397165,0.9997626820798591,0.00023090541257922268
1518.0926284908164,1518.0926284908164,0.9999144549047575,0.00023096076158266808
1518.09957304187,1518.09957304187,1.0002759916156352,0.00023093957238895703
1518.1065175930623,1518.1065175930623,1.0003809645599118,0.00023089788630735868
1518.113462144163,1518.113462144163,0.9998148158887583,0.00023079556537351488
1518.1204066953092,1518.1204066953092,1.0000774715360126,0.00023073140157862582
1518.1273512464554,1518.1273512464554,1.0000479740222947,0.00023068817442778127
1518.1342957976024,1518.1342957976024,0.9998637060412993,0.00023071334078155517
1518.1412403487484,1518.1412403487484,1.0000099571612968,0.00023066553499883035
1518.1481848998949,1518.1481848998949,1.0002364565161848,0.0002306266305652135
1518.1551294510878,1518.1551294510878,0.9999863775603925,0.00023055528788155062
1518.1620740022342,1518.1620740022342,1.00006402457038,0.00023051557470856967
1518.1690185533805,1518.1690185533805,0.9997015201325299,0.00023054348433815226
1518.1759631045275,1518.1759631045275,0.9998438000573252,0.00023047280954299783
1518.18290765572,1518.18290765572,1.0000852985206559,0.00023042623240902382
1518.1898522068666,1518.1898522068666,0.9997196663692186,0.000230354006906912
1518.1967967580133,1518.1967967580133,1.000183745778587,0.00023035406455433524
1518.203741309159,1518.203741309159,0.9999325729450341,0.00023038372891456002
1518.210685860306,1518.210685860306,1.00031081223481,0.00023043194004304903
1518.2176304114523,1518.2176304114523,1.0000497517540885,0.00023031907646869275
1518.2245749626454,1518.2245749626454,1.0000107049268394,0.00023030462095630192
1518.2315195137458,1518.2315195137458,0.9998986242524373,0.0002302874893665891
1518.2384640648454,1518.2384640648454,1.0000924599239291,0.00023029406002498328
1518.2454086159917,1518.2454086159917,0.9999274341031461,0.00023028810493052666
1518.2523531671382,1518.2523531671382,0.999898622162884,0.00023030887004895617
1518.2592977181453,1518.2592977181453,0.9996914854345558,0.00023021482875556007
1518.2667978334143,1518.2667978334143,1.000470052868828,0.00023020551902715587
1518.2745757305831,1518.2745757305831,0.999712570777537,0.00023016682571672776
1518.2815202816828,1518.2815202816828,1.0000849651172727,0.00023018403041039155
1518.288464832643,1518.288464832643,1.0000685003805196,0.00023014870810528684
1518.2954093838362,1518.2954093838362,1.0000746096317008,0.00023022816862667034
1518.3023539347964,1518.3023539347964,1.0002896834077526,0.00023011613175775856
1518.3095762677951,1518.3095762677951,0.9995994145940186,0.00023009261116645153
1518.3176319469087,1518.3176319469087,1.0000427909729002,0.00023016874428358563
1518.3245764981016,1518.3245764981016,1.0001101073821244,0.00023011754615446245
1518.3315210490623,1518.3315210490623,1.0000479500361357,0.0002301035099744852
1518.3384656000221,1518.3384656000221,0.9998979819106287,0.00023006495250504872
1518.345410150796,1518.345410150796,0.9999666240421439,0.00023007179892813072
1518.3523547017098,1518.3523547017098,0.9996951725709678,0.0002300436225997844
1518.35929925267,1518.35929925267,0.9999766518274884,0.0002300439592155807
1518.36624380363,1518.36624380363,1.0001920638399224,0.0002300684840927142
1518.373188354404,1518.373188354404,1.000379948797703,0.0002299892739506485
1518.3801329053172,1518.3801329053172,1.0001170779513666,0.00022999332490207227
1518.3870774560914,1518.3870774560914,0.9998020700353647,0.00022993854206923973
1518.3940220069119,1518.3940220069119,0.9998240477556543,0.0002299409797623532
1518.4009665577319,1518.4009665577319,0.9997669543180951,0.00022992585991217008
1518.4079111084598,1518.4079111084598,0.9999738061959693,0.00022984314991230666
1518.4159667873876,1518.4159667873876,1.0000746044886448,0.00022986471907997344
1518.42318912006,1518.42318912006,0.999956065621465,0.0002298844037938893
1518.4301336707874,1518.4301336707874,1.000127816321676,0.00022980249827144942
1518.4370782214683,1518.4370782214683,1.0001526645360443,0.0002297712885446882
1518.444022772102,1518.444022772102,1.0002760647391553,0.00022980502432165642
1518.4509673226898,1518.4509673226898,1.0001551614667776,0.00022986075255475004
1518.4581896553625,1518.4581896553625,0.9998838954193602,0.00022977931995517607
1518.4662453340575,1518.4662453340575,0.9998753867466006,0.00022973080747843414
1518.4731898845516,1518.4731898845516,0.9999589201377479,0.00022984496000381412
1518.4801344350929,1518.4801344350929,1.0001940960591174,0.00022983204679793653
1518.4870789855872,1518.4870789855872,1.0000652060218949,0.0002298282567387643
1518.494023536082,1518.494023536082,0.9997642002547332,0.00022981332287393464
1518.5009680864832,1518.5009680864832,1.0002010289614907,0.00022983823857192866
1518.5079126368848,1518.5079126368848,1.0003018051317731,0.00022982778775390233
1518.5148571872392,1518.5148571872392,0.9998483182302078,0.0002297254985435848
1518.5218017376405,1518.5218017376405,1.0002577761729365,0.0002298124978415619
1518.5287462879958,1518.5287462879958,0.9997703247617549,0.00022976222905145795
1518.5356908383035,1518.5356908383035,0.9999359144303298,0.00022975858311116777
1518.5426353885655,1518.5426353885655,0.9995424045576333,0.00022975557092207448
1518.5495799388275,1518.5495799388275,1.000212576884321,0.00022980366653428276
1518.5565244890422,1518.5565244890422,0.999773997141156,0.0002297469534104001
1518.563469039211,1518.563469039211,1.000232664867821,0.00022976065583382474
1518.5704135893793,1518.5704135893793,0.9999577861601697,0.00022980869042930462
1518.5773581395013,1518.5773581395013,1.0000311362597027,0.00022979069398684177
1518.5843026896232,1518.5843026896232,1.0000122552449897,0.00022964388938164192
1518.5912472396524,1518.5912472396524,1.0003917953763697,0.00022973368421550915
1518.5981917896809,1518.5981917896809,1.0003378214030403,0.00022973105321256033
1518.6051363396637,1518.6051363396637,0.9995777361755902,0.00022970724455972122
1518.612080889692,1518.612080889692,1.000003801614606,0.00022971213363558342
1518.6190254395347,1518.6190254395347,1.0001048736054667,0.00022975959420563718
1518.6259699895168,1518.6259699895168,0.9999038050931353,0.00022968189547828443
1518.6329145393133,1518.6329145393133,0.9998159578425542,0.00022987798109455875
1518.639859089109,1518.639859089109,0.9996770012454546,0.00022976505699235546
1518.646803638905,1518.646803638905,1.0000780908403675,0.00022975298948255994
1518.6537481887012,1518.6537481887012,1.0001451053218184,0.00022973015372557753
1518.660692738497,1518.660692738497,1.0002209840141403,0.0002297873625566399
1518.6676372881534,1518.6676372881534,0.9993877791610146,0.00022963840383118033
1518.6745818378563,1518.6745818378563,1.0003664797201928,0.00022980334683973865
1518.6815263874196,1518.6815263874196,0.9999723156075229,0.0002297119525483852
1518.688470937029,1518.688470937029,1.0001363166554091,0.00022980360020201685
1518.695415486592,1518.695415486592,1.0000964569898487,0.0002298616572971304
1518.7023600361558,1518.7023600361558,0.9999293749771352,0.00022976693251960996
1518.7093045855788,1518.7093045855788,1.0000838168503137,0.0002297740103035267
1518.7162491350955,1518.7162491350955,0.9998095940128102,0.00022977866336973047
1518.7231936844728,1518.7231936844728,1.0002398180753915,0.00022971189084501322
1518.7301382338496,1518.7301382338496,0.999943130631723,0.00022976667683347225
1518.73708278318,1518.73708278318,1.0002106647437543,0.0002298069841672115
1518.7440273325105,1518.7440273325105,1.0000310806884343,0.00022982975622427016
1518.7509718817007,1518.7509718817007,0.9998086465050846,0.00022975781390920238
1518.757916430938,1518.757916430938,0.9997441214307006,0.0002297387810376146
1518.7648609801288,1518.7648609801288,1.0000271546526145,0.000229720230839896
1518.7718055293192,1518.7718055293192,0.999814463723224,0.00022971394547356276
1518.7787500784173,1518.7787500784173,1.0004690938917424,0.00022981011797435324
1518.7856946274678,1518.7856946274678,0.999907852836369,0.0002297686761606691
1518.7926391765652,1518.7926391765652,0.999856663551436,0.00022970478063784517
1518.7995837254766,1518.7995837254766,1.0001150827232528,0.0002297259142369417
1518.8065282744808,1518.8065282744808,1.0002759567150785,0.00022977908965315003
1518.8134728233922,1518.8134728233922,0.9998227375859006,0.00022975557335280588
1518.8204173722568,1518.8204173722568,1.0005170611076086,0.0002297929598103596
1518.8273619210752,1518.8273619210752,0.9999235222218765,0.00022973330154163132
1518.8343064698931,1518.8343064698931,1.0000705605245894,0.00022974030715473313
1518.8412510186183,1518.8412510186183,0.9997944370860076,0.00022970291860183596
1518.8481955673897,1518.8481955673897,0.9994664962789767,0.00022972293876600793
1518.8551401160216,1518.8551401160216,1.0004287926536404,0.00022980433912505715
1518.8620846646531,1518.8620846646531,0.9998598170673401,0.00022974951498681747
1518.869029213285,1518.869029213285,0.9999978419401554,0.00022976029661895677
1518.8759737617772,1518.8759737617772,1.0001791509228692,0.0002298428567531664
1518.882918310316,1518.882918310316,0.9997363705554339,0.00022981886313678672
1518.889862858762,1518.889862858762,1.0003994935710883,0.00022981675661891838
1518.896807407207,1518.896807407207,1.000486768946515,0.00022979222832226893
1518.9037519556064,1518.9037519556064,0.9998495268118832,0.00022980722853934078
1518.9106965039123,1518.9106965039123,0.9996243047749888,0.0002296817492553331
1518.9176410522182,1518.9176410522182,0.9997632973126903,0.00022977887048718926
1518.9245856004775,1518.9245856004775,0.9999621019372101,0.00022978131905801897
1518.93153014869,1518.93153014869,0.9999732808020576,0.00022981801802057056
1518.9384746968567,1518.9384746968567,1.0002458950979076,0.00022987949972672577
1518.9454192449757,1518.9454192449757,1.0002280393874143,0.00022980087880786538
1518.9523637930956,1518.9523637930956,1.0000907788128164,0.00022978876748320308
1518.9593083411223,1518.9593083411223,0.9997226477231974,0.00022970637919576638
1518.9662528891022,1518.9662528891022,0.9998454519194224,0.00022982491840861327
1518.9731974370818,1518.9731974370818,0.9998107313366447,0.0002297745299544627
1518.980141984969,1518.980141984969,1.000391620998767,0.00022985478333917416
1518.9870865328091,1518.9870865328091,0.9998726948894557,0.0002298019084292535
1518.9940310806492,1518.9940310806492,0.9999191211362108,0.00022974885734480124
1519.0009756283966,1519.0009756283966,0.9998946157872407,0.00022977746535816072
1519.00792017619,1519.00792017619,0.9999543161160223,0.00022980168125003508
1519.014864723844,1519.014864723844,1.0003790258874226,0.00022986390165127398
1519.0218092715445,1519.0218092715445,0.9999933734596773,0.0002297745950888305
1519.028753819059,1519.028753819059,0.9998803173932718,0.00022973081714126707
1519.035698366713,1519.035698366713,0.9998406430308695,0.00022976002613444836
1519.0426429141803,1519.0426429141803,1.0003094280570533,0.00022978934860945068
1519.0495874616481,1519.0495874616481,1.0000658408018894,0.00022978741666413214
1519.056532009116,1519.056532009116,0.9999755386127008,0.00022981792259536246
1519.0634765563977,1519.0634765563977,1.0000108395382883,0.00022978795875480516
1519.0704211037717,1519.0704211037717,0.9998908296927127,0.0002298067273065786
1519.0773656510532,1519.0773656510532,1.0000113937670858,0.00022978455943985097
1519.0843101982882,1519.0843101982882,0.9996334407845646,0.00022972477697052397
1519.0912547454761,1519.0912547454761,0.999952988831736,0.0002297551998226638
1519.098199292618,1519.098199292618,0.9999913217590782,0.00022981239118594204
1519.1051438396667,1519.1051438396667,1.000032017357011,0.00022979831993299063
1519.112088386762,1519.112088386762,1.0001454704381965,0.00022977614564005894
1519.1190329337637,1519.1190329337637,1.0002626067852627,0.00022982581141069275
