time,time,flux,flux_err
1491.639306326472,1491.639306326472,1.000266360874513,0.0004294826846435149
1491.6476397477575,1491.6476397477575,0.9997576394318474,0.00042853968024442006
1491.6552787172047,1491.6552787172047,0.9995946784119158,0.0003904774125842572
1491.6622232349382,1491.6622232349382,0.9999959949830146,0.0003899723971732964
1491.6691677525785,1491.6691677525785,1.0005840728019535,0.0003896769351982406
1491.676112270218,1491.676112270218,0.999457443267899,0.0003889271448998471
1491.683056787765,1491.683056787765,1.000262490428605,0.00038871805691842145
1491.690001305405,1491.690001305405,1.0005156826845627,0.0003882999991618883
1491.6969458229519,1491.6969458229519,0.9999871026422695,0.00038783106538060246
1491.7038903404987,1491.7038903404987,1.0001668784319242,0.0003872714405342767
1491.7108348579525,1491.7108348579525,0.9994591688094138,0.00038691486447029627
1491.7177793754065,1491.7177793754065,0.9999779031131629,0.00038666914974381383
1491.724723892767,1491.724723892767,0.999522901575744,0.0003860135366676175
1491.7316684102207,1491.7316684102207,1.00003939330179,0.00038587319676279595
1491.7386129274885,1491.7386129274885,1.000023040509975,0.0003854928473001832
1491.7455574447554,1491.7455574447554,1.0001225025635823,0.00038508224577650415
1491.752501962116,1491.752501962116,1.0002415641434368,0.00038478491855115164
1491.7594464791043,1491.7594464791043,1.0006445630493865,0.0003844556252362927
1491.7663909963712,1491.7663909963712,0.999586186808957,0.0003840091755870504
1491.7733355134526,1491.7733355134526,0.9997398964287223,0.0003837494422038713
1491.780280030534,1491.780280030534,1.0000497662047028,0.00038347713145702226
1491.7872245475219,1491.7872245475219,0.9996416316502671,0.0003831036971759996
1491.794169064417,1491.794169064417,1.0004418738511576,0.0003829906013868833
1491.8011135813122,1491.8011135813122,1.000011152229739,0.00038262862983681935
1491.8080580981134,1491.8080580981134,0.9996607883934603,0.0003822607039738339
1491.8150026149153,1491.8150026149153,1.0004076653217342,0.00038198858569551573
1491.8219471316245,1491.8219471316245,0.9995465238129926,0.0003816150138938125
1491.8288916482393,1491.8288916482393,0.999893384552605,0.00038132392208275166
1491.8358361648552,1491.8358361648552,0.999958558804324,0.00038103702179987455
1491.8427806814707,1491.8427806814707,0.9998195865243646,0.0003807241744208051
1491.8497251978997,1491.8497251978997,1.0002031593914684,0.0003805321860790114
1491.8566697143294,1491.8566697143294,1.0001457246014023,0.00038035932463924646
1491.8636142305725,1491.8636142305725,1.0001404033740184,0.0003800669574600019
1491.8705587470017,1491.8705587470017,0.9994963134205825,0.00037968419409346366
1491.8775032631518,1491.8775032631518,1.0004228837454572,0.00037961578599755575
1491.8844477792086,1491.8844477792086,0.9997006829606597,0.000379421047250549
1491.8913922952652,1491.8913922952652,0.9994142088996547,0.00037927404253131384
1491.8983368113215,1491.8983368113215,1.0000825409082903,0.00037914648175231606
1491.9052813273786,1491.9052813273786,0.9997495696051782,0.0003788780842270976
1491.912225843063,1491.912225843063,1.0001070698907597,0.0003788537848458682
1491.919170359026,1491.919170359026,1.0004125987077024,0.00037872783457566973
1491.9261148746177,1491.9261148746177,1.0000756405908475,0.0003784799944676663
1491.9330593903017,1491.9330593903017,1.0001214436173604,0.0003783793509144116
1491.9400039058924,1491.9400039058924,1.0003002203913207,0.0003783228056203458
1491.9469484212973,1491.9469484212973,0.9998878116362444,0.0003783146552128196
1491.9538929367957,1491.9538929367957,1.0002976178471488,0.0003782652222228954
1491.9608374521067,1491.9608374521067,1.0002121157689718,0.0003781888359485234
1491.9677819674184,1491.9677819674184,0.99960376856182,0.00037808787601932456
1491.9747264825442,1491.9747264825442,0.9993239720946867,0.00037805494539537045
1491.9816709975762,1491.9816709975762,1.0004293991632744,0.00037812044942474966
1491.9886155127017,1491.9886155127017,0.9999650026644176,0.00037817742431165444
1491.9955600276412,1491.9955600276412,0.9996493924155884,0.00037811985386201257
1492.002504542487,1492.002504542487,0.999808971134596,0.00037802737955583844
1492.0094490572399,1492.0094490572399,1.000066225007435,0.000378074125186673
1492.016393571993,1492.016393571993,1.0001218646231493,0.0003781101427120291
1492.0233380865598,1492.0233380865598,1.0003507784473458,0.0003781433759009541
1492.0302826010327,1492.0302826010327,1.000046162662068,0.0003780129909426726
1492.0372271155065,1492.0372271155065,1.000017371409578,0.00037803443515303933
1492.0441716299804,1492.0441716299804,0.9995850987135076,0.00037814569159961236
1492.051116144174,1492.051116144174,1.0004330938933572,0.0003781045248829871
1492.058060658368,1492.058060658368,1.0001409501889866,0.0003780119129927324
1492.0650051724692,1492.0650051724692,0.9999618510482661,0.00037799006346730214
1492.071949686663,1492.071949686663,0.9995996694109547,0.0003778693881325106
1492.0788942003915,1492.0788942003915,1.0002347302613557,0.0003781178105833912
1492.0858387142132,1492.0858387142132,0.999608514255798,0.0003779631286959881
1492.0927832283137,1492.0927832283137,1.0003161912748517,0.0003780294662624339
1492.0997277415765,1492.0997277415765,1.0003089532539347,0.0003781404103872591
1492.1066722553055,1492.1066722553055,0.9993766498590718,0.00037785241931735013
1492.1136167688474,1492.1136167688474,1.0008108396977708,0.0003781214640276433
1492.1205612822964,1492.1205612822964,1.0006304266245418,0.00037814772529346673
1492.1275057955593,1492.1275057955593,1.000052871578604,0.00037797725276966467
1492.1344503087284,1492.1344503087284,0.9997212331770898,0.0003779420941507502
1492.1413948218985,1492.1413948218985,0.9998645633712157,0.00037806416381182864
1492.1483393350684,1492.1483393350684,1.0000746805112974,0.00037803441711244183
1492.1552838479588,1492.1552838479588,0.9995742631509297,0.0003779461645607951
1492.162228360849,1492.162228360849,0.9993688986552514,0.0003779875990783433
1492.169172873646,1492.169172873646,1.000386008549203,0.00037806355774865216
1492.1761173861637,1492.1761173861637,0.9999185540333663,0.0003779792572467035
1492.1830618987744,1492.1830618987744,0.9999406958194808,0.00037814034557092627
1492.190006411292,1492.190006411292,1.0009654127228826,0.0003781077703225976
1492.1969509237165,1492.1969509237165,1.0004284192243458,0.0003780639277831175
1492.2038954360482,1492.2038954360482,0.9999578705994034,0.000378037428755844
1492.2108399483798,1492.2108399483798,1.0001328392571793,0.00037800246618024697
1492.2177844603386,1492.2177844603386,1.000062929251012,0.0003779615353990292
1492.2247289724833,1492.2247289724833,0.9993270095508746,0.00037801394273093305
1492.2316734843494,1492.2316734843494,1.0005563628285419,0.00037802457392274567
1492.2386179962155,1492.2386179962155,0.999775156149996,0.00037791095673719714
1492.2455625079876,1492.2455625079876,0.9999373707200221,0.00037795537333863715
1492.2525070195738,1492.2525070195738,1.0000414778766995,0.0003780393326155671
1492.2594515312537,1492.2594515312537,1.0003355443287192,0.00037808531261545637
1492.2663960426532,1492.2663960426532,0.9996813213493873,0.0003779732235009804
1492.2733405540537,1492.2733405540537,0.9999437365006016,0.00037802322889262134
1492.2802850652681,1492.2802850652681,0.9998061944642244,0.0003779377712469762
1492.2872295763887,1492.2872295763887,0.9998261590932127,0.00037796941064067145
1492.2941740874162,1492.2941740874162,1.00009342636387,0.0003779853676789719
1492.301118598444,1492.301118598444,1.0004092689243471,0.0003780826045987082
1492.3080631093785,1492.3080631093785,0.9996059678925887,0.0003779628021653062
1492.3150076201268,1492.3150076201268,1.000338679388372,0.0003779848695570296
1492.3219521307815,1492.3219521307815,0.9997663328473158,0.0003778356449187402
1492.3288966413434,1492.3288966413434,0.9996185123674769,0.0003779775744037859
1492.3358411519052,1492.3358411519052,1.0004503725547162,0.00037805011443245955
1492.3427856622811,1492.3427856622811,1.0001660246020285,0.00037791247660175757
1492.3497301725638,1492.3497301725638,1.0001581566067332,0.0003780184691743058
1492.3566746827528,1492.3566746827528,1.000047166869735,0.00037792602259732055
1492.3636191928495,1492.3636191928495,0.9998431714776521,0.0003778753952104813
1492.3705637027592,1492.3705637027592,1.0002897563631896,0.0003780090332655854
1492.3775082127625,1492.3775082127625,1.000317167501247,0.0003779730817120528
1492.3844527224858,1492.3844527224858,0.999406489530829,0.0003778132346657415
1492.3913972322098,1492.3913972322098,1.0000693033237078,0.0003780300439085938
1492.39834174184,1492.39834174184,0.9993134423680722,0.00037792876358412446
1492.4052862512847,1492.4052862512847,1.0001997092924901,0.0003779106930930656
1492.4122307606362,1492.4122307606362,0.999421475059526,0.00037794129009250033
1492.4191752701731,1492.4191752701731,1.0007000781117337,0.0003780123154343708
1492.426119779245,1492.426119779245,0.9999614973026663,0.0003780950558548461
1492.4330642883174,1492.4330642883174,1.0005999548945257,0.0003779357197843548
1492.440008797389,1492.440008797389,0.9997731272470436,0.00037808454431271816
1492.446953306275,1492.446953306275,1.0000577433757545,0.00037792372001809496
1492.4538978150674,1492.4538978150674,0.9996511500416341,0.00037792259553674453
1492.4608423236732,1492.4608423236732,1.0000349096705654,0.0003780491443248098
1492.4677868323724,1492.4677868323724,1.0002501041173804,0.0003781839224807734
1492.4747313407925,1492.4747313407925,1.0002236263378084,0.0003780908266619521
1492.4816758492125,1492.4816758492125,1.000020607072131,0.0003780222786626736
1492.4886203575393,1492.4886203575393,0.9994733763277829,0.00037793079853795517
1492.4955648657728,1492.4955648657728,1.0002746729433571,0.00037798220226815114
1492.50250937382,1492.50250937382,0.999292454523885,0.0003780144638274443
1492.509453881867,1492.509453881867,1.000352231365873,0.0003780009436810051
1492.5163983897285,1492.5163983897285,1.0004414242200266,0.0003781263782868335
1492.5233428974964,1492.5233428974964,0.9995717775277061,0.0003779381119084431
1492.5302874052643,1492.5302874052643,1.0009076262657934,0.00037815572574676317
1492.5372319127532,1492.5372319127532,0.9991572474577227,0.0003778926040260846
1492.5441764202417,1492.5441764202417,0.9999718425418076,0.00037798777519863135
1492.5511209277297,1492.5511209277297,1.0001104164862424,0.000378023742152847
1492.5580654350324,1492.5580654350324,1.000178826179177,0.0003779642623379105
1492.5650099421487,1492.5650099421487,0.9998509768841535,0.0003780107534711079
1492.5719544492642,1492.5719544492642,1.0002721945433488,0.000378121939282801
1492.5788989561938,1492.5788989561938,0.9999423121310617,0.00037792601052019295
1492.585843463217,1492.585843463217,1.000034046230612,0.00037800160378094277
1492.59278796996,1492.59278796996,0.9996018505320402,0.00037812666817434333
1492.5997324767045,1492.5997324767045,0.9998269936904611,0.00037805297304895123
1492.6066769830754,1492.6066769830754,0.9999571429761586,0.0003779724864212941
1492.6136214896328,1492.6136214896328,1.0003405908319316,0.0003779901783053265
1492.6205659960035,1492.6205659960035,1.0000487177506838,0.0003779835530793077
1492.6275105021882,1492.6275105021882,0.9998177269632587,0.0003779542425894595
1492.6344550083732,1492.6344550083732,1.0001947332861971,0.0003778557125596998
1492.6413995145576,1492.6413995145576,1.0002168384461105,0.0003781017049834268
1492.648344020463,1492.648344020463,0.9998664163337672,0.00037802371948932577
1492.655288526275,1492.655288526275,0.9998720340975271,0.00037780255593301506
1492.6622330320872,1492.6622330320872,1.0003915145472095,0.00037810229241152084
1492.669177537713,1492.669177537713,1.0001409868857718,0.0003780696340737025
1492.6761220433393,1492.6761220433393,1.0000447399072996,0.0003780322455799209
1492.6830665486855,1492.6830665486855,0.9994559148318378,0.00037803461923252693
1492.6900110541253,1492.6900110541253,1.0001346000335025,0.0003781418870333731
1492.6969555592855,1492.6969555592855,0.9995044120916375,0.0003779997524766626
1492.7039000645389,1492.7039000645389,0.9997515371992982,0.00037793456334263374
1492.7108445695126,1492.7108445695126,1.000556786150075,0.0003780725349272466
1492.7177890744867,1492.7177890744867,0.9998579754379018,0.0003779589766043852
1492.7247335792742,1492.7247335792742,0.9996280329935721,0.00037794927334087477
1492.731678083969,1492.731678083969,1.0006202305101064,0.0003781696751826787
1492.7386225887572,1492.7386225887572,1.0001966342149478,0.00037808131746464057
1492.7455670931718,1492.7455670931718,0.9998155120455221,0.00037794920474215176
1492.752511597587,1492.752511597587,0.999826333342267,0.0003779056745327073
1492.7594561020028,1492.7594561020028,1.0000492901600277,0.0003779066836082116
1492.7664006061389,1492.7664006061389,1.000473443320546,0.0003779197593050837
1492.7733451102745,1492.7733451102745,1.0000277477383486,0.0003780134703698023
1492.780289614317,1492.780289614317,0.9995922311424247,0.00037792983700380973
1492.7872341181733,1492.7872341181733,0.999621330916199,0.00037782785049061675
1492.7941786220297,1492.7941786220297,0.9999946412282938,0.0003779156303310661
1492.8011231257,1492.8011231257,1.0001004907735231,0.0003779815013245202
1492.8080676293703,1492.8080676293703,1.0001804696937782,0.000378036788322941
1492.815012132761,1492.815012132761,1.0004357215344013,0.0003781494597137013
1492.8219566362447,1492.8219566362447,1.0000580064210323,0.0003780032318581856
1492.8289011395423,1492.8289011395423,1.0001872837878576,0.00037812578351640615
1492.8358456427463,1492.8358456427463,0.9997171321285006,0.00037809549524104604
1492.8427901457649,1492.8427901457649,0.9998144107292248,0.0003779623694194387
1492.8497346487832,1492.8497346487832,0.999835790573055,0.00037805543885354674
1492.8566791517082,1492.8566791517082,0.9992805975221628,0.0003778641713537012
1492.8636236544473,1492.8636236544473,0.9998867816635428,0.00037793298168316324
1492.8705681570927,1492.8705681570927,1.00083358885791,0.00037816801831788775
1492.8775126597382,1492.8775126597382,0.9996813641999808,0.00037801508580263566
1492.8844571621976,1492.8844571621976,1.0006204941469894,0.0003780298827657276
1492.8914016644712,1492.8914016644712,1.0009858803759195,0.0003781455865497832
1492.89834616693,1492.89834616693,0.9993532315851651,0.00037789601545898095
1492.9052906691102,1492.9052906691102,0.9998613784727004,0.00037783697434779927
1492.9122351711974,1492.9122351711974,1.0002081875440125,0.00037795957839708097
1492.9191796729112,1492.9191796729112,1.0001890597192293,0.0003778804516495344
1492.926124174906,1492.926124174906,0.9993750274476367,0.0003778255733070969
1492.9330686766202,1492.9330686766202,1.00052226985468,0.0003780646668250055
1492.9400131782415,1492.9400131782415,0.9995383587043081,0.000377903849028905
1492.9469576798624,1492.9469576798624,1.000330808774642,0.0003780044234550302
1492.9539021812045,1492.9539021812045,0.999736023220334,0.0003779096238617903
1492.9608466825464,1492.9608466825464,0.9996022435986014,0.00037794025903042857
1492.967791183888,1492.967791183888,1.0009445410064264,0.00037818081873377716
1492.9747356849505,1492.9747356849505,1.000165196391348,0.00037806506749469415
1492.981680186013,1492.981680186013,0.9996545583127586,0.0003779662787471869
1492.9886246869821,1492.9886246869821,0.9998286074833862,0.00037801206334843836
1492.995569187765,1492.995569187765,0.9999346071456496,0.00037792363683699276
1493.0025136885483,1493.0025136885483,0.9997025276270097,0.0003780566482734778
1493.0094581890517,1493.0094581890517,0.999832554704996,0.0003779468003641751
1493.0164026896484,1493.0164026896484,1.0003803042696053,0.00037801478832154224
1493.0233471900592,1493.0233471900592,1.0000739938464056,0.0003780673041096212
1493.030291690376,1493.030291690376,0.9999448270092366,0.0003779543001950647
1493.0372361906004,1493.0372361906004,1.0004119528669806,0.00037801125828063064
1493.0441806907318,1493.0441806907318,1.0005126373811353,0.00037807122593690005
1493.0511251905832,1493.0511251905832,0.9994326899826378,0.00037790736175282114
1493.0580696907145,1493.0580696907145,1.0000815322456245,0.00037794339639486647
1493.0650141905667,1493.0650141905667,0.9997012991126308,0.00037791822235144437
1493.0719586902314,1493.0719586902314,0.9997169695174982,0.0003780661310627506
1493.0789031896177,1493.0789031896177,0.9999357395294638,0.0003781167637962608
1493.0858476892836,1493.0858476892836,1.0003231715314342,0.0003780608173647844
1493.092792188576,1493.092792188576,0.9994516717281232,0.00037778778444034556
1493.0997366878696,1493.0997366878696,1.0002104196606425,0.00037801420152708753
1493.1066811870692,1493.1066811870692,1.0004068376973305,0.0003780023532142276
1493.113625686176,1493.113625686176,0.9998071041529386,0.00037802641015260643
1493.1205701851893,1493.1205701851893,0.9999180923143417,0.0003779313927600579
1493.1275146840167,1493.1275146840167,1.0002159746067678,0.00037793697641365685
1493.1344591828438,1493.1344591828438,1.0001256205014766,0.0003778659992860387
1493.1414036814851,1493.1414036814851,1.000443614865856,0.00037795890072346084
1493.148348180126,1493.148348180126,0.9996753081943662,0.0003781439816492983
1493.1552926784875,1493.1552926784875,0.9999570815311453,0.0003779379033006789
1493.162237176942,1493.162237176942,1.0001821489614364,0.0003780287878006123
1493.1691816751177,1493.1691816751177,0.9996861428359292,0.0003779681214276352
1493.176126173386,1493.176126173386,1.0000123978451203,0.000378001224254142
1493.183070671375,1493.183070671375,0.9992343491737634,0.00037784574383267007
1493.1900151693644,1493.1900151693644,1.0000409885755874,0.0003780064002362211
1493.1969596672602,1493.1969596672602,1.0002616983029224,0.0003780772438211074
1493.2039041648763,1493.2039041648763,1.0004377315804156,0.0003780439403661667
1493.2108486626792,1493.2108486626792,1.0003464678970366,0.00037801729409606014
1493.21779316011,1493.21779316011,0.9999139820716859,0.00037802582161835423
1493.2247376575397,1493.2247376575397,1.0001622797050187,0.00037796840929690963
1493.23168215497,1493.23168215497,0.9999409616166798,0.0003780390238933583
1493.2386266522144,1493.2386266522144,0.9996967438581539,0.0003779091347638982
1493.2455711493647,1493.2455711493647,0.9995753132747787,0.0003779724233808639
1493.2525156463296,1493.2525156463296,0.9991529638017477,0.0003778539525102732
1493.2594601433877,1493.2594601433877,1.0002638822047696,0.0003780572413424198
1493.2664046401655,1493.2664046401655,0.9999288633397789,0.00037805653768023284
1493.273349136944,1493.273349136944,1.0001933774197045,0.0003779210420690663
1493.2802936335365,1493.2802936335365,1.0002162829952777,0.0003781072619917164
1493.2872381300356,1493.2872381300356,0.9998410149384995,0.0003779646100109222
1493.2941826265346,1493.2941826265346,1.000424877424956,0.00037806882554660526
1493.3011271228472,1493.3011271228472,0.9998372319605305,0.0003780879696712615
1493.3080716190666,1493.3080716190666,1.0000598394319378,0.0003779385378662477
1493.315016115193,1493.315016115193,0.9995669807540043,0.00037804328189638693
1493.3219606111331,1493.3219606111331,0.9997988070289499,0.0003779868116745215
1493.3289051071667,1493.3289051071667,1.0003492517148123,0.00037813362700999845
1493.3358496029202,1493.3358496029202,0.9998890899553663,0.000378005540762538
1493.3427940986742,1493.3427940986742,0.9996410036882629,0.00037798623904641967
1493.3497385942421,1493.3497385942421,0.9998039793893587,0.0003780512232139214
1493.3566830898092,1493.3566830898092,1.0006331463890732,0.00037804026001022283
1493.3636275851907,1493.3636275851907,1.0002147889941506,0.00037814285387447117
1493.3705720804792,1493.3705720804792,0.999835831159861,0.00037796742728173527
1493.3775165758602,1493.3775165758602,1.0000700788300665,0.00037801055462667333
1493.3844610709625,1493.3844610709625,0.9998461008777504,0.00037792844239179646
1493.3914055658784,1493.3914055658784,1.0004560576747452,0.00037804138397020336
