time,time,flux,flux_err
1354.1180771418294,1354.1180771418294,0.999657897236813,0.0003950354814623761
1354.126179158448,1354.126179158448,1.0002393834169623,0.00036070914919417407
1354.133123744054,1354.133123744054,1.0005823059254637,0.0003607618719422295
1354.1400683294744,1354.1400683294744,0.9998306653649462,0.00036064747027631644
1354.1470129148943,1354.1470129148943,0.9999998827499968,0.0003607454707675843
1354.1539575000352,1354.1539575000352,0.9998931154514779,0.00036074671548347477
1354.160902085176,1354.160902085176,0.9997924035180702,0.00036072256120392687
1354.1678466700373,1354.1678466700373,0.9997204787711429,0.0003607227768114921
1354.1747912548053,1354.1747912548053,1.0002653272977355,0.00036081161651737757
1354.1817358395742,1354.1817358395742,0.9999190698910467,0.0003607571942482415
1354.1886804240626,1354.1886804240626,0.9997151119156416,0.00036074622924220357
1354.1956250084586,1354.1956250084586,1.0000072084871077,0.00036077317135835177
1354.202569592761,1354.202569592761,1.0005727727658655,0.00036083431040952283
1354.2095141769705,1354.2095141769705,0.9999930265281142,0.0003607423193574623
1354.2164587609004,1354.2164587609004,1.0002980398005865,0.0003607453869086996
1354.2234033448308,1354.2234033448308,0.9997896516786472,0.00036071154627848186
1354.230347928667,1354.230347928667,0.9995725150603331,0.0003606774966733211
1354.237292512225,1354.237292512225,0.999823203979916,0.0003606643403076171
1354.2442370957826,1354.2442370957826,1.0002421895476183,0.0003607669020101996
1354.251181679154,1354.251181679154,1.0004621907991431,0.00036080864967087233
1354.2581262624317,1354.2581262624317,1.0001495791517043,0.0003607630473529579
1354.2650708455235,1354.2650708455235,0.9997922894856222,0.0003607544558551794
1354.2720154285223,1354.2720154285223,0.9997358867018363,0.0003607126789577521
1354.278960011428,1354.278960011428,1.0001891791112891,0.00036079079511703454
1354.2859045942403,1354.2859045942403,0.9999512508230058,0.00036075959129138466
1354.2928491767736,1354.2928491767736,0.9997171769090724,0.00036070606277434396
1354.2997937592131,1354.2997937592131,1.0000923517610563,0.0003607491336939738
1354.3067383416533,1354.3067383416533,0.9991440152364156,0.00036059943432749044
1354.3136829240934,1354.3136829240934,1.0005515218429548,0.000360803299873937
1354.3206275061607,1354.3206275061607,1.0004737075817944,0.00036074998021574337
1354.327572088228,1354.327572088228,1.0003775858043138,0.0003607674468266524
1354.3345166702024,1354.3345166702024,0.9996556803841561,0.0003607065877937989
1354.3414612518968,1354.3414612518968,1.0001272179586085,0.0003607450363045274
1354.3484058336853,1354.3484058336853,1.0001314016366176,0.0003607390567184084
1354.3553504151005,1354.3553504151005,0.9997857413177241,0.0003606587865612747
1354.3622949966093,1354.3622949966093,0.9997988213308375,0.00036065935852247716
1354.369239577932,1354.369239577932,0.9997618055023569,0.00036065291965881074
1354.3761841590676,1354.3761841590676,0.9998958931025964,0.0003606751292436692
1354.383128740204,1354.383128740204,0.9998948703124182,0.00036072866844316485
1354.3900733211535,1354.3900733211535,1.0002420386197426,0.00036070486988776793
1354.3970179020102,1354.3970179020102,1.0004147733479622,0.0003607455798695201
1354.4039624826808,1354.4039624826808,0.9997608523792263,0.0003606578246430304
1354.410907063351,1354.410907063351,1.0004473627809563,0.000360691636592754
1354.4178516438353,1354.4178516438353,0.999794168296026,0.00036064270234373807
1354.4247962240402,1354.4247962240402,0.9996434034720203,0.00036059185586592626
1354.431740804617,1354.431740804617,0.9999471379411841,0.00036065281112553646
1354.4386853847288,1354.4386853847288,1.0003477362777018,0.0003607191743778676
1354.445629964654,1354.445629964654,0.9999769220463903,0.0003606850951915895
1354.4525745444867,1354.4525745444867,0.9997011121981968,0.0003606291345916592
1354.4595191243188,1354.4595191243188,1.0002755175812275,0.0003606952960673657
1354.466463704058,1354.466463704058,1.0002867544855427,0.0003607033267508195
1354.4734082836108,1354.4734082836108,0.9993076822652242,0.00036052459300967086
1354.4803528630705,1354.4803528630705,0.9996211671286158,0.0003606031571503518
1354.4872974424366,1354.4872974424366,1.000128832752116,0.00036067708578224795
1354.4942420217108,1354.4942420217108,0.9998631850634869,0.00036059268332985404
1354.5011866008908,1354.5011866008908,1.0001057975157104,0.0003606442624388646
1354.5081311798845,1354.5081311798845,0.9997650998401714,0.0003606093794716798
1354.5150757588788,1354.5150757588788,1.0002531111741868,0.000360655474661253
1354.5220203375934,1354.5220203375934,1.000069369376833,0.0003606217173572296
1354.5289649163083,1354.5289649163083,1.0001267490718724,0.00036062347344017977
1354.5359094949295,1354.5359094949295,0.999790190077632,0.00036060105221192445
1354.5428540733649,1354.5428540733649,1.0001500831212526,0.00036057199865562436
1354.5497986518003,1354.5497986518003,0.9999359478885508,0.00036055436195695303
1354.5567432299563,1354.5567432299563,1.000037295970695,0.0003605970781673026
1354.5636878081116,1354.5636878081116,1.0000254038431435,0.0003605998514889916
1354.5706323862676,1354.5706323862676,1.0001236827233608,0.0003606022476432401
1354.5775769641439,1354.5775769641439,0.9999612783002373,0.000360587523713627
1354.5845215419274,1354.5845215419274,0.9999208830551257,0.00036058099323469116
1354.5914661197107,1354.5914661197107,0.9995416763785381,0.0003604901038169263
1354.5984106974943,1354.5984106974943,1.0000081614511678,0.00036060726705745914
1354.605355274812,1354.605355274812,1.000432759113969,0.000360664559181418
1354.6122998523156,1354.6122998523156,0.999822175790332,0.000360545345549898
1354.619244429633,1354.619244429633,1.0000787588480933,0.00036058779713481876
1354.6261890068577,1354.6261890068577,0.9997340800826295,0.00036048894137460246
1354.633133583896,1354.633133583896,1.0000467790517187,0.00036055664919679164
1354.640078160934,1354.640078160934,1.0000962011597392,0.00036058329612328815
1354.6470227378795,1354.6470227378795,0.9998693627849891,0.00036050816902809566
1354.653967314638,1354.653967314638,1.0004368418149927,0.0003606022077711877
1354.6609118913973,1354.6609118913973,0.9996875846710523,0.0003604858666987877
1354.66785646797,1354.66785646797,1.0005407265090136,0.00036060113735170976
1354.674801044356,1354.674801044356,1.0001413281840037,0.000360581864748796
1354.681745620836,1354.681745620836,0.9992245659985765,0.0003604219636463192
1354.6886901970356,1354.6886901970356,1.0000448066412089,0.0003605275638481495
1354.6956347732357,1354.6956347732357,0.9998745704810428,0.00036052418662131224
1354.7025793494358,1354.7025793494358,0.9995868385586597,0.0003604575136806812
1354.7095239253565,1354.7095239253565,0.9998579446777496,0.00036047346881643634
1354.7164685012772,1354.7164685012772,1.0001448704520914,0.0003606012213477318
1354.7234130771049,1354.7234130771049,0.9999646070495573,0.00036056703775644614
1354.730357652746,1354.730357652746,1.0002567425991182,0.0003606205538461877
1354.7373022284805,1354.7373022284805,0.9998637972135537,0.0003605352151194848
1354.7442468039358,1354.7442468039358,0.9996194815329504,0.00036047942613215824
1354.7511913793903,1354.7511913793903,1.0001242032067026,0.00036054141149113796
1354.7581359544731,1354.7581359544731,1.0006487267528752,0.00036063896543641857
1354.765080529835,1354.765080529835,1.0004448859848654,0.0003606226506970093
1354.7720251048245,1354.7720251048245,0.9999742989884718,0.0003605852525866491
1354.7789696799068,1354.7789696799068,0.9995767262418255,0.0003605368409096087
1354.78591425471,1354.78591425471,0.9998722681920112,0.00036055894536248683
1354.7928588296058,1354.7928588296058,1.0003543724158954,0.00036064467944791473
1354.799803404316,1354.799803404316,0.9995965022412483,0.0003605391059191373
1354.806747979026,1354.806747979026,0.9996370661084949,0.0003605689786064212
1354.8136925534563,1354.8136925534563,0.9994613499475804,0.00036046769168573197
1354.82063712798,1354.82063712798,1.000174364059069,0.0003605822546590908
1354.8275817023177,1354.8275817023177,1.0003184075527907,0.0003605774217660406
1354.834526276562,1354.834526276562,1.000345660484436,0.00036054541182312956
1354.841470850713,1354.841470850713,0.9996141399240202,0.00036044947180330936
1354.8484154247715,1354.8484154247715,1.0009049291007066,0.00036062176733801256
1354.8553599988293,1354.8553599988293,0.9990972078672291,0.0003603624795421758
1354.8623045726079,1354.8623045726079,1.0004828458450465,0.0003605019110596955
1354.86924914648,1354.86924914648,1.0005077789048764,0.000360549061075941
1354.8761937201652,1354.8761937201652,0.9997615506247882,0.00036040660329434636
1354.8831382937576,1354.8831382937576,0.9998300123743308,0.0003604210923405753
1354.8900828671638,1354.8900828671638,0.9997210390104192,0.0003604529348742398
1354.897027440663,1354.897027440663,0.9999522870395614,0.00036047472252366726
1354.903972013883,1354.903972013883,0.9998406564825384,0.00036049381782290134
1354.910916587382,1354.910916587382,1.0001289975971344,0.000360532506347497
1354.9178611605087,1354.9178611605087,0.9999388866654806,0.0003605370235535518
1354.9248057334491,1354.9248057334491,1.0005709931458442,0.00036063899361183646
1354.9317503062964,1354.9317503062964,0.9997948326141962,0.00036052456974191687
1354.9398060109372,1354.9398060109372,1.0001447264928611,0.0003605721929654295
1354.9470283666167,1354.9470283666167,0.9999937169841189,0.00036052757402405553
1354.9539729392775,1354.9539729392775,0.9994694351768543,0.000360429264748498
1354.9609175118453,1354.9609175118453,1.000005287655765,0.0003605552531692546
1354.9678620844136,1354.9678620844136,0.9999005054895932,0.00036051742870619037
1354.9748066567017,1354.9748066567017,1.00018786850139,0.00036054223575396956
1354.9817512290836,1354.9817512290836,1.000053892141357,0.0003605258444157537
1354.9886958013726,1354.9886958013726,1.0002429880443275,0.00036058424073681715
1354.9956403734745,1354.9956403734745,1.0001839546053903,0.0003606241788639149
1355.0025849455767,1355.0025849455767,0.9997291909923739,0.00036051719664379183
1355.0095295174926,1355.0095295174926,1.000669924075246,0.0003606371918411608
1355.016474089409,1355.016474089409,1.000002621014925,0.0003606053267199155
1355.0234186612313,1355.0234186612313,0.9999939068697279,0.00036055788654813233
1355.0303632328682,1355.0303632328682,1.0001491883787195,0.00036058800805413235
1355.037307804505,1355.037307804505,0.99919055597378,0.0003604234315170127
1355.0442523760482,1355.0442523760482,1.0004470455068497,0.0003606225713691685
1355.0511969474987,1355.0511969474987,0.9999390587711154,0.00036054649133476064
1355.0581415188558,1355.0581415188558,1.0003067339329743,0.00036056516105755507
1355.0650860902128,1355.0650860902128,1.0000338704837848,0.00036053538625234526
1355.0720306613844,1355.0720306613844,1.0003708952536878,0.0003605592691190921
1355.0789752323685,1355.0789752323685,0.9999231363304941,0.0003604994504458609
1355.0859198036326,1355.0859198036326,1.0002689791629737,0.0003605171987250026
1355.0928643744312,1355.0928643744312,1.0000588463679303,0.0003605173396064224
1355.0998089452296,1355.0998089452296,1.000038584864741,0.00036048079167845835
1355.1067535160278,1355.1067535160278,0.9992509617036053,0.00036036902372814757
1355.1136980868264,1355.1136980868264,0.9998912611067233,0.00036050423252962456
1355.1206426573453,1355.1206426573453,1.0002036125907403,0.00036052043990281873
1355.1275872279575,1355.1275872279575,1.000909137482441,0.0003606294907667559
1355.1345317982905,1355.1345317982905,0.9993229923571647,0.00036038836064649396
1355.141476368716,1355.141476368716,1.0000916239729893,0.00036051339830289167
1355.148420938956,1355.148420938956,1.0000429009216658,0.0003604911436973662
1355.1553655091025,1355.1553655091025,0.9997750009646706,0.0003604467823383561
1355.1623100793418,1355.1623100793418,1.0005294620963248,0.0003605601431262212
1355.1692546493023,1355.1692546493023,0.9996271970686852,0.00036042992941436784
1355.1761992191691,1355.1761992191691,1.0000725865827866,0.0003604912847323076
1355.1831437891294,1355.1831437891294,0.9995903223973661,0.00036045578024392413
1355.1900883588105,1355.1900883588105,1.000402695590639,0.00036057526063516067
1355.1970329285843,1355.1970329285843,0.9999008031745558,0.0003604829561052408
1355.2039774982652,1355.2039774982652,1.000318256146787,0.0003605514948053544
1355.2109220676666,1355.2109220676666,0.9997597815693376,0.0003604741534034934
1355.2178666371613,1355.2178666371613,1.0000487277760102,0.0003605042637590129
1355.224811206563,1355.224811206563,1.0001071462821407,0.00036053759617088894
1355.2317557757779,1355.2317557757779,0.999251939579827,0.0003603949189116616
1355.2387003450863,1355.2387003450863,1.000076217600784,0.000360481753261415
1355.245644914115,1355.245644914115,1.0000663984520126,0.00036045838937736463
1355.2525894831438,1355.2525894831438,1.0006130533252122,0.0003605533164601683
1355.259534052173,1355.259534052173,1.0000517859437403,0.0003604858310544479
1355.2664786211087,1355.2664786211087,0.9999035190487382,0.0003604537139899217
1355.273423189858,1355.273423189858,0.9997883110143635,0.0003604338186220391
1355.2803677585143,1355.2803677585143,1.0001769630686261,0.0003604680173812778
1355.2873123272639,1355.2873123272639,0.9995074802100412,0.00036038322547109994
1355.2942568959209,1355.2942568959209,1.0006773417853816,0.00036056255058596325
1355.3012014643905,1355.3012014643905,0.9998247757299046,0.00036043951126794817
1355.3081460328606,1355.3081460328606,0.9999176441319648,0.0003604668899887978
1355.3150906008652,1355.3150906008652,0.9994606679222132,0.0003603412302170229
1355.322035169335,1355.322035169335,1.001022180211856,0.0003606011647214051
1355.3289797374327,1355.3289797374327,0.9995299222819348,0.00036041910950260377
1355.3364798710081,1355.3364798710081,1.0000473164887225,0.0003605303301040954
1355.3442577871358,1355.3442577871358,1.000157937078494,0.0003605123620825817
1355.3512023551405,1355.3512023551405,0.9998501401210824,0.00036049811514556816
1355.3581469228652,1355.3581469228652,0.9999357831843307,0.0003604856224192538
1355.3650914907766,1355.3650914907766,0.9999516018133899,0.0003604936681654894
1355.3720360584084,1355.3720360584084,1.000049859299144,0.00036046381118887583
1355.3789806259474,1355.3789806259474,0.9996841767820674,0.0003604330165775326
1355.3859251935796,1355.3859251935796,0.9993865940820295,0.00036038694388676343
1355.392869761025,1355.392869761025,1.0001667500855356,0.0003605010675425661
1355.4006476765007,1355.4006476765007,1.0006888625520953,0.0003605569509607087
1355.4081478091443,1355.4081478091443,1.000418343650723,0.0003605553245221431
1355.4150923763111,1355.4150923763111,1.0002706488149142,0.000360572110659486
1355.422036943477,1355.422036943477,1.0003767705694755,0.00036053513147392115
1355.42898151055,1355.42898151055,0.9996618587075169,0.0003604294584412548
1355.4359260775304,1355.4359260775304,0.999512104972121,0.00036038632776721184
1355.442870644417,1355.442870644417,0.9992106902603302,0.0003603099777341836
1355.449815211304,1355.449815211304,0.9996875223982281,0.00036038009382937926
1355.4567597780047,1355.4567597780047,0.9999913581965656,0.00036045077685851145
1355.463704344705,1355.463704344705,1.0005225269574292,0.0003605088076242924
1355.4706489113128,1355.4706489113128,0.9999658770309232,0.00036047672985752087
1355.4775934779204,1355.4775934779204,1.0003787679400085,0.0003604951464129125
1355.4845380443417,1355.4845380443417,1.0005704426715476,0.0003604907441546127
1355.4914826106694,1355.4914826106694,0.9997758964854974,0.00036034767996079043
1355.4984271768112,1355.4984271768112,0.999641604239647,0.00036035216598870936
1355.505371743419,1355.505371743419,1.0002262400298623,0.0003604119604722039
1355.5123163095602,1355.5123163095602,0.9995422345161782,0.00036027958734771406
1355.519260875423,1355.519260875423,1.000217405290852,0.0003604442012626253
1355.5262054413784,1355.5262054413784,0.9998291180523994,0.0003603828961289236
1355.5331500075201,1355.5331500075201,1.0005718627593803,0.0003604777358943278
1355.5400945731967,1355.5400945731967,0.9996162337943764,0.0003603147227421321
1355.5470391390586,1355.5470391390586,0.9997109482870521,0.00036037037266126225
1355.553983704735,1355.553983704735,1.000098408562415,0.0003604126530324013
1355.5609282704113,1355.5609282704113,1.0004562918556923,0.00036049526655174667
1355.567872835994,1355.567872835994,0.9998194589820889,0.00036038015086465913
1355.574817401391,1355.574817401391,0.9997565749851729,0.00036038071130832896
1355.5817619667876,1355.5817619667876,1.0005416285256223,0.0003605702114935996
1355.5887065321845,1355.5887065321845,1.000232610197744,0.00036049677867428556
1355.595651097488,1355.595651097488,0.9996969598301664,0.0003604108456954543
1355.6025956626986,1355.6025956626986,0.9995241899613149,0.000360404255254872
1355.6095402277228,1355.6095402277228,0.9999728433842142,0.0003604933792758436
1355.616484792747,1355.616484792747,0.9999530311626167,0.0003604848429279164
1355.6234293576779,1355.6234293576779,1.0005898706041318,0.0003605824361702984
1355.6303739227023,1355.6303739227023,1.0001329894528963,0.0003605497967131896
1355.6373184875404,1355.6373184875404,0.9996723274076633,0.00036046208161867566
1355.6442630522852,1355.6442630522852,0.9996866274011686,0.00036048300358539954
1355.65120761703,1355.65120761703,1.0000432060444362,0.000360501094650605
1355.6581521815888,1355.6581521815888,1.0000791153870516,0.0003604974759804641
1355.6650967461471,1355.6650967461471,0.9994178147213321,0.0003604056398684104
1355.6720413106127,1355.6720413106127,1.0001073136523926,0.0003604681202235492
1355.6789858749848,1355.6789858749848,1.0005308023101045,0.00036051633048750386
1355.6859304393572,1355.6859304393572,0.9998411968119381,0.0003604294968165112
1355.6928750036363,1355.6928750036363,1.0002470986780727,0.0003604627779315317
1355.6998195678225,1355.6998195678225,1.0001751565862222,0.0003604454915092942
1355.7067641318222,1355.7067641318222,0.9999260721992347,0.00036047515034332846
1355.7137086960083,1355.7137086960083,1.0003936475936122,0.00036050955316158903
1355.7206532598218,1355.7206532598218,1.0000169248913218,0.0003604303538234929
1355.7275978236353,1355.7275978236353,0.9993984849722322,0.0003603407772682502
1355.7345423874488,1355.7345423874488,0.9999140237607801,0.00036039725658939886
1355.7414869512625,1355.7414869512625,0.9995965184947986,0.00036038502681161127
1355.749542645286,1355.749542645286,1.0001251396641546,0.0003604255215678523
1355.7567649913726,1355.7567649913726,1.0002725650841344,0.0003604498836093343
1355.7637095549067,1355.7637095549067,0.9999267138154199,0.0003604387620803133
1355.7706541183477,1355.7706541183477,1.0004419906749735,0.00036050309410422504
1355.7775986816955,1355.7775986816955,0.9999147566261032,0.00036039653236908645
1355.7845432450436,1355.7845432450436,1.0004321905783828,0.00036051200142188323
1355.7914878082981,1355.7914878082981,0.9992046915348904,0.00036031504378774865
1355.7984323714602,1355.7984323714602,1.0000953116104836,0.0003604103091632684
1355.8053769346213,1355.8053769346213,0.9997579244278032,0.00036042719703454615
1355.8123214976897,1355.8123214976897,1.0006891042686537,0.00036053550912934864
1355.8192660605723,1355.8192660605723,0.9989598499271493,0.0003603086584233754
1355.8262106234542,1355.8262106234542,1.0003762335074877,0.0003605120760943424
1355.8331551862434,1355.8331551862434,1.0004280372234553,0.00036053281029227663
1355.8400997491258,1355.8400997491258,0.9999935879995941,0.0003604885531364835
1355.8470443118213,1355.8470443118213,1.0000005450164524,0.0003604528933424674
1355.8539888744244,1355.8539888744244,1.0001826497393018,0.00036048700631033566
1355.860933436841,1355.860933436841,1.0000164207365843,0.0003604749084695782
1355.8678779993504,1355.8678779993504,0.999643884338632,0.0003603895421091918
1355.874822561767,1355.874822561767,1.0002716139023877,0.00036050987678730667
