time,time,flux,flux_err
1517.3640327098758,1517.3640327098758,0.9982316431213404,0.0002318647633836826
1517.373523625552,1517.373523625552,0.9983295299145457,0.00020957226433263214
1517.380468198468,1517.380468198468,0.9984986084330956,0.00020801676434755896
1517.3874127716404,1517.3874127716404,0.9985356183121976,0.00020673175462742173
1517.3946351281545,1517.3946351281545,0.9987936128378088,0.00020549278827193526
1517.4026908338578,1517.4026908338578,0.9994735130521315,0.00020413600436213568
1517.409635408101,1517.409635408101,0.9990104488840643,0.00020321324397825553
1517.4165799826471,1517.4165799826471,0.99933373365084,0.0002022545709435429
1517.4235245574953,1517.4235245574953,0.9994595552197776,0.00020142473756682317
1517.4304691326236,1517.4304691326236,0.9996133505782593,0.00020073963044664193
1517.4374137080777,1517.4374137080777,0.9998491798261039,0.00019997176825950822
1517.4443582837644,1517.4443582837644,0.9994184858984007,0.00019935064783891055
1517.4513028597771,1517.4513028597771,0.9999598790193328,0.0001987648538151816
1517.4582474360693,1517.4582474360693,1.0000794760030203,0.0001982545197719505
1517.4651920126175,1517.4651920126175,1.0003191862762781,0.00019773820411066184
1517.4721365893988,1517.4721365893988,0.9998951122584312,0.00019727322937977072
1517.4790811664593,1517.4790811664593,0.9997938720273629,0.00019681843358688298
1517.486025743799,1517.486025743799,0.9998683393332481,0.0001963667915680477
1517.4929703213486,1517.4929703213486,0.99983082932132,0.00019590301841439147
1517.4999148991772,1517.4999148991772,1.0000424672796218,0.00019554359265617802
1517.506859477216,1517.506859477216,1.0000170493267586,0.0001952134365558632
1517.5138040555105,1517.5138040555105,0.9998451215384219,0.00019481806843216077
1517.5207486340144,1517.5207486340144,1.00015930747056,0.00019450796914871878
1517.5276932127513,1517.5276932127513,1.0000050437444414,0.00019413551935140052
1517.5346377917444,1517.5346377917444,1.0001224419889974,0.00019386099038666522
1517.5415823709,1517.5415823709,1.0002187028532739,0.00019354219458019416
1517.5485269503356,1517.5485269503356,0.9997902034272762,0.00019329705845386172
1517.5554715299108,1517.5554715299108,1.0001177615708854,0.000193024216051934
1517.5624161096953,1517.5624161096953,0.9999938604006392,0.00019273899982071116
1517.5693606897125,1517.5693606897125,0.9999336422388054,0.00019252518680645746
1517.5763052699162,1517.5763052699162,0.9997851451299329,0.00019229036290662586
1517.58324985033,1517.58324985033,0.9999343466561295,0.00019202180533620762
1517.5901944308594,1517.5901944308594,0.9999843932331256,0.0001918583054548096
1517.5971390116451,1517.5971390116451,1.0002748057098532,0.00019169892959649184
1517.604083592594,1517.604083592594,1.0000658013774015,0.00019156653336799054
1517.6110281737056,1517.6110281737056,1.0001163016454364,0.00019133015541620933
1517.6179727550038,1517.6179727550038,0.9997654781920933,0.00019117297879299834
1517.6249173364881,1517.6249173364881,0.9998843853217547,0.0001910027967168022
1517.631861918112,1517.631861918112,0.9999019570047405,0.00019086395094812102
1517.6388064999223,1517.6388064999223,1.0000254130498685,0.00019073717005574364
1517.6457510818723,1517.6457510818723,1.0003629702957337,0.0001906097113453631
1517.6526956640319,1517.6526956640319,1.000245867338087,0.00019048125291262877
1517.6596402462615,1517.6596402462615,1.000154925703789,0.00019029212478697367
1517.6665848286998,1517.6665848286998,0.9997747270194235,0.00019018336423765576
1517.6735294112555,1517.6735294112555,1.0003191813363421,0.00019004029058894043
1517.6804739939737,1517.6804739939737,0.9995613419633745,0.00018981419561474086
1517.687418576878,1517.687418576878,1.0001594938629235,0.00018970685246698433
1517.6943631598526,1517.6943631598526,1.0002378882890524,0.00018956356173326137
1517.701307742967,1517.701307742967,1.0001515265077283,0.00018943854704771404
1517.7082523262202,1517.7082523262202,0.9998769331751653,0.00018922697625868521
1517.7151969096137,1517.7151969096137,1.0003277222080222,0.00018917146953710459
1517.7221414931469,1517.7221414931469,0.9996173587564359,0.00018895486792930063
1517.7290860767737,1517.7290860767737,1.0002535513889235,0.00018894540496885
1517.7360306605863,1517.7360306605863,0.9999886545188655,0.0001886801047756137
1517.742975244445,1517.742975244445,1.000152371181851,0.0001885885315385289
1517.749919828444,1517.749919828444,1.0003060451713583,0.0001885152371310135
1517.7568644125593,1517.7568644125593,0.9999761621013095,0.00018839229275343115
1517.7638089968375,1517.7638089968375,0.9997764198838948,0.00018815933225072604
1517.7707535811626,1517.7707535811626,0.9998478206854176,0.00018804958393965225
1517.7776981656273,1517.7776981656273,0.9997078758082013,0.00018793465232145947
1517.7846427501845,1517.7846427501845,1.000310029279321,0.00018790337788940597
1517.7915873348818,1517.7915873348818,1.000241928399516,0.00018773543338912942
1517.798531919626,1517.798531919626,1.0000545485265744,0.00018759056461456583
1517.8054765045094,1517.8054765045094,0.9997896444698882,0.0001874817388945717
1517.8124210894862,1517.8124210894862,1.0001074005724604,0.00018739745673759434
1517.8193656745327,1517.8193656745327,1.000043973250627,0.000187285803116712
1517.826310259696,1517.826310259696,0.9999224886765962,0.0001871987146930307
1517.8332548449519,1517.8332548449519,1.0000781529771785,0.0001871078865998403
1517.8401994302544,1517.8401994302544,0.9999405102245689,0.00018698135612864433
1517.8471440157202,1517.8471440157202,1.0000786907992896,0.00018694386719191795
1517.8540886012097,1517.8540886012097,1.000165496071474,0.00018687288588786552
1517.8610331868144,1517.8610331868144,1.0000023708906747,0.00018674053197811674
1517.8679777724667,1517.8679777724667,1.0000585864037697,0.0001867388726631821
1517.8749223582586,1517.8749223582586,1.0000549029881234,0.00018663228193418162
1517.8818669440495,1517.8818669440495,0.9998806823873089,0.00018657978166019846
1517.888811529981,1517.888811529981,0.9996521298360296,0.00018646895976189143
1517.8957561159825,1517.8957561159825,0.999949398794344,0.0001864131813141575
1517.9027007020536,1517.9027007020536,0.9996726108029759,0.00018639051931384159
1517.9096452881943,1517.9096452881943,0.999949615491078,0.0001863169731906426
1517.9165898743818,1517.9165898743818,1.000284843787113,0.00018626165048139334
1517.9235344606855,1517.9235344606855,1.0001561475042455,0.00018624690874929407
1517.9304790470128,1517.9304790470128,1.0000723764386474,0.00018616727999946648
1517.9374236334563,1517.9374236334563,0.9998986605817792,0.00018614033170688177
1517.9457571372168,1517.9457571372168,1.0000134696494276,0.00018612024520300359
1517.9527017237535,1517.9527017237535,0.9999673647345556,0.00018605123974409945
1517.9596463103599,1517.9596463103599,1.0001109437822282,0.00018607424668275782
1517.9665908970362,1517.9665908970362,0.9998759885503331,0.00018595282207881466
1517.9735354837592,1517.9735354837592,0.9998432719129363,0.00018589348682579045
1517.980480070552,1517.980480070552,0.9996812808678694,0.00018585399907808484
1517.9874246574147,1517.9874246574147,1.0001361913309013,0.00018584238338163108
1517.9943692443007,1517.9943692443007,1.0001404856006615,0.00018579894282494443
1518.0013138312797,1518.0013138312797,0.999931891016465,0.00018573577310065868
1518.0082584182123,1518.0082584182123,1.0000367915121129,0.0001857051452532679
1518.015203005308,1518.015203005308,1.0001946453504709,0.00018568180019017816
1518.0221475924268,1518.0221475924268,0.999874743055148,0.00018561126051932058
1518.0290921795688,1518.0290921795688,0.9999688251838086,0.00018557404466585775
1518.036036766804,1518.036036766804,1.000225319952554,0.00018554728147512702
1518.042981354039,1518.042981354039,1.0000579940163519,0.0001855818397782799
1518.049925941344,1518.049925941344,1.0000000458682943,0.00018552975273159513
1518.0568705286726,1518.0568705286726,1.0001299406394584,0.0001855045481419765
1518.063815116047,1518.063815116047,0.9999394808668616,0.00018544600206205872
1518.0707597034686,1518.0707597034686,0.9998791752329653,0.00018538757489830942
1518.077704290937,1518.077704290937,1.000022184879239,0.00018536955965537581
1518.0846488784514,1518.0846488784514,0.999853461546451,0.000185303473264941
1518.091593465989,1518.091593465989,0.9995813524735384,0.00018534140824222683
1518.098538053574,1518.098538053574,1.0001257292827235,0.00018528283570815805
1518.1054826412042,1518.1054826412042,0.9998972077425702,0.0001852457482646264
1518.1124272288357,1518.1124272288357,1.0001527013646707,0.00018528572572517943
1518.1193718165366,1518.1193718165366,1.0002068820841619,0.000185202352935897
1518.1263164042607,1518.1263164042607,1.0002529668646696,0.00018513477611322273
1518.1332609920314,1518.1332609920314,1.0000115261240599,0.00018512622904223104
1518.1402055798253,1518.1402055798253,0.9999684019336431,0.00018511322022531939
1518.1471501676424,1518.1471501676424,1.0001265837376585,0.0001850433140346271
1518.1540947554831,1518.1540947554831,0.9998420794048322,0.0001849744496132636
1518.1610393433934,1518.1610393433934,0.9999597833595232,0.00018496798629691856
1518.1679839313038,1518.1679839313038,0.999697992371188,0.0001849411797327126
1518.1749285192377,1518.1749285192377,0.9998364269364105,0.00018492940169237852
1518.1818731071946,1518.1818731071946,1.0001544976752972,0.0001849497135386356
1518.188817695175,1518.188817695175,1.0001484055485328,0.00018484411606964305
1518.195762283202,1518.195762283202,0.999872723624725,0.0001848255190633272
1518.2027068712516,1518.2027068712516,1.0002551945688793,0.00018488772445317535
1518.2096514593252,1518.2096514593252,0.999891719388807,0.00018480746263887013
1518.2165960473985,1518.2165960473985,1.000058075303322,0.00018479657929331843
1518.2235406355182,1518.2235406355182,0.9998768775610397,0.0001848026100474863
1518.2304852236853,1518.2304852236853,0.9999203635143917,0.00018474942046704335
1518.237429811782,1518.237429811782,1.0001975871877173,0.00018473566826222496
1518.2443743999943,1518.2443743999943,1.0002549336533049,0.00018474702267875202
1518.251318988208,1518.251318988208,0.999878203444933,0.00018470059070590277
1518.258263576421,1518.258263576421,0.9999147654429535,0.0001847345844077333
1518.2657637316909,1518.2657637316909,1.0000133745514235,0.00018464482162377396
1518.2735416705596,1518.2735416705596,0.9999226431825509,0.00018469078888522849
1518.2804862588189,1518.2804862588189,0.9998674695262799,0.0001846475585804327
1518.2874308471255,1518.2874308471255,1.0000580355930249,0.00018466967597421003
1518.2943754354317,1518.2943754354317,0.9999338793905027,0.0001846328571058104
1518.3013200237378,1518.3013200237378,1.0000898469298476,0.00018453454147595222
1518.308542395596,1518.308542395596,1.0000848750003886,0.00018461231094566168
1518.316598118086,1518.316598118086,1.0000291738958764,0.00018462341375718953
1518.3235427064617,1518.3235427064617,0.999964270965845,0.00018455475957571233
1518.3304872948383,1518.3304872948383,1.0000771700662825,0.00018459792665081085
1518.337431883237,1518.337431883237,0.9996658750836633,0.00018448185037466506
1518.3443764716135,1518.3443764716135,1.0000331060368046,0.00018454560269013764
1518.3513210600363,1518.3513210600363,1.0001029051325654,0.0001845086021911502
1518.3582656484818,1518.3582656484818,1.000046528707626,0.00018448449322315666
1518.3652102368815,1518.3652102368815,0.9998067982061389,0.0001844479130208311
1518.3721548253275,1518.3721548253275,1.0000486031401994,0.00018442439260644785
1518.3790994137962,1518.3790994137962,1.0002231943165796,0.00018444412689663147
1518.3860440022424,1518.3860440022424,1.000258947479259,0.00018444848093965727
1518.3929885906884,1518.3929885906884,1.0000506427273423,0.00018438031898234964
1518.3999331792038,1518.3999331792038,0.9997487432807496,0.00018437822467105852
1518.40687776765,1518.40687776765,1.0001169886972727,0.0001843218544868247
1518.4149334903032,1518.4149334903032,1.0000381623914463,0.00018441767249989755
1518.4221558623472,1518.4221558623472,0.9998722446039263,0.00018439198784861116
1518.4291004508632,1518.4291004508632,0.9995988099923533,0.00018423897726744636
1518.4360450393556,1518.4360450393556,0.9998489338476059,0.00018424980703322884
1518.4429896278712,1518.4429896278712,1.0002888459483006,0.0001843292870677254
1518.4499342163638,1518.4499342163638,1.0001310493944127,0.00018432638159425534
1518.4571565884082,1518.4571565884082,1.0001999891516458,0.00018431989107105668
1518.4652123110845,1518.4652123110845,0.9999292348200722,0.00018416896760585798
1518.472156899577,1518.472156899577,0.999827658971072,0.00018424847525974053
1518.4791014881162,1518.4791014881162,1.0001563391389223,0.000184304139828584
1518.4860460766552,1518.4860460766552,0.9997641061833835,0.0001842043967907246
1518.4929906651473,1518.4929906651473,1.0000052696025834,0.0001842524541340748
1518.4999352536865,1518.4999352536865,0.999894233100564,0.00018421743341619337
1518.5068798422258,1518.5068798422258,1.0004447966100942,0.00018425871517958295
1518.513824430718,1518.513824430718,0.9998384943813401,0.00018414421603827707
1518.5207690192572,1518.5207690192572,1.0000763093374803,0.00018426799192345394
1518.5277136077962,1518.5277136077962,0.999968603539753,0.00018420895055290667
1518.5346581962883,1518.5346581962883,1.000024388314245,0.00018422070718442348
1518.5416027848046,1518.5416027848046,0.9997481734157345,0.00018421107657262784
1518.5485473733434,1518.5485473733434,0.9998230071357581,0.0001841887484962706
1518.5554919618592,1518.5554919618592,1.0002973355466405,0.00018428551978396838
1518.562436550375,1518.562436550375,1.0000138527539206,0.0001842124426228694
1518.5693811388676,1518.5693811388676,1.0000296455531141,0.00018421005877292972
1518.576325727383,1518.576325727383,1.0000910771685956,0.00018421139403212896
1518.5832703158756,1518.5832703158756,1.0000440715102266,0.00018410941832772875
1518.5902149043916,1518.5902149043916,0.9999672172883314,0.0001842180900988467
1518.5971594928603,1518.5971594928603,0.9998662263459945,0.000184188831595576
1518.6041040813298,1518.6041040813298,0.9998857312630909,0.0001842272260643634
1518.6110486698456,1518.6110486698456,1.000130686527357,0.00018417899173390015
1518.6179932582913,1518.6179932582913,0.9996280729238803,0.0001842106501454635
1518.6249378467835,1518.6249378467835,1.0001020465538542,0.00018418931365777295
1518.63188243523,1518.63188243523,1.000299083980431,0.00018427420161942637
1518.638827023699,1518.638827023699,0.999969158545934,0.00018423409856152328
1518.6457716121447,1518.6457716121447,1.000140321835002,0.0001842170721209522
1518.652716200591,1518.652716200591,1.0000300665168325,0.00018416663471890695
1518.6596607890367,1518.6596607890367,1.000035347030748,0.00018424874896809547
1518.6666053774593,1518.6666053774593,0.9996645300105522,0.00018415325471940155
1518.6735499658819,1518.6735499658819,0.9998645310650213,0.0001842351680763506
1518.6804945542813,1518.6804945542813,0.9998933795983955,0.00018416607697191635
1518.6874391427036,1518.6874391427036,0.9999851360337333,0.00018421137969371084
1518.6943837310796,1518.6943837310796,0.9999448863473646,0.0001842146285178485
1518.7013283194792,1518.7013283194792,1.000013673624014,0.00018421086908171656
1518.7082729078318,1518.7082729078318,0.9999856830824279,0.0001841591276901023
1518.7152174962312,1518.7152174962312,0.9998711155364415,0.00018421111477010104
1518.7221620845608,1518.7221620845608,1.0002875619046463,0.0001841489099632196
1518.7291066729135,1518.7291066729135,1.0006274068426706,0.00018421136090003345
1518.7360512612431,1518.7360512612431,1.0001483288452013,0.0001842189315528943
1518.7429958495727,1518.7429958495727,1.000246725288386,0.00018425053375714198
1518.7499404378786,1518.7499404378786,1.000169620823105,0.00018424802437899167
1518.756885026185,1518.756885026185,0.9997878075496012,0.00018415857478259784
1518.7638296144912,1518.7638296144912,0.9998477989970127,0.00018415519992887844
1518.7707742027274,1518.7707742027274,1.0000209804900404,0.00018419163775295152
1518.777718791057,1518.777718791057,0.999826917989958,0.00018419699228253503
1518.7846633792701,1518.7846633792701,1.0002469140042738,0.00018424224153578824
1518.7916079674828,1518.7916079674828,0.9998277855035005,0.00018420175407817753
1518.7985525556962,1518.7985525556962,0.9999758537563306,0.0001841462840487691
1518.8054971439092,1518.8054971439092,1.0000722111935767,0.00018421094617454336
1518.8124417321221,1518.8124417321221,1.0002001092369817,0.0001842712935510017
1518.8193863203353,1518.8193863203353,1.000018998637214,0.00018417001448822534
1518.8263309085487,1518.8263309085487,0.9997271616934181,0.0001841791775607494
1518.8332754966684,1518.8332754966684,1.00005693655766,0.00018418198620173635
1518.8402200848582,1518.8402200848582,0.9999861226548153,0.0001842222166760804
1518.8471646729547,1518.8471646729547,0.9999809980120731,0.00018422855969584274
1518.854109261075,1518.854109261075,1.0001127524543774,0.00018419746070687758
1518.8610538491946,1518.8610538491946,0.9998865239105601,0.00018420899090607778
1518.8679984372911,1518.8679984372911,1.00037949388278,0.00018427924124797326
1518.8749430253645,1518.8749430253645,1.0001151928977365,0.00018423794985086074
1518.8818876133914,1518.8818876133914,0.9996610259288342,0.00018417253637017654
1518.8888322014648,1518.8888322014648,0.9996966175165003,0.00018417483816080202
1518.8957767894683,1518.8957767894683,0.9999089383255946,0.00018411706840530087
1518.9027213774953,1518.9027213774953,1.0002642411391325,0.0001842323761718781
1518.9096659654751,1518.9096659654751,0.9998929194366329,0.0001841483174565065
1518.9166105534555,1518.9166105534555,1.0002115461854975,0.00018421341492924246
1518.9235551414126,1518.9235551414126,1.0001642362783894,0.00018429324660319875
1518.9304997293925,1518.9304997293925,0.9997666778884714,0.0001842159422267665
1518.9374443173033,1518.9374443173033,1.0000059963091785,0.0001842041986998622
1518.9443889052134,1518.9443889052134,1.0002236252773722,0.00018420034866607722
1518.9513334931003,1518.9513334931003,0.9996909538557468,0.00018414631391305798
1518.9582780809646,1518.9582780809646,1.000290972238974,0.00018416109182886647
1518.9652226688283,1518.9652226688283,0.9998604539011483,0.00018420061448746873
1518.9721672566689,1518.9721672566689,1.0000829952550054,0.00018424491798495194
1518.9791118445096,1518.9791118445096,0.9998304068802619,0.00018421981327232484
1518.9860564322803,1518.9860564322803,0.9999586080352492,0.00018423713101087212
1518.9930010200972,1518.9930010200972,1.0002232180450323,0.00018418133481332887
1518.9999456078447,1518.9999456078447,0.9998770287939946,0.00018418185760936474
1519.006890195592,1519.006890195592,1.0000044228581533,0.00018417342950108619
1519.0138347833165,1519.0138347833165,0.9999511573504265,0.00018424543067059146
1519.0207793710636,1519.0207793710636,0.9999158212799045,0.0001841995046010052
1519.0277239586947,1519.0277239586947,0.9997822485982344,0.00018417225206802612
1519.0346685464424,1519.0346685464424,1.0003603188868992,0.00018427993296701083
1519.041613134073,1519.041613134073,1.0001724239847314,0.00018423480781883586
1519.0485577217041,1519.0485577217041,0.9997837547852017,0.00018418256191686603
1519.055502309335,1519.055502309335,1.0000611225206029,0.00018418983104956187
1519.0624468968729,1519.0624468968729,0.999990653064344,0.00018419645044982056
1519.06939148448,1519.06939148448,1.000156521607103,0.00018425215263740517
1519.0763360720182,1519.0763360720182,0.9998599798041656,0.00018422914776932672
1519.0832806595563,1519.0832806595563,0.9999730495860648,0.00018416191534224505
1519.0902252470705,1519.0902252470705,0.9999926923490345,0.00018420733309996323
1519.097169834562,1519.097169834562,0.9996432408294315,0.00018415757121775965
1519.10411442203,1519.10411442203,1.0002992734577947,0.0001842467675793098
1519.1110590094981,1519.1110590094981,1.0000738187531142,0.00018423384716261315
1519.1180035969192,1519.1180035969192,0.9998844668145773,0.0001841685670352249
