time,time,flux,flux_err
1410.910287370525,1410.910287370525,0.9981715198574497,0.00022952030053996941
1410.9179263574274,1410.9179263574274,0.9987888474474362,0.0002095831301111923
1410.9248708909752,1410.9248708909752,0.9988215882828207,0.00020959976290615634
1410.9318154240568,1410.9318154240568,0.9992153473253038,0.0002096406595807872
1410.9387599572322,1410.9387599572322,1.0001709146765374,0.00020970837447327524
1410.9457044901274,1410.9457044901274,1.0003294047462468,0.00020972523410805205
1410.952649023116,1410.952649023116,1.0006999351759642,0.0002097540141323075
1410.9595935559191,1410.9595935559191,1.0006165799214597,0.0002097532020083764
1410.967926995058,1410.967926995058,1.0010647112981717,0.0002097682365431462
1410.9840383102805,1410.9840383102805,0.9992260602360424,0.00020946683890418725
1410.9915384052085,1410.9915384052085,1.000151332276967,0.0002095728271773722
1411.001260750126,1411.001260750126,0.9999440783972064,0.00020951332390143967
1411.0109830947645,1411.0109830947645,0.9998239725549478,0.00020958506116746777
1411.0179276266354,1411.0179276266354,1.0000516481952872,0.00020960386253084128
1411.0248721582273,1411.0248721582273,1.0011201939644985,0.00020972306209994827
1411.0318166899126,1411.0318166899126,1.000791174819799,0.00020973262264486334
1411.0387612211312,1411.0387612211312,1.0003592813924826,0.0002097013321853815
1411.045705752351,1411.045705752351,0.9996729101416845,0.0002096933428625626
1411.053761408565,1411.053761408565,0.9998506190399052,0.00020972996313772078
1411.0609837210334,1411.0609837210334,0.999883442126077,0.00020979074756780107
1411.067928251973,1411.067928251973,0.9993024179879926,0.00020976377480404844
1411.0748727827263,1411.0748727827263,1.0001690304303912,0.00020989379573265328
1411.0818173134803,1411.0818173134803,0.9996295367878941,0.000209910691571164
1411.0887618439542,1411.0887618439542,1.0000089189088037,0.00020999593961464703
1411.0957063743351,1411.0957063743351,1.0004356647243708,0.00021007801948793128
1411.1026509047165,1411.1026509047165,0.9998933893055362,0.00021008263286614163
1411.1095954348177,1411.1095954348177,0.9999200247617731,0.00021013453522731492
1411.116539964827,1411.116539964827,1.0000142240344911,0.0002101818941643551
1411.123484494835,1411.123484494835,1.0002421274385411,0.00021028163365592405
1411.1304290246576,1411.1304290246576,1.0000088309570239,0.00021028232977875162
1411.1373735543866,1411.1373735543866,1.0004740757078754,0.00021041833352597765
1411.1443180838362,1411.1443180838362,0.9998425116227843,0.00021046515578877816
1411.1512626132865,1411.1512626132865,1.0003727400943747,0.00021058584373954362
1411.1582071426424,1411.1582071426424,0.9995803527410517,0.00021058246919573092
1411.165151671627,1411.165151671627,0.9995539984904518,0.00021066750766161294
1411.17209620089,1411.17209620089,1.000207460066445,0.00021077763458450405
1411.1790407298738,1411.1790407298738,1.0001610130982777,0.00021088870791138108
1411.1859852583934,1411.1859852583934,0.9997510306195926,0.00021095118777560273
1411.1929297871905,1411.1929297871905,0.9996248571176898,0.00021102538614165196
1411.1998743156157,1411.1998743156157,1.0000333641885366,0.00021115400486646963
1411.2068188441342,1411.2068188441342,0.9996111263515051,0.0002112001266843591
1411.21376337228,1411.21376337228,1.0013279595028697,0.0002114573830264001
1411.2207079004263,1411.2207079004263,1.000415983070982,0.00021143622570257608
1411.2276524284785,1411.2276524284785,0.9997768934649219,0.0002114908890905348
1411.2345969564383,1411.2345969564383,1.0002381471129762,0.00021164228367122855
1411.241541484212,1411.241541484212,0.9999158115295721,0.00021173354364151473
1411.2484860117052,1411.2484860117052,1.000096626775338,0.00021188790131707858
1411.2554305392932,1411.2554305392932,1.0002997679971748,0.0002120424136334544
1411.2623750666003,1411.2623750666003,0.9997986414868707,0.00021210393209320394
1411.2693195939084,1411.2693195939084,1.0003753371360316,0.00021226707187800093
1411.2762641209367,1411.2762641209367,1.0000123126524336,0.00021230730565814857
1411.2832086478713,1411.2832086478713,0.9995590303483466,0.0002123822457300804
1411.2901531749,1411.2901531749,0.9993417001043532,0.0002124484951985753
1411.2970977014625,1411.2970977014625,0.9996687036361062,0.0002125906479133898
1411.3040422280253,1411.3040422280253,0.9993207475874701,0.00021262592866737095
1411.310986754588,1411.310986754588,0.9997962186662221,0.00021277638191363087
1411.317931280871,1411.317931280871,1.0003549177871132,0.0002129153213075274
1411.3248758070617,1411.3248758070617,1.0018831600994236,0.0002131163756451083
1411.3318203331582,1411.3318203331582,1.0007202100712083,0.0002130567089008213
1411.3387648590692,1411.3387648590692,1.0001724532545353,0.0002130555379584342
1411.3457093848865,1411.3457093848865,0.9996927603189796,0.00021306769978616835
1411.352653910518,1411.352653910518,1.0001104783512997,0.0002131891956154319
1411.359598436056,1411.359598436056,0.9996538597826742,0.00021317016835918943
1411.3665429615007,1411.3665429615007,0.9993245556819131,0.00021317344515719272
1411.3734874867603,1411.3734874867603,1.0000326159055146,0.0002132989378731326
1411.3804320119252,1411.3804320119252,0.9997792889872923,0.00021333650301527465
1411.387376536998,1411.387376536998,1.0004752380977082,0.00021341353302842627
1411.3943210618847,1411.3943210618847,1.0000841439565245,0.0002133863549644341
1411.401265586584,1411.401265586584,1.0002231894346714,0.00021339662193514954
1411.4082101111915,1411.4082101111915,0.9997076070877402,0.00021333452219867298
1411.415154635798,1411.415154635798,1.0000234312990846,0.0002133457843088246
1411.4220991600328,1411.4220991600328,0.9998543408351985,0.00021328795130633437
1411.429043684267,1411.429043684267,0.9998199515968512,0.00021329283221096368
1411.4359882085005,1411.4359882085005,1.0000730658632415,0.00021326752953862324
1411.4429327323633,1411.4429327323633,0.9994908096983186,0.0002131301126798299
1411.4498772563177,1411.4498772563177,0.9998444888107889,0.00021313696803268298
1411.4568217799933,1411.4568217799933,0.9999948978654192,0.00021311693118987937
1411.463766303576,1411.463766303576,1.0005918684523663,0.00021310436151281516
1411.470710827065,1411.470710827065,1.0003905344089021,0.0002130122079588413
1411.4776553503684,1411.4776553503684,0.9997435853378027,0.000212886185484237
1411.484599873578,1411.484599873578,0.9999213017227492,0.00021283511977330236
1411.4915443966952,1411.4915443966952,1.0002115234579958,0.00021282647352534627
1411.4984889195323,1411.4984889195323,0.9998377862298558,0.00021273693401101145
1411.5054334422762,1411.5054334422762,0.9997933068615478,0.00021268454809099066
1411.512377965021,1411.512377965021,1.0002573633831453,0.00021266138903234876
1411.5193224875784,1411.5193224875784,1.0008249544027474,0.0002126887147984804
1411.5262670099505,1411.5262670099505,1.0005308819418979,0.00021264063910802147
1411.5332115323222,1411.5332115323222,1.00039626773445,0.00021262445772933302
1411.540156054321,1411.540156054321,1.0001372173049083,0.00021253567203115997
1411.5471005764136,1411.5471005764136,0.999987951021601,0.00021248467971223575
1411.5540450982262,1411.5540450982262,1.000133052360943,0.00021248005873885457
1411.5609896200397,1411.5609896200397,0.9992343791548706,0.00021236396923587442
1411.5679341417592,1411.5679341417592,0.9996936665734989,0.00021236090109098756
1411.5748786632928,1411.5748786632928,1.0002202624139092,0.00021239313289519234
1411.5818231846401,1411.5818231846401,0.999735727642294,0.00021228021503520825
1411.588767705894,1411.588767705894,0.9999953448215798,0.00021230197975339156
1411.5957122270554,1411.5957122270554,0.9997584369306252,0.00021226434651425456
1411.6026567480294,1411.6026567480294,1.00034580560116,0.00021226151934339998
1411.6096012688186,1411.6096012688186,0.9998341770022309,0.00021215704787872297
1411.6165457896066,1411.6165457896066,1.0000613056425096,0.000212129969067283
1411.6234903102084,1411.6234903102084,1.0004051159065137,0.00021210703220709347
1411.6304348307185,1411.6304348307185,0.9999678930297324,0.0002120464918613758
1411.6373793510406,1411.6373793510406,1.0007826683188483,0.0002121158136529877
1411.6443238711774,1411.6443238711774,0.9998674486190513,0.00021196888694427566
1411.6512683913138,1411.6512683913138,0.9994747275274106,0.0002118974620180112
1411.658212911357,1411.658212911357,1.000654732221898,0.00021197470943490636
1411.6651574311213,1411.6651574311213,1.000300692208764,0.00021188625146172235
1411.672101950978,1411.672101950978,0.9994721160449245,0.00021179400878286797
1411.6790464705562,1411.6790464705562,0.999522088968045,0.00021172949658642654
1411.6859909898544,1411.6859909898544,1.0002038903666841,0.00021176319707800657
1411.692935509246,1411.692935509246,0.9995997851171327,0.0002116696991715257
1411.6998800283582,1411.6998800283582,1.0000212202443923,0.00021168998973622788
1411.7068245474698,1411.7068245474698,1.0001855345336388,0.00021164393379723072
1411.7137690663963,1411.7137690663963,1.000497119008752,0.0002116514229962935
1411.7207135852284,1411.7207135852284,1.0002594358684282,0.00021161321052760661
1411.7276581039682,1411.7276581039682,1.0003472087913017,0.00021156525280691474
1411.7346026224282,1411.7346026224282,1.000130739529218,0.00021152560185041315
1411.7415471407953,1411.7415471407953,0.9997628542658464,0.00021145184675582174
1411.7484916592555,1411.7484916592555,0.9997865844191759,0.0002114270547085532
1411.7554361773427,1411.7554361773427,0.9993147022457928,0.00021134390513557441
1411.7623806954311,1411.7623806954311,1.0000497666159383,0.00021138251792998802
1411.769325213332,1411.769325213332,0.9998911570930968,0.00021132433262021207
1411.7762697312335,1411.7762697312335,1.0001133869868633,0.0002112960210770024
1411.7832142488555,1411.7832142488555,1.0000769588874854,0.00021126960077213876
1411.790158766477,1411.790158766477,0.9996559827319359,0.00021116987591000198
1411.7971032838202,1411.7971032838202,1.0000435513956456,0.0002111566502246903
1411.804047801069,1411.804047801069,1.000393657754221,0.00021113064226734678
1411.8109923183188,1411.8109923183188,1.0000740793068104,0.00021101207528075828
1411.8179368354752,1411.8179368354752,1.0002131417408708,0.0002109781511869809
1411.8248813523517,1411.8248813523517,0.9996446689850773,0.00021087114183025057
1411.8318258691363,1411.8318258691363,0.9995036313372593,0.0002108000088341601
1411.838770385733,1411.838770385733,1.000379694229635,0.00021081851451284573
1411.8457149024243,1411.8457149024243,0.9999419004284054,0.00021071856464770325
1411.852659418742,1411.852659418742,1.0000503616587992,0.0002106931512804337
1411.85960393506,1411.85960393506,1.000184171250361,0.00021064989630181327
1411.866548451285,1411.866548451285,1.0002119280724988,0.00021060588478360128
1411.8734929673235,1411.8734929673235,1.000386198677869,0.00021056125058260057
1411.8804374832696,1411.8804374832696,0.9996621373326015,0.00021043530414775166
1411.8873819990283,1411.8873819990283,0.999899432117233,0.0002104417113786635
1411.8943265147884,1411.8943265147884,1.0000173264074248,0.00021041959876612728
1411.901271030268,1411.901271030268,0.9999517368369955,0.0002103660446174229
1411.9082155457481,1411.9082155457481,1.0001403698154108,0.00021034121920325655
1411.9151600610417,1411.9151600610417,0.9999861106525187,0.0002102537915873842
1411.9221045761487,1411.9221045761487,1.0001350979426324,0.00021024306629223568
1411.9290490912567,1411.9290490912567,0.9998620582186251,0.00021016920450148252
1411.9359936063636,1411.9359936063636,0.9995643384522623,0.00021011439276869795
1411.9429381209127,1411.9429381209127,0.9997689457708578,0.00021005633631166165
1411.9498826358335,1411.9498826358335,0.9996165680921016,0.00021000326195134451
1411.9568271502887,1411.9568271502887,0.9999951274267909,0.00021001571784715487
1411.963771664838,1411.963771664838,1.0006082301396897,0.00021000479406624623
1411.9707161791064,1411.9707161791064,1.000774711601132,0.00020995541500524033
1411.9776606933763,1411.9776606933763,0.9997240167388899,0.00020979966933107712
1411.9846052074588,1411.9846052074588,0.9998060266563167,0.00020976783920707105
1411.9915497213558,1411.9915497213558,0.9997447932388118,0.00020974636870860758
1411.9984942352526,1411.9984942352526,0.9995330592164281,0.00020965841712608152
1412.005438748963,1412.005438748963,1.0003042020633366,0.00020973695178864554
1412.0123832625804,1412.0123832625804,0.9999483058641964,0.00020965189475701277
1412.019327776011,1412.019327776011,1.0007397110142968,0.000209716281021559
1412.0262722894427,1412.0262722894427,0.9998865415635777,0.00020962611108487646
1412.0332168025936,1412.0332168025936,1.0000176209335696,0.00020961081993024208
1412.0401613157458,1412.0401613157458,1.0002439515501689,0.00020962442423609417
1412.0471058288038,1412.0471058288038,0.9992823743488038,0.00020949041800989975
1412.0540503414898,1412.0540503414898,1.000081762055411,0.00020962789439344596
1412.0609948545487,1412.0609948545487,1.0004064504477985,0.00020966593380713667
1412.0679393671412,1412.0679393671412,0.9996948705258729,0.00020963556381210915
1412.0748838795482,1412.0748838795482,1.000369420725683,0.00020971940592089968
1412.081828391861,1412.081828391861,1.0005077446403772,0.00020975175971868994
1412.0887729041747,1412.0887729041747,0.9996495803085906,0.0002096965558719614
1412.0957174163952,1412.0957174163952,0.9998888615151902,0.00020976190228807896
1412.1026619284287,1412.1026619284287,0.999382228377174,0.0002097232523005633
1412.109606440277,1412.109606440277,1.0000566083294329,0.00020982061275288404
1412.1165509521243,1412.1165509521243,0.9995900302871903,0.00020979405802506998
1412.1234954637862,1412.1234954637862,1.000241965688497,0.00020988839877286622
1412.1304399753549,1412.1304399753549,0.9996807441485348,0.00020987662085473298
1412.13738448683,1412.13738448683,1.0001617101122222,0.0002099541003791747
1412.144328998119,1412.144328998119,1.0004787823002712,0.0002099984277956583
1412.1512735093143,1412.1512735093143,0.9998968607937544,0.00020999251673185616
1412.1582180204175,1412.1582180204175,1.000232370655195,0.0002100831314086272
1412.1651625314266,1412.1651625314266,0.9999735037523297,0.00021008716945909167
1412.1721070422504,1412.1721070422504,1.0007373082580138,0.00021021182547726274
1412.1790515529801,1412.1790515529801,0.9999247892021323,0.00021018345363432101
1412.1859960635243,1412.1859960635243,1.0000996441635892,0.00021027411675994464
1412.1929405741616,1412.1929405741616,1.000033438221444,0.00021034872049471252
1412.1998850845189,1412.1998850845189,0.9995772242306054,0.00021036582799256618
1412.2068295947843,1412.2068295947843,0.9999693040995357,0.00021049986801647728
1412.2137741049548,1412.2137741049548,1.0000035997663452,0.0002105848965533228
1412.2207186148473,1412.2207186148473,0.9999566237831893,0.00021068365026986703
1412.2276631248321,1412.2276631248321,1.0001894700517302,0.00021080989475920925
1412.2346076346312,1412.2346076346312,1.0000355117343085,0.00021091447260405057
1412.2415521442438,1412.2415521442438,1.0001036712891744,0.00021101186066619385
1412.248496653856,1412.248496653856,1.0005666215470623,0.0002111806770496713
1412.2562745044213,1412.2562745044213,0.9993813402578517,0.00021120849812550233
1412.2648856958454,1412.2648856958454,1.0000138823070654,0.0002113180913314141
1412.2748857891363,1412.2748857891363,1.002807292358258,0.0002117165762143914
1412.2862747837353,1412.2862747837353,1.000060203652374,0.00021154114122042388
1412.2943304140583,1412.2943304140583,0.9991169362054049,0.00021163124647515782
1412.3012749227398,1412.3012749227398,0.9999624618305413,0.0002118756507245311
1412.3082194313279,1412.3082194313279,1.00047723913621,0.0002120429529104368
1412.3151639397297,1412.3151639397297,0.9998747379094409,0.0002120955417649199
1412.3221084480385,1412.3221084480385,0.9992858778489266,0.0002122059451145691
1412.3290529563471,1412.3290529563471,1.0006390467930713,0.00021236826842539058
1412.3359974642838,1412.3359974642838,0.99988541799863,0.00021246368221195926
1412.34294197222,1412.34294197222,0.9998881483175422,0.00021253027120025605
1412.3498864801563,1412.3498864801563,0.9997459869534208,0.00021259635169020813
1412.356830988092,1412.356830988092,1.0001284036491185,0.00021274324680739084
1412.363775495563,1412.363775495563,1.0002272232969225,0.00021280624483576452
1412.3707200032197,1412.3707200032197,1.0004687438569337,0.00021297233759658574
1412.377664510597,1412.377664510597,1.0001234999233577,0.0002130147732737243
1412.3846090178818,1412.3846090178818,0.9999712931319603,0.00021303859787465818
1412.3915535251654,1412.3915535251654,0.999594231098731,0.00021310495589811008
1412.3984980321711,1412.3984980321711,0.999446685813429,0.00021311831746805698
1412.4054425390825,1412.4054425390825,1.0004639262154122,0.00021325520581096146
1412.4123870460876,1412.4123870460876,0.99970443899598,0.00021321339282192963
1412.4193315527198,1412.4193315527198,0.9997214697723009,0.00021324839102780215
1412.426276059352,1412.426276059352,1.0005194920868494,0.00021342043823816218
1412.4332205658916,1412.4332205658916,0.9999553630500208,0.0002134205866915651
1412.4401650723373,1412.4401650723373,1.0009162899864281,0.00021352060739427415
1412.4471095785048,1412.4471095785048,0.9997965176088217,0.00021339875137638354
1412.454054084764,1412.454054084764,0.9998910519704897,0.00021343175318026025
1412.4609985908378,1412.4609985908378,0.9997240367212361,0.00021337122473685552
1412.467943096818,1412.467943096818,0.9995068132188262,0.00021336434907550956
1412.4748876025192,1412.4748876025192,0.9995520897080727,0.00021335344253254956
1412.481832108127,1412.481832108127,0.9995965039594591,0.00021329110224144955
1412.488776613735,1412.488776613735,1.000433145310993,0.0002134069687196258
1412.4957211193437,1412.4957211193437,1.0004804583836102,0.00021339239395019947
1412.5026656248574,1412.5026656248574,0.9999760316821952,0.00021326492388226118
1412.5096101300937,1412.5096101300937,1.0004298019567628,0.00021326320274541846
1412.5165546352355,1412.5165546352355,0.9998589725937641,0.0002131654506772155
1412.523499140285,1412.523499140285,0.9995211238636825,0.0002130784807766439
1412.530443645241,1412.530443645241,0.9992904138169474,0.00021299477203376966
1412.5373881500104,1412.5373881500104,0.9997500238899454,0.00021298279054032037
1412.5443326547802,1412.5443326547802,1.0007595463416763,0.0002130253445919337
1412.5512771594563,1412.5512771594563,1.000708559702399,0.00021297771959443443
1412.558221663854,1412.558221663854,1.0003042037717633,0.00021290562722471292
1412.5651661683441,1412.5651661683441,1.0002488371401692,0.00021284708941977899
1412.5721106725555,1412.5721106725555,0.9999460041415518,0.00021277702073625626
1412.5790551767661,1412.5790551767661,0.9997006840499856,0.00021270625888763798
1412.585999680791,1412.585999680791,1.0000871698187492,0.00021269937712401033
1412.5929441847225,1412.5929441847225,0.9997324614573705,0.00021263064083366814
1412.5998886886541,1412.5998886886541,0.9999798642534585,0.00021261180457842667
1412.6068331923066,1412.6068331923066,0.999883902238658,0.00021256498640185515
1412.6137776960509,1412.6137776960509,0.999674908958783,0.00021250936014319735
1412.6207221993313,1412.6207221993313,0.9994957318998047,0.0002124446687558277
1412.627666703076,1412.627666703076,1.0000176927296822,0.0002124011573644929
1412.634611206356,1412.634611206356,1.0001743158338656,0.00021241712003500926
1412.6415557092632,1412.6415557092632,1.000303337493397,0.00021238183011642995
1412.6485002124496,1412.6485002124496,1.00053877592878,0.00021238793289795477
1412.655444715357,1412.655444715357,1.0000687834350959,0.00021229659919393527
1412.6623892182638,1412.6623892182638,1.0002982355120313,0.00021230009358381738
1412.669333720985,1412.669333720985,0.9997196861668648,0.00021217857165626935
1412.6762782236121,1412.6762782236121,1.0005925892811096,0.00021219854987178073
1412.6832227262403,1412.6832227262403,0.9993375384076708,0.00021201314591682432
