time,time,flux,flux_err
1325.3048133914065,1325.3048133914065,1.0027707569976023,0.0007799943388623162
1325.3131467295575,1325.3131467295575,0.9991207945698269,0.0007868683887629717
1325.3214800673204,1325.3214800673204,0.9981414060106543,0.0007038342415989084
1325.329813404928,1325.329813404928,1.0026648353487666,0.0007705758019789702
1325.3374522974268,1325.3374522974268,0.9966164343055205,0.0007188784741600998
1325.3443967449416,1325.3443967449416,0.9987037630524718,0.0006949112100609141
1325.3513411922706,1325.3513411922706,1.000837285639653,0.0007140462445799399
1325.3582856394128,1325.3582856394128,0.9988379263626193,0.0006624879244052303
1325.365230086462,1325.365230086462,0.9967938348043852,0.0007006270712361096
1325.3721745330454,1325.3721745330454,0.9995314824366652,0.0006672910915566929
1325.3791189796286,1325.3791189796286,0.9994072994847244,0.0007706670452752547
1325.3860634262123,1325.3860634262123,0.9953633719156919,0.0006470555575406774
1325.3930078726096,1325.3930078726096,0.995878649137009,0.0006984186501398294
1325.3999523187272,1325.3999523187272,0.9972732920115682,0.0006866391822725364
1325.406896764659,1325.406896764659,1.0001998662666414,0.0007063301235401405
1325.4138412104044,1325.4138412104044,0.9867866252816955,0.0007321115458808081
1325.4207856559633,1325.4207856559633,0.9977849577092878,0.0006640419745558733
1325.427730101429,1325.427730101429,1.0008958094413833,0.0006976140627456604
1325.4346745468017,1325.4346745468017,0.9991230779321784,0.000680875335402206
1325.4416189918952,1325.4416189918952,0.997137074292195,0.0006961030958113516
1325.4485634368953,1325.4485634368953,1.002604942191097,0.0006468511204852785
1325.4555078817093,1325.4555078817093,0.998861902065153,0.0006764387664414105
1325.4624523265234,1325.4624523265234,0.9998783205816244,0.0006634986135848939
1325.4693967710577,1325.4693967710577,0.9992100285327202,0.0007243058229205539
1325.4763412154991,1325.4763412154991,0.9964347796355485,0.000702200555519627
1325.4832856597548,1325.4832856597548,0.9966754222073098,0.0006990005800873086
1325.4902301038233,1325.4902301038233,0.9998548363128243,0.0007303364222086448
1325.4971745477994,1325.4971745477994,1.0037818955603999,0.000677193538955653
1325.504118991682,1325.504118991682,0.9959740047614625,0.0007321227838758645
1325.5110634352852,1325.5110634352852,0.9968653707964579,0.0006846778345657181
1325.5180078788885,1325.5180078788885,0.9966665354953597,0.0006690708730256168
1325.5249523223054,1325.5249523223054,0.9974178593468371,0.0007058340103938617
1325.5318967657224,1325.5318967657224,0.9999694238578701,0.0006701828496810686
1325.5388412087668,1325.5388412087668,0.9978696567829382,0.0007018076248055266
1325.545785651904,1325.545785651904,1.0017049781817229,0.0006707992371238857
1325.552730094856,1325.552730094856,1.0016926810092015,0.0006810703950909516
1325.5596745377138,1325.5596745377138,1.0009581833474743,0.000717911102800147
1325.5666189803862,1325.5666189803862,0.9998039522639252,0.0007047853381001064
1325.573563423058,1325.573563423058,0.9995557725129736,0.0006936325115430903
1325.5805078654505,1325.5805078654505,0.9978118950028643,0.0006823519640105794
1325.58745230775,1325.58745230775,0.99966761496684,0.0006971784536477467
1325.594396750142,1325.594396750142,0.9990623021504461,0.0006902787864468042
1325.6013411920694,1325.6013411920694,1.0012367374632871,0.0006915324589036385
1325.6082856339958,1325.6082856339958,0.9961515204608151,0.0007226475808632105
1325.615230075923,1325.615230075923,1.0001437339527455,0.0006844653684951144
1325.6221745178498,1325.6221745178498,1.0007565665347569,0.0006807091489180209
1325.6291189595904,1325.6291189595904,1.0004882443205345,0.0007228329318870925
1325.6360634011448,1325.6360634011448,1.0000367949112576,0.0006806146977928116
1325.643007842606,1325.643007842606,0.9984111790544038,0.0007067349556662135
1325.649952283974,1325.649952283974,1.0019020487211632,0.0006689939203435166
1325.6568967253422,1325.6568967253422,0.9998616135151653,0.0007129544068600332
1325.6638411664305,1325.6638411664305,0.9997757830678913,0.0006361475347042973
1325.6707856075195,1325.6707856075195,1.0000538706257183,0.0007160212227742378
1325.677730048515,1325.677730048515,0.9986379246383759,0.0006616974453383124
1325.6846744894178,1325.6846744894178,1.0008104129133764,0.0007161560232902709
1325.691618930227,1325.691618930227,1.0011321589064937,0.0006611938711632689
1325.6985633708496,1325.6985633708496,0.9982130588749673,0.0007230519366229896
1325.7055078114731,1325.7055078114731,0.9985754307893856,0.0006807708382227898
1325.712452252003,1325.712452252003,0.99869594521287,0.0007277619614329729
1325.7193966924397,1325.7193966924397,0.9995615891433628,0.0007031813545810893
1325.7263411326899,1325.7263411326899,1.0015449029416401,0.0007057609612824452
1325.7332855729405,1325.7332855729405,1.0010149504641914,0.0007162303817349163
1325.740230013098,1325.740230013098,0.9971963068186385,0.0007037351857403241
1325.747174453162,1325.747174453162,0.9997850860838167,0.0007220749863950116
1325.7541188931332,1325.7541188931332,0.9992308416016616,0.0007166357098450204
1325.7610633331046,1325.7610633331046,1.0003424126413996,0.0006822239382653792
1325.7680077727027,1325.7680077727027,0.9987008861498221,0.0007095138964758385
1325.7749522127672,1325.7749522127672,1.0027785028157017,0.0006717639722492381
1325.7818966523655,1325.7818966523655,1.001328968588516,0.000721473329876397
1325.7888410919643,1325.7888410919643,1.00040322355197,0.0006670276659823091
1325.7957855312834,1325.7957855312834,0.999856028033722,0.0006994380540747172
1325.8027299706957,1325.8027299706957,1.0004933819952648,0.0007088060029735306
1325.8096744101083,1325.8096744101083,0.999287086640581,0.0006991539744306002
1325.816618849334,1325.816618849334,1.0014800595309585,0.000692134283154358
1325.82356328856,1325.82356328856,0.9984014704224183,0.0006900245304165023
1325.8305077276,1325.8305077276,1.0016175897526465,0.0006343337242830135
1325.8374521666397,1325.8374521666397,0.9982028231791331,0.0007175294198915433
1325.8443966056795,1325.8443966056795,1.001693255760107,0.0006779976527241376
1325.8513410444398,1325.8513410444398,1.002357572566306,0.0007062455355496525
1325.858285483293,1325.858285483293,0.9984027878638834,0.0007734291825554716
1325.8652299220537,1325.8652299220537,1.0002514734247696,0.0007116304277798352
1325.872174360721,1325.872174360721,1.0010037138874746,0.0007276422161494537
1325.8791187993884,1325.8791187993884,0.9997936034445323,0.0008282055587727396
1325.8860632378696,1325.8860632378696,0.9991435536428861,0.0007879224977163171
1325.8930076762574,1325.8930076762574,1.0007106153815273,0.0009346498381627548
1325.899952114738,1325.899952114738,1.0013030416854534,0.0008009717042229521
1325.906896553126,1325.906896553126,1.0011307060208656,0.0007395866888946702
1325.9138409913276,1325.9138409913276,1.0005563156734578,0.0007393005621699226
1325.920785429529,1325.920785429529,1.0000453552634496,0.0007389843484363081
1325.9277298676375,1325.9277298676375,0.9988673639585128,0.0007387535623210189
1325.934674305746,1325.934674305746,1.0000554381770983,0.000738878802557287
1325.9416187437614,1325.9416187437614,0.9979144909064421,0.00073837299324402
1325.9485631816835,1325.9485631816835,1.00185895485754,0.0007394786170726995
1325.9555076196057,1325.9555076196057,1.0009818944825457,0.000739305978900786
1325.9624520574348,1325.9624520574348,0.9990230771036341,0.0007389418599295891
1325.9705076052273,1325.9705076052273,0.9990107192304197,0.0007389179396455513
1325.977729820454,1325.977729820454,1.0009767646358203,0.0007394728022025416
1325.9846742580035,1325.9846742580035,0.9991453329247847,0.000738989649670955
1325.9916186956464,1325.9916186956464,1.0009759256676305,0.0007395279611815007
1325.9985631331028,1325.9985631331028,1.0000759825864383,0.0007392659339982953
1326.0055075706528,1326.0055075706528,0.9997628266180005,0.0007393018755863079
1326.0124520079225,1326.0124520079225,0.9993583256670717,0.0007394482061393557
1326.0193964451933,1326.0193964451933,1.0002342582722237,0.0007397230338129915
1326.0263408824633,1326.0263408824633,1.0002165902605091,0.0007401505236735433
1326.0332853197337,1326.0332853197337,0.999318194696259,0.0007401477423536587
1326.040229757004,1326.040229757004,1.0007425996314174,0.0007404525740731989
1326.0471741940878,1326.0471741940878,0.9999892766478728,0.0007402189437474897
1326.054118631079,1326.054118631079,1.0006824126202059,0.000740506478155922
1326.0610630680694,1326.0610630680694,1.0006270241048012,0.0007403155381112655
1326.0680075050602,1326.0680075050602,0.9995532529802557,0.0007403620428950176
1326.0749519419583,1326.0749519419583,0.9999094940413183,0.0007403118237789199
1326.0818963787628,1326.0818963787628,0.9995206805441306,0.0007405078864044912
1326.0888408154744,1326.0888408154744,0.9992376990657952,0.0007405332981412095
1326.095785252279,1326.095785252279,0.999823384937125,0.0007409197367777545
1326.1027296888974,1326.1027296888974,1.000545655880026,0.0007411408130160771
1326.1096741255155,1326.1096741255155,1.0003141255551042,0.0007411355028298624
1326.1166185621337,1326.1166185621337,1.000194622795202,0.0007411789700078444
1326.123562998659,1326.123562998659,0.9995068610044779,0.0007412585256169994
1326.1305074351842,1326.1305074351842,0.9998162863036676,0.0007412352075691709
1326.1374518715234,1326.1374518715234,1.0001831295973351,0.0007414740445168572
1326.144396307862,1326.144396307862,0.9998003328279796,0.0007414980338586835
1326.1513407442012,1326.1513407442012,1.000353359979408,0.0007417684990474204
1326.1582851804474,1326.1582851804474,1.0006660179360116,0.0007419519435431976
1326.1652296166928,1326.1652296166928,0.9999044743319334,0.0007417549815722871
1326.1721740529388,1326.1721740529388,0.9987470089735492,0.0007414695938237721
1326.179118488998,1326.179118488998,1.0004883384184078,0.0007419765635491349
1326.186062925058,1326.186062925058,0.9998387855932667,0.0007418511418654372
1326.193007361024,1326.193007361024,1.0002036651321844,0.0007419161549309614
1326.1999517970835,1326.1999517970835,1.0000981323294547,0.0007421906902444404
1326.2068962329572,1326.2068962329572,1.0004588313886673,0.000742223628424182
1326.2138406688305,1326.2138406688305,0.9999924459880439,0.0007421714214661836
1326.2207851046103,1326.2207851046103,1.0003617075602351,0.0007424005234479496
1326.2277295404838,1326.2277295404838,1.0004431186796823,0.0007421563848212865
1326.2346739761706,1326.2346739761706,0.9995237761800351,0.0007420633591116784
1326.2416184119509,1326.2416184119509,0.9975342748542326,0.0007418153963914158
1326.2485628474515,1326.2485628474515,0.9999214153068611,0.0007422389866559916
1326.255507283139,1326.255507283139,1.0008307523076971,0.0007424830864056341
1326.262451718639,1326.262451718639,1.0004785872188886,0.0007422588008128457
1326.2693961541404,1326.2693961541404,1.0007933741639623,0.0007424482187633297
1326.276340589641,1326.276340589641,1.0005568414079122,0.0007425112599397301
1326.2832850250484,1326.2832850250484,0.9996389415735493,0.0007422723947667082
1326.2902294604564,1326.2902294604564,0.9998977054999305,0.0007424356027738957
1326.2971738957706,1326.2971738957706,0.9991562003501743,0.0007422159308061993
1326.304118330992,1326.304118330992,1.0008052196217596,0.0007425380671759044
1326.3110627663063,1326.3110627663063,0.9997405698940047,0.0007425585876955454
1326.3180072014347,1326.3180072014347,1.0006328617198252,0.0007429864586577509
1326.3249516366561,1326.3249516366561,0.9989916397242142,0.0007427782467069316
1326.3318960715983,1326.3318960715983,0.9999724462724524,0.0007429949895210197
1326.3388405067265,1326.3388405067265,1.0002603168849524,0.000743434305868728
1326.3457849419478,1326.3457849419478,1.000014741796835,0.000743571592661269
1326.3538404864805,1326.3538404864805,1.0001677809144172,0.0007437963750911474
1326.3624515858082,1326.3624515858082,1.0000868858277034,0.0007441512754877454
1326.3693960205642,1326.3693960205642,1.0008855256851172,0.0007444807240419318
1326.3763404552267,1326.3763404552267,0.999108815146859,0.0007442377629776866
1326.3832848901686,1326.3832848901686,1.00053636771915,0.0007447999559278693
1326.3902293249241,1326.3902293249241,0.9993394359109284,0.000744637905477473
1326.3971737595868,1326.3971737595868,0.9990426247661407,0.0007446116945688407
1326.4041181942498,1326.4041181942498,0.9990567552469214,0.0007449621995374767
1326.4110626289118,1326.4110626289118,1.0003217629847891,0.0007453925054773195
1326.418007063482,1326.418007063482,1.000557538153879,0.0007456871260206669
1326.4249514979579,1326.4249514979579,1.000448965792398,0.0007461823866244759
1326.4318959325271,1326.4318959325271,1.0015228739508504,0.0007465860743663332
1326.4388403669104,1326.4388403669104,1.00043578751988,0.0007464148991247288
1326.4457848012937,1326.4457848012937,1.0001793572782343,0.000746632650638005
1326.4527292356768,1326.4527292356768,0.9995259662786931,0.000746681156926352
1326.4596736700598,1326.4596736700598,0.999254789073637,0.0007468375843382125
1326.46661810435,1326.46661810435,0.9998098214265652,0.0007471954547099919
1326.473562538547,1326.473562538547,0.9997403884786328,0.0007472696102877631
1326.4805069728368,1326.4805069728368,1.0000578883712232,0.0007477266473631016
1326.4874514070339,1326.4874514070339,0.999365231149925,0.0007478485861031135
1326.4943958411377,1326.4943958411377,1.0007294180945276,0.0007483695977077236
1326.5013402751486,1326.5013402751486,0.9998120643743317,0.0007482098139706378
1326.5082847092517,1326.5082847092517,0.9994227609547846,0.0007483626023690655
1326.5152291432628,1326.5152291432628,0.9994299344546995,0.0007484200297701853
1326.5221735771802,1326.5221735771802,1.0009027397921726,0.0007487711760270076
1326.5291180110978,1326.5291180110978,0.9996238187902853,0.0007489104964147779
1326.5360624450154,1326.5360624450154,1.0011853276260485,0.0007494390506028741
1326.5430068788394,1326.5430068788394,1.0000937359607023,0.0007495915742390569
1326.549951312571,1326.549951312571,1.0001254104660884,0.0007498451210346566
1326.5568957463952,1326.5568957463952,0.9991919334859551,0.0007498791202166093
1326.5638401801266,1326.5638401801266,1.0004390960371854,0.0007502578465248528
1326.5707846139508,1326.5707846139508,1.0000468741867155,0.000750452046416148
1326.577729047496,1326.577729047496,1.0002160523671573,0.0007506583604727187
1326.5846734811341,1326.5846734811341,0.9996023522823153,0.0007508423846161288
1326.5916179146786,1326.5916179146786,0.9995566323113578,0.0007507726568113992
1326.5985623482243,1326.5985623482243,1.0002013181832257,0.000751336863506562
1326.605506781769,1326.605506781769,0.9992930348613107,0.0007510310683100029
1326.6124512151277,1326.6124512151277,0.9996765654569287,0.0007513654898389109
1326.6193956485797,1326.6193956485797,1.001078792261616,0.0007518243365023196
1326.626340081938,1326.626340081938,0.9998058302707976,0.0007517716731835065
1326.633284515297,1326.633284515297,0.9994902824848181,0.0007518201717303902
1326.6402289486555,1326.6402289486555,1.0009060075268845,0.0007521855617828772
1326.647173381828,1326.647173381828,1.000612720808831,0.0007522589007641167
1326.6541178150937,1326.6541178150937,1.0003106567938094,0.0007522540727854406
1326.6610622482663,1326.6610622482663,0.9995803497615678,0.0007519851168525874
1326.6680066814388,1326.6680066814388,0.9998985146320967,0.0007521185802299998
1326.6749511145176,1326.6749511145176,0.9991433585338557,0.0007519950015853088
1326.6818955475974,1326.6818955475974,0.9999669519122012,0.0007519502000496488
1326.6888399805835,1326.6888399805835,0.9996977590166918,0.0007521200034721211
1326.6971733001856,1326.6971733001856,1.0005982890397545,0.0007522714472083849
1326.7041177331716,1326.7041177331716,1.0000047052858612,0.0007518644644941336
1326.7110621660647,1326.7110621660647,1.0000062069442421,0.0007517279759312917
1326.7188399308716,1326.7188399308716,0.9999355323664076,0.0007516756893658956
1326.726339918374,1326.726339918374,0.9995324197285168,0.0007514664026161865
1326.7332843511736,1326.7332843511736,1.0002177411858857,0.0007516690810518378
1326.7402287837874,1326.7402287837874,0.9999088506204616,0.000751424650482165
1326.7471732164013,1326.7471732164013,1.0000535529740628,0.0007512375271134261
1326.7541176492937,1326.7541176492937,0.9994872547923743,0.0007511419520509061
1326.7610620820938,1326.7610620820938,1.0017987893517915,0.0007517051694977713
1326.7680065145212,1326.7680065145212,0.9988518199677605,0.000751223395931325
1326.7749509468554,1326.7749509468554,1.000750961523019,0.0007513930590725773
1326.7818953794692,1326.7818953794692,0.9999294213558724,0.0007511263888181119
1326.7888398120826,1326.7888398120826,0.999466665487559,0.0007512163387569228
1326.7957842445103,1326.7957842445103,0.9998968090874619,0.0007513818935014346
1326.8027286768443,1326.8027286768443,1.0001819843319804,0.0007513101183559765
1326.8096731092724,1326.8096731092724,0.9995388340336697,0.0007513230940806164
1326.8166175416059,1326.8166175416059,0.9991060560476519,0.0007512466503645184
1326.8235619738475,1326.8235619738475,1.0012027303145004,0.000751743781626022
1326.8305064061815,1326.8305064061815,1.0003820088709878,0.0007515492287284021
1326.8374508384227,1326.8374508384227,1.0005352093874622,0.0007515724591996124
1326.8443952705707,1326.8443952705707,0.9994491894954487,0.0007514519730031478
1326.8513397027186,1326.8513397027186,0.9993967210137733,0.0007514151176439478
1326.8582841347736,1326.8582841347736,1.0005184841314694,0.0007515389513963564
1326.8652285668286,1326.8652285668286,0.9997555879733859,0.0007510986819225543
1326.8721729988836,1326.8721729988836,1.0002267015270956,0.0007508047844299322
1326.8791174308453,1326.8791174308453,0.9990585904799403,0.0007505755918856894
1326.8860618628066,1326.8860618628066,1.0004005842311599,0.0007504523663153753
1326.8930062947686,1326.8930062947686,1.0005969422776277,0.0007504420328562063
1326.899950726637,1326.899950726637,0.9994919783895917,0.0007498977371929339
1326.906895158413,1326.906895158413,1.0008397628240033,0.0007495916054158793
1326.913839590281,1326.913839590281,0.9995951416335803,0.0007490941522347053
1326.9207840220565,1326.9207840220565,1.0010235925955109,0.0007489490251353657
1326.9277284538323,1326.9277284538323,0.9992184398715974,0.0007481832054057239
1326.9346728855148,1326.9346728855148,0.9997000309416627,0.0007481065875403657
1326.9416173171041,1326.9416173171041,0.9993379663476896,0.000747504142930733
1326.9485617487858,1326.9485617487858,1.0004552772804662,0.0007472111769232462
1326.9555061802826,1326.9555061802826,1.000368382424819,0.0007471278143081642
1326.9624506119644,1326.9624506119644,0.9997820776398939,0.0007466343074192955
1326.9693950433677,1326.9693950433677,0.9995178109432639,0.0007459605385942627
1326.9763394748636,1326.9763394748636,1.0004281910703476,0.0007460504334703408
1326.9832839062665,1326.9832839062665,0.999403019499589,0.0007453835480574981
1326.9902283377628,1326.9902283377628,0.9988846425254005,0.0007449091224482503
1326.9971727689795,1326.9971727689795,1.0010887806950106,0.0007450283164071894
1327.0041172003823,1327.0041172003823,1.0011055387759098,0.0007449819223246652
1327.0110616315992,1327.0110616315992,1.0012837492804867,0.000744723535209004
1327.0180060629086,1327.0180060629086,1.0006542623143895,0.0007446988288492833
1327.0249504941253,1327.0249504941253,1.0000347445212836,0.0007444057471515816
1327.0318949252492,1327.0318949252492,0.9992574168680726,0.0007440688304619578
1327.038839356373,1327.038839356373,0.9991453224708708,0.0007439691392850124
1327.0457837874028,1327.0457837874028,0.9995455490537732,0.0007440619149528527
1327.0527282185265,1327.0527282185265,0.9998565307387125,0.0007441197666760252
1327.059672649557,1327.059672649557,1.0004627134749224,0.0007442610105095031
1327.0677281895264,1327.0677281895264,1.0007171815174802,0.0007446006123353914
1327.074950397675,1327.074950397675,0.9998666012812907,0.0007443806525584976
1327.0818948286121,1327.0818948286121,1.0009111043544954,0.000744675210984307
