time,time,flux,flux_err
1517.3641680694668,1517.3641680694668,0.9359663150947923,0.15985127980273608
1517.3727792907252,1517.3727792907252,1.0867628551729942,0.1554649602750667
1517.3800016058422,1517.3800016058422,0.7186137269126137,0.15196347551788
1517.3869461398988,1517.3869461398988,0.8479158829907838,0.148855391912724
1517.393890674235,1517.393890674235,0.8875761427154781,0.1459186910163603
1517.4022241159225,1517.4022241159225,0.9306915745422648,0.14256072319371432
1517.4091686510503,1517.4091686510503,1.1847814314869756,0.14037163666363797
1517.4161131863646,1517.4161131863646,0.9164035683034113,0.13776819429589668
1517.4230577220505,1517.4230577220505,0.8952106768279121,0.13575124111939402
1517.4300022580167,1517.4300022580167,0.9744518978022223,0.13397254548291557
1517.4369467943084,1517.4369467943084,0.9060044903776021,0.13223259898493114
1517.4438913307865,1517.4438913307865,1.0460870153655009,0.130854417016728
1517.4508358676837,1517.4508358676837,1.0024268885416485,0.12948990890900955
1517.4577804046742,1517.4577804046742,1.2070435052695667,0.12861990016513838
1517.4647249419904,1517.4647249419904,0.9144912844307772,0.12719977628690363
1517.4716694795861,1517.4716694795861,0.9042441449639875,0.1269284782645442
1517.4786140174149,1517.4786140174149,0.9827200578905604,0.12771563555084242
1517.4855585554296,1517.4855585554296,1.0279457109274845,0.12647947195882847
1517.492503093817,1517.492503093817,0.9190116375163315,0.1251063234710223
1517.4994476323905,1517.4994476323905,0.9203442844424886,0.12370952814195209
1517.5063921711505,1517.5063921711505,0.9502628148041767,0.12304349128579092
1517.513336710143,1517.513336710143,1.03695005599238,0.12179328489559553
1517.520281249229,1517.520281249229,0.9563231374037734,0.12023835978924975
1517.5272257887805,1517.5272257887805,0.8056255637533518,0.11884978660735905
1517.5341703283316,1517.5341703283316,1.0110847303251258,0.11801177738340858
1517.5411148681626,1517.5411148681626,0.943677259199642,0.11603074736192849
1517.5480594082262,1517.5480594082262,0.7255076493723659,0.11573631507079496
1517.5550039483835,1517.5550039483835,1.0081563469205714,0.11543065879987054
1517.5619484888662,1517.5619484888662,1.0585696124019695,0.11481076388530934
1517.5688930293957,1517.5688930293957,0.9373354573946342,0.11290783944238036
1517.5758375701575,1517.5758375701575,0.9425936068515993,0.11223136776960552
1517.58278211106,1517.58278211106,0.8563156317693252,0.11127277678236733
1517.5897266521945,1517.5897266521945,1.037288856367358,0.1101787537441022
1517.5966711934686,1517.5966711934686,0.9131740080393309,0.10866471493888599
1517.6036157348833,1517.6036157348833,0.9424808011867037,0.10760257146259145
1517.6105602764364,1517.6105602764364,0.9708130285738129,0.10583134708273853
1517.6175048182702,1517.6175048182702,0.9714244774982597,0.10391319977455438
1517.6244493601037,1517.6244493601037,1.0555229942527462,0.10264874219826634
1517.6313939021693,1517.6313939021693,1.0486655269357383,0.10183545733596563
1517.638338444375,1517.638338444375,0.9670941237870831,0.10038158693111003
1517.645282986674,1517.645282986674,1.0904133683963617,0.09861832053157972
1517.6522275291593,1517.6522275291593,0.8549997676783804,0.0971255970294996
1517.659172071691,1517.659172071691,1.0030386170497323,0.09469440641131557
1517.6661166145018,1517.6661166145018,0.9825085399411467,0.093282246804241
1517.673061157313,1517.673061157313,0.9725135383140959,0.09121528303997287
1517.680005700264,1517.680005700264,1.0454631665730942,0.08983657182397857
1517.6869502433078,1517.6869502433078,0.9430671538085063,0.0884205027734148
1517.6938947865383,1517.6938947865383,0.8890926623113004,0.08686578618869768
1517.700839329908,1517.700839329908,1.006259458956606,0.08628472173985097
1517.7077838732778,1517.7077838732778,1.0352988888547743,0.08616017022987632
1517.7147284168339,1517.7147284168339,1.0220904053278859,0.08643338432020746
1517.7216729604365,1517.7216729604365,0.9575231692504216,0.08604524549294108
1517.728617504226,1517.728617504226,0.9086593220629624,0.08486084977059674
1517.7355620479682,1517.7355620479682,1.0371708014718721,0.08435519094102334
1517.7425065919433,1517.7425065919433,1.0105849005137748,0.08395735575515209
1517.749451135965,1517.749451135965,1.1328699933020734,0.08448534324096967
1517.7563956801268,1517.7563956801268,0.976543817089581,0.08428408941017074
1517.7633402243348,1517.7633402243348,0.885489645381299,0.0841564911753935
1517.7702847686364,1517.7702847686364,0.9154063390976805,0.0843001551936242
1517.777229312984,1517.777229312984,1.1564621386222453,0.08405470753978843
1517.7841738574716,1517.7841738574716,1.0356155172895707,0.08437433881079055
1517.791118402052,1517.791118402052,1.137068464472685,0.08308493392466157
1517.798062946586,1517.798062946586,0.9028498224776531,0.08207664021208715
1517.8050074913062,1517.8050074913062,0.9690303366976118,0.08122483785687526
1517.811952036027,1517.811952036027,0.9264145954886462,0.08021838449187518
1517.818896580887,1517.818896580887,1.0084377894656251,0.07958120896535605
1517.8258411257934,1517.8258411257934,1.0549640978372632,0.07868964247042928
1517.8327856707465,1517.8327856707465,0.9782766283529275,0.07798056700666288
1517.8397302157464,1517.8397302157464,0.9772932885896093,0.07876872056324254
1517.8466747608857,1517.8466747608857,1.0858922527886106,0.0789482210539946
1517.853619306025,1517.853619306025,1.083473303931704,0.07884245448344246
1517.8605638511647,1517.8605638511647,0.9618997247133321,0.07878866905664467
1517.8675083965368,1517.8675083965368,0.9996073459764674,0.0791180050880206
1517.8744529418161,1517.8744529418161,0.9523269200448828,0.0799903942415742
1517.8813974871878,1517.8813974871878,0.9345877694952591,0.08076660167381343
1517.8883420326067,1517.8883420326067,1.0896650368413154,0.0813953362441461
1517.8952865781189,1517.8952865781189,0.9546070703703975,0.0809414929586171
1517.9022311236308,1517.9022311236308,0.9821598072454852,0.0800639088627533
1517.9091756691428,1517.9091756691428,1.006805839787852,0.08061450935911077
1517.9161202147945,1517.9161202147945,0.9138037235538583,0.0805161303183556
1517.9230647603995,1517.9230647603995,1.0112224228361972,0.07942410572236983
1517.9300093060974,1517.9300093060974,0.9791814105428394,0.07901614954765593
1517.9369538518426,1517.9369538518426,1.108360462061833,0.07869844375188044
1517.945009524949,1517.945009524949,1.1150407949866554,0.07798113618857902
1517.9522318525928,1517.9522318525928,1.0220551615974003,0.07708901463754997
1517.9591763984306,1517.9591763984306,1.0297903617074027,0.07665326629553362
1517.9661209443616,1517.9661209443616,0.9359187144267566,0.07600128838134397
1517.9730654902462,1517.9730654902462,0.9064176538478195,0.07577931531658214
1517.9800100361772,1517.9800100361772,1.080655377387113,0.07497303352874789
1517.9869545821548,1517.9869545821548,0.9325441266196124,0.07449615953279834
1517.9938991281792,1517.9938991281792,1.0083280037346367,0.0745264738163463
1518.000843674203,1518.000843674203,0.9928657559403915,0.07479111902236434
1518.0077882202738,1518.0077882202738,1.1191786950467209,0.07446984523256472
1518.0147327663447,1518.0147327663447,0.9541037062056027,0.07318211359076106
1518.0216773124152,1518.0216773124152,0.9287848731340981,0.07279479301190875
1518.0286218585793,1518.0286218585793,1.0007124894177957,0.07282464752056382
1518.0355664047431,1518.0355664047431,1.0416658266926766,0.07251889837888477
1518.0425109508137,1518.0425109508137,1.0127477816908432,0.07292388596393648
1518.0494554971174,1518.0494554971174,0.9561601420644147,0.07292093704714445
1518.0564000431884,1518.0564000431884,0.9934741145847441,0.07289911141485259
1518.0633445894914,1518.0633445894914,1.0958602643476758,0.07327750600948187
1518.0702891357491,1518.0702891357491,1.0272487517242157,0.07339319892009877
1518.077233681866,1518.077233681866,0.9414763470443124,0.07320460877535996
1518.0841782281695,1518.0841782281695,0.8524554995199806,0.07263249631412257
1518.0911227744732,1518.0911227744732,1.0553484340561563,0.0725618609939159
1518.0980673207766,1518.0980673207766,1.0315353665884768,0.07276586918846613
1518.1050118670803,1518.1050118670803,1.0327797550688882,0.07237949101676362
1518.1119564133837,1518.1119564133837,1.0245703646262752,0.07166903250736868
1518.1189009596874,1518.1189009596874,0.9186137902987277,0.07113227493473791
1518.125845505991,1518.125845505991,0.9951882294919626,0.07101749888820552
1518.1327900522945,1518.1327900522945,1.0571523112705246,0.07045674919324196
1518.1397345985981,1518.1397345985981,1.0125255912898614,0.0698859630575855
1518.1466791449016,1518.1466791449016,0.9456435919373896,0.06918077784479194
1518.1536236912052,1518.1536236912052,1.0324824749679158,0.06970525310298731
1518.1605682376949,1518.1605682376949,1.1049760831067552,0.07034788693653883
1518.1675127840451,1518.1675127840451,0.9687434424646895,0.07019139223956568
1518.174457330349,1518.174457330349,1.045468511199587,0.07055385834902836
1518.1814018766522,1518.1814018766522,0.973339780903757,0.07059727990355483
1518.1883464229559,1518.1883464229559,0.9770784712187173,0.07048527804819181
1518.1952909692595,1518.1952909692595,1.0372015235682857,0.07111535375267941
1518.2022355157023,1518.2022355157023,0.9152722125567612,0.07137408324364332
1518.2091800620994,1518.2091800620994,1.0539839074750428,0.07157493098916634
1518.2161246084029,1518.2161246084029,0.9060335080132036,0.07189757693877832
1518.2230691547065,1518.2230691547065,1.0552290140116216,0.0720076079020007
1518.2300137010102,1518.2300137010102,1.0539557697233297,0.07180307098636793
1518.2369582473136,1518.2369582473136,0.9217765225973661,0.07254404168170091
1518.2439027936173,1518.2439027936173,1.0746573656429965,0.072907143087411
1518.2508473399207,1518.2508473399207,1.0201877492249791,0.0729678477093899
1518.2577918862246,1518.2577918862246,0.980226143349425,0.07362143264245788
1518.2650142143798,1518.2650142143798,1.0101988342590873,0.07362486645924815
1518.2730698880923,1518.2730698880923,0.9931988077207008,0.07374348430592412
1518.2800144343958,1518.2800144343958,1.015170352743639,0.07373426027121405
1518.2869589806528,1518.2869589806528,1.0271129461802289,0.07347388830746106
1518.29390352677,1518.29390352677,0.890325141774271,0.07363501511031414
1518.3008480730737,1518.3008480730737,0.9044099913050356,0.07289421296449956
1518.307792619377,1518.307792619377,1.0932515684674762,0.07250190259145198
1518.3161260747088,1518.3161260747088,0.994435459601708,0.07232182045771193
1518.323070621012,1518.323070621012,0.9849706993998772,0.07156320569581166
1518.3300151670833,1518.3300151670833,1.086768616764937,0.07151602711232155
1518.3369597133399,1518.3369597133399,1.0020162914864152,0.07111058156982199
1518.343904259457,1518.343904259457,0.9902722627944922,0.07088879139679584
1518.3508488055745,1518.3508488055745,0.938948669437288,0.07106381509386979
1518.3577933517383,1518.3577933517383,1.0945101331730887,0.07120330671967492
1518.364737897809,1518.364737897809,1.0158842474857073,0.07102171255063698
1518.3716824439264,1518.3716824439264,0.981536139258053,0.07114951211200653
1518.3786269899967,1518.3786269899967,0.9469952821429442,0.07148280808268997
1518.3855715360212,1518.3855715360212,0.9963324064041046,0.07161250639621279
1518.3925160820454,1518.3925160820454,0.9801755513295248,0.07153849666088276
1518.3994606280696,1518.3994606280696,1.0276303630270425,0.07208026746557641
1518.4064051740472,1518.4064051740472,0.9516628007304637,0.07261780383765884
1518.4141830655813,1518.4141830655813,1.0065713925212942,0.07295324263469231
1518.4216831751698,1518.4216831751698,1.0424493377310768,0.07297444648359333
1518.4286277211013,1518.4286277211013,1.1017413194017065,0.07343977066676996
1518.435572267032,1518.435572267032,1.0402811105832657,0.07381445470915277
1518.4425168129162,1518.4425168129162,0.9283775170515106,0.07370901360296044
1518.4494613587544,1518.4494613587544,0.9679863092659227,0.07443973611569674
1518.4564059045924,1518.4564059045924,0.9829805848526763,0.07450029023677535
1518.464739359598,1518.464739359598,0.9091642486284697,0.07533401031596773
1518.4716839053424,1518.4716839053424,1.0093318761747443,0.07515689342185985
1518.4786284511806,1518.4786284511806,1.1074275355202112,0.07501057211147213
1518.4855729968788,1518.4855729968788,0.9692135255482214,0.0749039289814932
1518.4925175426238,1518.4925175426238,0.959038120138187,0.07394189268457613
1518.4994620883215,1518.4994620883215,0.9963150630875077,0.0730163426475498
1518.5064066339266,1518.5064066339266,1.0161158919555426,0.07191065196733608
1518.5133511795782,1518.5133511795782,1.0021979490830064,0.07133819051187652
1518.5202957251831,1518.5202957251831,0.9485908780323558,0.07116429847151336
1518.5272402707883,1518.5272402707883,1.0441343164506567,0.07070450669400088
1518.5341848163932,1518.5341848163932,1.0846741169877216,0.07066034785191569
1518.5411293619052,1518.5411293619052,0.9729241234257163,0.07066764913893973
1518.5480739073707,1518.5480739073707,0.9888536950494492,0.07016714171118167
1518.5550184528363,1518.5550184528363,1.036759121947016,0.06993451766628418
1518.5619629983019,1518.5619629983019,0.9217251438463251,0.07030699501252705
1518.5689075437203,1518.5689075437203,0.9956080383414052,0.07104302372465118
1518.5758520890927,1518.5758520890927,0.9573489032078275,0.07132203721796679
1518.5827966344648,1518.5827966344648,1.0752325035061336,0.07183788684740477
1518.589741179791,1518.589741179791,0.9735370573613725,0.07235967276225322
1518.596685725116,1518.596685725116,1.0354484339046588,0.07336321424111648
1518.6036302703953,1518.6036302703953,1.0484545260021259,0.07388199827247673
1518.6105748156278,1518.6105748156278,1.0025333710621973,0.0740907594345375
1518.617519360767,1518.617519360767,0.9888319814274533,0.0747809228781229
1518.6244639059064,1518.6244639059064,0.8867636975923233,0.0750839570916669
1518.6314084510461,1518.6314084510461,1.0722659783554562,0.07557226620712454
1518.6383529961854,1518.6383529961854,0.9961875288640915,0.07600863468484646
1518.645297541325,1518.645297541325,1.0116447593340891,0.07582629938633485
1518.6522420864178,1518.6522420864178,0.9492810614940176,0.07649595506892727
1518.6591866313706,1518.6591866313706,0.9729677664185123,0.07609833688672249
1518.6661311763705,1518.6661311763705,0.9849042806793411,0.07578867164253478
1518.6730757213238,1518.6730757213238,1.0650505398367713,0.07527825032095713
1518.6800202662766,1518.6800202662766,0.9336855879433829,0.07424271347687364
1518.6869648111365,1518.6869648111365,1.1138901928470855,0.07414135063331827
1518.6939093559965,1518.6939093559965,0.9582811544142613,0.07395809946610754
1518.7008539008104,1518.7008539008104,1.0333728171531145,0.07376965051964304
1518.7077984455768,1518.7077984455768,0.9774122475358681,0.07312004691765016
1518.7147429902973,1518.7147429902973,0.9620809444116072,0.07266791078364773
1518.7216875350641,1518.7216875350641,1.02947909929027,0.07224466512543001
1518.728632079738,1518.728632079738,1.004140051427437,0.07218421018329282
1518.7355766243652,1518.7355766243652,0.9974786939023941,0.07155762212012988
1518.7425211689456,1518.7425211689456,0.9608145766868967,0.07097470775830424
1518.7494657135728,1518.7494657135728,0.9739818981568831,0.07026149377127457
1518.7564102580604,1518.7564102580604,1.0538185376737712,0.0703012400480675
1518.7633548025947,1518.7633548025947,0.9500679259066201,0.06964160346970734
1518.7702993470352,1518.7702993470352,1.060572317906533,0.0696383312442499
1518.77724389143,1518.77724389143,0.9751548185320719,0.06929220529091493
1518.784188435824,1518.784188435824,0.9909241361687894,0.06966758308838189
1518.7911329801714,1518.7911329801714,1.0539173892850957,0.0697815583638476
1518.7980775245196,1518.7980775245196,1.0438195136861874,0.06997913222908018
1518.8050220687742,1518.8050220687742,0.9634110759151382,0.07015725204635244
1518.811966612982,1518.811966612982,1.0312822328165514,0.07074552072100086
1518.818911157237,1518.818911157237,0.9408734211160615,0.07090822898006074
1518.8258557013985,1518.8258557013985,0.9833303778253052,0.07140341455895456
1518.8328002454666,1518.8328002454666,0.9850472335319378,0.07142753509481017
1518.8397447896286,1518.8397447896286,1.0099975337334364,0.07185571921160377
1518.8466893336038,1518.8466893336038,0.9418217998791935,0.07243537893800658
1518.8536338775789,1518.8536338775789,1.051300095542972,0.07252906444661411
1518.8605784215542,1518.8605784215542,0.9949233692826189,0.0732882071629721
1518.8675229655291,1518.8675229655291,1.0284383197276736,0.0731819676064917
1518.8744675094117,1518.8744675094117,1.0661563396687777,0.07337177887794885
1518.881412053247,1518.881412053247,1.0025056238060874,0.07354774949122231
1518.888356597036,1518.888356597036,0.9686232131128165,0.07340477177769374
1518.8953011408248,1518.8953011408248,1.0270272782864809,0.07318872516625836
1518.9022456845673,1518.9022456845673,0.9339724728144226,0.07345198365676033
1518.9091902282628,1518.9091902282628,0.9644707147499941,0.07378966495349835
1518.9161347718657,1518.9161347718657,1.0417408563412445,0.07440297335240206
1518.9230793154686,1518.9230793154686,0.958127389821182,0.07415067964555193
1518.930023859071,1518.930023859071,1.0436314382274072,0.07373745189141193
1518.9369684025808,1518.9369684025808,0.9774628396129253,0.07338607008938082
1518.9439129460438,1518.9439129460438,1.048971249987496,0.07274435141606436
1518.9508574895533,1518.9508574895533,1.0312989752939647,0.07211295149972777
1518.9578020329704,1518.9578020329704,0.8830793425931273,0.0719838794440705
1518.9647465762469,1518.9647465762469,0.9749566049724707,0.07188434386809352
1518.9716911196167,1518.9716911196167,1.041360013064415,0.07248666288629685
1518.978635662847,1518.978635662847,1.0461031657586122,0.07316513289428173
1518.9855802061236,1518.9855802061236,1.1146422158157336,0.0734213461666677
1518.9925247493068,1518.9925247493068,0.945471853578473,0.07350181751894927
1518.9994692924442,1518.9994692924442,0.9956700827392468,0.07307855609426081
1519.0064138355815,1519.0064138355815,0.9529071954782561,0.07299896652438491
1519.013358378625,1519.013358378625,0.9346790115310263,0.07276066309258077
1519.0203029216223,1519.0203029216223,1.0203066743197748,0.07241175801689002
1519.0272474646197,1519.0272474646197,0.8805593630958629,0.07252637037218065
1519.0341920075707,1519.0341920075707,1.0072771915290217,0.073503681618759
1519.0411365504747,1519.0411365504747,1.141202836928803,0.07448411982445141
1519.0480810932859,1519.0480810932859,1.06904098306414,0.07428040216080581
1519.055025636097,1519.055025636097,1.0125178354448978,0.07443073964404337
1519.061970178908,1519.061970178908,1.0200146878075342,0.07412189425101043
1519.0689147215328,1519.0689147215328,1.0115261656494412,0.07405076464013889
1519.075859264251,1519.075859264251,0.9938267455233456,0.07410619598190354
1519.0828038068753,1519.0828038068753,0.8960202376720939,0.07378517481990779
1519.0897483494537,1519.0897483494537,0.9350878703752745,0.07354233091959203
1519.0966928919854,1519.0966928919854,0.9210760969849587,0.07316348262395501
1519.1036374345172,1519.1036374345172,1.048338148845057,0.07348744889239785
1519.1105819769555,1519.1105819769555,1.0517795077486496,0.07355136749755117
1519.1175265193947,1519.1175265193947,0.9981712646941612,0.07263562069889286
1519.1244710617395,1519.1244710617395,1.039959129902417,0.07233723302707828
1519.1314156040385,1519.1314156040385,1.032722141049375,0.07184185343177932
1519.1383601462906,1519.1383601462906,1.0147436781736132,0.07163545546752739
1519.1453046884967,1519.1453046884967,1.0462048353364914,0.07157366969906953
1519.152249230749,1519.152249230749,0.9864355528448397,0.07176419838256164
1519.1591937728615,1519.1591937728615,0.9884081311358386,0.07243975744747647
1519.1661383149276,1519.1661383149276,0.935813179366049,0.07301255974456597
1519.1730828569937,1519.1730828569937,0.9418911012873261,0.07345777982808274
1519.1800273990132,1519.1800273990132,1.0953018567103547,0.07374214933241549
