time,time,flux,flux_err
1385.957465406893,1385.957465406893,1.0000437557391115,0.0010667924517907775
1385.9657987553371,1385.9657987553371,0.9999971026042939,0.0010666059640971595
1385.973437658,1385.973437658,0.999629171262141,0.0009737584681476504
1385.9803821148982,1385.9803821148982,0.9994151831010593,0.0009736712251169141
1385.9873265716112,1385.9873265716112,1.001614397779523,0.0009743859288701024
1385.9942710283237,1385.9942710283237,1.0001467429196056,0.0009738602276677739
1386.0012154847561,1386.0012154847561,0.999587878350269,0.0009739035700185548
1386.0081599412829,1386.0081599412829,0.999769212712561,0.0009736050662558556
1386.0151043975297,1386.0151043975297,0.9995866172221352,0.0009737343788300375
1386.022048853869,1386.022048853869,0.9988073892239593,0.0009733424545374051
1386.0289933101162,1386.0289933101162,1.000639801281499,0.0009742376707632715
1386.0359377660839,1386.0359377660839,0.9995835078934181,0.0009736854916990849
1386.042882222237,1386.042882222237,0.9994663269748786,0.0009740913334025415
1386.0498266780182,1386.0498266780182,1.0012013215626074,0.0009743351346388889
1386.056771133893,1386.056771133893,1.0007510093604535,0.0009741897809939422
1386.0637155894876,1386.0637155894876,1.0001473580792468,0.0009743291470404664
1386.0706600452686,1386.0706600452686,1.000052955349662,0.0009740063501823239
1386.0776045007708,1386.0776045007708,1.0005148494827718,0.0009744887795921482
1386.084548956179,1386.084548956179,0.9990489823248658,0.0009740662329116641
1386.0914934114942,1386.0914934114942,0.9992087746267716,0.0009736128610013722
1386.098437866717,1386.098437866717,0.9998052535204739,0.0009744451933825216
1386.1053823219395,1386.1053823219395,0.9999519601409175,0.0009743549097211273
1386.112326776975,1386.112326776975,0.9997216563934066,0.0009743035549680399
1386.1192712320114,1386.1192712320114,1.0007638179947977,0.0009744920161434548
1386.1262156868613,1386.1262156868613,0.9993938323573077,0.0009740487601627969
1386.1331601416175,1386.1331601416175,1.000537441760814,0.0009742517303922948
1386.1401045963744,1386.1401045963744,0.9991958119948456,0.0009740147285843958
1386.1470490508523,1386.1470490508523,1.0022735650649288,0.0009748299221672833
1386.153993505422,1386.153993505422,0.9996523774624354,0.0009740472699012067
1386.1609379600857,1386.1609379600857,1.0003278370183162,0.0009740581484044159
1386.1678824141911,1386.1678824141911,0.9993844100823115,0.0009742624233054535
1386.1748268683882,1386.1748268683882,1.0004081589490608,0.0009744506873159656
1386.1817713226792,1386.1817713226792,1.0009769640796164,0.0009746007906562461
1386.1887157766912,1386.1887157766912,0.9982834995311005,0.0009739670378243494
1386.1956602306097,1386.1956602306097,1.0009234593274834,0.0009745465609522924
1386.2026046844346,1386.2026046844346,1.000780264020843,0.0009745156330721183
1386.2095491382606,1386.2095491382606,0.9996434278873296,0.0009744431417056561
1386.2164935918997,1386.2164935918997,0.9994488047036401,0.0009741677777038044
1386.2234380455382,1386.2234380455382,0.9991753490293313,0.0009742680302326117
1386.2303824990845,1386.2303824990845,1.0005388748560071,0.0009741813459791072
1386.2373269524448,1386.2373269524448,1.0005876859909664,0.0009742788590095012
1386.2442714058036,1386.2442714058036,1.0012537289839896,0.0009742746743046616
1386.2512158590707,1386.2512158590707,0.9993278503341694,0.0009738455201230572
1386.2581603122442,1386.2581603122442,0.9989854872523907,0.0009736579000121477
1386.2651047652312,1386.2651047652312,1.000164248346116,0.0009740031051328407
1386.2720492182184,1386.2720492182184,1.0009783845306128,0.0009744267946536737
1386.2789936711126,1386.2789936711126,0.99937413372789,0.0009736615339705606
1386.2859381238204,1386.2859381238204,1.0001647715657263,0.0009740615220045779
1386.2928825765277,1386.2928825765277,1.0002407090500778,0.0009741407776340423
1386.2998270291428,1386.2998270291428,0.9998809672586585,0.000973865674623029
1386.3067714816648,1386.3067714816648,1.001147568018085,0.0009744159116093843
1386.313715934092,1386.313715934092,0.9987820810767427,0.000973737634841787
1386.3206603862413,1386.3206603862413,0.9993683810473086,0.0009737523220289193
1386.3276048387634,1386.3276048387634,0.9994061002308519,0.0009739318141552688
1386.3345492908181,1386.3345492908181,1.0015773843268216,0.0009745510442631183
1386.3414937428747,1386.3414937428747,0.9994559690038096,0.0009739073515089852
1386.348438194931,1386.348438194931,0.9993728727976589,0.0009738596800978819
1386.3553826465209,1386.3553826465209,1.000521682369849,0.0009743816545083559
1386.3623270984835,1386.3623270984835,1.0003312988377095,0.0009743525631177452
1386.3698271062385,1386.3698271062385,0.9996091769064177,0.0009737084585110878
1386.3776048919822,1386.3776048919822,1.0011448034584025,0.0009743983287870085
1386.384549343479,1386.384549343479,0.9996067799217121,0.0009739552458348152
1386.3914937948832,1386.3914937948832,0.9993149525604597,0.0009739157825510516
1386.3984382461945,1386.3984382461945,0.9996195942262549,0.0009741587135636004
1386.4053826974111,1386.4053826974111,0.9994218318505015,0.000973886789787544
1386.4123271486292,1386.4123271486292,1.0011844664073917,0.0009744391335046997
1386.419271599661,1386.419271599661,1.0006539583070482,0.0009747219327900603
1386.4262160505984,1386.4262160505984,0.9996093321094948,0.0009739953716084571
1386.4331605015373,1386.4331605015373,0.9999678715107377,0.0009743122509529975
1386.4401049521966,1386.4401049521966,0.9997491831276932,0.0009738344851968452
1386.447049402948,1386.447049402948,0.9986302530192205,0.0009737755785547864
1386.4539938535138,1386.4539938535138,1.00039455021636,0.0009739260331944978
1386.4609383040797,1386.4609383040797,1.0000137109268141,0.0009742946758198925
1386.467882754459,1386.467882754459,1.0006865524975912,0.0009740247229845787
1386.4748272048384,1386.4748272048384,1.0005023167608167,0.0009746434597929149
1386.481771655032,1386.481771655032,1.0002022085358684,0.0009741995678073598
1386.4887161051324,1386.4887161051324,1.0016118679117822,0.0009744964867546694
1386.4956605552313,1386.4956605552313,0.9986059263678448,0.0009735466901481769
1386.5026050052388,1386.5026050052388,0.9987854104426532,0.0009734872898912082
1386.5095494551529,1386.5095494551529,0.9992594825260148,0.0009738813697583963
1386.5164939048805,1386.5164939048805,0.9992421160259493,0.0009738292129506089
1386.5234383546074,1386.5234383546074,1.0019580279696552,0.000974828090268346
1386.5303828043357,1386.5303828043357,1.001155279336877,0.0009746073274445396
1386.5373272536904,1386.5373272536904,0.999421366438947,0.0009741206646444363
1386.5442717032315,1386.5442717032315,1.0000616476463633,0.0009741677185679551
1386.5512161525871,1386.5512161525871,1.0004461792843191,0.000974008491457945
1386.558160601849,1386.558160601849,0.9994553260721692,0.0009737316635580964
1386.5653828290065,1386.5653828290065,0.9992166241163247,0.0009741189509299777
1386.5734383898525,1386.5734383898525,0.9994309835551107,0.0009742050353090701
1386.5803828389285,1386.5803828389285,1.000023551197137,0.000974727330888729
1386.5873272877243,1386.5873272877243,0.9997883834178252,0.0009745653053911572
1386.5942717366136,1386.5942717366136,1.0018210472698066,0.0009752941843519436
1386.601216185317,1386.601216185317,1.000823758362817,0.000974939350505216
1386.6081606339271,1386.6081606339271,0.9989742782154444,0.0009742909967199051
1386.615105082536,1386.615105082536,1.0003003515999822,0.0009748384321213348
1386.6220495308673,1386.6220495308673,0.9985709998274659,0.0009741889700597483
1386.6289939792914,1386.6289939792914,0.9991908120218953,0.0009745769680911019
1386.635938427621,1386.635938427621,1.0004763627678779,0.0009749676177322194
1386.642882875766,1386.642882875766,0.9996906171318937,0.0009748176881005051
1386.6498273239106,1386.6498273239106,1.0000795603161874,0.0009748412335072734
1386.6567717718679,1386.6567717718679,1.0012106723117042,0.0009750496131677854
1386.6637162198263,1386.6637162198263,1.0015350309300182,0.0009749957347407724
1386.6706606675984,1386.6706606675984,0.998833242936961,0.0009743287424110366
1386.677605115277,1386.677605115277,1.0008640684434247,0.0009748928877729576
1386.6845495631412,1386.6845495631412,0.9983967075705857,0.0009740121913970553
1386.691494010541,1386.691494010541,0.9989379579969968,0.0009744582100470335
1386.6984384579405,1386.6984384579405,1.0006869223060761,0.0009748295294058585
1386.7053829053389,1386.7053829053389,1.0009241445141908,0.000975025847130223
1386.7123273527384,1386.7123273527384,1.0006462185564637,0.0009747129396986737
1386.7192718001384,1386.7192718001384,1.0017362597651625,0.0009752307882761978
1386.7262162471648,1386.7262162471648,0.998774063152433,0.0009740600349394266
1386.7331606942844,1386.7331606942844,0.9990963664707262,0.0009746344201795142
1386.740105141218,1386.740105141218,1.0006164050616893,0.0009748653961005339
1386.7470495880589,1386.7470495880589,0.9995598168585345,0.0009745806800345079
1386.7539940348986,1386.7539940348986,1.001529810740964,0.0009747535277126564
1386.7609384815532,1386.7609384815532,0.9992884637424841,0.0009744338781514471
1386.767882928208,1386.767882928208,0.9999884930687383,0.0009748922636882755
1386.7751051526643,1386.7751051526643,1.0003240037405363,0.0009749263482202765
1386.7831607105302,1386.7831607105302,0.9988483297861492,0.0009745168863434928
1386.7901051567192,1386.7901051567192,1.0010964035024685,0.0009748905263312905
1386.7970496030005,1386.7970496030005,0.9986495316527872,0.0009743168300218021
1386.8039940491885,1386.8039940491885,1.0019724975293414,0.0009749687908623201
1386.8109384952843,1386.8109384952843,0.9986603492684403,0.0009744604711017168
1386.817882941287,1386.817882941287,1.0007612567268385,0.0009747902885225252
1386.8248273872882,1386.8248273872882,0.9989593155931213,0.0009739695915856131
1386.831771833012,1386.831771833012,0.999342163163534,0.000974501745266109
1386.838716278735,1386.838716278735,1.0009758549741754,0.000974912851400506
1386.845660724364,1386.845660724364,0.9996027870591806,0.0009742170230693257
1386.8526051699941,1386.8526051699941,1.0000492817596713,0.0009745607357498244
1386.859549615438,1386.859549615438,1.0017553768947725,0.0009751155224865148
1386.8664940607887,1386.8664940607887,1.0010090321335732,0.0009753144818822574
1386.873438506138,1386.873438506138,0.9985967252767394,0.000974511911089245
1386.8803829513956,1386.8803829513956,1.000601568159166,0.0009755235158166413
1386.8873273964668,1386.8873273964668,0.9989205576579412,0.0009750882280939576
1386.8942718415371,1386.8942718415371,0.9995790159599022,0.0009747451660441899
1386.9012162866081,1386.9012162866081,1.0005499804268014,0.0009750913229398238
1386.9081607312141,1386.9081607312141,0.9988962849306953,0.0009752981405111759
1386.915105176192,1386.915105176192,0.9998976371045369,0.0009753328461714538
1386.9220496207968,1386.9220496207968,0.9994474508853448,0.0009749330683226101
1386.928994065402,1386.928994065402,1.0000843247909301,0.0009749428986266428
1386.9359385099146,1386.9359385099146,1.00205535128933,0.0009755040033091616
1386.9428829544263,1386.9428829544263,0.9997671780848902,0.0009750880774588615
1386.9498273986592,1386.9498273986592,0.9995069696579868,0.0009743577494033933
1386.9567718429857,1386.9567718429857,0.9995491283605688,0.0009744755232340022
1386.9637162872182,1386.9637162872182,1.0015124431032265,0.0009754227797681878
1386.9706607313572,1386.9706607313572,1.0001223346914536,0.0009744730257937089
1386.977605175311,1386.977605175311,0.9995438315147058,0.0009746181810816469
1386.985382952487,1386.985382952487,0.9998473880653895,0.0009750287925520014
1386.9928829518592,1386.9928829518592,0.9991422284164665,0.0009743199155571524
1386.9998273956264,1386.9998273956264,0.9999235642410447,0.000974673376945169
1387.0067718393009,1387.0067718393009,1.0003864011438566,0.0009750501704122484
1387.013716282788,1387.013716282788,0.9985042896349625,0.0009740403455972902
1387.0206607262758,1387.0206607262758,0.9995920940996769,0.0009745294086164336
1387.027605169764,1387.027605169764,0.9998551046383163,0.0009745173794933595
1387.0345496130656,1387.0345496130656,0.9993066358964517,0.000974076634249407
1387.0414940562735,1387.0414940562735,1.0007164603178222,0.0009744327580962844
1387.0484384993888,1387.0484384993888,1.0014813898472545,0.0009747774117563826
1387.0553829425041,1387.0553829425041,1.0004534048534104,0.0009745291322802642
1387.0623273853398,1387.0623273853398,0.9987409556334207,0.0009741938989304714
1387.0692718284547,1387.0692718284547,1.0004248374994829,0.0009749354975097685
1387.0762162711976,1387.0762162711976,0.9998361484296779,0.000974955132505839
1387.0831607139407,1387.0831607139407,0.9991735989461578,0.0009742134776520653
1387.0901051565893,1387.0901051565893,0.999872902096986,0.0009745966944700663
1387.09704959896,1387.09704959896,0.9999417187553075,0.0009744343175515965
1387.1039940415164,1387.1039940415164,1.0007041654168554,0.0009753064398330279
1387.1109384838867,1387.1109384838867,1.000337152517258,0.0009749031312112435
1387.117882926163,1387.117882926163,0.9994525575749751,0.0009742950199071841
1387.1248273683473,1387.1248273683473,0.9994896905899264,0.0009742901064723992
1387.131771810532,1387.131771810532,0.9995805534508321,0.0009744724237606628
1387.1387162526216,1387.1387162526216,1.0010379264643334,0.0009747087503083155
1387.1456606945262,1387.1456606945262,1.002063632057693,0.0009755203088416587
1387.1526051364312,1387.1526051364312,1.000428134708755,0.0009746899791705443
1387.1595495781494,1387.1595495781494,1.0006243207335195,0.0009749848264397837
1387.16649401996,1387.16649401996,0.997778083417106,0.0009742677207465284
1387.1734384615856,1387.1734384615856,1.0010885823503668,0.0009755787647257151
1387.1803829031178,1387.1803829031178,1.0000986696694036,0.0009749573010827897
1387.187327344463,1387.187327344463,0.99926946424303,0.0009748954833197996
1387.1942717859017,1387.1942717859017,1.0000434472070885,0.0009753972291749799
1387.2012162271546,1387.2012162271546,0.9992949237124893,0.0009754134121345347
1387.2081606684076,1387.2081606684076,0.9996485500649819,0.0009752257297736489
1387.215105109473,1387.215105109473,1.00113365028057,0.0009758161955052845
1387.2220495504466,1387.2220495504466,1.0011126329268007,0.0009757398576149699
1387.22899399142,1387.22899399142,0.9993491409220094,0.0009748320190433266
1387.2359384322997,1387.2359384322997,1.0001035552813033,0.0009753575183274722
1387.2428828730865,1387.2428828730865,0.9983379706911377,0.0009750337636999625
1387.2498273136873,1387.2498273136873,0.9995862912835562,0.0009750014149101178
1387.2567717545676,1387.2567717545676,1.0005547917149635,0.0009752633598654806
1387.2637161949813,1387.2637161949813,1.0015700168602544,0.0009754119613273559
1387.2706606353959,1387.2706606353959,0.9997291974825689,0.0009749774342773715
1387.2776050758107,1387.2776050758107,0.9986110005776535,0.0009747079404321122
1387.2845495160386,1387.2845495160386,1.0017116437721918,0.0009755159765960292
1387.291493956173,1387.291493956173,1.0001001138033376,0.0009747004017792865
1387.2984383963085,1387.2984383963085,0.9994610958739851,0.0009747113797242447
1387.3053828363506,1387.3053828363506,1.0001950308354497,0.0009748280686651595
1387.313160609055,1387.313160609055,0.9991991594294604,0.0009746533424073546
1387.3217717145174,1387.3217717145174,0.9995884888823463,0.0009750278810565841
1387.3289939318033,1387.3289939318033,1.0003341208629655,0.0009749809152590659
1387.3367717042295,1387.3367717042295,1.0012752427910483,0.0009753601395502004
1387.3442716989452,1387.3442716989452,1.0001351880403042,0.0009751499840716211
1387.3514939159522,1387.3514939159522,0.9988671005991208,0.0009745239555054659
1387.3595494657152,1387.3595494657152,0.9994166356345413,0.0009746455859157413
1387.3664939051046,1387.3664939051046,0.9999724109428829,0.0009749625441410747
1387.3734383442156,1387.3734383442156,1.0004684851282506,0.0009748062901530661
1387.3803827833265,1387.3803827833265,0.9995445961660392,0.0009747938010613777
1387.3873272224366,1387.3873272224366,0.9997706850564502,0.0009749997081173932
1387.3942716613606,1387.3942716613606,1.0013367055605062,0.0009753807770734081
1387.401216100285,1387.401216100285,0.9993797820678397,0.0009746587380972014
1387.4081605390234,1387.4081605390234,1.0011970399643562,0.0009755759571958469
1387.4151049777604,1387.4151049777604,1.000568252986928,0.0009751004046693919
1387.4220494163123,1387.4220494163123,0.9994863321647621,0.0009746627760689301
1387.4289938549578,1387.4289938549578,0.9993747214641978,0.0009750078825553227
1387.435938293416,1387.435938293416,0.9989984461464848,0.000974568324165448
1387.4428827316883,1387.4428827316883,0.9993859971105976,0.0009746534061361176
1387.4498271701473,1387.4498271701473,1.001421370333414,0.0009752916732660523
1387.4567716082336,1387.4567716082336,0.9998425797905302,0.0009746380019945904
1387.463716046319,1387.463716046319,1.0007977981301925,0.0009748534022189935
1387.4706604844052,1387.4706604844052,0.9990420856777582,0.000974698489934272
1387.4776049224915,1387.4776049224915,0.9994587250537172,0.0009745865867790838
1387.4845493602984,1387.4845493602984,0.9998214290498681,0.0009748676979180625
1387.491493798197,1387.491493798197,1.0005588908687888,0.0009748501966435235
1387.4984382358182,1387.4984382358182,1.0022510207765385,0.0009755211474021683
1387.505382673532,1387.505382673532,0.999654926212699,0.0009746376400223333
1387.512327111059,1387.512327111059,0.9987118059781874,0.000974665138169677
1387.519271548493,1387.519271548493,1.0003336577968018,0.0009751559453419912
1387.5262159860204,1387.5262159860204,0.9987914980540111,0.0009746692803866451
1387.5331604232688,1387.5331604232688,0.9999340397703298,0.0009747477053329455
1387.5401048604228,1387.5401048604228,1.0004880045831654,0.000975168283681766
1387.5470492976708,1387.5470492976708,0.9992709768756374,0.0009749391219271413
1387.5539937346398,1387.5539937346398,1.0002455092508593,0.0009756617433760901
1387.5609381717015,1387.5609381717015,1.0013528204334279,0.0009758953257377317
1387.5678826086692,1387.5678826086692,0.9993185967426326,0.0009751776238138869
1387.5748270453585,1387.5748270453585,1.001136053454065,0.0009755439772665741
1387.581771482141,1387.581771482141,0.9989721552178754,0.0009749684447532318
1387.58871591883,1387.58871591883,1.000383994159305,0.0009753530272403419
1387.5956603553325,1387.5956603553325,1.0003147723084131,0.0009755070798444591
1387.6026047918353,1387.6026047918353,0.9994419550648523,0.0009754379289852344
1387.6095492282457,1387.6095492282457,0.9984438920177643,0.000975021951615535
1387.6164936645616,1387.6164936645616,1.0008014494495021,0.0009757579010433628
1387.6234381007848,1387.6234381007848,0.9995448799408875,0.0009753696725816047
1387.630382537009,1387.630382537009,1.0000429073839752,0.0009750833500873638
1387.6373269730464,1387.6373269730464,1.0003337042340772,0.000975330173690677
1387.6442714090826,1387.6442714090826,1.0010350168453077,0.0009759614393260655
1387.6512158448409,1387.6512158448409,0.9990146073095181,0.0009753079626646382
1387.6581602805986,1387.6581602805986,1.0017135953665648,0.0009763666850022953
1387.6651047163566,1387.6651047163566,1.0013949737959715,0.0009755782186281417
1387.6720491521137,1387.6720491521137,0.9974635667739017,0.0009744863036920473
1387.6789935878717,1387.6789935878717,0.9997412580030538,0.0009755471246775225
1387.6859380233504,1387.6859380233504,1.000261817730708,0.0009756170403607144
1387.6928824588285,1387.6928824588285,0.9994542023760393,0.000974846331033658
1387.6998268941202,1387.6998268941202,0.9989177913727907,0.0009752774554008757
1387.7067713294127,1387.7067713294127,1.0002035362828745,0.000975589388990046
1387.713715764612,1387.713715764612,1.0009797536752956,0.000975678573190764
1387.7206601997175,1387.7206601997175,1.0005070276486148,0.0009751718554172756
1387.72760463473,1387.72760463473,1.0012874482034584,0.000975207394101606
1387.7345490696498,1387.7345490696498,0.998746749304655,0.0009745198764829876
