time,time,flux,flux_err
1354.1195665528617,1354.1195665528617,0.9998768738614799,0.0004809141172394148
1354.128363028764,1354.128363028764,0.9999806534062893,0.0004807234544895047
1354.1360020732816,1354.1360020732816,1.0008013052273153,0.0004389416209246103
1354.1429466587952,1354.1429466587952,0.9996047202747143,0.00043869622709621296
1354.1498912440288,1354.1498912440288,0.9999485449933975,0.0004387497248458802
1354.156835829263,1354.156835829263,1.0004337881047125,0.0004387396045226211
1354.1637804137515,1354.1637804137515,0.9993247639108491,0.00043851077433075666
1354.1707249982405,1354.1707249982405,0.9997511962632826,0.0004385644831770644
1354.1776695823567,1354.1776695823567,1.0002991205899219,0.00043867260694221744
1354.184614166101,1354.184614166101,0.9998854541487674,0.000438524797312653
1354.1915587497513,1354.1915587497513,1.0000366036785837,0.0004386111822216613
1354.1985033330293,1354.1985033330293,0.9997182513954567,0.0004385275001371248
1354.2054479161213,1354.2054479161213,1.0001496265229066,0.000438504497296358
1354.212392498934,1354.212392498934,1.000275932567153,0.00043857059374249527
1354.2193370814668,1354.2193370814668,0.9996183741742104,0.00043845141149368144
1354.2262816634411,1354.2262816634411,1.0006756324497634,0.00043859421736837823
1354.2332262455081,1354.2332262455081,1.0001366572463997,0.0004385672721172151
1354.2401708272032,1354.2401708272032,1.0007684946574475,0.00043865355799799536
1354.2471154085256,1354.2471154085256,0.9994967054608217,0.0004384693958626244
1354.2540599896618,1354.2540599896618,0.9993541266835362,0.00043842798397269653
1354.2610045706115,1354.2610045706115,1.0002677773988193,0.0004387066472887122
1354.2679491511888,1354.2679491511888,1.0000889659721541,0.0004386077137382585
1354.2748937316728,1354.2748937316728,1.000122561346179,0.00043858157984770626
1354.2818383117847,1354.2818383117847,1.0006254008926354,0.0004387152944279908
1354.2887828914304,1354.2887828914304,0.9992278218694528,0.00043843748139263855
1354.2957274710766,1354.2957274710766,0.9997569408586668,0.00043852277558743504
1354.3026720504429,1354.3026720504429,1.0001431853812757,0.0004385066113552172
1354.30961662953,1354.30961662953,0.9999262690880591,0.00043853921926820857
1354.3165612084313,1354.3165612084313,0.9997245000026197,0.00043846168263537424
1354.3235057870525,1354.3235057870525,1.000000761072658,0.00043850040059109093
1354.3304503653014,1354.3304503653014,0.9999177573511651,0.00043850346522649743
1354.3373949433644,1354.3373949433644,1.0003435977746207,0.000438570844449228
1354.3443395211475,1354.3443395211475,1.001335383047277,0.0004386707378608608
1354.3512840989313,1354.3512840989313,0.9999777321325372,0.00043857334138608644
1354.3582286763417,1354.3582286763417,0.9998514553287364,0.0004385021732291561
1354.36517325338,1354.36517325338,0.9997328202214015,0.00043854385285183376
1354.3721178303254,1354.3721178303254,1.00037400964326,0.0004386413526989056
1354.3790624068974,1354.3790624068974,0.999654274199106,0.00043847641629311444
1354.3860069834705,1354.3860069834705,0.9996990319034926,0.0004385458492043276
1354.3929515596706,1354.3929515596706,0.9997825678088532,0.0004386049531135745
1354.3998961355908,1354.3998961355908,1.0002141503264605,0.00043868977285782594
1354.4068407114187,1354.4068407114187,1.0007645583497358,0.00043874054936242894
1354.4137852868737,1354.4137852868737,0.9996719597365171,0.0004386081031307695
1354.4207298622355,1354.4207298622355,0.9997630534811156,0.0004386244526365255
1354.427674437225,1354.427674437225,0.999667907481039,0.0004385643696485918
1354.434619012121,1354.434619012121,1.0002823487108585,0.00043871742971313235
1354.4415635867379,1354.4415635867379,0.9997780129335458,0.0004385456591677095
1354.448508161075,1354.448508161075,1.0000676558260289,0.00043866774996054484
1354.4554527353196,1354.4554527353196,1.0002500434198924,0.0004387070767016713
1354.4623973092846,1354.4623973092846,0.9998366275408739,0.00043859438116930824
1354.46934188297,1354.46934188297,0.9998015601005781,0.00043860337854704156
1354.476286456562,1354.476286456562,1.0002591882729892,0.00043872699442089596
1354.4832310297822,1354.4832310297822,1.0002414468539904,0.00043872126982430335
1354.4901756029085,1354.4901756029085,1.0001317851014044,0.0004386341929713459
1354.4971201758494,1354.4971201758494,0.9994506031052783,0.0004385537140851908
1354.5040647485107,1354.5040647485107,1.0004858097001477,0.00043871578734285525
1354.5110093210783,1354.5110093210783,0.9996088636336594,0.0004385366801979558
1354.517953893274,1354.517953893274,0.999794611746162,0.00043866472752868607
1354.5248984653758,1354.5248984653758,1.0002007070543413,0.0004386929488095287
1354.5318430371985,1354.5318430371985,0.9999797546801965,0.0004387085308814212
1354.5387876089287,1354.5387876089287,1.0002250123925343,0.00043874325579217695
1354.545732180286,1354.545732180286,1.0004459928054523,0.0004387445842224407
1354.5526767516428,1354.5526767516428,1.0001389033602828,0.00043877354065688715
1354.5596213225347,1354.5596213225347,0.9996423953129261,0.0004385897106191982
1354.5665658933328,1354.5665658933328,0.9990977300228655,0.00043857778173615026
1354.5735104641315,1354.5735104641315,1.0000511857239176,0.0004386659994026539
1354.5804550346502,1354.5804550346502,1.0002084531187116,0.0004386406445632738
1354.587399604983,1354.587399604983,1.0000072271549403,0.0004387045996235831
1354.5943441749434,1354.5943441749434,1.0001641869147369,0.00043865690229740655
1354.6012887449033,1354.6012887449033,1.0001338762640064,0.0004387143481653109
1354.608233314491,1354.608233314491,0.9996759427053261,0.00043860417257732926
1354.6151778840788,1354.6151778840788,0.9997592966821778,0.0004385696110702036
1354.6221224533867,1354.6221224533867,1.0007652188505862,0.0004387778360359012
1354.6290670225092,1354.6290670225092,1.0002045790031446,0.000438615390853088
1354.6360115915381,1354.6360115915381,1.0003570145020446,0.00043869648014277697
1354.6429561601942,1354.6429561601942,0.9996528800199561,0.00043860466662480016
1354.649900728944,1354.649900728944,1.000007531616723,0.0004387277329699991
1354.6568452972276,1354.6568452972276,0.9995454082516441,0.0004386350437851338
1354.6637898654185,1354.6637898654185,1.0002194507333058,0.0004387307485099738
1354.670734433423,1354.670734433423,1.0005704790196428,0.0004388720423284696
1354.677679001241,1354.677679001241,0.9993013723458875,0.00043860572476205496
1354.6846235689661,1354.6846235689661,0.9993419962776594,0.00043862100104907103
1354.691568136412,1354.691568136412,1.0002978284372486,0.00043882023429450543
1354.6985127036708,1354.6985127036708,0.9995129398794962,0.00043859192374482066
1354.7054572709305,1354.7054572709305,1.0004108529419522,0.0004388532223769031
1354.7124018379104,1354.7124018379104,0.9998468194658401,0.000438667571843367
1354.7193464046109,1354.7193464046109,1.0005877808686379,0.00043877312747663867
1354.7262909713118,1354.7262909713118,0.9996008010754908,0.0004386151795253008
1354.7332355376395,1354.7332355376395,1.0009181962904898,0.00043875001013223664
1354.740180104154,1354.740180104154,0.99991701828695,0.00043860824970100185
1354.7471246701095,1354.7471246701095,0.9991399492111747,0.0004384760057336322
1354.7540692359719,1354.7540692359719,1.0003239158564343,0.00043874789597129143
1354.7610138018342,1354.7610138018342,0.9998051456672756,0.00043863292863318163
1354.7679583674174,1354.7679583674174,1.0005221358877534,0.00043885581919023386
1354.774902932814,1354.774902932814,1.0002825744415234,0.00043878922464469486
1354.7818474981175,1354.7818474981175,1.0004771995897621,0.00043886188336752526
1354.7887920632352,1354.7887920632352,0.9995802929740634,0.00043869402048208727
1354.795736628073,1354.795736628073,0.9994341246889895,0.00043872694982058526
1354.8026811929108,1354.8026811929108,0.9996524377069506,0.0004387465439761283
1354.8096257574693,1354.8096257574693,0.9993691432279718,0.00043873700995495567
1354.816570322028,1354.816570322028,1.0002395227384349,0.00043891905142737794
1354.8235148862138,1354.8235148862138,1.000360346411445,0.00043897061689984827
1354.830459450493,1354.830459450493,1.000024961997379,0.00043884510303950454
1354.837404014307,1354.837404014307,1.000650909205185,0.00043895887581669936
1354.8443485781202,1354.8443485781202,1.000650226990165,0.00043895383491924416
1354.8512931419339,1354.8512931419339,0.9996885504108762,0.00043871719180316323
1354.8582377053744,1354.8582377053744,0.9998103748950324,0.0004388172818079705
1354.8651822687223,1354.8651822687223,0.9987970682470925,0.00043857594139820046
1354.8721268319773,1354.8721268319773,1.0001120089695412,0.000438759228318459
1354.8790713950455,1354.8790713950455,0.9999467255665418,0.00043879032859341874
1354.8860159578348,1354.8860159578348,1.0010140279070296,0.0004389708766755516
1354.8929605207168,1354.8929605207168,0.9996358585142209,0.0004386113449471112
1354.8999050831335,1354.8999050831335,1.0000652980951277,0.0004387006737488088
1354.9068496456434,1354.9068496456434,1.0003443137544565,0.00043877199403567015
1354.9137942079665,1354.9137942079665,0.9995893602710527,0.00043866180089242163
1354.920738770103,1354.920738770103,0.9999055070689937,0.0004386597378238834
1354.9276833320541,1354.9276833320541,1.000371416800019,0.00043876079845441945
1354.934627893912,1354.934627893912,0.9996318561010687,0.0004385984282442372
1354.9429613679733,1354.9429613679733,0.9999849247684771,0.00043865790385318236
1354.9499059294587,1354.9499059294587,1.0002625618385852,0.000438751104242839
1354.956850490944,1354.956850490944,0.9995184277376119,0.00043873841025419437
1354.9637950520566,1354.9637950520566,1.0003734227491785,0.0004388173955951977
1354.9707396131694,1354.9707396131694,1.0004152038268705,0.0004389004134800267
1354.9776841741889,1354.9776841741889,1.0003002847716747,0.0004388814683432855
1354.984628734836,1354.984628734836,1.0001994525783462,0.0004388790520246098
1354.991573295576,1354.991573295576,0.9996467978563104,0.0004388076992160629
1354.9985178561296,1354.9985178561296,0.999250019488028,0.00043874712387086123
1355.0054624165905,1355.0054624165905,0.99981169625138,0.0004388290176496609
1355.012406976772,1355.012406976772,0.9996393159515382,0.0004388126809549582
1355.0193515368603,1355.0193515368603,0.9998139541194341,0.00043882440542834095
1355.0262960967618,1355.0262960967618,0.9999385044651403,0.0004388294085367466
1355.0332406566642,1355.0332406566642,1.0004607963304402,0.00043888380763950854
1355.040185216287,1355.040185216287,1.0008357990788306,0.00043901029473475113
1355.047129775816,1355.047129775816,1.0003751987848175,0.0004387625509260222
1355.0540743354384,1355.0540743354384,0.9999894671600721,0.00043884401135554945
1355.0610188945952,1355.0610188945952,0.9997124532993821,0.00043875164103429913
1355.0679634537523,1355.0679634537523,0.9998604367119063,0.0004388023626777459
1355.074908012816,1355.074908012816,0.9997698979999043,0.00043870097364923967
1355.0818525716004,1355.0818525716004,0.9995303623756577,0.00043872691522367355
1355.0887971303844,1355.0887971303844,0.9997464123904857,0.0004388013937714107
1355.0957416888896,1355.0957416888896,1.0007372145699047,0.0004389435481812262
1355.1026862474878,1355.1026862474878,0.9990568147915668,0.0004387017210899614
1355.1096308058063,1355.1096308058063,1.000936396085134,0.00043903615079978066
1355.116575364032,1355.116575364032,1.0003113281023768,0.0004388314949842397
1355.1235199220714,1355.1235199220714,0.999744485637725,0.00043880333779770526
1355.1304644800175,1355.1304644800175,1.0000809831919926,0.00043885820097910595
1355.1374090378706,1355.1374090378706,0.9999047914386704,0.0004388582045546272
1355.14435359563,1355.14435359563,0.9994756982114243,0.0004387967140193747
1355.1512981532044,1355.1512981532044,1.0007520426505716,0.00043897106065550766
1355.1582427105916,1355.1582427105916,0.9996848186804008,0.00043885362710502785
1355.1651872679788,1355.1651872679788,0.9999261095330947,0.0004389470615704066
1355.17213182518,1355.17213182518,1.0004567930807982,0.0004389992651354697
1355.1790763821016,1355.1790763821016,0.9996994520041401,0.0004389345443768339
1355.1860209389301,1355.1860209389301,1.0001359737910982,0.0004390366300541191
1355.192965495759,1355.192965495759,1.000042766589175,0.000438992496139814
1355.1999100525873,1355.1999100525873,0.9996160383848987,0.0004389816044208691
1355.2068546092298,1355.2068546092298,0.9998739194535059,0.00043893942433033856
1355.2137991656855,1355.2137991656855,1.0003125389589251,0.0004390380797023636
1355.2207437219556,1355.2207437219556,0.9999306466163272,0.00043893249639363535
1355.2276882782257,1355.2276882782257,0.9995967467040889,0.00043885475627941547
1355.234632834216,1355.234632834216,1.0001697625956036,0.00043902466102617297
1355.2415773902062,1355.2415773902062,0.9999315298471256,0.00043897396546528476
1355.2485219461034,1355.2485219461034,0.9997172858004504,0.0004389090062248167
1355.2554665017212,1355.2554665017212,1.0006529715268315,0.00043899507069714266
1355.2624110573392,1355.2624110573392,1.000392315164498,0.00043896022731279517
1355.2693556127708,1355.2693556127708,1.0001880667638798,0.00043885985661815493
1355.2763001681092,1355.2763001681092,0.9996186331040304,0.0004388905744177016
1355.2832447233543,1355.2832447233543,0.9997459899421205,0.00043883564491924084
1355.2901892785067,1355.2901892785067,0.9998362640804516,0.00043885263571335364
1355.2971338334728,1355.2971338334728,1.0000080062681878,0.000438930289503441
1355.3040783882523,1355.3040783882523,0.9999583220430737,0.00043897269671945804
1355.3110229432182,1355.3110229432182,0.999948609419439,0.0004389579112136794
1355.3179674977187,1355.3179674977187,0.9999723201921593,0.00043898195051668106
1355.324912052219,1355.324912052219,1.0011287709505883,0.0004391889394815791
1355.3318566067192,1355.3318566067192,1.0000091968315667,0.0004390365663855691
1355.33963450748,1355.33963450748,0.9990969840770443,0.00043892057698749243
1355.347134625968,1355.347134625968,0.9998329086200517,0.00043899391283739144
1355.3540791800024,1355.3540791800024,1.0001446366363678,0.00043902962464434516
1355.361023733944,1355.361023733944,0.9995016323402194,0.0004390177737307149
1355.3679682877923,1355.3679682877923,1.0002887195362962,0.00043917347569072656
1355.3749128414543,1355.3749128414543,0.999834944737076,0.000439015863066431
1355.3818573950234,1355.3818573950234,1.0006923463562445,0.00043914264628279047
1355.3888019485923,1355.3888019485923,1.0002274967628746,0.00043911977547408693
1355.3957465019748,1355.3957465019748,1.0001952910210363,0.00043908239910885066
1355.403802183612,1355.403802183612,0.9992323922700972,0.0004389984087360578
1355.4110245188951,1355.4110245188951,1.000390363416465,0.00043912703451687806
1355.4179690718124,1355.4179690718124,0.9994280519564495,0.0004389865957929131
1355.4249136247295,1355.4249136247295,0.9997164058896857,0.00043904980943548864
1355.4318581775533,1355.4318581775533,1.0002205133989128,0.00043907313310083494
1355.4388027301911,1355.4388027301911,1.0009748772844893,0.0004392440013642057
1355.4457472828287,1355.4457472828287,0.9992322756848386,0.00043887342648145643
1355.45269183528,1355.45269183528,0.9999778232703402,0.0004390339321875874
1355.4596363876383,1355.4596363876383,0.9998654360486237,0.0004389435106317491
1355.46658093981,1355.46658093981,0.9998548779814236,0.00043897270383623586
1355.4735254919824,1355.4735254919824,1.0001816033066562,0.0004390526146515087
1355.4804700439681,1355.4804700439681,1.0001402121914684,0.000439068738710562
1355.4874145958606,1355.4874145958606,1.00051338442387,0.0004390906116594661
1355.49435914766,1355.49435914766,0.9998598708246969,0.00043897722293361065
1355.5013036993664,1355.5013036993664,0.9998088789412212,0.00043902435074979226
1355.508248250886,1355.508248250886,1.0005244879110093,0.0004391303940922877
1355.515192802406,1355.515192802406,0.9994082992397717,0.00043891186250307216
1355.5221373537402,1355.5221373537402,1.0001155197753906,0.00043899635703611284
1355.5290819050738,1355.5290819050738,0.9995716268496706,0.0004388993928813163
1355.5360264562212,1355.5360264562212,1.0000754508016998,0.0004390229000254779
1355.542971007276,1355.542971007276,1.0001821109053926,0.000438978056493972
1355.549915558237,1355.549915558237,0.9999088703787148,0.0004390383172559834
1355.5568601091052,1355.5568601091052,0.9997584827865745,0.00043895812281752783
1355.5638046597871,1355.5638046597871,0.9999627543561538,0.00043900355910889046
1355.5707492104686,1355.5707492104686,1.000480355525954,0.00043908797697505875
1355.5776937609644,1355.5776937609644,1.0002390001396073,0.0004391098064933166
1355.58463831146,1355.58463831146,1.0000801574646307,0.0004390342304698335
1355.5915828616762,1355.5915828616762,0.9998387260977228,0.00043906462213472077
1355.5985274119857,1355.5985274119857,1.000117333067751,0.00043908832270656006
1355.6054719621084,1355.6054719621084,0.9994940103350363,0.000439070681037619
1355.6124165121387,1355.6124165121387,1.0003569463876092,0.0004391330378950369
1355.6193610619823,1355.6193610619823,1.0002538967095214,0.00043923640616036345
1355.6263056118257,1355.6263056118257,0.9990935469388909,0.00043908789825430113
1355.6332501616698,1355.6332501616698,1.0003854350977837,0.0004393016387625584
1355.6401947110476,1355.6401947110476,0.9998881645277196,0.0004391976988364373
1355.6471392606115,1355.6471392606115,1.0003962308052983,0.0004392216971785794
1355.6540838100832,1355.6540838100832,0.9995095350307206,0.00043912496716892215
1355.661028359368,1355.661028359368,1.0001907265298806,0.0004392703151984757
1355.6679729085595,1355.6679729085595,1.000204419489362,0.00043922644177673794
1355.6749174576585,1355.6749174576585,1.0001510415057286,0.00043923651852307975
1355.6818620066638,1355.6818620066638,0.9998306195299442,0.00043921206953677594
1355.6888065555763,1355.6888065555763,1.0006701956036523,0.0004392747986214497
1355.6957511043024,1355.6957511043024,0.9997003443105182,0.00043915077523207804
1355.7026956530283,1355.7026956530283,0.9996391563102804,0.0004391217817402708
1355.7096402016614,1355.7096402016614,1.0004792006885808,0.00043926918463457304
1355.7165847502013,1355.7165847502013,0.9999414881970441,0.00043909657220454106
1355.7235292986477,1355.7235292986477,1.0006016209929958,0.00043923683807012645
1355.7304738469084,1355.7304738469084,0.9994843653493775,0.0004390618267924311
1355.7374183951688,1355.7374183951688,1.0003939849038064,0.00043911228611832946
1355.744362943243,1355.744362943243,0.9993459872026786,0.00043907276147066613
1355.75269640082,1355.75269640082,0.9999761261076134,0.0004391382337310968
1355.759640948801,1355.759640948801,0.9998084002150491,0.00043900391939972783
1355.7665854965958,1355.7665854965958,1.0007152945691937,0.00043926145650434185
1355.7735300442976,1355.7735300442976,1.0005094725777766,0.00043921057684003634
1355.7804745918124,1355.7804745918124,0.9993868080152424,0.00043903355431139986
1355.787419139328,1355.787419139328,0.9999391457745702,0.0004391913257192041
1355.7943636868436,1355.7943636868436,1.0001395924228935,0.0004391688117013493
1355.8013082341727,1355.8013082341727,0.9999937678999105,0.0004392181213605893
1355.8082527814088,1355.8082527814088,0.9996644877041895,0.0004390583691643998
1355.8151973284585,1355.8151973284585,0.9999843547562748,0.00043918179421511985
1355.8221418756016,1355.8221418756016,1.0004149582422615,0.0004392269788008429
1355.8290864224646,1355.8290864224646,0.9996871900527979,0.0004392231140365327
1355.8360309693278,1355.8360309693278,0.9999441441268114,0.0004392336888091749
1355.8429755160055,1355.8429755160055,0.9996477532638121,0.0004391434228434246
1355.8499200627755,1355.8499200627755,0.9997494597332672,0.0004391371860747666
1355.8568646093597,1355.8568646093597,1.0001504445499534,0.0004391752162582989
1355.8638091558507,1355.8638091558507,1.0002791642357352,0.0004392205270770714
1355.870753702155,1355.870753702155,1.0006580676687766,0.00043925094595678493
1355.87769824846,1355.87769824846,1.0003320106127223,0.0004393222443647536
