time,time,flux,flux_err
1410.9107250193247,1410.9107250193247,0.999809314629966,0.0006683395448505811
1410.9190584612113,1410.9190584612113,1.0000367356334452,0.000668344037518453
1410.927391902943,1410.927391902943,1.0000171949799403,0.0006684778516566137
1410.9350308911485,1410.9350308911485,1.0000412918061645,0.0006101234866649002
1410.9419754255352,1410.9419754255352,1.0003111317318347,0.0006102966944422743
1410.9489199599204,1410.9489199599204,1.0000741272603446,0.0006100866976169273
1410.95586449412,1410.95586449412,1.000355488816504,0.0006100551879804707
1410.9633645908173,1410.9633645908173,0.999873727223609,0.0006099413287246825
1410.9744758449585,1410.9744758449585,0.9999253279965595,0.0006097133299706667
1410.987809349463,1410.987809349463,1.000339855016097,0.0006102155582528236
1410.9947538829178,1410.9947538829178,1.0000928837935361,0.0006100056863913515
1411.0066984798743,1411.0066984798743,1.0002449503567568,0.0006097557087625063
1411.014198575454,1411.014198575454,0.9995813756531586,0.0006098553873368153
1411.0211431083492,1411.0211431083492,1.0000766357197848,0.0006100018191973769
1411.028087640873,1411.028087640873,1.0003951423044768,0.0006100171641884529
1411.0350321734888,1411.0350321734888,0.9997563428242783,0.0006096290833982808
1411.0419767057324,1411.0419767057324,0.9996801192105279,0.0006099545598451677
1411.0491990193182,1411.0491990193182,1.001354670900217,0.000610167380048626
1411.0572546763701,1411.0572546763701,0.9999053555329697,0.0006095827669218356
1411.064199208149,1411.064199208149,1.0005029966641443,0.0006100101812206742
1411.0711437399264,1411.0711437399264,0.9988262394263246,0.0006095403177410428
1411.0780882715185,1411.0780882715185,1.000977462103902,0.0006100327197635892
1411.0850328028307,1411.0850328028307,0.9996097552997718,0.00060947290422235
1411.0919773340497,1411.0919773340497,1.00064780542754,0.0006097028438986292
1411.0989218652699,1411.0989218652699,1.0008968094413682,0.0006100079528023759
1411.105866396116,1411.105866396116,1.0000964091010842,0.0006098220671208704
1411.112810926963,1411.112810926963,0.9992418690981433,0.000609484409521742
1411.1197554575303,1411.1197554575303,1.001011713229736,0.0006097636881967506
1411.1266999880038,1411.1266999880038,1.0003226766602435,0.0006097917418323714
1411.1336445182926,1411.1336445182926,0.9999468808234837,0.0006095504331702572
1411.1405890484868,1411.1405890484868,1.0001832124367045,0.0006098505236700442
1411.1475335784955,1411.1475335784955,0.9996662568403611,0.0006094762490512257
1411.154478108318,1411.154478108318,0.9999997739764739,0.0006098363976903105
1411.1614226380466,1411.1614226380466,0.9993198140309403,0.0006094828330528771
1411.16836716759,1411.16836716759,0.9998968610115213,0.0006096355926050814
1411.1753116969464,1411.1753116969464,0.9996728848251489,0.0006094078482844106
1411.18225622621,1411.18225622621,0.9998784641691218,0.0006095501393926791
1411.1892007552874,1411.1892007552874,0.9997764706850777,0.0006096473855752388
1411.1961452841776,1411.1961452841776,1.0003582796546915,0.0006098076194853748
1411.2030898130693,1411.2030898130693,1.0011044303589913,0.0006098841420543023
1411.2100343414943,1411.2100343414943,1.000570544917492,0.0006098582276605467
1411.2169788700126,1411.2169788700126,1.0000388298266931,0.0006097160511661542
1411.2239233982518,1411.2239233982518,0.9993954061198058,0.0006093708449500226
1411.2308679264904,1411.2308679264904,0.9996056394953531,0.0006094690829261668
1411.2378124543577,1411.2378124543577,1.0000488055070216,0.0006095419517422216
1411.2447569823169,1411.2447569823169,0.9988661119858797,0.0006094552338422838
1411.2517015099043,1411.2517015099043,0.9998193034353993,0.0006097963647043707
1411.258646037491,1411.258646037491,1.0007777801061506,0.0006098189182809655
1411.265590564892,1411.265590564892,1.0004468264036714,0.0006097569695847438
1411.2725350920139,1411.2725350920139,1.0005585426423937,0.000609615754078167
1411.2794796190415,1411.2794796190415,0.9996128395020684,0.000609383249560414
1411.2864241458838,1411.2864241458838,1.0005221893975438,0.0006097599727290704
1411.2933686728188,1411.2933686728188,0.9990340150607168,0.0006093325250289169
1411.3003131993814,1411.3003131993814,1.0000929428909955,0.000609600837011827
1411.3072577257583,1411.3072577257583,0.9998347589144823,0.0006095118670020771
1411.314202252041,1411.314202252041,1.0004811807785985,0.0006098010816464228
1411.3211467780452,1411.3211467780452,1.000198966241815,0.0006097618736977536
1411.328091304049,1411.328091304049,1.0001885409650222,0.0006097992193454427
1411.3350358298662,1411.3350358298662,0.9993869128228777,0.0006092496706719515
1411.3419803554984,1411.3419803554984,0.99989931948808,0.0006094838434691811
1411.3489248810358,1411.3489248810358,1.000273484241038,0.0006098209355794599
1411.3558694063881,1411.3558694063881,0.999790315594657,0.0006095523086476733
1411.3628139315538,1411.3628139315538,0.9997684869459504,0.0006096203741905835
1411.369758456626,1411.369758456626,1.0005483245985314,0.0006097534107817671
1411.3767029815128,1411.3767029815128,1.0001170595750668,0.0006096819245722243
1411.3836475062121,1411.3836475062121,0.9999010623833893,0.0006097717895141401
1411.390592030726,1411.390592030726,0.9997130883712941,0.0006097231583053612
1411.3975365550539,1411.3975365550539,1.000393681497069,0.0006097552507700972
1411.4044810794742,1411.4044810794742,1.000567530431206,0.0006096494630240481
1411.4114256034295,1411.4114256034295,0.9990409245705825,0.0006094822696287598
1411.4183701274771,1411.4183701274771,0.9997396283330735,0.0006096932525064295
1411.4253146512463,1411.4253146512463,0.9999578742816722,0.0006096123569965257
1411.4322591749215,1411.4322591749215,1.0003273014967373,0.0006096934184690566
1411.4392036984104,1411.4392036984104,0.9994364121548667,0.0006094636386232903
1411.4461482217137,1411.4461482217137,1.001389454753023,0.0006099101646959516
1411.4530927450164,1411.4530927450164,1.0003583953375066,0.0006094978836918162
1411.4600372680407,1411.4600372680407,1.0000912181968022,0.0006095969383914364
1411.4669817908775,1411.4669817908775,0.9998496207335663,0.0006094201907002287
1411.473926313622,1411.473926313622,0.9996899093533032,0.000609546647581622
1411.4808708361802,1411.4808708361802,1.0007119898505805,0.0006096851122506985
1411.4878153585516,1411.4878153585516,0.9989151271540171,0.0006093609021183457
1411.4947598807375,1411.4947598807375,1.0008790297950723,0.0006097981896230144
1411.5017044031085,1411.5017044031085,0.9999746683552365,0.0006096638440391049
1411.5086489250148,1411.5086489250148,0.9996901848772627,0.0006096058745620467
1411.5155934468276,1411.5155934468276,1.0002900842608144,0.0006094607818605635
1411.522537968361,1411.522537968361,0.9993048473622018,0.0006095064806473354
1411.529482489895,1411.529482489895,1.0003850527610314,0.0006097291944960002
1411.5364270112418,1411.5364270112418,1.000390613423813,0.000609855181658404
1411.5433715324966,1411.5433715324966,1.000091625603625,0.000609737135052468
1411.5503160534709,1411.5503160534709,1.00024515272488,0.0006097408105429054
1411.5572605744455,1411.5572605744455,0.9997196708463021,0.0006096640162694292
1411.5642050952342,1411.5642050952342,0.9995368416260983,0.0006094864764629093
1411.5711496157426,1411.5711496157426,0.9996103321283878,0.0006096401639830816
1411.5780941362525,1411.5780941362525,0.9993450264579138,0.0006094195303169204
1411.5850386564816,1411.5850386564816,1.0010217525328717,0.0006098556545424395
1411.5919831767114,1411.5919831767114,0.9994215126957264,0.000609423623391106
1411.5989276967553,1411.5989276967553,1.0005069740421342,0.0006099332273268361
1411.6058722165187,1411.6058722165187,1.0007092170744243,0.0006098174823226981
1411.6128167363763,1411.6128167363763,1.0002520851314054,0.0006097173283680467
1411.6197612559538,1411.6197612559538,0.9996379532009273,0.0006095146499251272
1411.6267057751588,1411.6267057751588,0.9990474485570322,0.0006094393105807597
1411.6336502944573,1411.6336502944573,1.0001641540658537,0.0006096455583001969
1411.6405948135691,1411.6405948135691,1.000655102498768,0.0006098098127187025
1411.6475393325886,1411.6475393325886,1.0004203705773567,0.0006097261605864285
1411.6544838513278,1411.6544838513278,0.9997359871675023,0.0006097629070864255
1411.6614283700676,1411.6614283700676,0.9994220211500873,0.0006094057624245204
1411.6683728884343,1411.6683728884343,0.9996871081071056,0.0006096883286870194
1411.6753174068947,1411.6753174068947,1.0001136300107631,0.0006097224630600114
1411.6822619251686,1411.6822619251686,1.000839843219857,0.000609767416112581
1411.6892064431627,1411.6892064431627,1.000098912420651,0.0006096869592638703
1411.696150961158,1411.696150961158,0.9992675422473185,0.0006096733588203269
1411.7030954789655,1411.7030954789655,0.9997553817565384,0.0006097462044569334
1411.7100399964947,1411.7100399964947,1.0007374725252913,0.0006098747691242526
1411.7169845142098,1411.7169845142098,0.999745345508185,0.0006095730499508411
1411.7239290314587,1411.7239290314587,0.9996674485285558,0.0006094174203347724
1411.730873548709,1411.730873548709,0.9993185454590245,0.0006096212132499193
1411.737818065585,1411.737818065585,1.0008152432884023,0.000609700881598408
1411.7447625825557,1411.7447625825557,1.0001127175058346,0.0006096205680072196
1411.7517070993392,1411.7517070993392,0.9998895972248363,0.0006096480478074279
1411.7586516160297,1411.7586516160297,1.0003603785473227,0.0006098070629149809
1411.7655961324413,1411.7655961324413,0.9994651198214181,0.0006095637405826861
1411.7725406487589,1411.7725406487589,1.0002350922902514,0.0006096254704843556
1411.7794851648912,1411.7794851648912,0.9996333531037692,0.0006096501356832771
1411.786429681023,1411.786429681023,1.0006563090824712,0.0006097738783291696
1411.7933741968752,1411.7933741968752,0.9998976425967537,0.0006096770642593557
1411.8003187126346,1411.8003187126346,1.0004462458985317,0.0006098523998323239
1411.8072632282074,1411.8072632282074,0.9993184144536155,0.0006095181483821203
1411.8142077436878,1411.8142077436878,1.0000775900324073,0.0006096923902448128
1411.8211522589813,1411.8211522589813,0.9991096712273364,0.0006095099162305287
1411.828096774275,1411.828096774275,1.0008154061623136,0.0006098934156018234
1411.8350412892892,1411.8350412892892,1.0009340966053297,0.0006100144765758427
1411.8419858042103,1411.8419858042103,0.9999734021622062,0.0006097051729963049
1411.8489303188524,1411.8489303188524,0.9995982172743773,0.0006096763017845784
1411.8558748334935,1411.8558748334935,0.9997803980611707,0.0006096287570061573
1411.8628193479494,1411.8628193479494,0.9991354348534808,0.0006095510289199095
1411.8697638623114,1411.8697638623114,0.9994030118330078,0.0006097033300734053
1411.876708376488,1411.876708376488,1.0004044329068313,0.000609829930469279
1411.8836528904776,1411.8836528904776,1.0007527159553034,0.0006100702030518272
1411.8905974043741,1411.8905974043741,1.0004902160749396,0.0006098533695301726
1411.897541918085,1411.897541918085,1.0008739650593306,0.0006101328470726153
1411.904486431795,1411.904486431795,1.0001986406557473,0.0006099490444135034
1411.9114309452266,1411.9114309452266,0.9987356455502361,0.0006095261210865028
1411.9183754585642,1411.9183754585642,0.9996932322557919,0.0006095353710089889
1411.925319971809,1411.925319971809,0.9995014784588097,0.0006097098313015199
1411.9322644848676,1411.9322644848676,1.0000183790987909,0.0006099203984106592
1411.9392089977393,1411.9392089977393,0.9996346712864135,0.0006098057171432071
1411.946153510519,1411.946153510519,1.0009233206159613,0.0006098779423329133
1411.9530980233906,1411.9530980233906,0.9997926763936885,0.0006097387337873405
1411.960042535518,1411.960042535518,0.9999213773593759,0.0006097591689335418
1411.966987048111,1411.966987048111,1.0003279093358612,0.0006097920743325542
1411.9739315602378,1411.9739315602378,0.9994326708751755,0.0006096027105359262
1411.9808760722722,1411.9808760722722,1.0008971062384882,0.0006097483475666604
1411.9878205843058,1411.9878205843058,0.9995551102525229,0.0006095511409255249
1411.9947650961542,1411.9947650961542,0.9999225328572938,0.000609654316428315
1412.001709607815,1412.001709607815,1.0006601538104016,0.0006097583633578481
1412.0086541193843,1412.0086541193843,0.9994088384214184,0.0006095484954704715
1412.015598630766,1412.015598630766,0.999856548621009,0.0006096551769595325
1412.0225431419617,1412.0225431419617,1.0000231115593292,0.000609776164864528
1412.0294876530647,1412.0294876530647,1.000391596081593,0.0006097429313402121
1412.0364321640736,1412.0364321640736,0.9999025498078785,0.000609741104921479
1412.043376674898,1412.043376674898,0.9997808295024644,0.0006095371646870203
1412.0503211857206,1412.0503211857206,1.0001156819039694,0.0006097320762115191
1412.0572656962645,1412.0572656962645,1.0001492627174802,0.0006097980473206867
1412.0642102067154,1412.0642102067154,0.999506244237519,0.0006096959839052107
1412.07115471698,1412.07115471698,1.001022123699546,0.0006100304984243273
1412.0780992272448,1412.0780992272448,0.9995577500838904,0.0006097491424115714
1412.0850437371362,1412.0850437371362,0.9997018727263727,0.0006096996718324879
1412.091988247122,1412.091988247122,1.0001261535604251,0.0006099078902934262
1412.0989327569205,1412.0989327569205,0.9997683583127,0.0006096296685191695
1412.105877266533,1412.105877266533,1.0002960999269028,0.0006096792756651274
1412.1128217760524,1412.1128217760524,1.0001925618782679,0.0006098189033771421
1412.1197662853854,1412.1197662853854,0.9998989680014745,0.0006096954372006699
1412.1267107945328,1412.1267107945328,0.9987720572221835,0.000609382783800903
1412.1336553036795,1412.1336553036795,1.0007564566846192,0.000609963858464169
1412.1405998126406,1412.1405998126406,0.999401892065363,0.0006095566975737695
1412.147544321508,1412.147544321508,1.0015568565211486,0.0006099569531572556
1412.1544888301892,1412.1544888301892,0.9993809151090559,0.0006094602651328464
1412.1614333386842,1412.1614333386842,1.0004145588536244,0.0006097384212684807
1412.1683778471788,1412.1683778471788,0.999563138695088,0.0006096767097880554
1412.1753223554883,1412.1753223554883,1.0000753214798335,0.0006097102159520093
1412.1822668635168,1412.1822668635168,0.9999757653465032,0.0006097611257142692
1412.1892113714537,1412.1892113714537,1.0002678240653007,0.000609794008439476
1412.1961558793896,1412.1961558793896,1.0001307707908997,0.000609853991387389
1412.203100387326,1412.203100387326,0.9991060789226086,0.0006096598635805179
1412.21004489489,1412.21004489489,1.0005726375574946,0.0006100113332944228
1412.2169894024532,1412.2169894024532,1.0000373062070393,0.0006100082199306529
1412.223933909831,1412.223933909831,0.9999847048717807,0.0006099326018536672
1412.2308784170218,1412.2308784170218,0.9990555887638395,0.0006095906987001885
1412.2378229242136,1412.2378229242136,1.0001644386967914,0.000609875254432577
1412.2447674311247,1412.2447674311247,1.0001920920949061,0.0006096308059598073
1412.2517119380366,1412.2517119380366,1.0001207912562198,0.0006099344924605781
1412.2603231262942,1412.2603231262942,1.0012940404457114,0.0006098015374642862
1412.2694898749078,1412.2694898749078,0.9995525810651866,0.0006090840414141945
1412.2797677442318,1412.2797677442318,0.9994505127098527,0.000609127968063395
1412.290045613463,1412.290045613463,1.0000851563207882,0.0006096790116208488
1412.2975456798918,1412.2975456798918,0.999841699499797,0.0006093653507439471
1412.3044901858725,1412.3044901858725,0.9998865467779205,0.0006095862762632266
1412.3114346915731,1412.3114346915731,0.9997881398082482,0.0006095146030639543
1412.3183791971815,1412.3183791971815,0.9993752297625231,0.0006095316143298554
1412.3253237026026,1412.3253237026026,1.0005049256179999,0.0006097434705355586
1412.3322682079317,1412.3322682079317,1.000920648109232,0.0006097233363242492
1412.339212713167,1412.339212713167,1.0003118418589931,0.0006099642347086424
1412.346157218309,1412.346157218309,0.9996749147283286,0.0006096365886118174
1412.3531017231726,1412.3531017231726,1.0005859382106668,0.0006092450309944638
1412.3600462280347,1412.3600462280347,1.0004212714167295,0.000609552692590553
1412.3669907327119,1412.3669907327119,0.99861409725404,0.0006091513641957357
1412.373935237295,1412.373935237295,0.9993744434721975,0.000609784509598095
1412.3808797416925,1412.3808797416925,0.9995500320405973,0.0006098079857104888
1412.3878242460894,1412.3878242460894,1.0005366377821179,0.0006098653031628132
1412.3947687503003,1412.3947687503003,1.0007087344190855,0.0006100303375825565
1412.4017132544184,1412.4017132544184,1.0000684467906578,0.0006096856085958794
1412.4086577582564,1412.4086577582564,1.0003559094813184,0.0006097048100939976
1412.4156022620955,1412.4156022620955,0.9994255192809055,0.0006092287023193135
1412.4225467658403,1412.4225467658403,0.9995841967014576,0.0006094834907957099
1412.4294912692133,1412.4294912692133,1.0005617499971458,0.0006100062531021984
1412.4364357729585,1412.4364357729585,0.9998674402459434,0.0006097927258253713
1412.4433802762383,1412.4433802762383,0.999717679614305,0.0006097190069789707
1412.4503247793316,1412.4503247793316,1.0003010122054037,0.0006097999098780611
1412.4572692823313,1412.4572692823313,1.0004972681711062,0.0006098584416158691
1412.4642137852393,1412.4642137852393,0.9993439524796999,0.000609449281683224
1412.4711582881455,1412.4711582881455,0.999315295809683,0.0006093930656587766
1412.4781027907738,1412.4781027907738,0.9994586479689598,0.0006092594040752597
1412.485047293308,1412.485047293308,1.0008420585088018,0.0006095084176179178
1412.491991795749,1412.491991795749,1.000726342775717,0.0006099718630681953
1412.498936298098,1412.498936298098,1.0001096522401507,0.0006096598488737323
1412.5058808002595,1412.5058808002595,0.9997021495211351,0.000609408543551739
1412.512825302329,1412.512825302329,0.9995632905435787,0.0006096568271635787
1412.5197698042114,1412.5197698042114,1.0006388676336775,0.0006098698239744261
1412.5267143060944,1412.5267143060944,0.9999806775091529,0.0006097960671874356
1412.5336588077903,1412.5336588077903,0.9998122986012999,0.000609689157249004
1412.5406033093009,1412.5406033093009,0.9998359647073803,0.0006097962485329309
1412.5475478108106,1412.5475478108106,0.9995282951179568,0.0006096755317657728
1412.5544923120412,1412.5544923120412,0.999841271599451,0.0006096080018939323
1412.5614368133652,1412.5614368133652,1.0010794081011383,0.0006101891566758523
1412.5683813143162,1412.5683813143162,0.99998048713496,0.0006097462513876159
1412.5753258152686,1412.5753258152686,1.0002850601942743,0.0006098959510749717
1412.582270316219,1412.582270316219,0.9998281184023796,0.0006097757064775887
1412.5892148167984,1412.5892148167984,0.9992599538376963,0.0006096891296100651
1412.59615931747,1412.59615931747,1.000410279836983,0.0006099384415363416
1412.6031038178626,1412.6031038178626,0.9992765943323437,0.0006094914204979149
1412.610048318255,1412.610048318255,1.0001714721184705,0.000609849312679027
1412.6169928184609,1412.6169928184609,0.9996575652185351,0.0006096649084113701
1412.6239373185742,1412.6239373185742,1.0002445757460308,0.0006097737963375635
1412.6308818185942,1412.6308818185942,1.0004028985468192,0.0006094708109756779
1412.6378263183356,1412.6378263183356,1.0006509138880844,0.0006098212181152048
1412.6447708181684,1412.6447708181684,0.9994348178991205,0.0006094341746735566
1412.6517153177233,1412.6517153177233,0.9991904315640795,0.000609486097013415
1412.6586598171841,1412.6586598171841,0.9995718389270426,0.0006095865996653921
1412.6656043166454,1412.6656043166454,1.0000179999844252,0.0006095734132774789
1412.6725488158274,1412.6725488158274,0.9999252703795298,0.0006096217151821867
1412.6794933149158,1412.6794933149158,1.0005015552127994,0.0006094812130145549
1412.6864378140049,1412.6864378140049,0.9991088146113866,0.0006090785405598496
1412.6933823128136,1412.6933823128136,1.0003812823336884,0.0006096217103626861
1412.7003268114374,1412.7003268114374,0.9994387066932106,0.0006094342685143324
1412.7072713100595,1412.7072713100595,1.0010088671400843,0.0006098829395301761
