time,time,flux,flux_err
1354.1150469762595,1354.1150469762595,49432.723,26.158848
1354.1164358983358,1354.1164358983358,49375.12,26.148075
1354.1192137424866,1354.1192137424866,49440.414,26.150959
1354.1206026650286,1354.1206026650286,49474.055,26.175177
1354.1219915871045,1354.1219915871045,49402.53,26.15328
1354.1233805091802,1354.1233805091802,49403.598,26.153296
1354.1247694312558,1354.1247694312558,49458.758,26.168581
1354.1261583533321,1354.1261583533321,49420.27,26.158604
1354.1275472754087,1354.1275472754087,49487.1,26.170652
1354.1289361974843,1354.1289361974843,49419.297,26.15348
1354.1303251195602,1354.1303251195602,49512.535,26.179596
1354.1317140416356,1354.1317140416356,49438.56,26.163113
1354.1331029637115,1354.1331029637115,49421.69,26.156534
1354.1344918857878,1354.1344918857878,49464.727,26.166468
1354.1358808078637,1354.1358808078637,49432.59,26.162647
1354.1372697299391,1354.1372697299391,49412.98,26.15306
1354.1386586520157,1354.1386586520157,49432.656,26.161963
1354.1400475740913,1354.1400475740913,49465.85,26.168861
1354.1414364961677,1354.1414364961677,49493.26,26.170795
1354.1428254182435,1354.1428254182435,49402.074,26.152277
1354.1442143398529,1354.1442143398529,49457.453,26.151289
1354.1456032619292,1354.1456032619292,49373.332,26.150145
1354.1469921840055,1354.1469921840055,49411.2,26.154186
1354.1483811060814,1354.1483811060814,49414.5,26.15446
1354.1497700276914,1354.1497700276914,49418.082,26.15934
1354.151158949767,1354.151158949767,49414.63,26.157589
1354.1525478718434,1354.1525478718434,49492.305,26.171232
1354.1539367934542,1354.1539367934542,49355.086,26.14055
1354.1553257155294,1354.1553257155294,49421.348,26.156406
1354.1567146371392,1354.1567146371392,49410.426,26.154818
1354.1581035592155,1354.1581035592155,49411.94,26.15608
1354.159492481292,1354.159492481292,49440.23,26.161722
1354.160881402902,1354.160881402902,49394.023,26.151112
1354.162270324977,1354.162270324977,49434.605,26.159296
1354.1636592465877,1354.1636592465877,49454.86,26.167166
1354.1650481681986,1354.1650481681986,49435.73,26.162643
1354.1664370902743,1354.1664370902743,49402.285,26.15224
1354.1678260118845,1354.1678260118845,49405.508,26.153408
1354.16921493396,1354.16921493396,49403.656,26.14872
1354.1706038555708,1354.1706038555708,49427.426,26.156374
1354.1719927771817,1354.1719927771817,49433.855,26.160795
1354.1733816992567,1354.1733816992567,49416.414,26.154737
1354.1747706208666,1354.1747706208666,49388.17,26.149866
1354.1761595424775,1354.1761595424775,49433.188,26.157196
1354.1775484640873,1354.1775484640873,49398.426,26.152685
1354.1789373861636,1354.1789373861636,49355.746,26.140223
1354.1803263077738,1354.1803263077738,49433.96,26.159588
1354.181715229384,1354.181715229384,49407.31,26.152922
1354.1831041509947,1354.1831041509947,49414.215,26.14812
1354.1844930726045,1354.1844930726045,49373.785,26.145504
1354.1858819942154,1354.1858819942154,49407.6,26.156593
1354.1872709158254,1354.1872709158254,49378.516,26.147923
1354.1886598374347,1354.1886598374347,49428.004,26.159237
1354.1900487590456,1354.1900487590456,49389.953,26.149364
1354.1914376806565,1354.1914376806565,49399.332,26.15424
1354.1928266022662,1354.1928266022662,49393.633,26.149899
1354.1942155238764,1354.1942155238764,49414.156,26.155552
1354.1956044454864,1354.1956044454864,49444.77,26.162106
1354.1969933670973,1354.1969933670973,49433.164,26.161646
1354.198382288708,1354.198382288708,49346.24,26.138815
1354.1997712103173,1354.1997712103173,49446.598,26.160759
1354.2011601319273,1354.2011601319273,49453.555,26.160992
1354.2025490535382,1354.2025490535382,49394.266,26.146051
1354.2039379746832,1354.2039379746832,49431.715,26.15914
1354.205326896293,1354.205326896293,49388.668,26.145906
1354.2067158179025,1354.2067158179025,49390.266,26.149336
1354.2081047395134,1354.2081047395134,49359.613,26.144518
1354.2094936606584,1354.2094936606584,49417.48,26.15695
1354.2108825822681,1354.2108825822681,49414.527,26.156311
1354.2122715038784,1354.2122715038784,49369.406,26.14244
1354.213660425023,1354.213660425023,49430.418,26.157785
1354.2150493466336,1354.2150493466336,49423.207,26.156364
1354.2164382682442,1354.2164382682442,49365.16,26.14464
1354.217827189388,1354.217827189388,49443.688,26.162579
1354.219216110998,1354.219216110998,49388.785,26.149544
1354.220605032143,1354.220605032143,49452.742,26.167048
1354.221993953753,1354.221993953753,49406.39,26.154705
1354.2233828748983,1354.2233828748983,49414.82,26.157711
1354.224771796508,1354.224771796508,49421.773,26.154728
1354.2261607176526,1354.2261607176526,49396.15,26.149122
1354.2275496387977,1354.2275496387977,49374.4,26.14618
1354.2289385604079,1354.2289385604079,49399.02,26.15147
1354.230327481552,1354.230327481552,49441.81,26.161411
1354.2317164031622,1354.2317164031622,49430.598,26.15758
1354.2331053243065,1354.2331053243065,49363.0,26.145678
1354.2344942454517,1354.2344942454517,49403.477,26.151882
1354.2358831665968,1354.2358831665968,49420.81,26.158691
1354.2372720882067,1354.2372720882067,49382.43,26.147692
1354.238661009351,1354.238661009351,49409.695,26.151016
1354.2400499304956,1354.2400499304956,49500.29,26.173756
1354.2414388516406,1354.2414388516406,49385.727,26.148521
1354.2428277727856,1354.2428277727856,49383.78,26.1479
1354.244216694395,1354.244216694395,49474.844,26.168541
1354.2456056155395,1354.2456056155395,49452.098,26.164043
1354.2469945366845,1354.2469945366845,49424.668,26.159622
1354.2483834578295,1354.2483834578295,49470.88,26.168304
1354.249772378974,1354.249772378974,49430.082,26.160067
1354.2511613001177,1354.2511613001177,49392.086,26.153217
1354.2525502212627,1354.2525502212627,49424.21,26.155987
1354.2539391424077,1354.2539391424077,49386.797,26.145092
1354.2553280635523,1354.2553280635523,49369.707,26.146416
1354.2567169846964,1354.2567169846964,49438.32,26.162594
1354.258105905841,1354.258105905841,49455.48,26.166393
1354.259494826986,1354.259494826986,49424.074,26.159252
1354.260883748131,1354.260883748131,49395.582,26.148401
1354.2622726692746,1354.2622726692746,49432.902,26.158897
1354.2636615899535,1354.2636615899535,49439.938,26.161978
1354.2650505110985,1354.2650505110985,49413.348,26.155748
1354.266439432243,1354.266439432243,49433.06,26.158655
1354.267828353388,1354.267828353388,49446.145,26.162466
1354.2692172740667,1354.2692172740667,49437.906,26.163147
1354.270606195211,1354.270606195211,49423.39,26.161638
1354.271995116356,1354.271995116356,49430.77,26.156599
1354.2733840375006,1354.2733840375006,49415.73,26.15433
1354.2747729581795,1354.2747729581795,49407.066,26.151678
1354.2761618793236,1354.2761618793236,49399.016,26.151098
1354.2775508004681,1354.2775508004681,49432.008,26.160715
1354.2789397211475,1354.2789397211475,49434.297,26.160364
1354.2803286422925,1354.2803286422925,49421.043,26.161177
1354.2817175629714,1354.2817175629714,49451.68,26.162039
1354.2831064841155,1354.2831064841155,49392.2,26.149406
1354.2844954047944,1354.2844954047944,49455.254,26.166586
1354.2858843259394,1354.2858843259394,49416.062,26.156248
1354.2872732466183,1354.2872732466183,49422.574,26.156382
1354.288662167762,1354.288662167762,49368.13,26.143965
1354.2900510884413,1354.2900510884413,49408.0,26.151966
1354.2914400095863,1354.2914400095863,49388.004,26.149757
1354.2928289302656,1354.2928289302656,49425.824,26.155943
1354.2942178509445,1354.2942178509445,49394.72,26.152185
1354.2956067720881,1354.2956067720881,49420.04,26.149841
1354.2969956927675,1354.2969956927675,49408.86,26.15715
1354.2983846134468,1354.2983846134468,49443.31,26.162676
1354.2997735345907,1354.2997735345907,49459.78,26.166817
1354.3011624552694,1354.3011624552694,49383.324,26.149904
1354.3025513759487,1354.3025513759487,49427.82,26.161142
1354.303940296628,1354.303940296628,49425.395,26.157877
1354.3053292177733,1354.3053292177733,49465.625,26.160637
1354.3067181384515,1354.3067181384515,49431.87,26.154192
1354.30810705913,1354.30810705913,49401.062,26.146963
1354.3094959798093,1354.3094959798093,49410.434,26.156088
1354.3108849004882,1354.3108849004882,49422.33,26.159815
1354.3122738211675,1354.3122738211675,49405.49,26.155676
1354.3136627418464,1354.3136627418464,49477.836,26.17241
1354.315051662525,1354.315051662525,49428.09,26.158253
1354.3164405832047,1354.3164405832047,49428.613,26.159512
1354.317829503883,1354.317829503883,49443.64,26.159119
1354.319218424562,1354.319218424562,49367.17,26.143974
1354.3206073452407,1354.3206073452407,49453.79,26.162214
1354.3219962659193,1354.3219962659193,49388.484,26.149622
1354.3233851865987,1354.3233851865987,49415.688,26.149757
1354.324774107278,1354.324774107278,49435.305,26.157404
1354.326163027957,1354.326163027957,49394.555,26.148577
1354.3275519486358,1354.3275519486358,49391.28,26.147821
1354.3289408693142,1354.3289408693142,49443.824,26.162745
1354.3303297899936,1354.3303297899936,49449.12,26.159815
1354.3317187102068,1354.3317187102068,49367.824,26.146875
1354.3331076308848,1354.3331076308848,49424.137,26.156885
1354.3344965515641,1354.3344965515641,49399.535,26.150585
1354.3358854722437,1354.3358854722437,49362.105,26.142023
1354.3372743924576,1354.3372743924576,49462.0,26.168638
1354.338663313136,1354.338663313136,49341.215,26.135822
1354.340052233814,1354.340052233814,49419.26,26.15398
1354.341441154028,1354.341441154028,49400.06,26.150269
1354.3428300747075,1354.3428300747075,49404.53,26.151617
1354.3442189953855,1354.3442189953855,49478.188,26.169481
1354.3456079155983,1354.3456079155983,49458.445,26.163996
1354.3469968362779,1354.3469968362779,49380.86,26.148886
1354.3483857569574,1354.3483857569574,49383.98,26.142994
1354.3497746771711,1354.3497746771711,49409.547,26.155937
1354.351163597849,1354.351163597849,49431.07,26.154696
1354.352552518062,1354.352552518062,49395.04,26.150845
1354.3539414387417,1354.3539414387417,49407.844,26.153587
1354.3553303589545,1354.3553303589545,49363.97,26.141336
1354.3567192791677,1354.3567192791677,49451.066,26.161163
1354.3581081998464,1354.3581081998464,49414.8,26.154232
1354.3594971200603,1354.3594971200603,49466.723,26.167137
1354.3608860407396,1354.3608860407396,49467.586,26.168447
1354.3622749609526,1354.3622749609526,49459.043,26.167292
1354.3636638811656,1354.3636638811656,49417.383,26.156218
1354.3650528018445,1354.3650528018445,49449.242,26.165318
1354.3664417220573,1354.3664417220573,49403.668,26.151737
1354.3678306422712,1354.3678306422712,49441.945,26.160654
1354.3692195629508,1354.3692195629508,49454.78,26.165024
1354.3706084831636,1354.3706084831636,49411.434,26.155972
1354.3719974033768,1354.3719974033768,49459.48,26.167036
1354.3733863235898,1354.3733863235898,49458.793,26.164513
1354.3747752438037,1354.3747752438037,49456.49,26.165314
1354.3761641644821,1354.3761641644821,49473.95,26.167736
1354.3775530846945,1354.3775530846945,49465.957,26.168505
1354.3789420049084,1354.3789420049084,49473.844,26.170357
1354.3803309251223,1354.3803309251223,49456.297,26.154947
1354.381719845336,1354.381719845336,49494.645,26.171394
1354.383108765549,1354.383108765549,49392.22,26.146044
1354.3844976857615,1354.3844976857615,49455.008,26.165003
1354.3858866059752,1354.3858866059752,49425.31,26.158743
1354.387275526189,1354.387275526189,49376.17,26.14613
1354.3886644464012,1354.3886644464012,49405.44,26.150995
1354.3900533666144,1354.3900533666144,49451.098,26.164171
1354.3914422868281,1354.3914422868281,49441.613,26.16198
1354.3928312070418,1354.3928312070418,49426.23,26.159885
1354.3942201272555,1354.3942201272555,49402.336,26.150377
1354.3956090474678,1354.3956090474678,49449.043,26.160841
1354.396997967681,1354.396997967681,49446.6,26.16492
1354.3983868878947,1354.3983868878947,49414.098,26.154818
1354.3997758076423,1354.3997758076423,49436.94,26.161446
1354.401164727855,1354.401164727855,49419.68,26.155529
1354.4025536480683,1354.4025536480683,49408.42,26.155653
1354.403942568282,1354.403942568282,49440.945,26.16024
1354.4053314884957,1354.4053314884957,49436.586,26.160603
1354.4067204082432,1354.4067204082432,49432.465,26.157839
1354.408109328456,1354.408109328456,49556.996,26.188171
1354.4094982486693,1354.4094982486693,49901.08,26.268604
1354.4108871684168,1354.4108871684168,49620.418,26.198875
1354.4122760886305,1354.4122760886305,49599.35,26.20304
1354.4136650088442,1354.4136650088442,49609.258,26.19871
1354.4150539285915,1354.4150539285915,49628.37,26.205427
1354.4164428488045,1354.4164428488045,49729.875,26.226215
1354.4178317690178,1354.4178317690178,49620.414,26.202532
1354.4192206887658,1354.4192206887658,49614.098,26.203972
1354.420609608979,1354.420609608979,49589.31,26.19857
1354.4219985287257,1354.4219985287257,49616.688,26.20319
1354.4233874489394,1354.4233874489394,49554.914,26.187592
1354.4247763686874,1354.4247763686874,49573.973,26.192987
1354.426165288901,1354.426165288901,49583.31,26.194593
1354.4275542086486,1354.4275542086486,49487.14,26.172098
1354.428943128861,1354.428943128861,49481.723,26.17238
1354.430332048609,1354.430332048609,49510.08,26.175407
1354.431720968357,1354.431720968357,49492.676,26.177927
1354.4331098885693,1354.4331098885693,49489.793,26.171644
1354.434498808317,1354.434498808317,49411.66,26.152641
1354.435887728065,1354.435887728065,49474.777,26.17343
1354.4372766482786,1354.4372766482786,49480.254,26.167322
1354.4386655680266,1354.4386655680266,49454.844,26.165379
1354.4400544877733,1354.4400544877733,49452.46,26.158108
1354.4414434079865,1354.4414434079865,49493.836,26.167273
1354.4428323277345,1354.4428323277345,49500.32,26.174007
1354.4442212474821,1354.4442212474821,49489.22,26.171396
1354.4456101672295,1354.4456101672295,49491.88,26.170155
1354.4469990874425,1354.4469990874425,49488.46,26.17403
1354.4483880071905,1354.4483880071905,49511.42,26.17828
1354.4497769269385,1354.4497769269385,49478.023,26.171532
1354.451165846686,1354.451165846686,49470.363,26.166685
1354.4525547664337,1354.4525547664337,49502.188,26.175743
1354.4539436861808,1354.4539436861808,49449.64,26.162859
1354.4553326059283,1354.4553326059283,49501.348,26.173283
1354.4567215256764,1354.4567215256764,49497.51,26.169443
1354.4581104454244,1354.4581104454244,49446.758,26.161
1354.4594993656376,1354.4594993656376,49463.617,26.166676
1354.460888285385,1354.460888285385,49479.43,26.169262
1354.4622772051323,1354.4622772051323,49430.98,26.159586
1354.4636661244147,1354.4636661244147,49473.99,26.16568
1354.4650550441622,1354.4650550441622,49658.758,26.212664
1354.466443963909,1354.466443963909,49555.64,26.188726
1354.467832883657,1354.467832883657,49504.64,26.176796
1354.469221803405,1354.469221803405,49505.875,26.175186
1354.470610723153,1354.470610723153,49482.1,26.171251
1354.4719996429005,1354.4719996429005,49494.215,26.173906
1354.4733885626472,1354.4733885626472,49499.258,26.175016
1354.4747774823952,1354.4747774823952,49552.684,26.18698
1354.4761664016776,1354.4761664016776,49483.0,26.172361
1354.4775553214245,1354.4775553214245,49474.07,26.168777
1354.4789442411718,1354.4789442411718,49464.543,26.16697
1354.4803331609198,1354.4803331609198,49524.18,26.18135
1354.481722080668,1354.481722080668,49519.312,26.17963
1354.4831109999507,1354.4831109999507,49474.53,26.168684
1354.4844999196973,1354.4844999196973,49464.535,26.165165
1354.4858888394444,1354.4858888394444,49482.766,26.169199
1354.487277758727,1354.487277758727,49471.06,26.164337
1354.4886666784744,1354.4886666784744,49433.203,26.16054
1354.490055598222,1354.490055598222,49484.33,26.172302
1354.4914445175034,1354.4914445175034,49439.12,26.157253
1354.4928334372516,1354.4928334372516,49468.523,26.165884
1354.4942223565342,1354.4942223565342,49455.32,26.163029
1354.4956112762814,1354.4956112762814,49457.47,26.166922
1354.4970001955633,1354.4970001955633,49493.16,26.17243
1354.4983891153106,1354.4983891153106,49487.137,26.168911
1354.499778035058,1354.499778035058,49457.17,26.162601
1354.5011669543403,1354.5011669543403,49466.703,26.166859
1354.502555873623,1354.502555873623,49398.363,26.14976
1354.5039447933702,1354.5039447933702,49494.05,26.17388
1354.5053337126521,1354.5053337126521,49430.684,26.158712
1354.5067226323993,1354.5067226323993,49446.445,26.162882
1354.5081115516818,1354.5081115516818,49410.707,26.152853
1354.5095004714292,1354.5095004714292,49433.15,26.156927
1354.5108893907102,1354.5108893907102,49421.766,26.152786
1354.5122783099926,1354.5122783099926,49470.83,26.170158
1354.5136672297408,1354.5136672297408,49439.984,26.156364
1354.5150561490234,1354.5150561490234,49412.82,26.149248
1354.5164450683048,1354.5164450683048,49465.52,26.168291
1354.5178339880515,1354.5178339880515,49443.26,26.159056
1354.519222907334,1354.519222907334,49431.69,26.155945
1354.5206118266167,1354.5206118266167,49496.508,26.17471
1354.5220007458977,1354.5220007458977,49416.844,26.153
1354.523389665645,1354.523389665645,49405.92,26.153425
1354.5247785849276,1354.5247785849276,49461.574,26.169039
1354.52616750421,1354.52616750421,49452.613,26.162073
1354.5275564234923,1354.5275564234923,49484.406,26.168318
1354.5289453427733,1354.5289453427733,49455.617,26.16231
1354.5303342620552,1354.5303342620552,49409.164,26.15318
1354.5317231813376,1354.5317231813376,49437.0,26.16134
1354.5331121010847,1354.5331121010847,49397.723,26.146463
1354.5345010203666,1354.5345010203666,49437.043,26.15814
1354.5358899396485,1354.5358899396485,49429.066,26.153158
1354.537278858931,1354.537278858931,49405.2,26.149775
1354.5386677782133,1354.5386677782133,49478.84,26.166714
1354.5400566974952,1354.5400566974952,49423.516,26.158726
1354.5414456167766,1354.5414456167766,49435.1,26.16041
1354.5428345360585,1354.5428345360585,49407.1,26.149641
1354.5442234553402,1354.5442234553402,49420.06,26.154037
1354.5456123746228,1354.5456123746228,49468.6,26.167957
1354.5470012939052,1354.5470012939052,49443.188,26.159615
1354.548390212721,1354.548390212721,49432.31,26.157965
1354.5497791320029,1354.5497791320029,49416.066,26.149958
1354.5511680512848,1354.5511680512848,49462.094,26.170198
1354.5525569705671,1354.5525569705671,49486.027,26.16822
1354.5539458898486,1354.5539458898486,49446.34,26.163273
1354.5553348091298,1354.5553348091298,49414.293,26.154818
1354.5567237279467,1354.5567237279467,49356.14,26.136652
1354.558112647229,1354.558112647229,49417.445,26.156403
1354.5595015665115,1354.5595015665115,49414.543,26.15107
1354.5608904857934,1354.5608904857934,49414.52,26.15446
1354.5622794050744,1354.5622794050744,49452.082,26.162996
1354.563668323891,1354.563668323891,49400.773,26.152729
1354.5650572431734,1354.5650572431734,49472.984,26.166365
1354.5664461624544,1354.5664461624544,49424.527,26.155375
1354.5678350812707,1354.5678350812707,49458.75,26.1649
1354.569224000553,1354.569224000553,49435.438,26.16061
1354.5706129198354,1354.5706129198354,49414.566,26.150677
1354.572001838652,1354.572001838652,49440.848,26.1602
1354.573390757933,1354.573390757933,49492.03,26.170244
1354.5747796767494,1354.5747796767494,49449.332,26.16195
1354.5761685960317,1354.5761685960317,49423.51,26.153656
1354.5775575153136,1354.5775575153136,49432.31,26.157393
1354.5789464341294,1354.5789464341294,49420.484,26.154957
1354.5803353534113,1354.5803353534113,49337.02,26.134151
1354.581724272228,1354.581724272228,49385.85,26.145231
1354.5831131915104,1354.5831131915104,49466.64,26.168915
1354.5845021103266,1354.5845021103266,49478.918,26.171247
1354.5858910296083,1354.5858910296083,49501.59,26.173548
1354.5872799484243,1354.5872799484243,49622.953,26.205496
1354.5886688672406,1354.5886688672406,49516.98,26.182402
1354.590057786523,1354.590057786523,49499.26,26.175785
1354.5914467053396,1354.5914467053396,49526.367,26.182428
1354.5928356246216,1354.5928356246216,49516.395,26.17605
1354.5942245434373,1354.5942245434373,49513.137,26.175112
1354.5956134622536,1354.5956134622536,49512.047,26.177332
1354.597002381536,1354.597002381536,49447.848,26.161743
1354.5983913003522,1354.5983913003522,49473.3,26.16955
1354.5997802191675,1354.5997802191675,49495.902,26.174961
1354.6011691379842,1354.6011691379842,49461.215,26.165169
1354.6025580572666,1354.6025580572666,49462.043,26.159895
