time,time,flux,flux_err
1410.910534756982,1410.910534756982,0.9999574597383191,0.00022344280217969533
1410.9188682733748,1410.9188682733748,0.9998474192155166,0.00022344587919597092
1410.9272017895353,1410.9272017895353,1.0001577058778823,0.0002234532341949987
1410.934840845975,1410.934840845975,1.0003410928439274,0.00020400193392451716
1410.9417854423878,1410.9417854423878,1.0000141714791888,0.0002039824312867129
1410.9487300387993,1410.9487300387993,0.9999701910265335,0.0002039698006289402
1410.9556746352112,1410.9556746352112,0.9999065802742783,0.00020395098839823955
1410.9631747988703,1410.9631747988703,1.0001950872761691,0.00020396059611676358
1410.9742861524771,1410.9742861524771,0.9999008430564078,0.000203904837640006
1410.9876197763772,1410.9876197763772,1.0000907063628146,0.00020398360173279432
1410.9945643718581,1410.9945643718581,1.000094580078468,0.000203949934813715
1411.0065090760097,1411.0065090760097,1.0000408238933944,0.00020392858569643913
1411.0140092387378,1411.0140092387378,0.9996374337679168,0.0002038933888935339
1411.0209538337522,1411.0209538337522,0.9999941835200954,0.00020394942563940207
1411.0278984287675,1411.0278984287675,1.0002271169906591,0.00020396006400193902
1411.0348430235026,1411.0348430235026,1.0002041972887104,0.0002039348945527696
1411.041787618145,1411.041787618145,0.9998127518574373,0.00020391431276178378
1411.049009996458,1411.049009996458,1.000376635754289,0.00020400101455036426
1411.0570657259668,1411.0570657259668,1.0001392155845796,0.0002039189458855064
1411.0640103201442,1411.0640103201442,1.0002840846164907,0.0002039996440280406
1411.0709549142268,1411.0709549142268,0.999939063724749,0.00020394669319343697
1411.0778995081243,1411.0778995081243,0.9999131583957276,0.00020395430183497062
1411.0848441019286,1411.0848441019286,0.9996440593440852,0.0002039078597786632
1411.091788695546,1411.091788695546,0.9997346149300566,0.00020391212029400636
1411.0987332890713,1411.0987332890713,1.0003201820680185,0.00020401696664142273
1411.1056778825027,1411.1056778825027,1.0001731508187315,0.00020398210448649762
1411.112622475748,1411.112622475748,0.9999708257917387,0.00020396331855299213
1411.1195670687143,1411.1195670687143,1.0001707170634528,0.00020397592817679162
1411.1265116616794,1411.1265116616794,0.9997496778607381,0.00020394015645606257
1411.133456254553,1411.133456254553,0.9998597057182697,0.00020390222744299564
1411.140400847239,1411.140400847239,0.9997891528081972,0.0002039327904504568
1411.1473454398324,1411.1473454398324,1.0000837217867216,0.0002039333772210453
1411.1542900322402,1411.1542900322402,1.0002210442116517,0.0002039814659233423
1411.1612346244606,1411.1612346244606,1.0002656250099662,0.00020394997283183685
1411.1681792164957,1411.1681792164957,1.0003483053485822,0.0002039666198427251
1411.175123808623,1411.175123808623,0.9997454883554585,0.0002039085498781573
1411.1820684004717,1411.1820684004717,0.9999467339628276,0.00020394244990588382
1411.1890129921337,1411.1890129921337,0.9997470582836205,0.0002039267651567824
1411.1959575835158,1411.1959575835158,0.9999158199623341,0.0002039390164599701
1411.2029021749922,1411.2029021749922,0.9998324995210505,0.00020393008905763074
1411.2098467662815,1411.2098467662815,1.0000510245555145,0.00020398371821476235
1411.216791357385,1411.216791357385,0.9997627215334912,0.00020390876462368705
1411.223735948302,1411.223735948302,1.0002128966087682,0.00020392662743477704
1411.2306805391256,1411.2306805391256,1.0004080813344798,0.00020397546595503024
1411.237625129764,1411.237625129764,1.0002164798041615,0.00020396177486391113
1411.244569720308,1411.244569720308,1.0000367570212298,0.0002039584284604646
1411.2515143107594,1411.2515143107594,0.9996366852198204,0.0002039374366226455
1411.2584589010244,1411.2584589010244,1.000073333053923,0.00020396761992023038
1411.2654034911034,1411.2654034911034,0.9999516459843282,0.000203960718700913
1411.2723480810896,1411.2723480810896,0.9994964418201059,0.00020393416196049142
1411.2792926708885,1411.2792926708885,1.0000298600888873,0.00020391962824713536
1411.2862372605018,1411.2862372605018,1.0000681118859778,0.0002039470488590551
1411.2931818499285,1411.2931818499285,1.0002032470669673,0.00020396291654781342
1411.3001264393552,1411.3001264393552,1.0001859622218312,0.00020394816697490267
1411.3070710287825,1411.3070710287825,1.0002635103208077,0.00020394009593610384
1411.3140156177435,1411.3140156177435,0.9998741711880605,0.0002039390804315263
1411.3209602067984,1411.3209602067984,1.0005741179319263,0.00020400495504691732
1411.3279047954802,1411.3279047954802,1.000039485404324,0.00020396826288964284
1411.3348493841613,1411.3348493841613,0.999944623593467,0.00020393895663932139
1411.341793972658,1411.341793972658,0.999675821960692,0.00020389504217348391
1411.3487385610595,1411.3487385610595,1.0001587609677889,0.00020395868800042986
1411.3556831492763,1411.3556831492763,0.9998463751083897,0.00020392966513514024
1411.362627737306,1411.362627737306,1.0001617199627229,0.00020397975722890316
1411.3695723252426,1411.3695723252426,1.0000570832485927,0.00020394354413889518
1411.376516913087,1411.376516913087,1.0000958200445826,0.00020396288581354792
1411.3834615006506,1411.3834615006506,0.9998406060912192,0.0002039282686656054
1411.390406088215,1411.390406088215,0.9997495920964445,0.00020390152054367998
1411.3973506755,1411.3973506755,1.0001418040051215,0.00020393627274108644
1411.4042952625985,1411.4042952625985,1.0003133090000986,0.00020394215647880177
1411.4112398496975,1411.4112398496975,0.9998192302188322,0.00020391655355776303
1411.4181844367954,1411.4181844367954,0.9999507299473137,0.0002039346200277806
1411.425129023429,1411.425129023429,0.9998342291425775,0.00020393602422985293
1411.4320736100617,1411.4320736100617,1.0001755287438525,0.00020397089407351822
1411.4390181965082,1411.4390181965082,1.0002619100593033,0.00020398484755740028
1411.4459627828621,1411.4459627828621,0.9999335812562811,0.00020392743459118077
1411.4529073690287,1411.4529073690287,1.0000513177421084,0.00020393129347216643
1411.4598519551039,1411.4598519551039,0.9999600566293964,0.00020394587406042278
1411.466796540991,1411.466796540991,1.000078088657326,0.00020396689073695629
1411.473741126786,1411.473741126786,0.9998413449008702,0.00020396312852152053
1411.4806857123017,1411.4806857123017,0.999889564016746,0.00020392319097921533
1411.4876302978166,1411.4876302978166,0.9999439745970762,0.0002039669986745882
1411.4945748831465,1411.4945748831465,1.000180703280416,0.00020396339259748397
1411.5015194682887,1411.5015194682887,1.0000529044854847,0.00020395722822467744
1411.5084640532455,1411.5084640532455,0.9999991661759463,0.00020395001345522012
1411.5154086380155,1411.5154086380155,1.0000702433755098,0.00020391274421439456
1411.5223532227856,1411.5223532227856,0.9999810580229272,0.00020393025743206225
1411.5292978075565,1411.5292978075565,1.0001583689782738,0.00020396095610602155
1411.5362423919537,1411.5362423919537,1.0001072133978013,0.00020396539797523904
1411.543186976259,1411.543186976259,0.9999007021851801,0.0002039192874651736
1411.5501315604704,1411.5501315604704,1.0000122405249527,0.00020392674265615288
1411.5570761444953,1411.5570761444953,0.9999433539878101,0.00020393396098348555
1411.564020728335,1411.564020728335,1.000083324196052,0.00020395609286237245
1411.5709653120798,1411.5709653120798,1.0001008374361535,0.00020395706143688992
1411.5779098957335,1411.5779098957335,0.9999007469562597,0.00020389326892653677
1411.5848544791063,1411.5848544791063,0.9999606374008829,0.00020392638318019455
1411.5917990623864,1411.5917990623864,0.9999238488794504,0.00020392271668365265
1411.598743645574,1411.598743645574,0.9998769672582618,0.00020392979842006123
1411.6056882285743,1411.6056882285743,0.9999883519907818,0.00020396166012563063
1411.6126328113894,1411.6126328113894,1.0006944513552694,0.00020399286290215783
1411.6195773942036,1411.6195773942036,1.0000574105946787,0.00020395792022930484
1411.6265219766456,1411.6265219766456,0.9998265989281301,0.00020393523178560772
1411.6334665590878,1411.6334665590878,1.0001316524647188,0.00020394202443698193
1411.6404111415293,1411.6404111415293,1.0001573821852587,0.0002039559670524782
1411.6473557235993,1411.6473557235993,0.9997055513906575,0.0002038817107114643
1411.6543003056684,1411.6543003056684,1.0000471212002744,0.00020395294866271785
1411.661244887552,1411.661244887552,1.0001717193409032,0.00020392896596777284
1411.6681894692488,1411.6681894692488,1.0002462852518863,0.00020396387517089266
1411.6751340508524,1411.6751340508524,0.9998847474048567,0.00020389879091821194
1411.6820786323635,1411.6820786323635,0.9996950175570906,0.00020390843982750684
1411.6890232135943,1411.6890232135943,1.0005679807743069,0.00020398491533884372
1411.6959677947332,1411.6959677947332,1.0002244494386845,0.00020396249363025996
1411.7029123757775,1411.7029123757775,1.0003218866112282,0.00020397679005902157
1411.7098569566365,1411.7098569566365,0.9998905942740812,0.00020389988192348753
1411.7168015374023,1411.7168015374023,0.9998352130706563,0.00020390965724760213
1411.7237461179811,1411.7237461179811,0.999969010332776,0.00020389356415780182
1411.7306906983752,1411.7306906983752,1.0003192187022354,0.00020394155517618824
1411.7376352789536,1411.7376352789536,0.9997660768886891,0.00020388396419285037
1411.744579859068,1411.744579859068,0.9999037736434893,0.00020389372567175155
1411.7515244390881,1411.7515244390881,1.0002134606405666,0.00020397112550300502
1411.7584690188294,1411.7584690188294,1.0002490856134147,0.00020396527582270288
1411.765413598664,1411.765413598664,1.0000070459621637,0.0002039368871671619
1411.7723581783116,1411.7723581783116,0.9998248397971476,0.00020391139848720892
1411.7793027577738,1411.7793027577738,0.9996144514311831,0.00020388967547273272
1411.7862473371424,1411.7862473371424,1.0001989641755338,0.00020395690450942836
1411.7931919162315,1411.7931919162315,1.000159338142387,0.00020396006075100312
1411.8001364954139,1411.8001364954139,1.000042444386388,0.00020395413947789926
1411.8070810743166,1411.8070810743166,0.9996690878263046,0.00020388171093760763
1411.8140256530337,1411.8140256530337,1.0000520284692356,0.00020395443088164658
1411.8209702317504,1411.8209702317504,1.000021060536092,0.00020393332916477497
1411.8279148101878,1411.8279148101878,1.000212460695077,0.00020394571495644452
1411.834859388625,1411.834859388625,1.000011871603266,0.00020394503575081152
1411.841803966783,1411.841803966783,1.0001121904956443,0.0002038939737288309
1411.8487485449414,1411.8487485449414,1.0002758525712339,0.00020394957853426022
1411.855693122726,1411.855693122726,0.9995430073051784,0.00020390557662690532
1411.862637700512,1411.862637700512,0.9999246014669108,0.00020392350307737902
1411.869582278297,1411.869582278297,0.9999515164525118,0.00020394496033917354
1411.8765268558961,1411.8765268558961,0.999931530170528,0.00020393059530579116
1411.8834714333093,1411.8834714333093,1.0000313240057277,0.00020393437296685859
1411.8904160105355,1411.8904160105355,1.0001301701374783,0.0002039572305167531
1411.897360587763,1411.897360587763,1.0003080415712444,0.00020398116659370375
1411.9043051647093,1411.9043051647093,0.9998915825160566,0.00020391868486430614
1411.9112497415642,1411.9112497415642,0.9999849348809038,0.00020394094755896868
1411.9181943182316,1411.9181943182316,0.9999029365966912,0.0002038869240382503
1411.9251388948994,1411.9251388948994,0.9999171890044882,0.00020392293501544277
1411.932083471288,1411.932083471288,0.9998342437350075,0.00020391665366553173
1411.939028047583,1411.939028047583,0.999927306683222,0.00020393646966717486
1411.9459726238786,1411.9459726238786,1.0002290438196337,0.000203933746378483
1411.9529171998943,1411.9529171998943,1.000193134533728,0.0002039387158006577
1411.9598617758172,1411.9598617758172,1.0001056796068102,0.0002039729693896003
1411.9668063514605,1411.9668063514605,1.0000791433114846,0.0002039438178347537
1411.97375092729,1411.97375092729,0.9997298885112261,0.00020391394281663307
1411.9806955028403,1411.9806955028403,0.999666946012691,0.0002038811370923555
1411.987640078018,1411.987640078018,1.0000113705779798,0.0002039152290366193
1411.9945846532892,1411.9945846532892,0.9999150107006448,0.00020391202936785756
1412.001529228373,1412.001529228373,0.9998544826381666,0.00020390321001812918
1412.0084738033652,1412.0084738033652,1.0003487715756472,0.00020393987488111936
1412.0154183781701,1412.0154183781701,1.0001300496971322,0.00020395522849314072
1412.0223629528818,1412.0223629528818,1.0004184628079396,0.00020398009899818284
1412.0293075274083,1412.0293075274083,1.000028887699059,0.0002039152089562207
1412.036252101933,1412.036252101933,0.9999132394045104,0.00020391768198310014
1412.0431966761803,1412.0431966761803,0.9996723887275774,0.00020385282611769728
1412.0501412503331,1412.0501412503331,0.9997683714335469,0.0002038575774099888
1412.0570858243002,1412.0570858243002,1.0001089467337503,0.00020391271764629614
1412.0640303982675,1412.0640303982675,0.9999543517665321,0.0002039534971049672
1412.070974971955,1412.070974971955,0.9999219455264179,0.00020392023725835035
1412.077919545643,1412.077919545643,1.000333557841932,0.00020395848599613948
1412.0848641191437,1412.0848641191437,0.9999890234937734,0.0002039214957971726
1412.0918086924594,1412.0918086924594,0.9998468151723336,0.00020388122386431838
1412.0987532655877,1412.0987532655877,0.9997953943950083,0.00020386908451542046
1412.1056978387164,1412.1056978387164,1.0001611626939195,0.0002039275871624743
1412.1126424118452,1412.1126424118452,1.000246006688823,0.0002039628646829958
1412.1195869846947,1412.1195869846947,0.9999240621557691,0.00020393080508226977
1412.126531557358,1412.126531557358,0.9998329847895562,0.00020386580149676982
1412.1334761300209,1412.1334761300209,1.000053344870476,0.00020391833025284553
1412.140420702312,1412.140420702312,1.0001867922870997,0.0002039209498962506
1412.1473652746954,1412.1473652746954,0.9999873202000215,0.0002039125950813772
1412.154309846893,1412.154309846893,0.9998144050576023,0.0002038535950546871
1412.1612544189973,1412.1612544189973,0.9998076026536451,0.00020389470366176165
1412.1681989909148,1412.1681989909148,0.9999431477012626,0.00020391743475112905
1412.1751435626472,1412.1751435626472,1.0001896254254663,0.00020390865632083466
1412.1820881343788,1412.1820881343788,1.000138236213356,0.00020393259102374078
1412.1890327058316,1412.1890327058316,1.0000407825355484,0.00020392624633487388
1412.1959772772839,1412.1959772772839,1.0001595454066063,0.00020392145317818942
1412.20292184855,1412.20292184855,1.0001135601969,0.0002039309667377722
1412.2098664198165,1412.2098664198165,0.9997277919065717,0.00020389574578939655
1412.2168109906163,1412.2168109906163,0.9999247162798868,0.00020389851381021735
1412.2237555614176,1412.2237555614176,1.0000288038897087,0.00020391255689517092
1412.2307001322174,1412.2307001322174,0.9997206860495472,0.00020388618171188793
1412.2376447030185,1412.2376447030185,1.0002723306651262,0.0002039528509006957
1412.244589273539,1412.244589273539,0.9998339554843163,0.00020390680263959754
1412.251533843874,1412.251533843874,1.0002639390800376,0.00020397662144291734
1412.2601451110147,1412.2601451110147,1.0001938214104922,0.00020390268109077343
1412.2693119434475,1412.2693119434475,0.9996704933668594,0.00020384118690771605
1412.2795899068346,1412.2795899068346,1.0000250166681128,0.00020389144805572817
1412.2898678700365,1412.2898678700365,0.9999640439876843,0.0002038868599621062
1412.2973680051969,1412.2973680051969,0.9997208690158119,0.00020384099158842097
1412.304312574601,1412.304312574601,1.0000560170170398,0.0002039177921418592
1412.3112571439106,1412.3112571439106,1.0003216058814366,0.0002039436016285979
1412.3182017129423,1412.3182017129423,0.9999435008192841,0.00020391021158873865
1412.3251462819726,1412.3251462819726,0.9998069303574522,0.00020390164216290031
1412.3320908509108,1412.3320908509108,1.0002331149196695,0.00020390468960803724
1412.3390354196622,1412.3390354196622,1.0000209994859632,0.0002039431878388752
1412.3459799884138,1412.3459799884138,0.9998126133598305,0.00020391253244212213
1412.3529245568866,1412.3529245568866,1.0002333651328377,0.00020385466294342626
1412.359869125358,1412.359869125358,1.0003608835209092,0.00020390259863596784
1412.3668136934584,1412.3668136934584,0.9999253716893314,0.00020388583810947532
1412.373758261651,1412.373758261651,1.0000504878029184,0.0002039067274215308
1412.3807028296576,1412.3807028296576,0.9998131358241243,0.00020392165959330605
1412.3876473975708,1412.3876473975708,0.9998890276731988,0.00020391099580295788
1412.3945919652979,1412.3945919652979,1.0000111058744008,0.00020393012392100826
1412.401536532932,1412.401536532932,1.0000807900526607,0.0002039323885570308
1412.4084811004727,1412.4084811004727,1.0000852803948803,0.00020390735577748812
1412.4154256679208,1412.4154256679208,0.9998538723624939,0.00020383951986759755
1412.422370235182,1412.422370235182,0.9999260295621962,0.0002038854167525568
1412.4293148022575,1412.4293148022575,0.999881744677387,0.0002038828972472237
1412.4362593692395,1412.4362593692395,1.0000002382982862,0.00020390018063126282
1412.4432039361286,1412.4432039361286,1.000133024589204,0.00020391267896084685
1412.4501485030173,1412.4501485030173,1.000364590806504,0.00020393159813487512
1412.4570930695331,1412.4570930695331,0.9999828692939323,0.00020387060486650013
1412.4640376361435,1412.4640376361435,1.0000323071636026,0.00020387369364761534
1412.4709822024731,1412.4709822024731,1.000068527183466,0.00020388992290637883
1412.4779267688969,1412.4779267688969,1.0000306959427847,0.00020385412738363243
1412.4848713350407,1412.4848713350407,0.9997573806175749,0.00020384114696383673
1412.491815900998,1412.491815900998,1.0001226430856804,0.00020394735617137303
1412.4987604668631,1412.4987604668631,0.999751659726796,0.0002038961309340807
1412.505705032634,1412.505705032634,0.9997598244700778,0.00020385241621152605
1412.5126495983127,1412.5126495983127,0.9998193708426113,0.0002038948106437021
1412.5195941638042,1412.5195941638042,1.0003425053954675,0.00020393188120826187
1412.5265387292966,1412.5265387292966,1.0003346302321994,0.0002039418679655785
1412.5334832946019,1412.5334832946019,0.999865526124603,0.0002038743495931928
1412.5404278597216,1412.5404278597216,1.0004677000419455,0.00020394513451837813
1412.547372424841,1412.547372424841,0.9998889676634694,0.00020389375004240955
1412.5543169896812,1412.5543169896812,1.0004008421724166,0.00020391536637527201
1412.5612615545213,1412.5612615545213,0.999802924669716,0.00020387077109145258
1412.5682061191742,1412.5682061191742,1.000150353111324,0.00020390074205311622
1412.575150683736,1412.575150683736,0.9999253621330038,0.0002039046856407409
1412.5820952482024,1412.5820952482024,0.999705105234067,0.00020390025747515683
1412.5890398124843,1412.5890398124843,1.0000977166897353,0.00020391894283006435
1412.5959843766723,1412.5959843766723,1.000201782022788,0.00020391593135311137
1412.6029289408605,1412.6029289408605,0.9998423479623737,0.00020386354837429276
1412.6098735046762,1412.6098735046762,1.0001553121804896,0.00020390132023642428
1412.6168180684915,1412.6168180684915,0.9999292531457643,0.0002038907417838499
1412.6237626323075,1412.6237626323075,0.9999994875278955,0.00020389132457440787
1412.6307071959363,1412.6307071959363,0.9999253843722734,0.00020381157790558328
1412.63765175938,1412.63765175938,1.0001783162246778,0.00020388224204949905
1412.6445963227293,1412.6445963227293,0.999904485227989,0.0002038549424995786
1412.6515408859868,1412.6515408859868,1.0003559661159283,0.00020389880629168115
1412.658485449057,1412.658485449057,0.9998534646321426,0.00020389005430586222
1412.6654300121277,1412.6654300121277,1.0000226902903009,0.00020391866693760292
1412.6723745749189,1412.6723745749189,0.9998157195608026,0.0002038741040460351
1412.6793191378026,1412.6793191378026,1.0001724332171205,0.00020389501139125456
1412.6862637004083,1412.6862637004083,0.9999650127304822,0.0002038448126004989
