time,time,flux,flux_err
1354.1151426738927,1354.1151426738927,20517.121,17.866812
1354.116531590381,1354.116531590381,20523.771,17.86698
1354.1193094238217,1354.1193094238217,20521.248,17.86637
1354.1206983407758,1354.1206983407758,20541.057,17.876244
1354.1220872572637,1354.1220872572637,20521.193,17.872187
1354.123476174217,1354.123476174217,20533.713,17.872147
1354.1248650907048,1354.1248650907048,20544.396,17.877262
1354.1262540071932,1354.1262540071932,20550.518,17.879528
1354.1276429241475,1354.1276429241475,20517.492,17.868969
1354.1290318406352,1354.1290318406352,20551.867,17.880333
1354.1304207571231,1354.1304207571231,20534.473,17.873322
1354.1318096740763,1354.1318096740763,20513.613,17.870327
1354.1331985905642,1354.1331985905642,20563.518,17.883806
1354.1345875070526,1354.1345875070526,20538.15,17.873869
1354.1359764235406,1354.1359764235406,20494.703,17.861006
1354.137365340028,1354.137365340028,20526.799,17.871058
1354.1387542569823,1354.1387542569823,20543.104,17.87234
1354.14014317347,1354.14014317347,20524.484,17.871336
1354.1415320899584,1354.1415320899584,20518.428,17.873144
1354.1429210064464,1354.1429210064464,20530.443,17.871212
1354.1443099229334,1354.1443099229334,20535.033,17.867338
1354.1456988394218,1354.1456988394218,20510.77,17.865112
1354.1470877559102,1354.1470877559102,20504.756,17.859585
1354.1484766723981,1354.1484766723981,20533.668,17.873558
1354.1498655888859,1354.1498655888859,20495.932,17.860474
1354.1512545053736,1354.1512545053736,20501.377,17.862495
1354.152643421862,1354.152643421862,20510.744,17.864122
1354.1540323383506,1354.1540323383506,20518.832,17.872574
1354.1554212543722,1354.1554212543722,20535.363,17.873512
1354.1568101708597,1354.1568101708597,20535.633,17.873138
1354.158199087348,1354.158199087348,20539.652,17.875912
1354.1595880038367,1354.1595880038367,20509.377,17.870134
1354.1609769203244,1354.1609769203244,20519.14,17.872673
1354.1623658363458,1354.1623658363458,20512.043,17.86707
1354.1637547528342,1354.1637547528342,20559.467,17.887932
1354.1651436693228,1354.1651436693228,20511.584,17.870659
1354.1665325853448,1354.1665325853448,20523.242,17.871655
1354.1679215018328,1354.1679215018328,20541.71,17.87647
1354.1693104183203,1354.1693104183203,20518.389,17.87329
1354.1706993343432,1354.1706993343432,20532.746,17.872904
1354.1720882508318,1354.1720882508318,20519.666,17.86987
1354.1734771668532,1354.1734771668532,20512.74,17.867022
1354.174866083341,1354.174866083341,20508.234,17.865057
1354.176254999364,1354.176254999364,20538.883,17.873856
1354.1776439158514,1354.1776439158514,20526.885,17.875006
1354.179032831874,1354.179032831874,20531.928,17.871956
1354.180421748362,1354.180421748362,20492.56,17.859598
1354.1818106643843,1354.1818106643843,20531.715,17.871805
1354.183199580407,1354.183199580407,20509.893,17.863007
1354.1845884968945,1354.1845884968945,20533.852,17.875982
1354.1859774129175,1354.1859774129175,20508.45,17.866844
1354.1873663289396,1354.1873663289396,20526.734,17.873703
1354.1887552454266,1354.1887552454266,20536.936,17.875006
1354.1901441614496,1354.1901441614496,20520.312,17.869223
1354.1915330774725,1354.1915330774725,20523.342,17.874706
1354.1929219934943,1354.1929219934943,20517.318,17.868837
1354.1943109095166,1354.1943109095166,20541.03,17.874352
1354.1956998260043,1354.1956998260043,20535.018,17.875786
1354.1970887420273,1354.1970887420273,20503.191,17.860033
1354.19847765805,1354.19847765805,20503.436,17.86048
1354.1998665740714,1354.1998665740714,20546.59,17.877314
1354.2012554900934,1354.2012554900934,20525.895,17.866692
1354.2026444061164,1354.2026444061164,20497.982,17.860365
1354.2040333221391,1354.2040333221391,20499.348,17.86191
1354.205422238161,1354.205422238161,20519.863,17.870377
1354.2068111541826,1354.2068111541826,20536.123,17.873535
1354.2082000702055,1354.2082000702055,20530.457,17.868164
1354.2095889862283,1354.2095889862283,20531.354,17.87342
1354.21097790225,1354.21097790225,20545.826,17.882233
1354.2123668182724,1354.2123668182724,20521.77,17.866291
1354.2137557342946,1354.2137557342946,20507.77,17.86318
1354.2151446498517,1354.2151446498517,20540.074,17.874117
1354.2165335658744,1354.2165335658744,20533.64,17.8735
1354.2179224818958,1354.2179224818958,20498.488,17.864521
1354.219311397918,1354.219311397918,20534.316,17.869865
1354.2207003139408,1354.2207003139408,20508.709,17.865118
1354.2220892294972,1354.2220892294972,20507.332,17.864033
1354.2234781455202,1354.2234781455202,20549.512,17.877314
1354.224867061542,1354.224867061542,20501.086,17.858707
1354.2262559770986,1354.2262559770986,20534.848,17.873716
1354.2276448931214,1354.2276448931214,20508.104,17.86416
1354.2290338091436,1354.2290338091436,20538.559,17.879625
1354.2304227246998,1354.2304227246998,20531.441,17.87124
1354.231811640722,1354.231811640722,20549.705,17.8776
1354.2332005562785,1354.2332005562785,20519.025,17.865017
1354.2345894723014,1354.2345894723014,20517.416,17.867529
1354.2359783878585,1354.2359783878585,20531.41,17.869059
1354.2373673038805,1354.2373673038805,20509.918,17.86619
1354.238756219437,1354.238756219437,20541.803,17.871822
1354.2401451354592,1354.2401451354592,20513.9,17.867126
1354.2415340510163,1354.2415340510163,20522.523,17.871096
1354.2429229665734,1354.2429229665734,20525.158,17.867107
1354.2443118825947,1354.2443118825947,20520.445,17.866714
1354.2457007981513,1354.2457007981513,20522.357,17.866861
1354.2470897137084,1354.2470897137084,20571.611,17.888903
1354.2484786297312,1354.2484786297312,20533.088,17.87454
1354.2498675452878,1354.2498675452878,20526.664,17.87071
1354.2512564608435,1354.2512564608435,20514.396,17.866726
1354.2526453768662,1354.2526453768662,20497.447,17.85744
1354.2540342924233,1354.2540342924233,20538.643,17.872889
1354.25542320798,1354.25542320798,20531.004,17.8698
1354.256812123536,1354.256812123536,20539.22,17.871315
1354.2582010390927,1354.2582010390927,20508.727,17.863026
1354.2595899546498,1354.2595899546498,20502.023,17.8655
1354.2609788702068,1354.2609788702068,20503.352,17.860115
1354.2623677862282,1354.2623677862282,20518.098,17.870289
1354.2637567017848,1354.2637567017848,20520.986,17.873013
1354.265145617342,1354.265145617342,20529.764,17.866562
1354.2665345328985,1354.2665345328985,20482.36,17.855244
1354.2679234484556,1354.2679234484556,20502.44,17.860868
1354.269312364012,1354.269312364012,20526.54,17.869514
1354.2707012791027,1354.2707012791027,20496.51,17.8608
1354.2720901946598,1354.2720901946598,20502.69,17.8625
1354.2734791102164,1354.2734791102164,20499.387,17.85945
1354.274868025773,1354.274868025773,20519.174,17.86813
1354.2762569413292,1354.2762569413292,20505.496,17.864508
1354.2776458568858,1354.2776458568858,20502.576,17.861822
1354.2790347724429,1354.2790347724429,20509.55,17.860552
1354.2804236875343,1354.2804236875343,20528.457,17.874725
1354.2818126030909,1354.2818126030909,20487.137,17.858603
1354.283201518647,1354.283201518647,20501.242,17.860859
1354.2845904342037,1354.2845904342037,20518.67,17.864735
1354.285979349295,1354.285979349295,20515.65,17.866215
1354.2873682648517,1354.2873682648517,20534.764,17.870491
1354.2887571804074,1354.2887571804074,20556.227,17.88006
1354.2901460954988,1354.2901460954988,20540.572,17.873352
1354.2915350110559,1354.2915350110559,20532.814,17.873932
1354.292923926613,1354.292923926613,20505.023,17.859959
1354.294312841704,1354.294312841704,20519.525,17.865328
1354.2957017572596,1354.2957017572596,20501.451,17.859722
1354.297090672351,1354.297090672351,20526.006,17.865854
1354.298479587908,1354.298479587908,20527.441,17.869392
1354.2998685029984,1354.2998685029984,20499.14,17.856123
1354.3012574185548,1354.3012574185548,20527.018,17.86669
1354.3026463336462,1354.3026463336462,20529.623,17.868032
1354.3040352492033,1354.3040352492033,20525.525,17.867622
1354.305424164295,1354.305424164295,20549.287,17.877975
1354.3068130793852,1354.3068130793852,20512.38,17.86617
1354.3082019949413,1354.3082019949413,20508.947,17.861118
1354.3095909100327,1354.3095909100327,20547.014,17.874416
1354.3109798251237,1354.3109798251237,20515.527,17.867155
1354.3123687406808,1354.3123687406808,20553.758,17.882729
1354.3137576557717,1354.3137576557717,20512.504,17.868092
1354.3151465708625,1354.3151465708625,20542.256,17.879763
1354.3165354864198,1354.3165354864198,20545.246,17.879395
1354.3179244015103,1354.3179244015103,20506.191,17.859478
1354.3193133166012,1354.3193133166012,20496.758,17.86177
1354.320702231692,1354.320702231692,20523.844,17.869942
1354.3220911467827,1354.3220911467827,20502.756,17.867836
1354.323480061874,1354.323480061874,20496.635,17.858862
1354.3248689774312,1354.3248689774312,20499.107,17.858948
1354.326257892522,1354.326257892522,20531.27,17.87636
1354.327646807613,1354.327646807613,20513.3,17.865154
1354.3290357227036,1354.3290357227036,20524.516,17.869598
1354.330424637795,1354.330424637795,20506.096,17.867655
1354.331813552886,1354.331813552886,20542.03,17.873617
1354.333202467976,1354.333202467976,20524.816,17.871595
1354.3345913830674,1354.3345913830674,20523.326,17.868692
1354.335980298159,1354.335980298159,20536.377,17.870201
1354.3373692132507,1354.3373692132507,20508.95,17.86432
1354.3387581283412,1354.3387581283412,20513.283,17.864365
1354.3401470429656,1354.3401470429656,20533.338,17.875568
1354.3415359580572,1354.3415359580572,20515.78,17.863058
1354.3429248731488,1354.3429248731488,20511.275,17.865057
1354.3443137882389,1354.3443137882389,20532.162,17.870848
1354.3457027033294,1354.3457027033294,20499.102,17.85997
1354.347091618421,1354.347091618421,20521.58,17.868988
1354.348480533047,1354.348480533047,20551.15,17.877855
1354.3498694481384,1354.3498694481384,20527.95,17.867825
1354.3512583632285,1354.3512583632285,20527.854,17.867718
1354.3526472783192,1354.3526472783192,20488.568,17.854897
1354.3540361929452,1354.3540361929452,20531.469,17.872862
1354.3554251080357,1354.3554251080357,20556.426,17.883204
1354.3568140231266,1354.3568140231266,20523.186,17.86476
1354.3582029377517,1354.3582029377517,20514.346,17.870674
1354.3595918528433,1354.3595918528433,20494.785,17.85794
1354.360980767469,1354.360980767469,20506.736,17.860262
1354.3623696825598,1354.3623696825598,20555.994,17.879368
1354.3637585971849,1354.3637585971849,20507.07,17.86524
1354.3651475122758,1354.3651475122758,20479.404,17.854929
1354.3665364269007,1354.3665364269007,20523.688,17.870325
1354.3679253419923,1354.3679253419923,20542.06,17.87258
1354.3693142566183,1354.3693142566183,20545.338,17.87404
1354.3707031717088,1354.3707031717088,20513.307,17.865288
1354.372092086334,1354.372092086334,20522.059,17.864386
1354.3734810014248,1354.3734810014248,20473.213,17.851456
1354.3748699160508,1354.3748699160508,20549.87,17.874002
1354.3762588306756,1354.3762588306756,20534.225,17.873285
1354.3776477457657,1354.3776477457657,20534.512,17.869059
1354.3790366603916,1354.3790366603916,20518.14,17.871107
1354.3804255750176,1354.3804255750176,20508.463,17.862103
1354.381814490109,1354.381814490109,20537.062,17.877642
1354.383203404734,1354.383203404734,20503.729,17.86385
1354.3845923193587,1354.3845923193587,20518.525,17.863144
1354.3859812339845,1354.3859812339845,20494.305,17.856775
1354.3873701490759,1354.3873701490759,20507.67,17.867363
1354.3887590637003,1354.3887590637003,20507.29,17.862322
1354.3901479783256,1354.3901479783256,20532.875,17.870358
1354.3915368929513,1354.3915368929513,20529.697,17.866812
1354.392925807577,1354.392925807577,20534.807,17.869055
1354.3943147222028,1354.3943147222028,20513.133,17.862137
1354.3957036368272,1354.3957036368272,20511.963,17.865236
1354.3970925519181,1354.3970925519181,20525.09,17.862022
1354.398481466544,1354.398481466544,20508.377,17.864836
1354.3998703811692,1354.3998703811692,20528.48,17.869217
1354.401259295794,1354.401259295794,20528.422,17.870384
1354.4026482104193,1354.4026482104193,20525.158,17.87166
1354.404037125045,1354.404037125045,20501.352,17.861092
1354.4054260396708,1354.4054260396708,20534.576,17.872778
1354.4068149542961,1354.4068149542961,20523.959,17.86875
1354.4082038684553,1354.4082038684553,20488.24,17.858452
1354.4095927830806,1354.4095927830806,20509.732,17.863867
1354.410981697706,1354.410981697706,20530.4,17.87234
1354.4123706123316,1354.4123706123316,20525.281,17.871267
1354.4137595269574,1354.4137595269574,20499.104,17.860582
1354.4151484415825,1354.4151484415825,20520.303,17.866243
1354.4165373562075,1354.4165373562075,20523.197,17.870785
1354.4179262703672,1354.4179262703672,20525.201,17.869621
1354.419315184993,1354.419315184993,20538.48,17.870914
1354.4207040996182,1354.4207040996182,20519.65,17.864544
1354.4220930142426,1354.4220930142426,20542.354,17.877056
1354.4234819284027,1354.4234819284027,20527.361,17.871225
1354.4248708430284,1354.4248708430284,20500.154,17.856592
1354.4262597576542,1354.4262597576542,20519.7,17.87168
1354.4276486718138,1354.4276486718138,20518.752,17.864594
1354.4290375864382,1354.4290375864382,20510.678,17.863333
1354.430426501064,1354.430426501064,20501.318,17.861536
1354.431815415224,1354.431815415224,20505.016,17.86115
1354.4332043298484,1354.4332043298484,20521.08,17.863718
1354.434593244008,1354.434593244008,20521.531,17.868563
1354.4359821586338,1354.4359821586338,20520.287,17.872263
1354.437371072794,1354.437371072794,20520.967,17.86742
1354.4387599874196,1354.4387599874196,20499.512,17.861803
1354.4401489015784,1354.4401489015784,20524.49,17.869606
1354.4415378162037,1354.4415378162037,20503.447,17.861374
1354.4429267303638,1354.4429267303638,20513.71,17.864048
1354.444315644989,1354.444315644989,20508.271,17.863962
1354.4457045591485,1354.4457045591485,20517.021,17.865475
1354.4470934733079,1354.4470934733079,20471.473,17.848856
1354.4484823879336,1354.4484823879336,20529.371,17.867918
1354.4498713020937,1354.4498713020937,20518.113,17.867756
1354.4512602162533,1354.4512602162533,20495.12,17.854748
1354.4526491308786,1354.4526491308786,20546.295,17.874794
1354.4540380450378,1354.4540380450378,20511.346,17.870129
1354.4554269591974,1354.4554269591974,20525.385,17.871412
1354.4568158738232,1354.4568158738232,20514.523,17.867838
1354.4582047879833,1354.4582047879833,20559.373,17.880304
1354.459593702143,1354.459593702143,20513.408,17.864199
1354.4609826163023,1354.4609826163023,20529.486,17.872656
1354.4623715304617,1354.4623715304617,20505.543,17.865593
1354.4637604450875,1354.4637604450875,20531.1,17.870565
1354.465149359247,1354.465149359247,20523.516,17.87182
1354.4665382734058,1354.4665382734058,20506.938,17.859402
1354.467927187566,1354.467927187566,20493.363,17.857914
1354.469316101726,1354.469316101726,20522.404,17.86811
1354.470705015886,1354.470705015886,20519.559,17.866262
1354.4720939300457,1354.4720939300457,20539.982,17.872314
1354.4734828442045,1354.4734828442045,20530.54,17.871677
1354.4748717583645,1354.4748717583645,20496.52,17.85944
1354.4762606725246,1354.4762606725246,20512.27,17.8643
1354.4776495866836,1354.4776495866836,20514.158,17.862059
1354.479038500843,1354.479038500843,20525.207,17.86818
1354.480427415003,1354.480427415003,20493.25,17.857494
1354.4818163291634,1354.4818163291634,20520.545,17.865774
1354.4832052433237,1354.4832052433237,20524.379,17.869984
1354.4845941574824,1354.4845941574824,20569.4,17.884998
1354.4859830716416,1354.4859830716416,20494.783,17.859316
1354.487371985802,1354.487371985802,20532.197,17.866663
1354.4887608999613,1354.4887608999613,20518.188,17.868792
1354.4901498136553,1354.4901498136553,20516.646,17.865213
1354.4915387278145,1354.4915387278145,20485.805,17.854975
1354.4929276419748,1354.4929276419748,20494.254,17.861132
1354.4943165561351,1354.4943165561351,20527.54,17.869665
1354.4957054698286,1354.4957054698286,20523.28,17.868675
1354.4970943839883,1354.4970943839883,20513.166,17.865147
1354.4984832981477,1354.4984832981477,20549.361,17.877398
1354.499872212307,1354.499872212307,20507.383,17.858334
1354.5012611260015,1354.5012611260015,20536.451,17.875158
1354.5026500401618,1354.5026500401618,20565.62,17.882019
1354.5040389543212,1354.5040389543212,20533.98,17.872646
1354.5054278680152,1354.5054278680152,20506.654,17.860733
1354.5068167821744,1354.5068167821744,20522.504,17.86432
1354.508205695869,1354.508205695869,20518.441,17.869963
1354.5095946100284,1354.5095946100284,20494.805,17.858894
1354.5109835241872,1354.5109835241872,20503.396,17.863161
1354.5123724378816,1354.5123724378816,20526.115,17.868351
1354.513761352042,1354.513761352042,20515.037,17.863266
1354.5151502657366,1354.5151502657366,20520.174,17.864298
1354.5165391798957,1354.5165391798957,20523.041,17.8716
1354.5179280935888,1354.5179280935888,20536.217,17.870876
1354.5193170077491,1354.5193170077491,20534.545,17.876669
1354.5207059214438,1354.5207059214438,20523.662,17.871304
1354.5220948351368,1354.5220948351368,20516.02,17.863085
1354.5234837492962,1354.5234837492962,20519.895,17.867188
1354.524872662991,1354.524872662991,20533.623,17.87251
1354.526261577151,1354.526261577151,20516.094,17.871107
1354.5276504908454,1354.5276504908454,20486.988,17.8547
1354.5290394045385,1354.5290394045385,20521.566,17.868855
1354.5304283186981,1354.5304283186981,20510.875,17.863596
1354.5318172323925,1354.5318172323925,20533.355,17.868505
1354.533206146086,1354.533206146086,20535.787,17.86774
1354.53459505978,1354.53459505978,20533.775,17.872276
1354.5359839739397,1354.5359839739397,20523.36,17.862911
1354.537372887634,1354.537372887634,20496.81,17.861197
1354.5387618013285,1354.5387618013285,20489.709,17.85409
1354.5401507150225,1354.5401507150225,20540.11,17.871716
1354.5415396291817,1354.5415396291817,20530.266,17.872417
1354.5429285428756,1354.5429285428756,20511.092,17.86741
1354.5443174565694,1354.5443174565694,20535.332,17.870943
1354.545706370264,1354.545706370264,20497.508,17.860918
1354.5470952839585,1354.5470952839585,20501.953,17.856243
1354.548484197652,1354.548484197652,20524.4,17.87244
1354.549873111346,1354.549873111346,20510.33,17.859081
1354.55126202504,1354.55126202504,20521.691,17.869951
1354.5526509387344,1354.5526509387344,20485.71,17.852192
1354.5540398524279,1354.5540398524279,20495.312,17.857775
1354.5554287661212,1354.5554287661212,20542.625,17.871458
1354.5568176798158,1354.5568176798158,20535.947,17.869232
1354.5582065935102,1354.5582065935102,20528.043,17.86864
1354.5595955072047,1354.5595955072047,20523.955,17.867077
1354.5609844208986,1354.5609844208986,20528.373,17.871
1354.5623733345917,1354.5623733345917,20502.74,17.859419
1354.5637622482861,1354.5637622482861,20527.398,17.871628
1354.5651511619806,1354.5651511619806,20526.283,17.87022
1354.5665400756736,1354.5665400756736,20545.592,17.875446
1354.5679289893676,1354.5679289893676,20518.969,17.868221
1354.569317903062,1354.569317903062,20523.564,17.86444
1354.5707068162908,1354.5707068162908,20519.934,17.866152
1354.5720957299852,1354.5720957299852,20518.1,17.864172
1354.5734846436783,1354.5734846436783,20527.213,17.870773
1354.5748735573723,1354.5748735573723,20545.943,17.873348
1354.5762624710667,1354.5762624710667,20530.854,17.873945
1354.577651384295,1354.577651384295,20506.582,17.858595
1354.5790402979885,1354.5790402979885,20522.84,17.870052
1354.5804292116825,1354.5804292116825,20540.035,17.87482
1354.5818181249113,1354.5818181249113,20520.645,17.86815
1354.5832070386057,1354.5832070386057,20523.03,17.863081
1354.5845959522997,1354.5845959522997,20496.348,17.859453
1354.5859848655277,1354.5859848655277,20535.799,17.871696
1354.5873737792215,1354.5873737792215,20501.111,17.856089
1354.5887626929155,1354.5887626929155,20535.445,17.868042
1354.5901516061442,1354.5901516061442,20511.932,17.860811
1354.5915405198386,1354.5915405198386,20525.604,17.867214
1354.592929433067,1354.592929433067,20521.787,17.865324
1354.5943183467605,1354.5943183467605,20549.994,17.882418
1354.5957072604544,1354.5957072604544,20482.662,17.854383
1354.5970961736832,1354.5970961736832,20522.553,17.8671
1354.5984850873772,1354.5984850873772,20517.736,17.864876
1354.5998740006046,1354.5998740006046,20534.268,17.874233
