time,time,flux,flux_err
1437.99849028052,1437.99849028052,1.0000647209610642,0.00018256170438352902
1438.006823911699,1438.006823911699,0.9999863015202567,0.0001822687284675463
1438.0144630738848,1438.0144630738848,1.0001655731644135,0.00016619100604659234
1438.0214077669227,1438.0214077669227,0.9997734088797501,0.00016601134053119418
1438.0283524600065,1438.0283524600065,1.0000134695482459,0.00016578472732611785
1438.0352971533698,1438.0352971533698,0.9996943782908854,0.00016563140892706218
1438.0422418468265,1438.0422418468265,1.000117707828314,0.00016548522480030556
1438.049186540423,1438.049186540423,0.9999349417835139,0.00016527319103475658
1438.0561312341586,1438.0561312341586,1.0000623763005798,0.00016515649543271657
1438.0630759280348,1438.0630759280348,1.0001003639426806,0.000164967633602458
1438.07002062205,1438.07002062205,1.000312080729969,0.00016484669802578074
1438.076965316112,1438.076965316112,0.9999259686784269,0.00016465852971235773
1438.0839100103601,1438.0839100103601,0.9999872824404574,0.0001644629768142269
1438.090854704748,1438.090854704748,0.9998977593427076,0.00016433929542807006
1438.0977993992292,1438.0977993992292,0.9999611443264321,0.00016421390625380997
1438.1047440938032,1438.1047440938032,0.9999289868376711,0.00016409649565111046
1438.1116887884707,1438.1116887884707,0.9998549579316707,0.00016397914558197613
1438.1186334832312,1438.1186334832312,1.0000381278594577,0.00016384990021212363
1438.1255781781313,1438.1255781781313,1.0000716087880785,0.00016379183939290053
1438.132522873078,1438.132522873078,1.000057318549642,0.0001636997326034484
1438.1394675681645,1438.1394675681645,1.0001413563201584,0.0001635728853375755
1438.1464122632508,1438.1464122632508,0.9998259324170903,0.0001634801627800306
1438.1533569584772,1438.1533569584772,1.0000380562758275,0.0001633906626074316
1438.1603016537495,1438.1603016537495,1.0000769801357128,0.0001633233399592354
1438.1672463491154,1438.1672463491154,0.9999893217352748,0.00016326457333475466
1438.1741910444812,1438.1741910444812,0.9999766514962787,0.00016314642269902373
1438.1811357400798,1438.1811357400798,0.9999693459118533,0.00016308382088955063
1438.1880804355853,1438.1880804355853,1.0000262322795008,0.00016299616070337644
1438.1950251311844,1438.1950251311844,1.000216346837088,0.0001628965394934963
1438.2019698268755,1438.2019698268755,0.9997428393061918,0.0001628030476223718
1438.2089145225677,1438.2089145225677,0.9998635655416959,0.00016272782770605253
1438.2158592183991,1438.2158592183991,0.9999495398550756,0.0001626611229898781
1438.222803914184,1438.222803914184,1.000059804500962,0.00016258449760554988
1438.2297486100156,1438.2297486100156,1.0000279232187632,0.00016247240807840227
1438.2366933059398,1438.2366933059398,1.000042594000954,0.00016242419136400406
1438.2436380018182,1438.2436380018182,1.000308581913262,0.00016238891748551247
1438.2505826978363,1438.2505826978363,0.999895918460458,0.00016226343517314708
1438.2575273938069,1438.2575273938069,1.0002504529258707,0.00016224771680040004
1438.2644720898247,1438.2644720898247,1.0002379411378637,0.00016219725938323965
1438.2714167858892,1438.2714167858892,0.9997515142835034,0.00016204849180640902
1438.2783614819532,1438.2783614819532,0.9998690047330852,0.00016206029369101853
1438.2853061780643,1438.2853061780643,0.9999084884070306,0.0001620611922611259
1438.2922508741751,1438.2922508741751,1.0000767595905564,0.00016198745851232608
1438.2991955702862,1438.2991955702862,0.999833284758372,0.0001619678286523632
1438.3061402664432,1438.3061402664432,0.9999250049371877,0.00016191294311398267
1438.313084962601,1438.313084962601,1.0001301681746666,0.00016189846174375304
1438.3200296587117,1438.3200296587117,1.0001638692192685,0.0001619034407726721
1438.3269743548692,1438.3269743548692,1.000227919216535,0.00016184859455404963
1438.333919051073,1438.333919051073,1.0000008847650614,0.00016179128496007238
1438.3408637472307,1438.3408637472307,0.9998499746507143,0.0001617656131528749
1438.3478084433877,1438.3478084433877,0.9998138637915925,0.00016174839028840286
1438.354753139546,1438.354753139546,1.0002353688218215,0.0001616969815783783
1438.3616978357495,1438.3616978357495,0.9998199287826222,0.00016166897882021803
1438.3686425318606,1438.3686425318606,0.9997784676853593,0.0001616342107993213
1438.3755872280178,1438.3755872280178,1.0001181794526552,0.0001616551702539574
1438.3825319240823,1438.3825319240823,1.000409273784881,0.00016163218139619487
1438.3894766202397,1438.3894766202397,1.0000357813676346,0.00016153213117071043
1438.396421316304,1438.396421316304,0.9999823352977734,0.0001614841023151591
1438.4033660124146,1438.4033660124146,1.0001826167785526,0.00016146778272094125
1438.4103107084331,1438.4103107084331,0.9999339014698145,0.0001614188909303307
1438.4172554044503,1438.4172554044503,0.9997824069031234,0.00016138057889300507
1438.4242001005148,1438.4242001005148,1.0000778267696657,0.00016148339575990727
1438.431144796486,1438.431144796486,1.000092987114215,0.00016144380601423167
1438.4380894924104,1438.4380894924104,0.9997612233852788,0.00016140413356587898
1438.4450341883814,1438.4450341883814,0.9999289150672673,0.00016144394119839932
1438.4519788843063,1438.4519788843063,1.0001392856484492,0.00016145026533932952
1438.4589235801382,1438.4589235801382,1.0000476982896844,0.00016139721741065111
1438.465868276016,1438.465868276016,0.999844446613454,0.00016140788589720273
1438.4728129718003,1438.4728129718003,1.0000241600883837,0.0001614090286222508
1438.4797576675858,1438.4797576675858,1.0000630619081288,0.0001614257986941686
1438.4867023632773,1438.4867023632773,1.0001983696326218,0.00016142375746439785
1438.4936470589691,1438.4936470589691,0.9998022103177927,0.0001613571401460909
1438.500591754661,1438.500591754661,1.000113616842865,0.00016144988503831505
1438.5075364502597,1438.5075364502597,0.9999039866819281,0.00016142929387217745
1438.5144811458115,1438.5144811458115,1.000165414238498,0.00016143621678744367
1438.5214258413637,1438.5214258413637,0.9999673028586555,0.0001614066975456845
1438.5283705367765,1438.5283705367765,0.9998549383604167,0.00016145860765284827
1438.535315232142,1438.535315232142,1.0000618692773287,0.00016142677909108876
1438.5422599275078,1438.5422599275078,0.9999088394199355,0.000161410744920187
1438.5492046228737,1438.5492046228737,1.0000968220882958,0.00016142365525550302
1438.5561493182395,1438.5561493182395,1.0000600802384405,0.00016145928590382045
1438.5630940134656,1438.5630940134656,0.9998409866293514,0.00016143558286882198
1438.570038708645,1438.570038708645,1.0000445512785876,0.00016145628534187503
1438.576983403732,1438.576983403732,0.9999914519039297,0.00016141660524943233
1438.5839280988178,1438.5839280988178,1.0000849300385786,0.0001614239877842179
1438.5908727938113,1438.5908727938113,0.9999299389543628,0.000161413579020016
1438.5978174888046,1438.5978174888046,1.0000965514323368,0.00016141916437551374
1438.604762183658,1438.604762183658,1.0001270466433394,0.00016139920166733198
1438.6117068785584,1438.6117068785584,1.0003347159534195,0.00016144052330550762
1438.6186515732722,1438.6186515732722,0.9996929008557567,0.000161290163229735
1438.6255962679866,1438.6255962679866,0.9998016326667543,0.0001613898875116387
1438.6325409626068,1438.6325409626068,0.9999530573584121,0.0001614216881947811
1438.639485657181,1438.639485657181,1.000341075717509,0.000161448579191956
1438.6464303517553,1438.6464303517553,1.0001790764500105,0.00016142044851019696
1438.65337504619,1438.65337504619,1.0000480747434444,0.0001614135812562278
1438.6603197405777,1438.6603197405777,0.9999502339135304,0.00016143576487436683
1438.667264434966,1438.667264434966,1.0000138778735734,0.00016140928277118404
1438.674209129214,1438.674209129214,1.0001552516604026,0.00016142290715723704
1438.6811538234156,1438.6811538234156,0.9999111274718088,0.00016139761342948679
1438.6880985174776,1438.6880985174776,0.9995980910429243,0.00016136580997573678
1438.6950432115395,1438.6950432115395,0.9999811796956403,0.00016139439849166226
1438.7019879055083,1438.7019879055083,1.0001077068374713,0.00016140934720937833
1438.7089325994307,1438.7089325994307,1.0002004591329023,0.00016142669874467667
1438.7158772932598,1438.7158772932598,1.0000379410136506,0.0001614307836568339
1438.7228219869962,1438.7228219869962,1.0002411685908092,0.00016139947035016144
1438.729766680685,1438.729766680685,1.0001025788891764,0.0001613834050408159
1438.7367113742816,1438.7367113742816,0.9999134441021098,0.00016140301076959888
1438.7436560678314,1438.7436560678314,0.9998486106205154,0.00016138312359178448
1438.7506007613342,1438.7506007613342,0.9999282353163622,0.00016139279729298698
1438.7575454546982,1438.7575454546982,0.9999428247399385,0.0001614238106698955
1438.764490148015,1438.764490148015,1.000039879896095,0.00016136211162004114
1438.7714348412853,1438.7714348412853,0.9997757042871687,0.00016129833451637205
1438.7783795343225,1438.7783795343225,0.9999994516558409,0.00016134178295385205
1438.7853242274537,1438.7853242274537,1.0000096062241852,0.00016138191884737372
1438.792268920398,1438.792268920398,0.9999812262965084,0.00016142507129074138
1438.7992136134355,1438.7992136134355,1.0001097602540736,0.000161396147059928
1438.8061583062401,1438.8061583062401,1.000026472866288,0.00016139479427189533
1438.8131029989515,1438.8131029989515,0.999933578267353,0.00016140486611997416
1438.8200476916631,1438.8200476916631,1.0001942280998757,0.00016140727459012022
1438.8269923842352,1438.8269923842352,0.9999595804991559,0.0001614017568524964
1438.8339370767608,1438.8339370767608,0.9999217863651934,0.00016138091904581537
1438.8408817691459,1438.8408817691459,1.0000459865750373,0.00016136578873573312
1438.847826461532,1438.847826461532,1.0001421400543138,0.00016142200182788988
1438.8547711537776,1438.8547711537776,1.0000348530429286,0.00016140015189234364
1438.861715845977,1438.861715845977,1.0001364242510637,0.0001614119285031403
1438.8686605380367,1438.8686605380367,0.9998922989826842,0.00016135926837323056
1438.8756052300962,1438.8756052300962,0.9998365839850146,0.0001613538386369123
1438.8825499219697,1438.8825499219697,1.000251447568978,0.0001613847118397843
1438.8894946138428,1438.8894946138428,1.000044773598995,0.00016137339537966635
1438.8964393055767,1438.8964393055767,0.9999595879158576,0.0001613068772382211
1438.9033839972174,1438.9033839972174,1.0000474215054787,0.00016138560519413184
1438.9103286888112,1438.9103286888112,1.0000971316249567,0.00016140110438894896
1438.9172733803118,1438.9172733803118,0.9999723699402316,0.00016135536155399306
1438.9242180716733,1438.9242180716733,0.9998097683826007,0.0001614233979410404
1438.9311627630345,1438.9311627630345,1.0001722745633443,0.00016137368609969006
1438.9381074542093,1438.9381074542093,1.0000120398841368,0.00016141737034884192
1438.9450521453377,1438.9450521453377,0.9998359583813274,0.00016138859261274807
1438.9519968364193,1438.9519968364193,0.9999985569710699,0.00016138633446511125
1438.9589415273617,1438.9589415273617,1.0002743674551011,0.0001613640258497952
1438.9658862181636,1438.9658862181636,1.0002824003420736,0.00016142847416309594
1438.9728309090126,1438.9728309090126,0.9999615799922583,0.00016148362730813485
1438.979775599582,1438.979775599582,1.000011538788833,0.00016139989208299597
1438.986720290291,1438.986720290291,0.9998339142266357,0.0001614260831203342
1438.9936649807678,1438.9936649807678,0.9998491935816176,0.00016138700901255611
1439.0006096711509,1439.0006096711509,0.9999341515500013,0.00016141705126899243
1439.007554361488,1439.007554361488,1.0001799691324755,0.00016141078258785724
1439.0144990517315,1439.0144990517315,1.0000833677007261,0.00016139691055181392
1439.0214437418351,1439.0214437418351,0.9999083613653775,0.00016136009968528768
1439.0283884318924,1439.0283884318924,1.0000968713322635,0.000161427431196561
1439.0353331218564,1439.0353331218564,1.0001350492217067,0.00016137589808510794
1439.0422778116813,1439.0422778116813,1.000020060966463,0.00016141775813533513
1439.049222501459,1439.049222501459,1.0002273278106866,0.00016138405962400076
1439.0561671910975,1439.0561671910975,1.0000527887396145,0.00016141392910007176
1439.0631118806423,1439.0631118806423,1.0004762321115657,0.00016144507272028349
1439.0700565701877,1439.0700565701877,1.0000705117391595,0.00016138660750172543
1439.0770012595926,1439.0770012595926,0.9999539201374198,0.00016139752044764887
1439.0839459489048,1439.0839459489048,1.0000798828405921,0.00016139448257492558
1439.0908906380312,1439.0908906380312,0.9999443018261797,0.00016136618570404397
1439.097835327157,1439.097835327157,1.0000333171207423,0.00016139644259087683
1439.1047800162364,1439.1047800162364,1.0000134067170725,0.00016139588992380616
1439.1117247050831,1439.1117247050831,0.9999363620179658,0.00016140056342918335
1439.118669393883,1439.118669393883,0.999842796946241,0.0001613608414082005
1439.1256140826367,1439.1256140826367,1.0001070655971838,0.0001613594976040469
1439.1325587712502,1439.1325587712502,1.000016068383664,0.00016134808890740676
1439.1395034598177,1439.1395034598177,1.0000183197736952,0.00016136857058563045
1439.1464481481985,1439.1464481481985,0.9998512152984755,0.0001614139587206592
1439.1533928365793,1439.1533928365793,1.0001944157737328,0.00016139568855731644
1439.1603375248205,1439.1603375248205,1.0000382169675521,0.00016139186858639344
1439.1672822129685,1439.1672822129685,0.9999642182963502,0.00016138584620754962
1439.1742269010235,1439.1742269010235,0.9999366788150083,0.00016134709391581675
1439.181171588939,1439.181171588939,1.0001341148429033,0.00016141097918835056
1439.1881162768075,1439.1881162768075,1.0000329288885514,0.00016135712991951145
1439.1950609645828,1439.1950609645828,1.0002438780438023,0.00016139660225707517
1439.2020056522192,1439.2020056522192,0.9999614025440418,0.00016139302191493
1439.208950339808,1439.208950339808,0.9999044090129502,0.00016139939145492217
1439.2158950272578,1439.2158950272578,0.9999217865976833,0.00016144338921912746
1439.2228397145677,1439.2228397145677,0.9999930144179554,0.00016141207042382605
1439.2297844019708,1439.2297844019708,1.0000245447148568,0.0001614059107537712
1439.2367290890015,1439.2367290890015,0.9999178320988544,0.0001613913709256209
1439.2436737761716,1439.2436737761716,0.9999599710105473,0.0001614000998054528
1439.2506184631088,1439.2506184631088,1.0000122535554763,0.00016139865871001613
1439.2575631500465,1439.2575631500465,1.0003366023017803,0.00016140452181286077
1439.2645078367973,1439.2645078367973,0.9997226805958539,0.00016137807738198575
1439.271452523502,1439.271452523502,0.9999693921673583,0.0001613878395106964
1439.278397210067,1439.278397210067,0.9998515776905856,0.00016137064439301682
1439.285341896585,1439.285341896585,1.0001329514427926,0.00016137417141817904
1439.2922865829173,1439.2922865829173,1.0000908174825702,0.0001613953247543916
1439.299231269249,1439.299231269249,1.0000371807927626,0.0001613919632935394
1439.3061759553482,1439.3061759553482,1.0000903207173422,0.00016136537061168458
1439.3131206414012,1439.3131206414012,1.0000958154615653,0.00016137436676790887
1439.3200653274537,1439.3200653274537,1.00005885127815,0.0001613853303768824
1439.3270100134132,1439.3270100134132,0.9998444847058765,0.00016131989806926562
1439.333954699186,1439.333954699186,0.9997957822112931,0.00016136195663577743
1439.340899384913,1439.340899384913,0.999960186286069,0.0001613860396151222
1439.3478440704534,1439.3478440704534,0.9998718704411942,0.0001613892813032317
1439.3547887559937,1439.3547887559937,0.9999488857974361,0.0001614008224009485
1439.3617334413477,1439.3617334413477,1.0000417217166115,0.00016137761151520692
1439.3686781266556,1439.3686781266556,1.0002686835367482,0.00016139367316704028
1439.3756228118698,1439.3756228118698,1.0001310372389898,0.00016141912419116123
1439.382567496991,1439.382567496991,1.0001688533259843,0.00016140065558423994
1439.3895121819264,1439.3895121819264,0.9996725938184102,0.00016136680201485473
1439.3964568668146,1439.3964568668146,1.000155727411616,0.0001614222238778231
1439.4034015517034,1439.4034015517034,0.9998066638428588,0.00016135481138098933
1439.4103462363587,1439.4103462363587,0.9999778393238448,0.00016139217037108755
1439.4172909209212,1439.4172909209212,1.00017886847669,0.0001613950576189217
1439.4242356054372,1439.4242356054372,0.9998915342776105,0.0001613703635305925
1439.4311802898603,1439.4311802898603,0.9998526836972603,0.00016135010275061153
1439.4381249741432,1439.4381249741432,1.00029020308538,0.00016141730367525965
1439.4450696583795,1439.4450696583795,0.9999284275544523,0.00016134894173477153
1439.4520143424766,1439.4520143424766,0.9999334704508666,0.0001613998470107614
1439.4589590264804,1439.4589590264804,0.9999076709043981,0.00016138557333696254
1439.4659037103443,1439.4659037103443,1.000000870407251,0.00016139611271832722
1439.4728483940685,1439.4728483940685,1.000021923494447,0.00016141379317531713
1439.4797930777931,1439.4797930777931,0.9998556637699195,0.00016138023466158558
1439.4867377614707,1439.4867377614707,1.0003747131206977,0.0001613696436301453
1439.4936824449621,1439.4936824449621,0.9999113692110297,0.0001613691201507658
1439.5006271283607,1439.5006271283607,0.9998378445739364,0.00016141329340453738
1439.5075718116657,1439.5075718116657,1.0001418048774353,0.00016140893157010142
1439.5145164948312,1439.5145164948312,0.9998921228991329,0.0001614158571421102
1439.5214611779504,1439.5214611779504,1.0000938331878966,0.00016140597394617863
1439.5284058609761,1439.5284058609761,0.9999978781243859,0.0001613973755858283
1439.5353505438156,1439.5353505438156,0.9998921971654824,0.00016139236657021657
1439.5422952266556,1439.5422952266556,1.0000913541217422,0.00016137684744605712
1439.5492399094016,1439.5492399094016,0.9998394991095175,0.00016138149669910802
1439.5561845920083,1439.5561845920083,0.999914547496109,0.00016138158727667845
1439.5631292744288,1439.5631292744288,1.0003966004034155,0.0001614169383200601
1439.5700739568497,1439.5700739568497,0.9999463855463162,0.00016138859282370847
1439.5770186391303,1439.5770186391303,0.9999180388465545,0.00016135605008005518
1439.5839633213177,1439.5839633213177,1.0000233155142482,0.00016137900284877716
1439.5909080034587,1439.5909080034587,1.0000053513233769,0.00016142588294326988
1439.5978526854603,1439.5978526854603,1.0001068489346743,0.0001614017950452239
1439.604797367322,1439.604797367322,0.9998768433175458,0.00016140432291313026
1439.6117420490907,1439.6117420490907,0.9998181499032975,0.00016139510512989423
1439.6186867308124,1439.6186867308124,1.0002135500660898,0.0001614048221747668
1439.6256314123953,1439.6256314123953,0.9999524270325658,0.00016138679961384645
1439.632576093884,1439.632576093884,1.0000253903739025,0.00016137054298003968
1439.6395207752798,1439.6395207752798,0.9999175225512877,0.00016140099838620793
1439.6464654565827,1439.6464654565827,0.9999484541496312,0.0001614162171540435
1439.653410137746,1439.653410137746,1.0002540785866274,0.00016144907520622
1439.6603548188625,1439.6603548188625,0.9998433341986308,0.00016140535470277837
1439.6672994998396,1439.6672994998396,0.9999525060767152,0.00016136163463204736
1439.6742441806769,1439.6742441806769,1.0001100282637299,0.00016141492982717738
1439.6811888615143,1439.6811888615143,0.9998441211645342,0.00016136681936823897
1439.6881335421651,1439.6881335421651,1.0000598077852214,0.00016142384253516534
1439.695078222816,1439.695078222816,1.000148323235441,0.00016139492177119443
1439.7020229032805,1439.7020229032805,0.9998704540768081,0.00016141046621697325
1439.7089675836523,1439.7089675836523,0.9998234871759764,0.00016140426897366458
1439.715912263884,1439.715912263884,0.999950670420654,0.00016140159384508976
1439.7228569441163,1439.7228569441163,1.000270597084582,0.00016140695990540124
1439.7298016242548,1439.7298016242548,0.9999943482999237,0.00016140881927118985
1439.7367463042076,1439.7367463042076,1.0001242711699088,0.00016138931510002963
1439.743690984113,1439.743690984113,0.9999625975942157,0.00016143912929046417
