time,time,flux,flux_err
1437.9990952970095,1437.9990952970095,0.9998029080615792,0.0004161760644993067
1438.007428962803,1438.007428962803,1.000077355580342,0.00041524912508952275
1438.0157626288292,1438.0157626288292,1.0003385100282483,0.00041450624463311247
1438.0240962950884,1438.0240962950884,0.9999747074385263,0.0004133974790328089
1438.0317354889783,1438.0317354889783,0.9995987825919463,0.0003768382970133268
1438.0386802111195,1438.0386802111195,0.999980646541917,0.00037614231354461
1438.0456249332608,1438.0456249332608,0.9999411635833771,0.0003754968870684706
1438.0525696556817,1438.0525696556817,1.0003615745361993,0.00037495478014922933
1438.059514378009,1438.059514378009,1.0000228213946731,0.0003743780063016987
1438.0664591005232,1438.0664591005232,0.9999123317268056,0.00037382955966966993
1438.0734038230369,1438.0734038230369,1.0001309699508467,0.00037338795934558006
1438.080348545644,1438.080348545644,1.0002668696884665,0.0003727061937534949
1438.0872932683442,1438.0872932683442,0.9998448752617725,0.00037224771906421326
1438.0942379912308,1438.0942379912308,0.9997817764124635,0.0003717493191492026
1438.101182714117,1438.101182714117,1.000139674053059,0.00037162022785489725
1438.1081274370035,1438.1081274370035,0.9997878408194711,0.0003709387081318734
1438.1150721599827,1438.1150721599827,0.9995405595701323,0.0003706209874622234
1438.1220168830555,1438.1220168830555,1.0002142700646983,0.00037051456672367337
1438.128961606128,1438.128961606128,0.9997141249234319,0.000369988569074568
1438.135906329387,1438.135906329387,1.0005684662689203,0.00036966406430828164
1438.1428510524597,1438.1428510524597,1.0000301706749595,0.0003694065906989744
1438.1497957757188,1438.1497957757188,1.0002135281482931,0.0003690427000373975
1438.1567404990706,1438.1567404990706,1.000348827460994,0.000368623899426557
1438.1636852223294,1438.1636852223294,0.9995865172827463,0.00036864052502896767
1438.1706299456814,1438.1706299456814,1.0002112639890348,0.00036829430466634583
1438.17757466922,1438.17757466922,0.9998630416139112,0.0003676672242996776
1438.1845193924787,1438.1845193924787,0.9997545935851122,0.0003675223955992939
1438.1914641160172,1438.1914641160172,1.000024058475111,0.0003674243718646468
1438.1984088393697,1438.1984088393697,0.9998448141174666,0.00036711660759037587
1438.2053535629075,1438.2053535629075,1.000671771383637,0.0003668704335362379
1438.2122982863527,1438.2122982863527,0.9999489128006787,0.00036668155320614576
1438.219243009798,1438.219243009798,0.9998683179355323,0.0003663735653874309
1438.2261877333362,1438.2261877333362,1.000294211471686,0.00036600150759655617
1438.2331324567817,1438.2331324567817,1.0001340334349256,0.0003657862585455051
1438.24007718032,1438.24007718032,1.000261672088084,0.0003653502292528155
1438.2470219038582,1438.2470219038582,1.0001488152491733,0.00036526289473424875
1438.2539666273037,1438.2539666273037,0.9995938046312973,0.0003648247918763535
1438.2609113507485,1438.2609113507485,0.9996485338868897,0.0003646241509761728
1438.2678560742866,1438.2678560742866,0.9997361259078023,0.0003645093873802694
1438.274800797732,1438.274800797732,1.0000293686977526,0.0003643052808584197
1438.2817455210838,1438.2817455210838,1.000043411963282,0.00036414789626683315
1438.2886902446226,1438.2886902446226,0.9998991130737916,0.00036406663906592455
1438.2956349679746,1438.2956349679746,1.0005901060487936,0.00036412479456457246
1438.3025796912334,1438.3025796912334,1.0005413464120183,0.00036396917050305814
1438.3095244145857,1438.3095244145857,0.9997447988185009,0.0003636464487875684
1438.3164691378445,1438.3164691378445,1.0002534247526813,0.0003636060331274701
1438.3234138611965,1438.3234138611965,0.9997576477039274,0.00036355295795950513
1438.3303585844556,1438.3303585844556,1.0000679490870565,0.00036345241471454374
1438.3373033078074,1438.3373033078074,0.9992893345452085,0.0003633326519203208
1438.3442480308802,1438.3442480308802,1.0000872186718923,0.0003633542499907475
1438.351192754046,1438.351192754046,0.9997694837104081,0.00036298517515141694
1438.3581374771186,1438.3581374771186,1.0001770305765845,0.00036306456128612486
1438.3650822001914,1438.3650822001914,1.0003144317733548,0.0003630934546242656
1438.3720269231708,1438.3720269231708,1.0003104405179817,0.0003627911712154994
1438.3789716461504,1438.3789716461504,0.999648790269213,0.00036276644124206214
1438.38591636913,1438.38591636913,1.0002696135318345,0.00036254551030255
1438.3928610918297,1438.3928610918297,0.9995518047359511,0.00036242100320182474
1438.3998058147167,1438.3998058147167,0.9998294135729935,0.0003624292795414064
1438.4067505374164,1438.4067505374164,1.0000048293740837,0.0003622504561189155
1438.4136952601168,1438.4136952601168,1.0000464397701168,0.000362247456405471
1438.4206399827237,1438.4206399827237,1.0001323441584025,0.00036222089056086416
1438.4275847053307,1438.4275847053307,1.0000841932457105,0.00036215806022063307
1438.4345294278446,1438.4345294278446,0.9999687231159291,0.00036208007279533863
1438.4414741502653,1438.4414741502653,1.0001402941118247,0.00036213366085653827
1438.448418872686,1438.448418872686,1.0003106135487168,0.00036227427876042766
1438.4553635950138,1438.4553635950138,1.0000568560893643,0.0003621642398321995
1438.4623083171552,1438.4623083171552,0.9995746530601956,0.0003619377303815857
1438.4692530392963,1438.4692530392963,1.000273025588645,0.00036203021324251246
1438.4761977614376,1438.4761977614376,0.9997153268619428,0.0003619083038951443
1438.483142483579,1438.483142483579,1.0002696776162647,0.0003623302444605993
1438.490087205441,1438.490087205441,0.999642430473684,0.0003621135462154279
1438.497031927396,1438.497031927396,0.9999350690994955,0.000362034138245944
1438.503976649072,1438.503976649072,0.9996640566474803,0.0003620551515730754
1438.5109213708408,1438.5109213708408,1.0002168526319324,0.000362086953547296
1438.5178660925162,1438.5178660925162,1.0003875527959298,0.0003621575753896788
1438.5248108140056,1438.5248108140056,1.0004136769849983,0.00036198074682238765
1438.5317555355884,1438.5317555355884,0.9994998479874143,0.00036218961688009503
1438.5387002569844,1438.5387002569844,1.000031383357112,0.00036201607975026704
1438.5456449782878,1438.5456449782878,1.0002220815541025,0.00036226424105912427
1438.5525896994977,1438.5525896994977,1.00007485390066,0.0003620887168401527
1438.5595344207077,1438.5595344207077,1.0000108481653736,0.0003621834737245381
1438.5664791417314,1438.5664791417314,1.000482809103275,0.0003622127859288768
1438.5734238626624,1438.5734238626624,1.0002471781008064,0.0003621991921852185
1438.5803685835926,1438.5803685835926,0.9997048089358472,0.00036235362309358047
1438.587313304337,1438.587313304337,0.999857807351602,0.0003620798431941758
1438.5942580250814,1438.5942580250814,1.000270985141561,0.00036213232067767813
1438.601202745733,1438.601202745733,0.9998486160571677,0.0003619342037935004
1438.6081474661976,1438.6081474661976,0.9999689946088386,0.00036194239081016307
1438.6150921866629,1438.6150921866629,0.9999003285012545,0.00036205316881220427
1438.6220369069413,1438.6220369069413,1.0001956069793825,0.0003619484286712679
1438.62898162722,1438.62898162722,1.0000029080237338,0.0003620306959597115
1438.6359263474055,1438.6359263474055,1.0003923690783005,0.0003622045639407244
1438.6428710673115,1438.6428710673115,1.0001713405642865,0.00036200311234380007
1438.6498157874973,1438.6498157874973,0.9999246384136699,0.00036210923577534255
1438.6567605073105,1438.6567605073105,0.99983992787083,0.00036223979557774066
1438.6637052271237,1438.6637052271237,0.9998044865991845,0.0003620445892588498
1438.670649946471,1438.670649946471,0.9995142184170434,0.00036209298943091784
1438.677594666191,1438.677594666191,1.0004154233517197,0.00036205397043033324
1438.684539385631,1438.684539385631,1.0002135049053977,0.00036217029657766687
1438.6914841049786,1438.6914841049786,0.9999239392297972,0.0003620802517390529
1438.6984288241397,1438.6984288241397,0.9997749590947469,0.00036212306518362537
1438.7053735433942,1438.7053735433942,1.0000594837190564,0.0003620941588867081
1438.712318262369,1438.712318262369,0.9995715209714945,0.0003620149768201602
1438.719262981344,1438.719262981344,1.0001592003354711,0.000362091883380347
1438.7262077002256,1438.7262077002256,1.00022755801012,0.0003620056406080059
1438.733152418828,1438.733152418828,1.0001016806018703,0.00036191871491094276
1438.7400971375232,1438.7400971375232,1.0001450358561776,0.0003620353409945112
1438.7470418560324,1438.7470418560324,1.00019687404134,0.0003621259465637514
1438.7539865744482,1438.7539865744482,1.0000747710024878,0.0003622689718613631
1438.7609312926784,1438.7609312926784,0.9999254560947041,0.0003621094021903716
1438.7678760109084,1438.7678760109084,0.9998160355676248,0.00036193378227689684
1438.7748207289517,1438.7748207289517,0.9996732107808581,0.0003617888553480139
1438.7817654469957,1438.7817654469957,0.9999019282584566,0.0003619201138512401
1438.7887101647593,1438.7887101647593,1.0000689969024597,0.00036211407362202495
1438.7956548826166,1438.7956548826166,0.9999456950814791,0.00036216713511822557
1438.8025996001013,1438.8025996001013,1.0003852163233478,0.0003621165857846721
1438.809544317586,1438.809544317586,1.0000070315462015,0.00036212867419451155
1438.8164890350708,1438.8164890350708,0.9998342794789989,0.00036201944211615216
1438.823433752556,1438.823433752556,1.000272033153371,0.0003621087762581688
1438.8303784696677,1438.8303784696677,1.0000721238903734,0.00036207198446013667
1438.8373231867802,1438.8373231867802,0.9993951942332501,0.0003620121796090895
1438.8442679037994,1438.8442679037994,0.9997709020412744,0.0003618974854003651
1438.851212620632,1438.851212620632,1.0001686575245938,0.00036202396144831284
1438.8581573373717,1438.8581573373717,1.0003354057958451,0.0003622354944429636
1438.865102054018,1438.865102054018,1.0000383405492055,0.00036200527186180774
1438.8720467704784,1438.8720467704784,1.000409868400213,0.0003621996500253784
1438.878991486939,1438.878991486939,0.9997806824897001,0.00036199699890305495
1438.8859362032129,1438.8859362032129,0.9998411603264961,0.0003620024787829543
1438.8928809193937,1438.8928809193937,1.0001421816499805,0.000362104914769338
1438.8998256353884,1438.8998256353884,0.9994228921633186,0.0003617441144426625
1438.906770351383,1438.906770351383,0.999771419112976,0.00036202110997419535
1438.9137150671913,1438.9137150671913,1.0004140326012934,0.0003621884968525755
1438.9206597829066,1438.9206597829066,1.0004522997012355,0.00036215358219322623
1438.9276044985286,1438.9276044985286,0.9997442019894305,0.000361959011104293
1438.9345492140578,1438.9345492140578,1.0001695312996586,0.00036199072727524905
1438.941493929307,1438.941493929307,1.0003971282893516,0.0003620689703749815
1438.9484386444637,1438.9484386444637,0.9994472009867875,0.0003619178770076923
1438.95538335962,1438.95538335962,0.999764551214264,0.0003619121587087594
1438.9623280747765,1438.9623280747765,1.0001564659317577,0.0003618767416851881
1438.9692727895606,1438.9692727895606,0.9998986173243661,0.0003620701044039442
1438.9762175044375,1438.9762175044375,1.000033765152953,0.00036198553047487377
1438.9831622190354,1438.9831622190354,1.0002982474133346,0.00036220614304985214
1438.990106933633,1438.990106933633,0.9999826230577089,0.0003620146857654082
1438.9970516480441,1438.9970516480441,0.9997645181082347,0.0003618052886834331
1439.0039963622694,1439.0039963622694,0.9998201885524113,0.0003620014779884832
1439.0109410764944,1439.0109410764944,0.9998006372154171,0.0003619995750833784
1439.0178857905335,1439.0178857905335,1.0002797758751116,0.0003619018248559868
1439.0248305045723,1439.0248305045723,1.0000740810062565,0.00036198873424163737
1439.0317752183316,1439.0317752183316,1.0004764042492058,0.0003621165255275682
1439.038719931998,1439.038719931998,1.0003123178019198,0.0003619218520841763
1439.0456646456646,1439.0456646456646,0.999508953147753,0.00036195613774881667
1439.052609359051,1439.052609359051,0.9996702629269691,0.0003620608968689317
1439.0595540724385,1439.0595540724385,1.000134846472209,0.0003621666801580146
1439.0664987856385,1439.0664987856385,1.0002748741901697,0.0003621808963682845
1439.073443498653,1439.073443498653,0.999600983709291,0.0003621150145787924
1439.080388211761,1439.080388211761,1.0001778852673415,0.00036210882566029874
1439.0873329247752,1439.0873329247752,0.9997838037038156,0.00036202207816540046
1439.094277637231,1439.094277637231,1.0001003994450863,0.0003620631446497037
1439.101222349966,1439.101222349966,0.9999684683082896,0.000362076873951154
1439.1081670624212,1439.1081670624212,1.0000043778633612,0.00036200588618229485
1439.1151117748773,1439.1151117748773,0.9997924341399059,0.0003618854996132832
1439.1220564871464,1439.1220564871464,0.9999781433745356,0.0003619473063313528
1439.1290011992296,1439.1290011992296,1.0003201733060538,0.0003619272397671511
1439.1359459112196,1439.1359459112196,1.0000373293482547,0.00036195955309667325
1439.1428906231165,1439.1428906231165,0.9998965630052397,0.0003620445852519052
1439.1498353350134,1439.1498353350134,0.9996353710132062,0.00036189190517433006
1439.1567800466305,1439.1567800466305,1.0000203098835174,0.0003620278537965357
1439.1637247580618,1439.1637247580618,1.0005193122011293,0.00036212705280641886
1439.1706694694929,1439.1706694694929,1.0004640210991902,0.00036205925815911303
1439.177614180831,1439.177614180831,1.0001273187859931,0.00036193214552828124
1439.1845588919823,1439.1845588919823,0.999602589515559,0.00036201617005057974
1439.1915036030416,1439.1915036030416,0.9998947989113838,0.0003619946416686435
1439.1984483139138,1439.1984483139138,1.0000373125474789,0.000361987623595846
1439.205393024693,1439.205393024693,0.9993372375740739,0.0003619002554595235
1439.212337735286,1439.212337735286,1.0002596793188432,0.00036201692775692884
1439.219282446158,1439.219282446158,0.9999904377338502,0.0003620428254565852
1439.2262271561926,1439.2262271561926,1.0000867821854067,0.00036204031165645737
1439.2331718666924,1439.2331718666924,0.9996811811252581,0.00036217300602278153
1439.2401165768192,1439.2401165768192,0.9999712822607727,0.00036209366194496544
1439.2470612869472,1439.2470612869472,1.0004592736364866,0.0003622501453176486
1439.254005996888,1439.254005996888,0.999901399511832,0.0003620791971802147
1439.260950706643,1439.260950706643,1.0001949477945495,0.0003619261789522249
1439.2678954163978,1439.2678954163978,0.9999859243581468,0.0003619204527360191
1439.274840125966,1439.274840125966,1.00020513739653,0.0003618163044989269
1439.2817848354416,1439.2817848354416,0.9997155462800557,0.00036208518870191184
1439.2887295447304,1439.2887295447304,1.0001579038653705,0.00036207567807260236
1439.2956742540196,1439.2956742540196,0.9999761169208661,0.00036194784681922975
1439.3026189630295,1439.3026189630295,0.9997073960571532,0.00036193246435365956
1439.3095636721323,1439.3095636721323,1.0005756624785183,0.0003620286938769876
1439.3165083808626,1439.3165083808626,0.9997574252190733,0.0003620676404079884
1439.3234530895932,1439.3234530895932,0.9996500077261734,0.0003619542427191969
1439.33039779823,1439.33039779823,0.9995783189079306,0.0003619211858315461
1439.337342506588,1439.337342506588,1.0005421578608236,0.0003622014533060026
1439.344287215132,1439.344287215132,0.9999726133328973,0.00036192263568448935
1439.3512319233034,1439.3512319233034,0.999981866205478,0.000361990770874834
1439.358176631475,1439.358176631475,0.9996797594808042,0.0003621077642281249
1439.365121339274,1439.365121339274,1.000376139227171,0.0003620153932388356
1439.3720660472595,1439.3720660472595,1.0001933235976195,0.0003619733234070493
1439.3790107549653,1439.3790107549653,1.0001180833105834,0.0003618791531789517
1439.385955462578,1439.385955462578,0.9998505669824926,0.00036204440833181026
1439.3929001700976,1439.3929001700976,0.9998260457699233,0.0003619542163804009
1439.399844877431,1439.399844877431,0.9998521249093569,0.0003620157352789529
1439.4067895846708,1439.4067895846708,1.0002771111725004,0.0003619648951058023
1439.413734291818,1439.413734291818,1.0000702268139352,0.0003620311333112224
1439.4206789988723,1439.4206789988723,1.0000084907896496,0.00036199976256727316
1439.42762370574,1439.42762370574,0.999535880536067,0.0003619849317984902
1439.4345684125144,1439.4345684125144,0.9997374661171594,0.0003619177389108031
1439.4415131191029,1439.4415131191029,1.0005225566855098,0.00036192562769826953
1439.448457825691,1439.448457825691,1.0001330829450914,0.0003619688841088464
1439.455402532093,1439.455402532093,1.0002166247461992,0.0003620450245135049
1439.4623472383087,1439.4623472383087,0.9998673181580798,0.0003619853998032922
1439.4692919445245,1439.4692919445245,0.9998442314790938,0.0003620566854975395
1439.4762366503678,1439.4762366503678,1.0000220468402161,0.0003620786136173162
1439.4831813562112,1439.4831813562112,0.9999905763329867,0.0003619087162996019
1439.4901260620543,1439.4901260620543,0.9996426126015031,0.00036200706100318565
1439.4970707678976,1439.4970707678976,0.9999641830715792,0.00036197789761144327
1439.5040154733683,1439.5040154733683,1.0003119962061493,0.0003620711418766161
1439.510960178839,1439.510960178839,0.9999548516153945,0.0003619928901166196
1439.517904884123,1439.517904884123,1.0012123916726083,0.0003621551790156586
1439.5248495892215,1439.5248495892215,0.9993528833472004,0.00036194775092933027
1439.5317942943198,1439.5317942943198,1.0001265978502583,0.000361965795473449
1439.5387389993248,1439.5387389993248,0.9996210430045199,0.0003618779625437181
1439.5456837040506,1439.5456837040506,0.9998122869917452,0.0003619971104333452
1439.5526284086832,1439.5526284086832,1.0006083587507917,0.00036210501696932074
1439.5595731134085,1439.5595731134085,1.0001933339714277,0.0003619009260149719
1439.566517817762,1439.566517817762,1.000051213376739,0.00036187002975299643
1439.5734625221146,1439.5734625221146,1.0002100588204872,0.00036197483939796345
1439.5804072262815,1439.5804072262815,0.9996119451432188,0.0003620419192175731
1439.5873519304484,1439.5873519304484,0.9993444257079241,0.00036200237470005993
1439.594296634336,1439.594296634336,0.9992426821580487,0.0003618758925977659
1439.6012413383166,1439.6012413383166,1.0005454081476848,0.00036200896772694023
1439.6081860418315,1439.6081860418315,1.0001083926776828,0.00036195786127949856
1439.6151307453465,1439.6151307453465,1.000884946814163,0.0003620736535962084
1439.6220754488613,1439.6220754488613,1.0001476005994436,0.00036201616647448226
1439.6290201523761,1439.6290201523761,1.000045777701883,0.00036197921175547964
1439.6359648556115,1439.6359648556115,0.9999049638442955,0.00036206631278034755
1439.6429095587541,1439.6429095587541,1.0001394369390622,0.0003618723841316082
1439.6498542617105,1439.6498542617105,0.9994331194109881,0.000362031318269815
1439.6567989645735,1439.6567989645735,0.9994410844015518,0.00036205199657385177
1439.6637436673432,1439.6637436673432,1.0001761538655478,0.0003619752048254989
1439.6706883699271,1439.6706883699271,1.0000590444931958,0.0003619548373613657
1439.6776330724174,1439.6776330724174,0.9999635545340195,0.0003620280287781483
1439.6845777748144,1439.6845777748144,1.0001033510977357,0.0003619537332014367
1439.6915224771187,1439.6915224771187,1.000294353211487,0.00036200814400353667
1439.6984671792368,1439.6984671792368,1.0004886845525487,0.00036196104212162037
1439.7054118812616,1439.7054118812616,0.999491685471626,0.0003619534959340148
1439.7123565831935,1439.7123565831935,1.0001385341343354,0.00036195744319201476
1439.7193012849389,1439.7193012849389,0.9997117945470995,0.0003619639780417463
1439.7262459866845,1439.7262459866845,1.0001177460652462,0.00036193878394981025
1439.7331906882432,1439.7331906882432,1.000081609318864,0.0003618788498940497
1439.740135389523,1439.740135389523,0.9999783700440841,0.0003618658884998617
1439.7470800907095,1439.7470800907095,0.9995689052686771,0.000361980355819249
1439.7540247918964,1439.7540247918964,1.000467338289164,0.000362078957227868
1439.760969493083,1439.760969493083,1.0000887055974101,0.0003620375343796187
