time,time,flux,flux_err
1354.1148811663822,1354.1148811663822,1.0026373,0.002160023
1354.1162701117416,1354.1162701117416,1.0021752,0.002162575
1354.119048001993,1354.119048001993,1.0012585,0.0021572988
1354.1204369473523,1354.1204369473523,0.9977147,0.0021606274
1354.1218258922456,1354.1218258922456,1.0003694,0.0021607496
1354.1232148376043,1354.1232148376043,0.99908125,0.0021587333
1354.1246037824974,1354.1246037824974,1.0025567,0.0021611825
1354.1259927278568,1354.1259927278568,0.9962224,0.002157479
1354.1273816727507,1354.1273816727507,0.99910873,0.0021589685
1354.1287706176438,1354.1287706176438,1.0009172,0.0021598751
1354.1301595630027,1354.1301595630027,0.9986273,0.0021575268
1354.1315485078956,1354.1315485078956,1.0039276,0.0021605047
1354.1329374527888,1354.1329374527888,1.0016263,0.002160224
1354.1343263981482,1354.1343263981482,1.0016521,0.0021599552
1354.1357153430415,1354.1357153430415,1.0003623,0.0021591263
1354.1371042879343,1354.1371042879343,1.0003475,0.0021585345
1354.1384932328283,1354.1384932328283,1.0006214,0.0021593159
1354.139882178187,1354.139882178187,1.0022167,0.0021600868
1354.1412711230807,1354.1412711230807,0.99989146,0.0021596109
1354.142660067974,1354.142660067974,1.0028507,0.002160035
1354.1440490128664,1354.1440490128664,1.0010906,0.002156428
1354.1454379577601,1354.1454379577601,0.9992349,0.0021603277
1354.1468269026539,1354.1468269026539,1.000998,0.0021584742
1354.1482158475471,1354.1482158475471,1.0018263,0.0021584143
1354.1496047924402,1354.1496047924402,1.0027328,0.0021616193
1354.1509937373332,1354.1509937373332,0.9993869,0.00215795
1354.152382682227,1354.152382682227,1.0009537,0.0021589722
1354.153771627121,1354.153771627121,0.99931884,0.0021581429
1354.1551605720135,1354.1551605720135,1.0028573,0.0021597682
1354.1565495169064,1354.1565495169064,1.0017374,0.0021597848
1354.1579384618,1354.1579384618,1.0063604,0.0021612842
1354.159327406694,1354.159327406694,0.99982274,0.0021583235
1354.1607163511214,1354.1607163511214,1.0019907,0.0021598805
1354.1621052960138,1354.1621052960138,1.00088,0.002159107
1354.1634942409075,1354.1634942409075,0.99810207,0.002158087
1354.1648831858015,1354.1648831858015,1.0014018,0.0021592919
1354.166272130229,1354.166272130229,1.0036035,0.0021603126
1354.1676610751222,1354.1676610751222,0.99956316,0.0021572723
1354.169050020015,1354.169050020015,1.005408,0.0021616367
1354.1704389644433,1354.1704389644433,1.0019773,0.0021591396
1354.1718279093373,1354.1718279093373,1.00417,0.0021591731
1354.173216853764,1354.173216853764,1.0037404,0.002160895
1354.174605798657,1354.174605798657,1.0004182,0.0021586635
1354.1759947430853,1354.1759947430853,1.0017264,0.0021590516
1354.1773836879781,1354.1773836879781,0.9992453,0.0021593436
1354.1787726324062,1354.1787726324062,1.0013005,0.00215908
1354.1801615772995,1354.1801615772995,1.0022216,0.0021601117
1354.181550521727,1354.181550521727,1.0026711,0.0021584176
1354.1829394666208,1354.1829394666208,1.0027668,0.0021590877
1354.184328411048,1354.184328411048,1.0000818,0.002158171
1354.1857173554763,1354.1857173554763,1.0022615,0.0021597347
1354.1871063003694,1354.1871063003694,1.0038953,0.0021603708
1354.188495244796,1354.188495244796,1.0037597,0.0021598872
1354.1898841892244,1354.1898841892244,1.0037248,0.0021592071
1354.1912731336527,1354.1912731336527,1.0032228,0.0021620954
1354.1926620780798,1354.1926620780798,1.0023239,0.0021598565
1354.194051022973,1354.194051022973,1.0032399,0.0021604064
1354.1954399674005,1354.1954399674005,1.0040193,0.0021603182
1354.1968289118288,1354.1968289118288,0.9982877,0.0021565587
1354.1982178562569,1354.1982178562569,0.9992067,0.0021585515
1354.1996068006836,1354.1996068006836,1.0050257,0.0021611142
1354.200995745111,1354.200995745111,1.0021788,0.0021592013
1354.2023846895393,1354.2023846895393,1.0013943,0.002157681
1354.2037736339673,1354.2037736339673,1.0031034,0.002160091
1354.2051625783945,1354.2051625783945,1.0033337,0.0021603445
1354.2065515228214,1354.2065515228214,1.0023221,0.002159395
1354.2079404672497,1354.2079404672497,1.0038706,0.002160712
1354.2093294116778,1354.2093294116778,1.0011396,0.0021591464
1354.210718356105,1354.210718356105,1.001407,0.0021588537
1354.2121073005326,1354.2121073005326,1.0006838,0.002158558
1354.2134962449602,1354.2134962449602,1.0006982,0.0021598665
1354.2148851889226,1354.2148851889226,1.0013335,0.0021597515
1354.2162741333507,1354.2162741333507,1.0027497,0.0021602928
1354.2176630777774,1354.2176630777774,1.0052677,0.0021607943
1354.219052022205,1354.219052022205,1.0026385,0.0021592418
1354.2204409661674,1354.2204409661674,1.0039465,0.002160399
1354.2218299105948,1354.2218299105948,1.0047448,0.002161816
1354.223218855023,1354.223218855023,1.0026196,0.002159925
1354.2246077989846,1354.2246077989846,1.001967,0.0021587617
1354.2259967434122,1354.2259967434122,1.0024496,0.0021601885
1354.2273856873746,1354.2273856873746,1.0003222,0.0021592637
1354.2287746318023,1354.2287746318023,1.0039455,0.002159385
1354.2301635762294,1354.2301635762294,1.0046883,0.0021595175
1354.2315525201914,1354.2315525201914,1.0010505,0.0021585654
1354.2329414646188,1354.2329414646188,1.004197,0.0021606376
1354.2343304085814,1354.2343304085814,1.0017098,0.002159278
1354.2357193525438,1354.2357193525438,0.9993246,0.0021579205
1354.2371082969712,1354.2371082969712,0.9992625,0.0021562602
1354.238497240933,1354.238497240933,1.0013115,0.0021579962
1354.2398861853605,1354.2398861853605,1.0014508,0.0021590616
1354.241275129323,1354.241275129323,1.005331,0.0021606241
1354.2426640732854,1354.2426640732854,1.0019141,0.0021592341
1354.244053017712,1354.244053017712,1.001909,0.0021595866
1354.245441961674,1354.245441961674,1.0040684,0.002161859
1354.2468309056364,1354.2468309056364,1.0041581,0.0021605513
1354.2482198495989,1354.2482198495989,1.002299,0.002159721
1354.2496087935608,1354.2496087935608,1.0023664,0.0021604788
1354.2509977379875,1354.2509977379875,1.0038824,0.002160544
1354.25238668195,1354.25238668195,0.9994459,0.0021578656
1354.2537756259123,1354.2537756259123,1.0007463,0.0021584907
1354.2551645698743,1354.2551645698743,1.0049443,0.0021611028
1354.2565535138358,1354.2565535138358,1.0016983,0.002158172
1354.2579424577978,1354.2579424577978,1.0020779,0.0021593722
1354.2593314017602,1354.2593314017602,1.0003934,0.002157525
1354.2607203457226,1354.2607203457226,1.0019804,0.0021591927
1354.2621092896836,1354.2621092896836,0.997757,0.0021559487
1354.2634982336456,1354.2634982336456,1.0025293,0.0021597238
1354.264887177608,1354.264887177608,1.003182,0.0021597766
1354.26627612157,1354.26627612157,1.0009278,0.0021581522
1354.2676650655324,1354.2676650655324,0.9999739,0.0021595175
1354.2690540090284,1354.2690540090284,1.002835,0.002158804
1354.2704429529902,1354.2704429529902,1.0007163,0.0021598993
1354.2718318969526,1354.2718318969526,1.0008869,0.0021581308
1354.2732208409145,1354.2732208409145,1.0019393,0.0021599722
1354.2746097848765,1354.2746097848765,0.9997577,0.002157342
1354.2759987283723,1354.2759987283723,1.0005106,0.002159073
1354.2773876723343,1354.2773876723343,1.0021492,0.0021594865
1354.2787766162967,1354.2787766162967,1.0041965,0.0021612565
1354.2801655597934,1354.2801655597934,1.0003909,0.0021588814
1354.2815545037554,1354.2815545037554,1.0022551,0.0021583636
1354.282943447717,1354.282943447717,1.0036733,0.0021593089
1354.2843323912132,1354.2843323912132,1.0017948,0.002158647
1354.2857213351756,1354.2857213351756,0.9976252,0.0021568132
1354.287110278672,1354.287110278672,1.0041867,0.0021604742
1354.288499222633,1354.288499222633,1.0020909,0.002159039
1354.2898881661297,1354.2898881661297,1.0023323,0.0021598565
1354.291277110092,1354.291277110092,0.99820435,0.002157823
1354.2926660535888,1354.2926660535888,1.0023127,0.0021595617
1354.2940549975508,1354.2940549975508,1.0042614,0.0021603475
1354.2954439410462,1354.2954439410462,1.0023069,0.0021588327
1354.296832884543,1354.296832884543,0.99917704,0.0021575529
1354.2982218285053,1354.2982218285053,1.002426,0.0021592914
1354.299610772001,1354.299610772001,1.0019534,0.0021588854
1354.300999715497,1354.300999715497,1.0018322,0.0021584055
1354.3023886594594,1354.3023886594594,1.0042769,0.002160078
1354.3037776029562,1354.3037776029562,0.9997371,0.002157703
1354.3051665464532,1354.3051665464532,1.0029705,0.002158602
1354.3065554899488,1354.3065554899488,1.0010203,0.0021593673
1354.3079444339103,1354.3079444339103,1.0017275,0.0021588432
1354.309333377407,1354.309333377407,1.0026277,0.0021591622
1354.3107223209033,1354.3107223209033,1.0036203,0.0021607014
1354.3121112644,1354.3121112644,1.0011635,0.0021578635
1354.3135002078964,1354.3135002078964,1.003186,0.0021600774
1354.3148891513924,1354.3148891513924,1.0008507,0.0021579808
1354.3162780948894,1354.3162780948894,1.002678,0.0021598388
1354.3176670383853,1354.3176670383853,0.9991922,0.0021571813
1354.3190559818815,1354.3190559818815,1.0013409,0.0021585657
1354.3204449253776,1354.3204449253776,1.0035962,0.002160241
1354.3218338688737,1354.3218338688737,1.0051883,0.0021616358
1354.3232228123704,1354.3232228123704,1.0005459,0.002158595
1354.3246117558672,1354.3246117558672,1.0022459,0.0021589026
1354.3260006993635,1354.3260006993635,1.0006734,0.0021587734
1354.3273896428598,1354.3273896428598,1.0011379,0.0021577543
1354.3287785863556,1354.3287785863556,0.99834573,0.0021559065
1354.3301675293867,1354.3301675293867,1.0000027,0.0021583433
1354.331556472883,1354.331556472883,1.0027932,0.0021579966
1354.3329454163784,1354.3329454163784,1.0040231,0.0021600234
1354.3343343598751,1354.3343343598751,0.99718595,0.0021564888
1354.3357233029064,1354.3357233029064,1.0034382,0.002158611
1354.3371122464034,1354.3371122464034,1.0021508,0.0021581638
1354.3385011898993,1354.3385011898993,0.9993084,0.002156253
1354.339890132929,1354.339890132929,1.0020201,0.002160511
1354.341279076426,1354.341279076426,1.0008265,0.002158379
1354.342668019923,1354.342668019923,1.003105,0.0021593263
1354.3440569629527,1354.3440569629527,1.0035865,0.0021587685
1354.3454459064485,1354.3454459064485,1.0014296,0.0021588372
1354.3468348494798,1354.3468348494798,0.99861056,0.002157785
1354.3482237929768,1354.3482237929768,1.0001516,0.0021574574
1354.3496127360079,1354.3496127360079,1.0008265,0.002158565
1354.3510016795033,1354.3510016795033,1.0013616,0.0021578067
1354.3523906225337,1354.3523906225337,1.0000367,0.0021584313
1354.3537795660307,1354.3537795660307,1.0007201,0.0021584458
1354.3551685090608,1354.3551685090608,1.0022217,0.0021592912
1354.3565574525571,1354.3565574525571,1.0018073,0.002158283
1354.3579463955875,1354.3579463955875,1.0024157,0.0021580944
1354.3593353386188,1354.3593353386188,1.0001125,0.0021573408
1354.3607242821156,1354.3607242821156,1.0018425,0.0021587282
1354.362113225146,1354.362113225146,1.0027688,0.0021594975
1354.3635021681764,1354.3635021681764,1.0006621,0.0021579228
1354.364891111207,1354.364891111207,1.0051732,0.0021606362
1354.3662800547029,1354.3662800547029,1.0011863,0.0021585464
1354.3676689977342,1354.3676689977342,1.0029057,0.0021586772
1354.3690579407655,1354.3690579407655,1.002135,0.0021588576
1354.3704468837957,1354.3704468837957,1.0022026,0.0021585596
1354.3718358268263,1354.3718358268263,1.000532,0.0021588777
1354.3732247698567,1354.3732247698567,1.0043144,0.0021610567
1354.3746137133537,1354.3746137133537,1.006643,0.002161307
1354.376002656384,1354.376002656384,1.0001811,0.002158494
1354.3773915994136,1354.3773915994136,0.99999833,0.0021572423
1354.378780542445,1354.378780542445,0.9988347,0.0021562784
1354.3801694854762,1354.3801694854762,1.0003812,0.0021568614
1354.3815584285073,1354.3815584285073,1.0014933,0.0021584542
1354.3829473715377,1354.3829473715377,1.0003433,0.0021579755
1354.3843363145677,1354.3843363145677,0.9974964,0.0021555983
1354.3857252575988,1354.3857252575988,1.0030361,0.0021593077
1354.3871142001642,1354.3871142001642,1.0015149,0.0021578374
1354.388503143194,1354.388503143194,1.0042708,0.0021607617
1354.3898920862246,1354.3898920862246,1.0041165,0.0021608288
1354.3912810292557,1354.3912810292557,1.0024935,0.002158218
1354.3926699722867,1354.3926699722867,1.0016315,0.002158269
1354.3940589153178,1354.3940589153178,1.0025266,0.0021580858
1354.395447857882,1354.395447857882,1.0005097,0.0021576972
1354.3968368009125,1354.3968368009125,1.0013244,0.0021569214
1354.3982257439436,1354.3982257439436,1.0023509,0.0021599056
1354.3996146869742,1354.3996146869742,1.0013163,0.0021581184
1354.4010036295388,1354.4010036295388,1.0055413,0.0021603038
1354.4023925725694,1354.4023925725694,0.9971101,0.002157068
1354.4037815156005,1354.4037815156005,1.0025858,0.002158198
1354.405170458166,1354.405170458166,1.0042038,0.0021586479
1354.4065594011965,1354.4065594011965,1.0042778,0.0021583517
1354.407948343761,1354.407948343761,1.0004436,0.0021586407
1354.4093372867917,1354.4093372867917,1.0040913,0.0021574309
1354.4107262293567,1354.4107262293567,1.002428,0.0021601995
1354.4121151723878,1354.4121151723878,1.0019639,0.0021581762
1354.4135041149532,1354.4135041149532,1.0013841,0.0021576027
1354.4148930579836,1354.4148930579836,1.0026574,0.002158034
1354.4162820005483,1354.4162820005483,1.0006329,0.0021592523
1354.417670943579,1354.417670943579,1.0057064,0.002159457
1354.4190598861444,1354.4190598861444,1.0037594,0.0021602511
1354.4204488287094,1354.4204488287094,0.997363,0.002156054
1354.421837771739,1354.421837771739,0.99996567,0.0021568371
1354.4232267143045,1354.4232267143045,1.0016937,0.0021600202
1354.42461565687,1354.42461565687,1.0034133,0.0021586532
1354.426004599901,1354.426004599901,1.0020287,0.0021591864
1354.427393542466,1354.427393542466,0.99509263,0.0021543147
1354.42878248503,1354.42878248503,1.0030606,0.0021587817
1354.4301714275955,1354.4301714275955,0.99897987,0.0021561424
1354.4315603706266,1354.4315603706266,1.0024884,0.0021586698
1354.4329493131906,1354.4329493131906,1.0012529,0.0021575273
1354.4343382557556,1354.4343382557556,1.0016121,0.002159188
1354.435727198321,1354.435727198321,1.0014701,0.0021587815
1354.4371161408865,1354.4371161408865,1.0061911,0.0021615953
1354.438505083452,1354.438505083452,1.0010734,0.0021571824
1354.4398940264816,1354.4398940264816,1.0018051,0.002158309
1354.4412829690466,1354.4412829690466,0.9993515,0.002156398
1354.442671911612,1354.442671911612,1.0018758,0.0021583114
1354.444060854177,1354.444060854177,1.0032558,0.0021583315
1354.4454497967417,1354.4454497967417,1.0006746,0.002157611
1354.4468387393065,1354.4468387393065,0.9976436,0.0021567415
1354.448227681872,1354.448227681872,1.0007969,0.0021582765
1354.4496166239717,1354.4496166239717,1.0022644,0.002158268
1354.4510055665367,1354.4510055665367,1.0003673,0.0021574215
1354.4523945091016,1354.4523945091016,1.0070388,0.0021603268
1354.4537834516661,1354.4537834516661,1.0011865,0.0021593275
1354.455172394231,1354.455172394231,1.0024884,0.0021589415
1354.4565613367965,1354.4565613367965,1.0036945,0.0021603722
1354.457950279362,1354.457950279362,1.0012431,0.0021591424
1354.4593392214613,1354.4593392214613,0.9981646,0.0021555102
1354.460728164026,1354.460728164026,1.0040839,0.0021594218
1354.4621171065908,1354.4621171065908,1.0012827,0.0021579538
1354.4635060491562,1354.4635060491562,1.0013292,0.0021583345
1354.4648949912555,1354.4648949912555,1.0030138,0.002159835
1354.4662839338196,1354.4662839338196,1.0028138,0.0021583985
1354.467672876385,1354.467672876385,1.0023111,0.0021590749
1354.4690618184848,1354.4690618184848,1.0040493,0.0021587757
1354.4704507610502,1354.4704507610502,1.0012116,0.0021588712
1354.4718397036152,1354.4718397036152,1.001415,0.0021571526
1354.4732286457136,1354.4732286457136,1.001342,0.0021594877
1354.474617588279,1354.474617588279,1.0023602,0.0021585764
1354.4760065303788,1354.4760065303788,1.0033424,0.0021593396
1354.477395472943,1354.477395472943,1.0014373,0.0021579962
1354.4787844150421,1354.4787844150421,1.0023136,0.0021574546
1354.4801733576076,1354.4801733576076,1.0036484,0.002159297
1354.4815622997075,1354.4815622997075,1.0024993,0.002158478
1354.4829512422732,1354.4829512422732,1.0016373,0.0021587342
1354.4843401843716,1354.4843401843716,1.0022131,0.002159527
1354.4857291269361,1354.4857291269361,1.0014812,0.0021586365
1354.4871180690361,1354.4871180690361,1.000653,0.0021545663
1354.4885070111352,1354.4885070111352,1.005031,0.0021624633
1354.4898959537002,1354.4898959537002,1.0000219,0.0021580548
1354.491284895799,1354.491284895799,1.0015141,0.0021573843
1354.492673837899,1354.492673837899,1.001801,0.0021599904
1354.4940627804647,1354.4940627804647,1.0023073,0.0021576746
1354.4954517225635,1354.4954517225635,1.0012308,0.002157254
1354.4968406646628,1354.4968406646628,0.9990554,0.0021563573
1354.498229606762,1354.498229606762,1.0003524,0.002157832
1354.499618548861,1354.499618548861,1.0004023,0.0021570274
1354.5010074914264,1354.5010074914264,1.0028118,0.002159622
1354.5023964335264,1354.5023964335264,1.0026344,0.0021597785
1354.5037853756255,1354.5037853756255,0.9996018,0.0021585727
1354.5051743177248,1354.5051743177248,1.0001093,0.0021584374
1354.5065632598237,1354.5065632598237,1.0005019,0.002157286
1354.5079522019237,1354.5079522019237,1.0019038,0.00215879
1354.5093411440228,1354.5093411440228,0.99872917,0.002156107
1354.5107300861212,1354.5107300861212,1.004552,0.002158694
1354.512119028221,1354.512119028221,1.0016776,0.0021581145
1354.513507970321,1354.513507970321,1.0023291,0.0021581838
1354.514896912421,1354.514896912421,1.0008506,0.0021578332
1354.5162858545198,1354.5162858545198,0.99703777,0.0021556246
1354.5176747966182,1354.5176747966182,1.0031307,0.0021581457
1354.5190637387182,1354.5190637387182,1.0001209,0.0021586502
1354.5204526808182,1354.5204526808182,0.9992931,0.002156734
1354.5218416229166,1354.5218416229166,1.0032922,0.0021596814
1354.5232305650156,1354.5232305650156,1.0026636,0.0021590858
1354.5246195071156,1354.5246195071156,1.0012301,0.002157251
1354.5260084487497,1354.5260084487497,1.0025694,0.0021577158
1354.5273973908495,1354.5273973908495,1.0005418,0.0021578234
1354.528786332948,1354.528786332948,1.001849,0.0021581934
1354.5301752750472,1354.5301752750472,1.003589,0.0021596889
1354.5315642166813,1354.5315642166813,0.9998555,0.0021573806
1354.5329531587802,1354.5329531587802,0.99664533,0.002155091
1354.5343421008795,1354.5343421008795,1.0043739,0.0021594218
1354.5357310429788,1354.5357310429788,1.001011,0.0021579356
1354.537119984613,1354.537119984613,1.0019872,0.0021578884
1354.5385089267127,1354.5385089267127,1.0052571,0.002159673
1354.539897868812,1354.539897868812,1.0037818,0.002159535
1354.5412868104452,1354.5412868104452,1.0004969,0.0021574465
1354.5426757525445,1354.5426757525445,1.0013453,0.0021561855
1354.544064694178,1354.544064694178,0.9993497,0.002157434
1354.545453636278,1354.545453636278,1.0010006,0.0021580055
1354.546842577912,1354.546842577912,0.9974397,0.0021553005
1354.5482315200109,1354.5482315200109,1.001557,0.0021566926
1354.5496204616445,1354.5496204616445,1.0030761,0.0021605543
1354.5510094037438,1354.5510094037438,1.0041728,0.0021606917
1354.552398345378,1354.552398345378,1.0009142,0.0021572406
1354.5537872874768,1354.5537872874768,0.99960047,0.0021571422
1354.5551762291097,1354.5551762291097,1.0045129,0.0021603988
1354.5565651712097,1354.5565651712097,0.9974035,0.0021562784
1354.5579541128438,1354.5579541128438,1.006567,0.0021613995
1354.559343054478,1354.559343054478,1.0027552,0.0021576684
1354.5607319965773,1354.5607319965773,1.0007647,0.0021592092
1354.56212093821,1354.56212093821,1.0019708,0.0021583717
1354.563509879844,1354.563509879844,0.9996989,0.0021571273
1354.5648988219439,1354.5648988219439,0.9994281,0.002156761
1354.5662877635766,1354.5662877635766,1.0036154,0.0021586611
1354.5676767052103,1354.5676767052103,1.004362,0.002159096
1354.5690656468444,1354.5690656468444,1.0027308,0.002158503
1354.5704545884785,1354.5704545884785,1.0044243,0.0021591324
1354.5718435305782,1354.5718435305782,0.9977114,0.002156015
1354.573232472211,1354.573232472211,1.0021673,0.0021586348
1354.5746214138446,1354.5746214138446,1.0028307,0.0021587664
1354.5760103554787,1354.5760103554787,1.0004054,0.0021572497
