time,time,flux,flux_err
-0.49994755280386016,-0.49994755280386016,1.0003180489364325,0.0002782275248391129
-0.4998252681998565,-0.4998252681998565,1.0002089682441981,0.00028962122846725553
-0.49961926655608596,-0.49961926655608596,1.0003573254235567,0.00027312566975354737
-0.4995213115604808,-0.4995213115604808,0.9999066506682158,0.0003985407203168726
-0.4994054429094831,-0.4994054429094831,0.9998826147913572,0.0002477210659474131
-0.4993220345728332,-0.4993220345728332,1.0000476587682612,0.00026771943982768364
-0.4992413678235607,-0.4992413678235607,1.0000058701311398,0.00024388520176621786
-0.4991451496083755,-0.4991451496083755,1.000053302145483,0.0002947602799913354
-0.4990677592424618,-0.4990677592424618,1.0004493726050572,0.00029389585565918035
-0.49900038775595024,-0.49900038775595024,1.000116291132419,0.00028439629380411403
-0.49885919628140984,-0.49885919628140984,0.999816091302473,0.00036556754078752773
-0.4986447060044156,-0.4986447060044156,0.9999475473921458,0.00029187087004734283
-0.49853671852179104,-0.49853671852179104,0.9998970212758735,0.0002620992204954948
-0.4984412860663724,-0.4984412860663724,1.0000430641519114,0.0002727167593648779
-0.49829352938832017,-0.49829352938832017,1.0000480929938713,0.0002607283313202468
-0.4982403577800142,-0.4982403577800142,0.9997833108788985,0.00025875303219413247
-0.4981672858382808,-0.4981672858382808,0.9999662513837693,0.00025897307816933463
-0.4980917063890956,-0.4980917063890956,0.9998822712922599,0.0002557029263981707
-0.49797724377785924,-0.49797724377785924,1.000186829141398,0.0002958772006331962
-0.4978438964790257,-0.4978438964790257,1.0000862883820485,0.00025263901291889456
-0.4977289499991457,-0.4977289499991457,0.9999671825752177,0.00024200186278270836
-0.4974886533396784,-0.4974886533396784,1.0000858028278092,0.00026607025092657003
-0.49737297953106463,-0.49737297953106463,1.0004264683498174,0.00026306666500371795
-0.49726511318440314,-0.49726511318440314,1.000252464657993,0.00024293339860379691
-0.4971702267503133,-0.4971702267503133,0.9998037816065592,0.00029300288673765466
-0.4970720995996089,-0.4970720995996089,0.9999153441363109,0.00029682781103554823
-0.4969930773382657,-0.4969930773382657,0.9995019300919582,0.0002946451481143217
-0.4969071155472193,-0.4969071155472193,1.0002587069394657,0.00025383074407729747
-0.49682815986016066,-0.49682815986016066,0.9997845497113111,0.00025200173361064496
-0.49672303052284406,-0.49672303052284406,1.000252712691609,0.0002945606471419919
-0.4965338427500683,-0.4965338427500683,0.9994239390151615,0.00031213633893662873
-0.4963074965322448,-0.4963074965322448,1.0003127244514818,0.0003380371880834579
-0.496216013286903,-0.496216013286903,0.9998533140241627,0.0002488420134534652
-0.4960991980959079,-0.4960991980959079,0.999974232208222,0.0002632971704002533
-0.49592587299412116,-0.49592587299412116,0.9999611150912495,0.0002549782056145206
-0.49587192401813807,-0.49587192401813807,1.0000901265583655,0.00025870593522762513
-0.49574528935991113,-0.49574528935991113,0.9998828026490758,0.0002588072343270287
-0.49566232627912543,-0.49566232627912543,0.9998871194801124,0.000246435261257906
-0.4955201180069707,-0.4955201180069707,1.0003196774816892,0.0002912089698495702
-0.49539080299073246,-0.49539080299073246,1.0001704066639157,0.00026350891980961934
-0.49529473271250024,-0.49529473271250024,1.0002697318201828,0.0003325123588280907
-0.49508559286623494,-0.49508559286623494,1.0001077948894301,0.00029198091189627475
-0.4949060201332031,-0.4949060201332031,0.9998662856828247,0.0002650567188605574
-0.4948310222956934,-0.4948310222956934,1.0000556364274913,0.00024260325641219278
-0.4946920257389138,-0.4946920257389138,1.0000937115407047,0.0002989355106048308
-0.49454471130375166,-0.49454471130375166,1.0000566427695117,0.0002758072034550183
-0.4943509730655933,-0.4943509730655933,0.9999906752794802,0.00024321380813440034
-0.49429543896112593,-0.49429543896112593,0.9999462222127946,0.0003301953354628367
-0.4942499073273211,-0.4942499073273211,1.0000598033508008,0.0002915450831694543
-0.49411444095094337,-0.49411444095094337,0.9999687589309442,0.0003029305124849107
-0.49388987469283163,-0.49388987469283163,0.9998491088316654,0.00024926639874598235
-0.4937802350243146,-0.4937802350243146,0.9998356533139322,0.00024933405124891113
-0.4936895744613139,-0.4936895744613139,1.0002999724940556,0.00025589855189595993
-0.4935841886646813,-0.4935841886646813,0.9997890874983449,0.00025353861160522
-0.49347931049051114,-0.49347931049051114,1.0001769940129974,0.00025903789065953315
-0.4933646083707572,-0.4933646083707572,1.0000472854903173,0.00029957732367972813
-0.4932925217828597,-0.4932925217828597,1.0001477075295415,0.0003127108070058163
-0.4931239324017952,-0.4931239324017952,1.0000342262115594,0.0002912593268989323
-0.4928933691546263,-0.4928933691546263,1.0004085369951672,0.0002684857804310562
-0.4928009477385785,-0.4928009477385785,1.0002218487267718,0.0002596678483921265
-0.4926593345429865,-0.4926593345429865,1.0000812574817286,0.0002623041606768542
-0.49255588396335953,-0.49255588396335953,1.0002114147439027,0.00024991027656590174
-0.492467248345929,-0.492467248345929,1.0002759372456402,0.00026994164439581134
-0.492378406838543,-0.492378406838543,1.0000610760512796,0.00025689729099086006
-0.49226099186998906,-0.49226099186998906,0.9998703558415748,0.00030327654692526365
-0.4921349650976481,-0.4921349650976481,1.0000495590243113,0.0002493269666861375
-0.4920816213067155,-0.4920816213067155,1.0004023101759811,0.00024854292249365864
-0.4919609092976316,-0.4919609092976316,0.9998453874517785,0.000255867208022265
-0.4916657225010567,-0.4916657225010567,1.0001440547091343,0.00026827883454966326
-0.4915728907653829,-0.4915728907653829,0.9999254181153571,0.00023694214345410555
-0.49140967301646016,-0.49140967301646016,0.9999965330102419,0.00025364742310937877
-0.49128381883419936,-0.49128381883419936,1.0001283899636892,0.0002992995743896645
-0.49116263376781716,-0.49116263376781716,1.0000210836385013,0.00024671685248209524
-0.49103823624318466,-0.49103823624318466,1.0004544715681427,0.0002609895661986229
-0.49093663689782263,-0.49093663689782263,0.9999876776751113,0.00028289960085335533
-0.4906831906053412,-0.4906831906053412,1.0000399249179903,0.000288044769254024
-0.49055952178314327,-0.49055952178314327,1.0002912034303246,0.00028074919188470675
-0.49043253236231976,-0.49043253236231976,1.000166213226675,0.0002623151509226247
-0.4902951786833,-0.4902951786833,1.0000949547529872,0.00024931522786449475
-0.4902089090210211,-0.4902089090210211,0.9999587845730694,0.00026442276766334966
-0.49008570798905565,-0.49008570798905565,1.000063929345973,0.0002550533475082843
-0.4899855353025487,-0.4899855353025487,0.9995319039695157,0.0002501389223656862
-0.48977472432889047,-0.48977472432889047,0.9997512356982196,0.0002884291161557649
-0.4896287455580023,-0.4896287455580023,1.0000261568273927,0.000289148202130873
-0.48958588818786664,-0.48958588818786664,1.000214654305805,0.00025842654183905515
-0.48945251525583444,-0.48945251525583444,0.9995383729341885,0.0002898381634779774
-0.4892417458257114,-0.4892417458257114,0.9998227695927493,0.0002961642949131359
-0.48909841296772355,-0.48909841296772355,0.9995227086236959,0.0002575896431779689
-0.48894630212380435,-0.48894630212380435,1.0001300652470704,0.00029503063876069364
-0.4887224830359628,-0.4887224830359628,1.0002840976754996,0.0002573430817769636
-0.48856976458991996,-0.48856976458991996,1.0002765787571541,0.000327254953444162
-0.48852881362108747,-0.48852881362108747,0.9997581510230787,0.00030064621642292755
-0.4884451183046622,-0.4884451183046622,1.0005502704823646,0.0002649546713079737
-0.4882444592491083,-0.4882444592491083,1.0002075385302622,0.00024970477035662404
-0.48812005953150217,-0.48812005953150217,0.9999168567109852,0.000257043170373968
-0.4880259814017336,-0.4880259814017336,0.9998281946783347,0.00025268946878523443
-0.48783959447100644,-0.48783959447100644,0.9997150329344452,0.0002459676976817401
-0.48772260852856564,-0.48772260852856564,1.0005147992473333,0.00025166435679007336
-0.4876320361661783,-0.4876320361661783,1.0004612684315517,0.0002956579170809557
-0.4875412678004068,-0.4875412678004068,1.0002566486511644,0.0003204150533925963
-0.48729310775961493,-0.48729310775961493,1.000085768384093,0.00029561943581888885
-0.4871273627897608,-0.4871273627897608,0.9998860463952184,0.00025893403914362616
-0.4870144493674161,-0.4870144493674161,1.000319150055714,0.0002674811792728141
-0.48683135792889515,-0.48683135792889515,1.0002102380527036,0.0002523336662853861
-0.48674471163467387,-0.48674471163467387,1.0001943569746037,0.0002678023074488085
-0.48665691011265155,-0.48665691011265155,0.999895968877401,0.00025006881919720735
-0.48657942801364695,-0.48657942801364695,0.9996139830756119,0.0003281252292693207
-0.48649828039924614,-0.48649828039924614,1.0001786582425525,0.000294002580768197
-0.48641617119137665,-0.48641617119137665,1.0001927809484976,0.00024333311111497408
-0.4863357159454608,-0.4863357159454608,1.000109567692693,0.00026785185940461143
-0.4861202271451475,-0.4861202271451475,1.000310545781948,0.00025973269831182046
-0.48592400539419034,-0.48592400539419034,0.9997220399402224,0.0002514939104246379
-0.48576565576004216,-0.48576565576004216,1.0002948058106043,0.00025554715138290704
-0.485599056135834,-0.485599056135834,1.0003525222423717,0.00026273882492960324
-0.4855446202935127,-0.4855446202935127,1.0003922914046002,0.0002993489023650427
-0.4854317221317615,-0.4854317221317615,0.9998862744701601,0.0002387329124456942
-0.4853192145303183,-0.4853192145303183,0.999818084568347,0.00029140760546588835
-0.48521818903609526,-0.48521818903609526,1.0001771642309634,0.00024924477487981746
-0.48504665313084844,-0.48504665313084844,1.000067714858127,0.00024421734035109173
-0.4848725438670954,-0.4848725438670954,1.00013707884658,0.0003000608131942481
-0.484791124331241,-0.484791124331241,0.9999942367011148,0.0003093888129211332
-0.484706865131011,-0.484706865131011,0.9999865836992218,0.0002685686139738303
-0.48460123501354246,-0.48460123501354246,0.9994425001199441,0.00024204885469765328
-0.48449756147383594,-0.48449756147383594,0.9997407459524126,0.0002640412261499509
-0.48438494064394033,-0.48438494064394033,1.000208439382868,0.00024392085520044782
-0.48426067237815007,-0.48426067237815007,0.9999965528315264,0.0002554672564107366
-0.48399463105670293,-0.48399463105670293,0.9999019157737885,0.0002621092336786865
-0.4838634638377698,-0.4838634638377698,0.9998061933350846,0.0002958718623383993
-0.4837548263996723,-0.4837548263996723,0.9999529663933302,0.00026512850717959113
-0.48355283076598427,-0.48355283076598427,1.0000392196357573,0.0002977071577106145
-0.4833858744932513,-0.4833858744932513,0.9998576423961738,0.0002570066690110426
-0.4832566282690095,-0.4832566282690095,0.9996696216979192,0.0002952612583110004
-0.48309874845290324,-0.48309874845290324,0.9995767312230128,0.00026109766104456914
-0.48299525795882803,-0.48299525795882803,1.0000909778257991,0.00023488719808734487
-0.4828651722615177,-0.4828651722615177,0.9999760907734334,0.0002865289519599132
-0.482798129467119,-0.482798129467119,1.00011156406114,0.0003339695744539874
-0.4826548365461349,-0.4826548365461349,1.0001331127078477,0.00026169589480363174
-0.482422947161831,-0.482422947161831,0.9999619961208561,0.0002520428372423744
-0.48229184423253174,-0.48229184423253174,1.0002572527104416,0.00032774941196639937
-0.4821941299320315,-0.4821941299320315,1.00019943245444,0.00025383421877771587
-0.4821032919746358,-0.4821032919746358,1.000167356534328,0.00024901442218627816
-0.4819790229812497,-0.4819790229812497,1.0002519542398653,0.0002513140054197118
-0.4818877741774486,-0.4818877741774486,0.9998419452077008,0.00028946260325910954
-0.4817547249775089,-0.4817547249775089,0.9999038118503483,0.0003256800491946455
-0.48164875167713034,-0.48164875167713034,1.0002973368379016,0.00026629033902192715
-0.48150189859588866,-0.48150189859588866,1.0002644384328767,0.00028987773373061486
-0.481358477845788,-0.481358477845788,1.0001592086427644,0.00025705324705814465
-0.4811549518402899,-0.4811549518402899,0.9997030690859262,0.0002567649741425273
-0.48103563137119637,-0.48103563137119637,1.0001867057949112,0.000267664391703506
-0.4809715811745264,-0.4809715811745264,1.000502241911083,0.00025514635509114967
-0.48088776630174834,-0.48088776630174834,0.999970505336587,0.0002517093059485437
-0.48080143337356274,-0.48080143337356274,0.9997179007984156,0.00035201610269603746
-0.48076018760766603,-0.48076018760766603,1.0000552602871018,0.0002764299363049032
-0.4807053179749346,-0.4807053179749346,1.0005641649670243,0.0002466753476052713
-0.48064989295380656,-0.48064989295380656,1.0001586642929128,0.00026393829043398754
-0.48051050320937067,-0.48051050320937067,1.0003938550066938,0.0002629628249877098
-0.48029717881872785,-0.48029717881872785,1.000382675353059,0.0003556550674803946
-0.48022791858165875,-0.48022791858165875,1.0001497942686166,0.00025163611419613786
-0.4800960437838512,-0.4800960437838512,0.9998700204489976,0.0002534723350840572
-0.47993373989593235,-0.47993373989593235,1.0002192869272437,0.00025375887151373204
-0.4798432333613164,-0.4798432333613164,1.0000179583417435,0.0002640866907924438
-0.47979033776864527,-0.47979033776864527,0.9999476567585894,0.00031241546420369086
-0.4796300944828545,-0.4796300944828545,1.0000546677018944,0.000248028070268951
-0.479486973809253,-0.479486973809253,1.0001735807564964,0.0002900245955813589
-0.47934596535051244,-0.47934596535051244,1.00021243684396,0.0002559332312751661
-0.47921230925276176,-0.47921230925276176,0.9996510989473462,0.0002602275854084914
-0.47906957797385985,-0.47906957797385985,1.00000346033769,0.0002981518033249225
-0.47897123420625576,-0.47897123420625576,0.9999532330022791,0.0002624614360693464
-0.4789238621364348,-0.4789238621364348,0.9999438719985798,0.00024185642723270905
-0.47887399793544316,-0.47887399793544316,0.9998229146285403,0.00026568928767073727
-0.47874292722772227,-0.47874292722772227,1.0003410821494438,0.00025551036480746974
-0.47863194993915387,-0.47863194993915387,0.9996434641774391,0.0002571064767972114
-0.4785098789594485,-0.4785098789594485,1.000526476835699,0.00025310532758105614
-0.4783795319766796,-0.4783795319766796,0.9999675313315649,0.0002590534260087714
-0.478209106905706,-0.478209106905706,0.9998608552187725,0.0002692651395062893
-0.4780613065340731,-0.4780613065340731,0.9998726461432679,0.0002957139868513602
-0.47783365488649,-0.47783365488649,0.9995900537575226,0.000255894402084086
-0.4776649563231331,-0.4776649563231331,0.9994422310184611,0.0002897886017546608
-0.47746816650687834,-0.47746816650687834,0.9999159986555564,0.00029360778902366117
-0.47731399201366004,-0.47731399201366004,0.9998910034842685,0.00024008534883939855
-0.47716269216907675,-0.47716269216907675,1.0001563147340102,0.00025411782072590823
-0.47705476211413045,-0.47705476211413045,0.9997537384556419,0.00033392553019838
-0.4769107941137918,-0.4769107941137918,1.0000249824778222,0.00026567834551154205
-0.4767735449859174,-0.4767735449859174,1.000090019183458,0.0002407087842836806
-0.476674235338578,-0.476674235338578,0.9998820588124501,0.00024757693567800833
-0.47653643812955127,-0.47653643812955127,0.9999787548042256,0.0002956412229299134
-0.47647914187982676,-0.47647914187982676,1.0001276766512608,0.0002728426440343207
-0.47638068460000793,-0.47638068460000793,0.9999093132317537,0.0002426046385866542
-0.4762426613822754,-0.4762426613822754,1.0001186428187556,0.0002503783149908275
-0.47613204090084765,-0.47613204090084765,0.9999833012536975,0.0003255803141161241
-0.4760345001966925,-0.4760345001966925,1.0002462519232593,0.0002852686986777089
-0.475895472078264,-0.475895472078264,0.9998568106669815,0.0002607768731828873
-0.4756541346818267,-0.4756541346818267,1.000017862392974,0.0002995494357676368
-0.4754987725500541,-0.4754987725500541,0.9997045595346853,0.0002964899798246249
-0.4753440969980147,-0.4753440969980147,1.0001100614568905,0.0002538286362182151
-0.47517859311265054,-0.47517859311265054,1.000217253558695,0.00025774694882608454
-0.4750703231198713,-0.4750703231198713,0.9999502383002781,0.0002990201334904041
-0.47503714771155503,-0.47503714771155503,0.9998183088829317,0.00031842958842789485
-0.4749685394592234,-0.4749685394592234,0.9998770624349549,0.0002615088794286879
-0.47483707476421844,-0.47483707476421844,0.9999592390309437,0.0002570355772181332
-0.47464785252159347,-0.47464785252159347,1.0001008708311099,0.00025229687909148325
-0.4745280622235441,-0.4745280622235441,0.9999549072626642,0.0002640535229804079
-0.47444222835256367,-0.47444222835256367,0.9998230554726601,0.0002487162927026651
-0.4742923199861252,-0.4742923199861252,1.0002427463982468,0.00025552938985989507
-0.47418720361965827,-0.47418720361965827,0.9998136110311199,0.00025137058771998775
-0.4741245979887026,-0.4741245979887026,1.0003024858814369,0.00026040044309568936
-0.47406188067398036,-0.47406188067398036,1.0004272010469903,0.0003263628526867922
-0.47395665248768637,-0.47395665248768637,0.9997942712247052,0.00024765376785984404
-0.47376492526746006,-0.47376492526746006,1.0002545029400758,0.0003013789860590198
-0.4735773963351676,-0.4735773963351676,1.0002607433236168,0.0002589664999103999
-0.47345161025732524,-0.47345161025732524,1.0002707802920523,0.00024526372379419744
-0.47328916450642283,-0.47328916450642283,1.0001026733269718,0.0002850944865320441
-0.4732044583208335,-0.4732044583208335,0.9999689598018431,0.00025346121394651466
-0.47315685942885466,-0.47315685942885466,1.000047420160951,0.00026843337954217183
-0.4730606495017128,-0.4730606495017128,0.9999522846255836,0.00029489486989727116
-0.47297046162784684,-0.47297046162784684,0.9998708360918652,0.0002548342886788853
-0.4728427977213869,-0.4728427977213869,1.0001435577318971,0.0002593921018089771
-0.4727580962011416,-0.4727580962011416,1.0002399027101028,0.00024499297081040437
-0.4726120616978733,-0.4726120616978733,0.9997995993746143,0.0002571371709239505
-0.4724605219613295,-0.4724605219613295,1.000040350630648,0.00029700463094044715
-0.47230607354213133,-0.47230607354213133,0.9997630078970463,0.0002586722473747692
-0.4721672408595623,-0.4721672408595623,1.0000632852756486,0.0002500467614608748
-0.4720749903310207,-0.4720749903310207,1.0000537443438096,0.00025964052865205605
-0.47192687477945583,-0.47192687477945583,1.0000205308834493,0.00029485822178622274
-0.47182963476952866,-0.47182963476952866,0.9999059909618275,0.00026504674192472777
-0.4716982079888112,-0.4716982079888112,0.9994986304902639,0.0003023189565781374
-0.471437199592765,-0.471437199592765,1.0001460763543444,0.00032455339842653774
-0.47125202243332753,-0.47125202243332753,0.9999158124505387,0.00029779512445910416
-0.47111570191482316,-0.47111570191482316,1.0003038227043497,0.00026333081494031845
-0.4709117193873681,-0.4709117193873681,0.9999961247691935,0.0002548636117173753
-0.47082619838256506,-0.47082619838256506,1.0001359288693732,0.00025762241108567255
-0.4707612523794523,-0.4707612523794523,0.9999773319860713,0.0003748188599899108
-0.47067971465512526,-0.47067971465512526,1.0000754757863723,0.00024107192100454952
-0.470595043864887,-0.470595043864887,1.0001858000551902,0.00024767443288734704
-0.4704978401328844,-0.4704978401328844,0.9999976348551298,0.00029445378823146303
-0.4703893381556554,-0.4703893381556554,1.0000188359027402,0.00028940453764461204
-0.47025764414429433,-0.47025764414429433,0.9999085338510291,0.0003455510088742267
-0.4700509474532737,-0.4700509474532737,0.9997758685924911,0.0003037825785131269
-0.469839586494345,-0.469839586494345,0.9999974183078153,0.0002502406554475763
-0.4697135704365792,-0.4697135704365792,0.9999727004117395,0.0002928368409192483
-0.4695923899562331,-0.4695923899562331,1.0005693607275252,0.00028412400881776907
-0.46940776373667176,-0.46940776373667176,0.9997164603539636,0.0003033833064602044
-0.4693141170748277,-0.4693141170748277,0.9999100286079587,0.0003557526054047579
