time,time,flux,flux_err
-0.4994775892409393,-0.4994775892409393,0.9983110888261758,0.00029759696884101714
-0.49842724887770373,-0.49842724887770373,0.9970800724132104,0.00030829019904078816
-0.49717139131432003,-0.49717139131432003,0.9969763251166747,0.0003607128302103313
-0.49669243784890116,-0.49669243784890116,1.0008379738502577,0.00027685238068991716
-0.49599857400849034,-0.49599857400849034,0.9958074739105853,0.0002770757713579246
-0.49490539410985546,-0.49490539410985546,1.0001689351766658,0.00027702230682186325
-0.49400885203208417,-0.49400885203208417,0.996889382412405,0.00034430183770248234
-0.4935691143438817,-0.4935691143438817,1.000490709682203,0.00027678251163651575
-0.49287527388496527,-0.49287527388496527,0.9978529475968043,0.00027726759570691727
-0.49178207295901755,-0.49178207295901755,0.9999277585779296,0.00027700371725611686
-0.4908855036294426,-0.4908855036294426,0.9969305381113317,0.00034828436667131346
-0.4904457908892937,-0.4904457908892937,0.999507798725938,0.0002767276849316196
-0.4897519738116671,-0.4897519738116671,0.999774009755168,0.0002774247297010227
-0.4886587518416491,-0.4886587518416491,1.0001710325730564,0.0002771014892689962
-0.4877621552521532,-0.4877621552521532,0.9976645031740802,0.0003525862176929173
-0.48732246751835645,-0.48732246751835645,1.000154378076714,0.00027669025761271876
-0.48662867380539865,-0.48662867380539865,1.0005465178938384,0.0002774327385344976
-0.48553543076614003,-0.48553543076614003,0.9996217722272617,0.00027698274007776166
-0.4846388068579017,-0.4846388068579017,0.9991371700805551,0.00035712610755761514
-0.4841991441643131,-0.4841991441643131,0.9995319660587384,0.00027669895962687365
-0.4835053737991302,-0.4835053737991302,1.000505238612541,0.00027743872238125905
-0.48241210974929344,-0.48241210974929344,0.9999741249425729,0.00027705114846257513
-0.48151545845537386,-0.48151545845537386,1.0001297257238597,0.0003620156582023618
-0.4810758208185234,-0.4810758208185234,0.9998792508449164,0.00027668208429143515
-0.48038207387662624,-0.48038207387662624,1.0001255971169283,0.000277336622321077
-0.47928878875766256,-0.47928878875766256,1.0003380920300717,0.0002770698498125033
-0.47839211006951243,-0.47839211006951243,1.0009235850555034,0.00036727244700156123
-0.47795249753146435,-0.47795249753146435,1.0002405940315064,0.0002766818704467083
-0.47725877402112926,-0.47725877402112926,1.0003114209281252,0.00027741629792995133
-0.4761654677910201,-0.4761654677910201,0.9994253888297555,0.000277049302350182
-0.4752687616586627,-0.4752687616586627,1.0011265392902362,0.00037287659365603645
-0.47482917432805605,-0.47482917432805605,1.0003152875287855,0.00027673439100614125
-0.474135474140553,-0.474135474140553,1.000027925208267,0.0002773877944386049
-0.4730421468914983,-0.4730421468914983,1.0001594952697919,0.00027709791982253576
-0.4721454132476083,-0.4721454132476083,1.0003169527385842,0.0003787882450127402
-0.47170585112480695,-0.47170585112480695,0.9996847389972524,0.0002767025078901621
-0.4710121743269838,-0.4710121743269838,0.9993069541706519,0.0002772425990826776
-0.4699188260170331,-0.4699188260170331,0.9997259959131934,0.00027707924002292824
-0.46902206484503495,-0.46902206484503495,1.0007933448480575,0.00038508200972648613
-0.46858252798838296,-0.46858252798838296,1.00004656542689,0.00027673985712757407
-0.46788887452178185,-0.46788887452178185,0.9997198096428939,0.00027725675869154544
-0.4667955052012758,-0.4667955052012758,1.000209418422736,0.00027708363259511503
-0.465898716417405,-0.465898716417405,0.999891088873811,0.00039162357593078696
-0.46545920490241316,-0.46545920490241316,1.000421937661356,0.0002767541502132848
-0.4647655747920226,-0.4647655747920226,1.0000145068892137,0.00027731085643752264
-0.4636721844106887,-0.4636721844106887,1.0004163765361138,0.0002771734502952791
-0.46277536798963864,-0.46277536798963864,0.9998960778250712,0.0003983866129709441
-0.462335881841409,-0.462335881841409,1.0000777019392062,0.00027672924508927816
-0.46164227511239914,-0.46164227511239914,0.9999905385799186,0.00027731943944661163
-0.4605488636703285,-0.4605488636703285,1.0002837202901915,0.00027710220284559166
-0.45965201955368684,-0.45965201955368684,1.0005142984749382,0.000405414190020441
-0.4592125588224235,-0.4592125588224235,1.000056745467587,0.0002767528005462427
-0.45851897548311626,-0.45851897548311626,0.9999028083148266,0.0002773160753055101
-0.45742554294668025,-0.45742554294668025,0.9995278904411948,0.0002770640828038442
-0.45652867108397005,-0.45652867108397005,1.0000989871609924,0.0004125715915407935
-0.45608923587881234,-0.45608923587881234,0.99994136975571,0.00027676400757646255
-0.45539567588734825,-0.45539567588734825,1.000127620339783,0.0002773354119510063
-0.4544004779341776,-0.4544004779341776,0.9999396546308363,0.0002955997098399821
-0.453496636882096,-0.453496636882096,0.9992274898795139,0.00042002419161090083
-0.45307957411380356,-0.45307957411380356,0.9998763317125791,0.00027282637031350853
-0.45243480712092604,-0.45243480712092604,1.0005065324874394,0.00027713479505052835
-0.4514361698620405,-0.4514361698620405,1.0001676455816166,0.00028091444404920854
-0.45037330164036576,-0.45037330164036576,0.9994043876854976,0.0004273213252929905
-0.44995621615253184,-0.44995621615253184,0.9997445917761523,0.00027283596402875805
-0.4493115000273747,-0.4493115000273747,0.9995419088180091,0.00027702169921742595
-0.4483128787609303,-0.4483128787609303,1.0000086133831805,0.00028088109541974185
-0.4472499663651888,-0.4472499663651888,0.9999401823490865,0.0004346856039991271
-0.4468328582500817,-0.4468328582500817,1.0002780746535396,0.0002728444517183927
-0.4461881929337551,-0.4461881929337551,1.0000287437129856,0.00027707002185227013
-0.44518958765986555,-0.44518958765986555,0.9999447693589945,0.00028088376318093566
-0.4441266310816673,-0.4441266310816673,1.0005203033300814,0.0004422021046765241
-0.44370950038935464,-0.44370950038935464,0.9997792914932848,0.00027278782609397526
-0.44306488592394544,-0.44306488592394544,0.9997324785066957,0.00027706981777313763
-0.4420662966090731,-0.4420662966090731,0.9999680388368578,0.0002808685962996431
-0.44100329578138825,-0.44100329578138825,0.9998790653659055,0.0004500792440351095
-0.4405861425706689,-0.4405861425706689,0.9997357972293213,0.00027282921103582373
-0.43994157893935154,-0.43994157893935154,1.0001807197376251,0.00027705284126349367
-0.43894300559168187,-0.43894300559168187,0.9998537964455014,0.0002808911705438488
-0.4378799604895221,-0.4378799604895221,0.9996040779138287,0.00045821606962256857
-0.437462784810441,-0.437462784810441,1.0002472541120646,0.000272934125130608
-0.4368182720217419,-0.4368182720217419,1.0000371931026302,0.0002770699740003566
-0.43581971459950636,-0.43581971459950636,1.0003121909136776,0.0002808969315605664
-0.43475662514724717,-0.43475662514724717,1.0006321443163677,0.00046736622756458326
-0.4342277894026438,-0.4342277894026438,1.0002320260340387,0.000272630366624347
-0.43353257982269044,-0.43353257982269044,0.9998494530583912,0.0002772942736021411
-0.4326206427296938,-0.4326206427296938,1.0003985892142573,0.0002809348294114439
-0.43163328985533556,-0.43163328985533556,0.998851724688716,0.000480163629954705
-0.4311044290959444,-0.4311044290959444,0.9997868656551476,0.0002726689448645277
-0.43040928057037037,-0.43040928057037037,0.9999947711871429,0.0002772835787442238
-0.42931565845299247,-0.42931565845299247,0.9998046409627062,0.00027704887919963406
-0.42850649153331233,-0.42850649153331233,0.9988963461770153,0.0005024690168505582
-0.42798106883083165,-0.42798106883083165,1.0002232727347193,0.0002726946178944208
-0.427310134485424,-0.427310134485424,0.9998852490385957,0.00027731124707676023
-0.4264498419497613,-0.4264498419497613,0.9997023155615523,0.00028086068884161777
-0.42532410498049555,-0.42532410498049555,1.0001549635366387,0.0002689140423012157
-0.4248577085994384,-0.4248577085994384,0.9999873078283276,0.00027265201925389776
-0.4241868303407955,-0.4241868303407955,1.0002971735292072,0.0002773788437274359
-0.4233265511168156,-0.4233265511168156,1.0003487557590458,0.0002809131305904908
-0.4222007246179828,-0.4222007246179828,1.0000160015957786,0.0002689468083711157
-0.42173434846001784,-0.42173434846001784,1.000054953318155,0.00027264869632462617
-0.42106352626310584,-0.42106352626310584,1.0003137081475044,0.00027734616113301696
-0.4202032603507405,-0.4202032603507405,0.999974025122467,0.000280949740341292
-0.4190773442975114,-0.4190773442975114,1.0002945324200347,0.00026895329286513557
-0.418610988345813,-0.418610988345813,0.9998885130869392,0.00027266292853589657
-0.41794022221879457,-0.41794022221879457,1.0000153808316972,0.00027734846899945653
-0.41707996963500593,-0.41707996963500593,1.0000182687375363,0.00028093921984199586
-0.41595396401887685,-0.41595396401887685,0.9997949994675619,0.00026894227280352216
-0.4154876282651003,-0.4154876282651003,0.9999540076137443,0.0002727143726356931
-0.4148169182082711,-0.4148169182082711,1.0001646986394601,0.00027744967199469354
-0.41395667892763865,-0.41395667892763865,1.0002922172811795,0.00028096106800218356
-0.41283058374019677,-0.41283058374019677,1.0000506294584524,0.0002689433011287997
-0.41236426820128147,-0.41236426820128147,1.0000381647362917,0.00027267768876852543
-0.411693614247838,-0.411693614247838,0.9993736787702454,0.0002773771264794647
-0.41083338827891114,-0.41083338827891114,1.0000093088293,0.0002809182294394663
-0.40970720354546303,-0.40970720354546303,1.000033726789178,0.00026893683572196077
-0.4092409082460563,-0.4092409082460563,0.9999625018845164,0.0002727455299961914
-0.40857031031248425,-0.40857031031248425,1.0000950202751735,0.0002773731825076532
-0.4077100976470319,-0.4077100976470319,0.9999717360552711,0.00028090131800470987
-0.40658382339238414,-0.40658382339238414,0.9998598346645264,0.0002689239982128689
-0.4061175483079751,-0.4061175483079751,1.0000166770023842,0.00027268803577441066
-0.40544700644429665,-0.40544700644429665,1.0001281278846157,0.00027740594882589913
-0.40458680707363326,-0.40458680707363326,0.9999544789808205,0.0002809132388974846
-0.4034349827932829,-0.4034349827932829,0.9999657603727032,0.00026865929601701985
-0.40289471067619614,-0.40289471067619614,1.000002903126067,0.0002729659310845119
-0.4023237026094876,-0.4023237026094876,0.9997243135050173,0.00027734502497790437
-0.4014635165506434,-0.4014635165506434,0.9996214474420269,0.00028087158651650293
-0.4003116061420087,-0.4003116061420087,1.0000898506170888,0.00026867446970696315
-0.39973365636808467,-0.39973365636808467,0.9998333142786315,0.0002729943556511936
-0.39906220412965465,-0.39906220412965465,1.000134637495838,0.0002811634274314301
-0.39808245730705494,-0.39808245730705494,0.9997066581306921,0.0002771235506782897
-0.39709299597568587,-0.39709299597568587,1.000056950738265,0.0002724982599150351
-0.3964752500042323,-0.3964752500042323,0.9999517403531002,0.00027291838576438195
-0.39578972931092266,-0.39578972931092266,1.0002360979685765,0.00028105393281289417
-0.3949476937524878,-0.3949476937524878,1.0002414532331347,0.0002734445461610851
-0.39396962721598355,-0.39396962721598355,0.9999475992600205,0.00027247810573245284
-0.39335191958807625,-0.39335191958807625,0.9999242984202212,0.00027295559945732787
-0.3926664448364363,-0.3926664448364363,1.0001013148003621,0.00028113727970852234
-0.39177436829127144,-0.39177436829127144,0.9998293115337177,0.0002734506419425917
-0.39084625849814075,-0.39084625849814075,0.999842516994631,0.0002724550663771157
-0.39022858921364334,-0.39022858921364334,1.0001321186859937,0.0002729270005956906
-0.3895431603116094,-0.3895431603116094,0.9997575973142089,0.0002811116092398168
-0.3884526014849598,-0.3884526014849598,0.9997934364200368,0.00027334622598755473
-0.387671430221053,-0.387671430221053,0.9997659179973388,0.0002725324148607209
-0.3871052588895282,-0.3871052588895282,0.9999573630406614,0.00027293387034612974
-0.38641987582866477,-0.38641987582866477,1.000255232609629,0.00028112408692259336
-0.38532926017805946,-0.38532926017805946,1.000016833828219,0.0002733275359154639
-0.3844981748702594,-0.3844981748702594,1.000261217371042,0.0002726212348140627
-0.3838278562990354,-0.3838278562990354,1.0002854564014658,0.000272971599511563
-0.38325066533739116,-0.38325066533739116,1.0002252668264333,0.00028102365209147986
-0.38220591890462857,-0.38220591890462857,1.0006371267611227,0.0002733413205860537
-0.38137480372297433,-0.38137480372297433,1.0003168439243548,0.0002726298701096208
-0.3807045391190968,-0.3807045391190968,0.9998818170708879,0.00027296317724524483
-0.38012736169532674,-0.38012736169532674,0.9999663671193199,0.0002809886026091788
-0.37908257768149267,-0.37908257768149267,1.0000345383434317,0.0002733043441526978
-0.37817848625861644,-0.37817848625861644,0.9999299983784118,0.00027275728485583585
-0.37747544841092806,-0.37747544841092806,1.0007788337147556,0.0002771268445143378
-0.3768640789812935,-0.3768640789812935,0.9998092818559629,0.0002808838283823768
-0.3756853611217593,-0.3756853611217593,1.000176032257985,0.0002690252862853709
-0.37491023617542396,-0.37491023617542396,0.9999267114262753,0.0002767547730343267
-0.37424048015191147,-0.37424048015191147,0.9998659652041016,0.0002733704699181073
-0.3736238517800302,-0.3736238517800302,1.000134012273038,0.00028103206358614315
-0.37230500024363666,-0.37230500024363666,0.99978125431685,0.0002728355641006192
-0.371760591985867,-0.371760591985867,0.9998314965480741,0.0002726213377666813
-0.37111713562812837,-0.37111713562812837,0.9998432165289832,0.00027333569295371235
-0.3705005751383851,-0.3705005751383851,0.9995503320777711,0.0002810617570305907
-0.36918164815494947,-0.36918164815494947,0.9999466192542716,0.00027287361343808774
-0.368500162272403,-0.368500162272403,0.9997164299974269,0.00027294045628701577
-0.3678799799130729,-0.3678799799130729,1.0000220118332863,0.00027726449556439946
-0.3672533676580997,-0.3672533676580997,1.000376242380351,0.00027692018256155214
-0.3660582960998454,-0.3660582960998454,1.0000186162758173,0.0002728613341494994
-0.3653768131410288,-0.3653768131410288,1.0000479773610336,0.0002729592907749756
-0.3647062218662313,-0.3647062218662313,0.9999909972172445,0.0002811799930996632
-0.3640805440136091,-0.3640805440136091,0.9999527422112472,0.00027288726473273105
-0.3629349440698434,-0.3629349440698434,0.9997666256206346,0.0002729227450033238
-0.36225346400954095,-0.36225346400954095,1.0001365938070315,0.000272997776094875
-0.36158295099664883,-0.36158295099664883,1.000242497112915,0.0002812084633487413
-0.36093219616582245,-0.36093219616582245,0.9999673883032905,0.0002728966268441493
-0.3598115921236058,-0.3598115921236058,1.000342562307948,0.0002729794963759741
-0.35913011496188574,-0.35913011496188574,0.9997526191265411,0.00027293572378063273
-0.358459680160513,-0.358459680160513,0.9994940438857569,0.0002811677110704812
-0.3578088360097354,-0.3578088360097354,0.9999050122247123,0.0002728885060503931
-0.3566882401857129,-0.3566882401857129,1.0000570119153271,0.0002729801669397795
-0.3560067659478136,-0.3560067659478136,0.9999954160113095,0.00027294514258879876
-0.3553364093830396,-0.3553364093830396,0.9999573636136354,0.0002812261531771758
-0.3546854758620611,-0.3546854758620611,0.9999825078549369,0.00027289187247976697
-0.35356488828974764,-0.35356488828974764,1.0004234412743152,0.0002730653262931643
-0.35288341697551007,-0.35288341697551007,0.9999810004061291,0.00027296718150973556
-0.3522131386055662,-0.3522131386055662,1.000064486138297,0.00028123514012136
-0.3515621157729811,-0.3515621157729811,0.9998346036845781,0.00027283159822047843
-0.350441536444032,-0.350441536444032,0.9997968330659284,0.00027305855407465726
-0.3497600680618689,-0.3497600680618689,1.0000508768900385,0.0002729742540449176
-0.349089867886687,-0.349089867886687,1.0003802646872255,0.00028120834522446004
-0.3484387557174614,-0.3484387557174614,1.00002367652491,0.0002728876266943669
-0.34731818462341835,-0.34731818462341835,0.9999444470044857,0.0002731334682548814
-0.3466367191818108,-0.3466367191818108,1.00013044437455,0.00027294998062997537
-0.3459665972013909,-0.3459665972013909,0.9998910920865022,0.0002811639014408539
-0.3453153957205359,-0.3453153957205359,1.0002684967891469,0.00027283671829234286
-0.34419483286153535,-0.34419483286153535,0.9999106641178541,0.0002731780770739739
-0.3435133703435895,-0.3435133703435895,1.0002559474527668,0.0002729508305582713
-0.3428433265663443,-0.3428433265663443,0.9999038873014594,0.0002811415667962321
-0.34219203574034507,-0.34219203574034507,0.9997733724391293,0.0002728867553535184
-0.34107148113316726,-0.34107148113316726,0.999418443024428,0.00027319752727104007
-0.3403900215472504,-0.3403900215472504,1.000084923453254,0.0002730083469783319
-0.33972005596488086,-0.33972005596488086,0.9998850604510233,0.00028117045063472015
-0.3390686758188849,-0.3390686758188849,1.0003782797046343,0.00027286568485336755
-0.33794812940466273,-0.33794812940466273,1.000274163439666,0.00027331710541351627
-0.3372666728346303,-0.3372666728346303,1.000409370366198,0.0002730110475655642
-0.33659678538836035,-0.33659678538836035,0.9999714045258082,0.0002811464005909687
-0.3359453159308032,-0.3359453159308032,0.9999627358714808,0.00027283921065649993
-0.33482477779357395,-0.33482477779357395,0.9997991116229583,0.00027337654293872196
-0.33414332414729414,-0.33414332414729414,0.9995086091128578,0.0002729172016043444
-0.33347351486231674,-0.33347351486231674,1.0003791101766168,0.0002812133336255614
-0.3328219560931075,-0.3328219560931075,0.9999027806132161,0.00027279663321462484
-0.3317014261824852,-0.3317014261824852,1.0000063073740288,0.00027344807420193656
-0.3310199754849691,-0.3310199754849691,1.0000881702279574,0.0002730066816569247
-0.33035024438638627,-0.33035024438638627,0.9998541297234202,0.00028123454566777594
-0.3296985962889266,-0.3296985962889266,0.9998930847823191,0.00027282723378267866
-0.3285780745797638,-0.3285780745797638,1.0004353697070805,0.0002735624908140589
-0.3278966269064313,-0.3278966269064313,0.9997419976577611,0.00027292726468721394
-0.32722697396079636,-0.32722697396079636,1.0001825288832769,0.0002812309854752542
-0.3265752365432945,-0.3265752365432945,0.9999539855243345,0.00027285505502959895
-0.3254547230690605,-0.3254547230690605,0.999651483855966,0.0002735300377822111
-0.3247732783530182,-0.3247732783530182,0.9998837513379844,0.0002729763318786719
-0.32410370354346013,-0.32410370354346013,0.9997709679028741,0.00028110254866878465
-0.32345187680614346,-0.32345187680614346,0.9996557994977732,0.00027281221463182283
-0.32233137157525105,-0.32233137157525105,1.0000751651660098,0.00027363618026820494
-0.32164992983316554,-0.32164992983316554,0.9999704793070894,0.00027298318366989567
-0.32098043315140784,-0.32098043315140784,1.000154248360466,0.00028111337487855196
-0.32032851715252947,-0.32032851715252947,1.000003683358367,0.0002728497850324022
-0.3192080201148883,-0.3192080201148883,1.0001320529807052,0.0002737725234011369
-0.31852658136358514,-0.31852658136358514,1.000418761733821,0.00027305946447054143
-0.317857162859832,-0.317857162859832,1.0002086539783057,0.0002812027582307504
-0.317205157474109,-0.317205157474109,1.0001331837214114,0.00027283103858107894
-0.3160846687047297,-0.3160846687047297,0.9999738808778978,0.0002738352818872764
-0.31540323295264444,-0.31540323295264444,0.9998713319384815,0.00027299629120972003
-0.31473389258494533,-0.31473389258494533,0.9997533662166782,0.0002811095053749281
-0.3140817979462781,-0.3140817979462781,1.0002787098456134,0.00027284836681139513
-0.31296131731151033,-0.31296131731151033,0.9999807782576964,0.00027386308768915076
-0.312279884583495,-0.312279884583495,1.0001648331338149,0.00027303960113949835
-0.3116106223186307,-0.3116106223186307,0.9999140907189625,0.0002811199553748616
-0.3109584383850688,-0.3109584383850688,1.0000537292033984,0.0002728381345415232
-0.3098379659935745,-0.3098379659935745,0.9997392496763835,0.00027395250211529373
-0.3091565362479969,-0.3091565362479969,1.0001623533052413,0.00027298951418769466
