time,time,flux,flux_err
-0.4992828758180622,-0.4992828758180622,0.9997777260128403,0.0003095925594255962
-0.49771540049277974,-0.49771540049277974,0.9996428000681146,0.0003111618507205379
-0.49621593658145,-0.49621593658145,0.9998446726387729,0.0003111648847998914
-0.49451141893937345,-0.49451141893937345,1.000311768994284,0.00030968692263133016
-0.4928348496086755,-0.4928348496086755,0.9996096711588816,0.00031119140464500966
-0.49133662453618854,-0.49133662453618854,0.9999124081945847,0.0003111678590572007
-0.4897817190658884,-0.4897817190658884,1.000965404213929,0.00031106347707315614
-0.48802067455256976,-0.48802067455256976,1.0001825198379164,0.00030941806926198005
-0.48645321338927944,-0.48645321338927944,1.0001562014757204,0.0003111512385974472
-0.4849356958977523,-0.4849356958977523,1.0002091615394577,0.00031097775171763637
-0.4831591642915214,-0.4831591642915214,0.9997213962621834,0.0003095912404846654
-0.48156505022141116,-0.48156505022141116,1.000039036736479,0.0003109482281739368
-0.4799739320051685,-0.4799739320051685,0.9998245383654364,0.00031115979611843114
-0.4783393272806961,-0.4783393272806961,1.0000278756093892,0.00031087274895339595
-0.4766683775585193,-0.4766683775585193,1.0001733257225773,0.00030955873271396484
-0.47506489105659283,-0.47506489105659283,1.000065336896451,0.0003109930460315104
-0.47342120305909247,-0.47342120305909247,0.9998045904607438,0.0003109421913955338
-0.47180691022988414,-0.47180691022988414,0.999995079912401,0.00030958045004737014
-0.4702127338401169,-0.4702127338401169,0.999851710954702,0.0003108901952928284
-0.46854960173960764,-0.46854960173960764,1.0002504184010026,0.0003111062322768935
-0.46698703256516866,-0.46698703256516866,0.999965409999431,0.0003109120257959143
-0.46540617833508124,-0.46540617833508124,1.0006133409307278,0.0003096211396921485
-0.46374864735727217,-0.46374864735727217,0.9998982819414147,0.00031099859726143735
-0.46215898286584434,-0.46215898286584434,1.0002969785013605,0.0003108579696162624
-0.46054475440963644,-0.46054475440963644,0.9994087775381452,0.00030954778284429744
-0.4589505159480723,-0.4589505159480723,1.0000335221875207,0.0003109598227283475
-0.45728744763588336,-0.45728744763588336,1.0001089785465385,0.00031110752785131157
-0.45572483601870317,-0.45572483601870317,0.9999061556501829,0.00031079633156214364
-0.4541439802050832,-0.4541439802050832,0.9999962067821162,0.0003095425228486532
-0.45248646313538077,-0.45248646313538077,0.999926155200116,0.00031093953838775076
-0.4508967631922928,-0.4508967631922928,0.9998610089763094,0.00031074275379948933
-0.44928259966496853,-0.44928259966496853,1.0001478050078845,0.0003096802720678565
-0.44768829902266133,-0.44768829902266133,0.9998975048857591,0.00031079025016339176
-0.44598925543907625,-0.44598925543907625,0.9998662698693135,0.000310977449870349
-0.44444262805363904,-0.44444262805363904,1.0005665125402698,0.00030942632460115847
-0.4428116976385354,-0.4428116976385354,0.9998278854958631,0.00031084687483250254
-0.44113418236984214,-0.44113418236984214,1.000367018548857,0.000310914386163253
-0.4395444465879564,-0.4395444465879564,1.0001320004354535,0.00031077644038913376
-0.43802044597143774,-0.43802044597143774,1.0002346151524801,0.000309691944853933
-0.4363359855897329,-0.4363359855897329,0.9999664519310331,0.00031072527327162785
-0.434673044648639,-0.434673044648639,0.9998255931904708,0.00033353410464928297
-0.43351558480101177,-0.43351558480101177,1.0001551307571706,0.0003096500205182016
-0.4317409838153594,-0.4317409838153594,0.9999069160682087,0.0003330125490192041
-0.43015620830897205,-0.43015620830897205,1.000236319565753,0.0003106170278873317
-0.42855230049817694,-0.42855230049817694,0.9999534648293442,0.00032328201882721413
-0.42687343465627237,-0.42687343465627237,0.9996062932404776,0.0003239795851578192
-0.42528309594432584,-0.42528309594432584,1.0003207088358859,0.0003104268045207261
-0.4236360605159916,-0.4236360605159916,1.0003684135812596,0.00032379628849933575
-0.42202810421663345,-0.42202810421663345,0.9999427127134751,0.0003224076747888636
-0.42043363661706507,-0.42043363661706507,1.0002580706394215,0.00032314715000584545
-0.41880390730398176,-0.41880390730398176,1.0000761421020172,0.0003104137337552668
-0.4171999451183524,-0.4171999451183524,0.9998366425734112,0.00032199362613785545
-0.41557234518226094,-0.41557234518226094,1.0000671967129293,0.00032268240966519204
-0.41400563592104617,-0.41400563592104617,1.0000907656680345,0.00031044255101569013
-0.4123738265539146,-0.4123738265539146,1.0001755890816733,0.00032265256148177794
-0.4107658696135445,-0.4107658696135445,0.9998743532664893,0.00032120931871158217
-0.4091713395071338,-0.4091713395071338,0.9999469726044632,0.00032190244810776253
-0.40754170364069753,-0.40754170364069753,0.9999639239236634,0.0003104253932498624
-0.4059376869470498,-0.4059376869470498,0.9998109885418878,0.00032078790249264735
-0.40431009129449647,-0.40431009129449647,0.9998304196782423,0.0003214542104087599
-0.4027433995359161,-0.4027433995359161,1.0003103332865888,0.0003104533278030094
-0.40111159306322863,-0.40111159306322863,1.000438558442298,0.00032148741617299555
-0.39950363562675195,-0.39950363562675195,1.00004079825142,0.00032015855141063
-0.3979090429168764,-0.3979090429168764,1.0000428630560378,0.00032095853042012583
-0.3962795006416968,-0.3962795006416968,1.000314112652339,0.0003105738707998656
-0.39467542927724253,-0.39467542927724253,0.999958123497812,0.00031996902910097296
-0.3930478379503711,-0.3930478379503711,1.000293067836965,0.00032064750930223815
-0.3914811638151946,-0.3914811638151946,0.9996446184010054,0.00031038580967723096
-0.3898493600133861,-0.3898493600133861,0.9997712322498984,0.0003206511788199909
-0.3882414022502189,-0.3882414022502189,0.9993571691666233,0.0003193530211308065
-0.3866467468702126,-0.3866467468702126,0.9995905546509093,0.0003200155872287825
-0.3850172982892673,-0.3850172982892673,1.0001368282370808,0.0003105438512734506
-0.38339515266361557,-0.38339515266361557,1.0004519171587218,0.0003192051391817811
-0.38177040664884315,-0.38177040664884315,1.0005492916733567,0.0003200294668764868
-0.3801440101301182,-0.3801440101301182,1.0004576474704057,0.0003105195243974566
-0.3784970302686702,-0.3784970302686702,1.0002921846433752,0.0003199803527014506
-0.37688907237795777,-0.37688907237795777,0.9995868501647449,0.0003187914298690633
-0.37538445135523946,-0.37538445135523946,0.9999617314455828,0.00031942785553346314
-0.3736649994836171,-0.3736649994836171,0.999341002253851,0.0003104172683158533
-0.37206081827567916,-0.37206081827567916,1.0004571066833947,0.0003186645672756459
-0.3705081656175707,-0.3705081656175707,0.9999025909073058,0.000319251028260895
-0.3688817645434824,-0.3688817645434824,0.9997369505908222,0.00031040793015889333
-0.3672347981251164,-0.3672347981251164,0.9998827178253877,0.0003192822024180258
-0.36562684023992914,-0.36562684023992914,0.9997514851655142,0.00031830938925396393
-0.36412215638408724,-0.36412215638408724,1.000533030354563,0.00031893649002614783
-0.36240279846637125,-0.36240279846637125,1.0002702159426289,0.0003105406031022515
-0.3607985621102898,-0.3607985621102898,1.0001659086043113,0.00031815806426126745
-0.35919186718662105,-0.35919186718662105,1.0002535870812432,0.0003187198821619909
-0.3576195196032586,-0.3576195196032586,1.0004265967789139,0.00031035953294962114
-0.35588246978221605,-0.35588246978221605,0.9998468039041285,0.00031876788601587744
-0.3542854061241997,-0.3542854061241997,0.9999447316685801,0.0003175822868768406
-0.3528489679400195,-0.3528489679400195,0.99937797074945,0.00031833322287519515
-0.3510505014669093,-0.3510505014669093,0.9998072045969411,0.00031041355027936894
-0.3494462097634369,-0.3494462097634369,0.9998665799118495,0.00031749900275791055
-0.34790873298430824,-0.34790873298430824,1.0003450314683298,0.00031817039061736864
-0.3463421310340209,-0.3463421310340209,1.000016250315292,0.00031031315294132545
-0.3446202385810352,-0.3446202385810352,0.9999409509134118,0.0003181947809900184
-0.34302312091630255,-0.34302312091630255,1.0002547989309973,0.00031709287719787005
-0.34158672844938565,-0.34158672844938565,1.0004634284708174,0.0003177562625312067
-0.339788301821261,-0.339788301821261,0.9999364874024532,0.00031039660550927906
-0.33818395460690454,-0.33818395460690454,0.9996310556607997,0.00031682678526309
-0.33664648245572837,-0.33664648245572837,0.9998760518847953,0.0003174811917559177
-0.33506187942646193,-0.33506187942646193,0.9999272517172939,0.00031031050529752285
-0.33326791117444826,-0.33326791117444826,1.0001832850319603,0.0003175174460450308
-0.3317608363063528,-0.3317608363063528,1.0002997431302103,0.0003163449321376105
-0.3302343929463859,-0.3302343929463859,0.9997416123652542,0.0003169737163948599
-0.328436006211507,-0.328436006211507,0.9999086228371337,0.0003104924091883525
-0.326862735896816,-0.326862735896816,1.0000054034398445,0.0003169339141137785
-0.3253530999032819,-0.3253530999032819,1.0003161285432673,0.00031609042381061653
-0.3237275705038428,-0.3237275705038428,0.999571451588497,0.0003102482382984574
-0.32200568092196136,-0.32200568092196136,1.0007043512737255,0.00031685797129984386
-0.3204985522884954,-0.3204985522884954,0.9999902568283984,0.00031570579019328884
-0.3189721547486329,-0.3189721547486329,0.9992229727357878,0.00031625783243087674
-0.31717380794927974,-0.31717380794927974,0.9997800442859758,0.00031041112890026353
-0.31560046160057026,-0.31560046160057026,1.0001861257304614,0.00031626333556658445
-0.3140908707739641,-0.3140908707739641,1.0001472962389566,0.00031545941721461293
-0.31246533964674655,-0.31246533964674655,0.9998692339261103,0.00031032569409746675
-0.31074345115281404,-0.31074345115281404,0.9998906378669681,0.0003161364345153966
-0.30923626889917843,-0.30923626889917843,0.999847741653469,0.00031500642661762485
-0.3077099171609916,-0.3077099171609916,1.000431971692482,0.0003156638330101375
-0.30591161038769316,-0.30591161038769316,0.9997079447050815,0.0003104213247761641
-0.3043381877694628,-0.3043381877694628,1.000244716335311,0.00031557824621943054
-0.3028286422971064,-0.3028286422971064,1.000484557498598,0.00031486648738936163
-0.30120310950842394,-0.30120310950842394,1.0004233260004445,0.0003103121343594916
-0.29948122187300896,-0.29948122187300896,0.9999350152354184,0.0003155243259768844
-0.29797398610766096,-0.29797398610766096,0.999852745380356,0.00031452952877633324
-0.29644768025004853,-0.29644768025004853,0.9999220159568605,0.00031520433450238784
-0.2946494135211424,-0.2946494135211424,0.9996253384373146,0.0003103525765619279
-0.29307591437950575,-0.29307591437950575,0.9997368738852085,0.0003152185629527348
-0.2915664144848279,-0.2915664144848279,0.9999046538545429,0.00031460193470246193
-0.28994088007100344,-0.28994088007100344,0.9998823409400629,0.0003102368345762065
-0.28821899308261434,-0.28821899308261434,0.9997807185186034,0.0003152006426439698
-0.28671170393873807,-0.28671170393873807,0.9995045044215747,0.0003143660973053488
-0.2851854439735234,-0.2851854439735234,1.000790412010042,0.00031515221241230256
-0.2833872173613372,-0.2833872173613372,1.00015723786846,0.00031037119052738406
-0.28181364147272914,-0.28181364147272914,1.0002389325960235,0.0003150860673280673
-0.280304187367301,-0.280304187367301,0.9999319542708681,0.00031450560585218377
-0.2786786513825518,-0.2786786513825518,0.999983314365233,0.00031017113307839247
-0.27695676478158476,-0.27695676478158476,1.0002426903601986,0.00031527996683995945
-0.2754494224462519,-0.2754494224462519,0.9993763743212402,0.000314262611387839
-0.27392320838567913,-0.27392320838567913,1.0004259364098311,0.00031495191639462436
-0.272125021908289,-0.272125021908289,1.0002887740258166,0.0003103788468652422
-0.27055136900713705,-0.27055136900713705,0.9998287157620084,0.000314992428059699
-0.26904196094455984,-0.26904196094455984,0.9998965234003123,0.0003143779879313394
-0.26741642342529987,-0.26741642342529987,0.9999454884685159,0.00031013749727409656
-0.26569453698197093,-0.26569453698197093,0.9999256730228383,0.0003150564785130318
-0.26418714156422995,-0.26418714156422995,0.9999346304693366,0.00031426751839360866
-0.2626609734442923,-0.2626609734442923,1.0001352683822549,0.00031490717918408826
-0.26086282721072396,-0.26086282721072396,0.9997837220895753,0.0003103868065068738
-0.25928909703688985,-0.25928909703688985,1.0001626320291546,0.0003148886987129715
-0.2577797352227435,-0.2577797352227435,1.000323689063997,0.00031433834276090733
-0.256154196205091,-0.256154196205091,0.999923333220389,0.00031016369595951096
-0.2544323097018605,-0.2544323097018605,0.9996606971090453,0.00031498709456142355
-0.2529248613283812,-0.2529248613283812,1.00009672965315,0.0003140874772059224
-0.2513987391856404,-0.2513987391856404,0.999820040724629,0.00031468993279227685
-0.24960063321383358,-0.24960063321383358,1.0000480847411317,0.0003103022919243885
-0.24802682551970748,-0.24802682551970748,1.0003808116564343,0.0003147804917373777
-0.24651751020760457,-0.24651751020760457,0.9995241583295259,0.00031413558426685224
-0.24489196974611788,-0.24489196974611788,1.0001339168815218,0.00031017634331840973
-0.24317008288712713,-0.24317008288712713,1.000288161856822,0.0003149543161256082
-0.24166258175724806,-0.24166258175724806,0.9999323261747286,0.00031405158801506766
-0.24013650562784505,-0.24013650562784505,0.9996502166230478,0.0003145537849108778
-0.23833843995395226,-0.23833843995395226,1.0003097398740661,0.0003102996658534339
-0.23676455448586467,-0.23676455448586467,0.9998382808974767,0.0003146137246561534
-0.2352552859175944,-0.2352552859175944,1.0002623716827592,0.0003141311212070197
-0.23362974402440387,-0.23362974402440387,0.9995963574953605,0.00031008857157181476
-0.23190785662202415,-0.23190785662202415,1.0001782707554494,0.0003147755310539222
-0.23040030283847274,-0.23040030283847274,1.000122869198338,0.00031393831503213405
-0.22887427275878736,-0.22887427275878736,0.9999970526747782,0.00031450444091777853
-0.22707624743107999,-0.22707624743107999,0.9998297421135593,0.00031023451135532576
-0.2255022839173762,-0.2255022839173762,0.9999399716567687,0.0003144590008032404
-0.22399306236461597,-0.22399306236461597,1.0000852596734238,0.00031396945764338514
-0.22236751906360724,-0.22236751906360724,0.9999789504005043,0.0003100464105976467
-0.22064563085232294,-0.22064563085232294,1.0002979310628564,0.00031466049584525225
-0.21913802457831935,-0.21913802457831935,1.0003944184497129,0.000313845961942068
-0.21761204060859426,-0.21761204060859426,0.999697701440698,0.00031431913483039443
-0.21581405564544412,-0.21581405564544412,0.9997002626798375,0.00031027003375337376
-0.21424001386226338,-0.21424001386226338,0.999350543748436,0.00031424235007625125
-0.21273083954275762,-0.21273083954275762,1.0001003953651684,0.0003138707885650245
-0.2111052949004943,-0.2111052949004943,1.0001995367008842,0.0003100701834640857
-0.20938340561444874,-0.20938340561444874,1.0006442712547268,0.00031449470803860573
-0.20787574703108475,-0.20787574703108475,0.9999715229155761,0.00031364167893439034
-0.20634980915328924,-0.20634980915328924,1.0001655215035445,0.00031412898112189743
-0.20455186465125053,-0.20455186465125053,0.9995963795568323,0.0003101541951896126
-0.20297774428443063,-0.20297774428443063,1.0000250368958419,0.0003140510450370344
-0.201468617469925,-0.201468617469925,1.0000049215893108,0.0003136487238691248
-0.19984307148042718,-0.19984307148042718,0.9999735611936827,0.0003100205727381563
-0.19812118091418823,-0.19812118091418823,0.9999391408997373,0.0003140624488815784
-0.19661347011203817,-0.19661347011203817,1.0000055470086047,0.00031337208737170256
-0.19508757843479999,-0.19508757843479999,0.9995681270906023,0.00031364216097325197
-0.19328967440602582,-0.19328967440602582,0.9995658122272021,0.0003101383249137079
-0.1917154751960993,-0.1917154751960993,1.0006484914803946,0.0003137942740755894
-0.19020639614624316,-0.19020639614624316,1.0001476032733632,0.00031337490787623225
-0.18858084885189327,-0.18858084885189327,0.9998605867684829,0.0003100550007638377
-0.18685895672150538,-0.18685895672150538,1.000230535676582,0.0003137246472936699
-0.18535119396660776,-0.18535119396660776,0.9995295410809177,0.00031297003870700237
-0.1838253484354709,-0.1838253484354709,0.9997691193015005,0.0003134038694946171
-0.18202748491030435,-0.18202748491030435,1.0002955808172866,0.00031019159941298515
-0.18045320660313563,-0.18045320660313563,0.9998815181972553,0.0003133463215450644
-0.1789441755718144,-0.1789441755718144,1.0000330410685812,0.0003129711813975226
-0.1773186270206338,-0.1773186270206338,1.0000729692326313,0.0003099463520137658
-0.17559673304822354,-0.17559673304822354,1.000128688546074,0.0003134102604674789
-0.17408891847350105,-0.17408891847350105,1.0003386646857977,0.0003128523733006971
-0.17256311920335748,-0.17256311920335748,0.9997623532946447,0.0003131338333218459
-0.1707652961996587,-0.1707652961996587,0.9998132085212177,0.00031010731811425597
-0.16919093849932096,-0.16919093849932096,1.0004109467679339,0.00031313477633416857
-0.167681955782723,-0.167681955782723,0.9998741114340011,0.00031272328444965496
-0.16605640601733285,-0.16605640601733285,0.9994386557751417,0.0003098113655668295
-0.16433450994293253,-0.16433450994293253,0.9999244549537435,0.0003132185045079558
-0.16282664368726502,-0.16282664368726502,1.0001013168408615,0.00031252546400716865
-0.1613008907266476,-0.1613008907266476,1.000298383997543,0.00031294526866335493
-0.15950310828665124,-0.15950310828665124,1.0000187266285216,0.0003101290592214978
-0.15792867089124912,-0.15792867089124912,0.9997674686094744,0.0003128421514438349
-0.15641973677904844,-0.15641973677904844,1.0004024484742908,0.0003127307817499199
-0.154794185799301,-0.154794185799301,0.9998896735846448,0.00030997933418857053
-0.15307228735116496,-0.15307228735116496,1.0005094605027582,0.00031298180652598406
-0.15156436963198985,-0.15156436963198985,0.9996267948578522,0.00031241359636416713
-0.15003866298679897,-0.15003866298679897,1.0002510847598831,0.00031276474506842134
-0.14824092116499515,-0.14824092116499515,1.0000221162923064,0.00031015069190122233
-0.14666640379048204,-0.14666640379048204,0.9998883905303304,0.0003127676979932455
-0.14515751856075668,-0.14515751856075668,1.0000209750078164,0.00031260626338091527
-0.1435319663967789,-0.1435319663967789,0.9995707743178809,0.00030990040715294764
-0.14181006531529192,-0.14181006531529192,0.9999494242967579,0.0003129732759299225
-0.14030209631387153,-0.14030209631387153,0.9996123837983271,0.0003124105473860285
-0.13877643602636452,-0.13877643602636452,1.0002195605543582,0.0003128475028094406
-0.13697873485302808,-0.13697873485302808,1.000368070935784,0.00031016454825453106
-0.13540413720933203,-0.13540413720933203,1.0001382541697137,0.000312719111095975
-0.133895301158293,-0.133895301158293,1.0001171666840118,0.00031254182193657154
-0.13226974784033702,-0.13226974784033702,0.9998637290631832,0.0003099419283744837
-0.13054784384122514,-0.13054784384122514,1.0000168585263387,0.0003129126201701622
-0.12903982369053893,-0.12903982369053893,1.0002230896211408,0.00031230541057263587
-0.12751420986940049,-0.12751420986940049,0.9995201066418865,0.00031262553980615775
-0.1257165493747948,-0.1257165493747948,0.9998081425224781,0.00031000088458098897
-0.12414187111752426,-0.12414187111752426,0.99999691291852,0.0003125702006347252
-0.12263308455308106,-0.12263308455308106,1.0000632302373724,0.00031243317608257786
-0.12100753008719493,-0.12100753008719493,0.9998936052702087,0.0003098619812535766
-0.11928562291693652,-0.11928562291693652,1.0001946940735729,0.00031278905419240865
-0.11777755185249816,-0.11777755185249816,1.000217266068017,0.00031232234494490366
-0.1162519844737517,-0.1162519844737517,1.0001778519134108,0.00031249433131393074
-0.11445436466987076,-0.11445436466987076,0.9998725546262076,0.0003101658627852648
-0.11287960555130212,-0.11287960555130212,1.0000777246547377,0.0003124922622129217
-0.11137086878162564,-0.11137086878162564,1.0002343536043212,0.00031236300630926514
