time,time,flux,flux_err
-0.49993840399353456,-0.49993840399353456,1.0000815128936518,0.00010213766337803969
-0.4998343359069016,-0.4998343359069016,1.0000584711292613,0.00010307998174058806
-0.4996091800945578,-0.4996091800945578,0.9999623887995384,9.695774479107384e-05
-0.4994922908867011,-0.4994922908867011,1.000089704604567,0.00010984662884919082
-0.4993895930449071,-0.4993895930449071,0.9999334867483466,9.489121857464799e-05
-0.49926356021896934,-0.49926356021896934,1.0001088624917465,9.782876420815505e-05
-0.4992139012647385,-0.4992139012647385,0.9998960293528298,9.600073199181139e-05
-0.4991161405814637,-0.4991161405814637,0.9998430881548179,9.355122957993753e-05
-0.4990301348851062,-0.4990301348851062,0.9998877058839344,9.459371803384964e-05
-0.49892453932116043,-0.49892453932116043,1.000173614320965,9.58827380458528e-05
-0.49881169255750135,-0.49881169255750135,1.0000600545950848,9.341876152028412e-05
-0.49872193258124753,-0.49872193258124753,1.0000833699439786,9.408112482643804e-05
-0.49854128643346485,-0.49854128643346485,0.999974990059953,9.62088493665506e-05
-0.4984090143720096,-0.4984090143720096,1.0000336969478076,9.589783778318645e-05
-0.4982494604606472,-0.4982494604606472,1.0000573045170436,9.385547853015927e-05
-0.4981802323818556,-0.4981802323818556,0.9998613295473004,9.474954657200078e-05
-0.4980834843699995,-0.4980834843699995,1.0000679303639184,9.599711893594437e-05
-0.49799456287219074,-0.49799456287219074,1.0001412662087668,9.67321958526901e-05
-0.49790926352361564,-0.49790926352361564,1.00008581767452,9.297985971376779e-05
-0.4977957195726049,-0.4977957195726049,1.0000306070711873,9.42248697649568e-05
-0.4975881255559216,-0.4975881255559216,0.999999139213527,9.360225278889018e-05
-0.49742732084705493,-0.49742732084705493,0.9999576747200953,9.534291956899416e-05
-0.497256749515509,-0.497256749515509,0.9999431043317955,9.393276674909628e-05
-0.4971154570863291,-0.4971154570863291,0.9998711081923732,9.764974958617256e-05
-0.49703759955446003,-0.49703759955446003,0.9999968128701469,9.463480979351426e-05
-0.49693399850948483,-0.49693399850948483,0.9999103099201931,9.402826760056946e-05
-0.4968335255762213,-0.4968335255762213,1.000121784857067,9.70419409256514e-05
-0.4967717544488551,-0.4967717544488551,1.0000363998047623,9.394889566866421e-05
-0.49668711004196664,-0.49668711004196664,0.9998886511531865,9.491509939816977e-05
-0.49649032443121544,-0.49649032443121544,1.0000131076394454,9.450612119247739e-05
-0.49638354829949094,-0.49638354829949094,1.0000582959339903,9.64987367696323e-05
-0.4962420077470597,-0.4962420077470597,0.9999043021277305,9.547740851769952e-05
-0.49603870656792426,-0.49603870656792426,1.0001163297183377,9.374611602665677e-05
-0.49592361011818864,-0.49592361011818864,1.0001795536051337,9.500311969313247e-05
-0.4958236070437124,-0.4958236070437124,1.0000552407567578,9.5426048239485e-05
-0.49569809812601306,-0.49569809812601306,0.999987464931006,9.6857764999239e-05
-0.49562372504660746,-0.49562372504660746,1.0000789015334726,9.669727416333293e-05
-0.4954771728000196,-0.4954771728000196,0.999809333439801,9.700019506939202e-05
-0.4952750833923346,-0.4952750833923346,0.9999345833633763,9.325852430849761e-05
-0.49522799849073634,-0.49522799849073634,0.9999699701027467,9.507714465368914e-05
-0.49512412935946487,-0.49512412935946487,0.9999442386072717,9.579152465687862e-05
-0.49494443388248327,-0.49494443388248327,0.9998915957017879,9.423653192332652e-05
-0.49479768879318725,-0.49479768879318725,0.9998443646911692,9.505990486618168e-05
-0.494726131670177,-0.494726131670177,0.9999916700511999,9.470623691986696e-05
-0.4946593243388634,-0.4946593243388634,0.9999062735056171,9.366612106375538e-05
-0.4945579361381533,-0.4945579361381533,1.0001045142350846,9.443013987893886e-05
-0.49442524012265493,-0.49442524012265493,0.9999854449404026,9.670276457533238e-05
-0.4943123474549793,-0.4943123474549793,0.9998655097906808,9.607261165363169e-05
-0.4941881956481666,-0.4941881956481666,1.0000653959650954,9.419487698958707e-05
-0.49407389555781267,-0.49407389555781267,1.000148260079475,9.394330623391918e-05
-0.4939603300408635,-0.4939603300408635,1.000097022172063,9.538648392926402e-05
-0.49380092619758215,-0.49380092619758215,1.0000936139232057,9.634642397234145e-05
-0.4936437371005013,-0.4936437371005013,1.0000657721809216,9.488196432713064e-05
-0.49355685939226535,-0.49355685939226535,1.000010055078484,9.536773054809038e-05
-0.49345962259030784,-0.49345962259030784,1.0000127833932002,9.502984668262579e-05
-0.49335510015880574,-0.49335510015880574,0.9999268016530181,9.443548565232848e-05
-0.49322034345386784,-0.49322034345386784,1.0000972756160071,9.582240987933028e-05
-0.4931150999924284,-0.4931150999924284,0.9999044262315557,9.518489008777049e-05
-0.49301286360714586,-0.49301286360714586,0.9999775138444557,9.984001926177876e-05
-0.49293503004446393,-0.49293503004446393,0.9998856912487213,9.573767817886984e-05
-0.4927700910004205,-0.4927700910004205,1.0001231516642677,9.438533414613337e-05
-0.49256015065766406,-0.49256015065766406,1.0001489807330817,9.655462431325953e-05
-0.4924219613407331,-0.4924219613407331,1.0001800802147396,9.691916150686288e-05
-0.4923128993526916,-0.4923128993526916,0.9999689820552806,9.456467800561674e-05
-0.49220264166287964,-0.49220264166287964,1.0000273522540277,9.446393593118472e-05
-0.4921242665084719,-0.4921242665084719,1.0000209533004514,9.439414106433047e-05
-0.49201994002214633,-0.49201994002214633,1.000019071765775,9.682107905989314e-05
-0.4919146831598482,-0.4919146831598482,1.0000544477008906,9.273049664151363e-05
-0.49181045232035103,-0.49181045232035103,1.0001429704862326,9.648803301790394e-05
-0.4916698070221173,-0.4916698070221173,1.0000837215589171,9.475703442608869e-05
-0.4915252674843941,-0.4915252674843941,1.0000867765208536,9.641700979825973e-05
-0.4913839347929752,-0.4913839347929752,1.0000200129877297,9.455162658382723e-05
-0.49129158910000115,-0.49129158910000115,1.0000317347561711,9.467044915479983e-05
-0.49119781173139926,-0.49119781173139926,1.0001374565509933,9.374298022916198e-05
-0.49113658086644135,-0.49113658086644135,0.9999232039337265,9.467860637723787e-05
-0.4910329922990059,-0.4910329922990059,0.9999538249024436,9.608876261005768e-05
-0.4909243706759298,-0.4909243706759298,1.000002189958928,9.172300175002272e-05
-0.4908467640001618,-0.4908467640001618,1.000089550966535,9.676200071362944e-05
-0.490771051756019,-0.490771051756019,0.9999052389592118,9.417382318778087e-05
-0.4906875238804787,-0.4906875238804787,1.000089870815575,9.561753186251952e-05
-0.4905809609539574,-0.4905809609539574,0.9999560101226994,9.441404665941538e-05
-0.4904588131052151,-0.4904588131052151,0.9999914777023975,9.661770354260007e-05
-0.4902822416799609,-0.4902822416799609,0.999905392872401,9.24761915357156e-05
-0.49019180192044587,-0.49019180192044587,1.0000544154220283,9.319761574848641e-05
-0.4901348921091994,-0.4901348921091994,0.9998919628973875,9.628996439747698e-05
-0.49006402205486665,-0.49006402205486665,0.9999533432473979,9.396495800748519e-05
-0.48994585608015767,-0.48994585608015767,0.9999916933381566,9.521329156904267e-05
-0.4897914735476661,-0.4897914735476661,1.000127450401297,9.418044652040123e-05
-0.4896679583507648,-0.4896679583507648,0.9999349683821753,9.264806678209943e-05
-0.48952919294242747,-0.48952919294242747,0.9999372269440304,9.315372495368222e-05
-0.4894279769090645,-0.4894279769090645,0.9999585183173348,9.72469917034651e-05
-0.48928033322663395,-0.48928033322663395,1.0002826016464614,9.644944957686792e-05
-0.48911191864681314,-0.48911191864681314,0.9999281919076694,9.404653718236313e-05
-0.48902819719151014,-0.48902819719151014,0.9998926604799616,9.170269280966392e-05
-0.4889505849518173,-0.4889505849518173,1.0000160620315168,9.487330847637802e-05
-0.4889005791628733,-0.4889005791628733,0.9998489667382691,9.651744924965265e-05
-0.48879485334473427,-0.48879485334473427,0.9999584846384864,9.362017985161205e-05
-0.48869460162823086,-0.48869460162823086,0.999981051058638,9.383728745660304e-05
-0.48856824035319735,-0.48856824035319735,1.000040728373716,9.419270403241686e-05
-0.4884569875001034,-0.4884569875001034,1.0000145407563363,9.588556243440743e-05
-0.4883036819104746,-0.4883036819104746,1.0000908494779772,9.446103738644275e-05
-0.4882009497487161,-0.4882009497487161,1.000250910319794,9.601705269804853e-05
-0.48804196705314096,-0.48804196705314096,1.0002577185275634,9.605045708528194e-05
-0.4879515113585512,-0.4879515113585512,0.9999291972564868,9.62148933792893e-05
-0.48790444595360893,-0.48790444595360893,0.9999514764643591,9.249009511471719e-05
-0.4878162410881487,-0.4878162410881487,0.9999700322766903,9.57397204925781e-05
-0.4877291657343449,-0.4877291657343449,1.0000161190246866,9.445260424238696e-05
-0.4876720333908452,-0.4876720333908452,0.9999998367481495,9.599875507833747e-05
-0.48754854006911047,-0.48754854006911047,1.000131340852431,9.435991890953506e-05
-0.487426013564982,-0.487426013564982,1.000194960129606,9.47425888892547e-05
-0.4873305293447629,-0.4873305293447629,0.9998489761736231,9.392108970968575e-05
-0.4872431925330602,-0.4872431925330602,0.9999757852812377,9.4735808948537e-05
-0.48710257951534003,-0.48710257951534003,0.999999893753114,9.47359328009511e-05
-0.48694264258738257,-0.48694264258738257,1.0000669212244957,9.628785765435838e-05
-0.4868043161302921,-0.4868043161302921,0.9998941691298503,9.227852949119358e-05
-0.48673052158555946,-0.48673052158555946,1.0001107296637723,9.422481017696456e-05
-0.48663330688214046,-0.48663330688214046,1.0001056562450696,9.643424581074346e-05
-0.48651602814643413,-0.48651602814643413,0.999989967502269,9.508288309603238e-05
-0.4863934018765576,-0.4863934018765576,0.9999554855940387,9.363689932954399e-05
-0.48628118248598184,-0.48628118248598184,1.0000006273918387,9.503499955146814e-05
-0.4861986302297737,-0.4861986302297737,1.0001193826619579,9.43363954832739e-05
-0.48609509417437946,-0.48609509417437946,1.000057577144971,9.584720702227353e-05
-0.48601070544536923,-0.48601070544536923,0.9999522688546355,9.459837947020159e-05
-0.4858528960932745,-0.4858528960932745,1.0001062960765812,9.368413032379408e-05
-0.4857085362316866,-0.4857085362316866,1.0000711720447157,9.282573176024432e-05
-0.48562995543543364,-0.48562995543543364,1.0000565012062133,9.18444704711369e-05
-0.48555134035341324,-0.48555134035341324,1.0000812657454201,9.605086404377826e-05
-0.4854361370358674,-0.4854361370358674,0.9999979042772195,9.624948803379036e-05
-0.4853311284990923,-0.4853311284990923,1.000013344644963,9.48286337049851e-05
-0.4852204139860987,-0.4852204139860987,1.0000838222970867,9.343081326370663e-05
-0.4850876073585823,-0.4850876073585823,1.000073297095066,9.40579901289662e-05
-0.48500403366924727,-0.48500403366924727,0.9999703834618332,9.47689731332302e-05
-0.48488140980916794,-0.48488140980916794,1.0000604577410628,9.670115884045123e-05
-0.4847946880021482,-0.4847946880021482,1.0000723739038353,9.288447807834464e-05
-0.484628868469008,-0.484628868469008,0.9999530924084986,9.517718450158246e-05
-0.4844607462495333,-0.4844607462495333,0.9999511208566702,9.320223419470878e-05
-0.48436678812795436,-0.48436678812795436,0.9998702814196421,9.916809410698093e-05
-0.4842783402586065,-0.4842783402586065,1.0001465506741407,9.550182353234085e-05
-0.4841948368288286,-0.4841948368288286,1.000054019316392,9.538853544786522e-05
-0.4840969718316046,-0.4840969718316046,1.0000238439806197,9.485531363018997e-05
-0.48394909626804294,-0.48394909626804294,1.0000770302305821,9.201836700740338e-05
-0.48380747200135377,-0.48380747200135377,1.0000125078280964,9.640391635882358e-05
-0.48372248173327537,-0.48372248173327537,1.0000805811783269,9.606778722251001e-05
-0.4836414933015476,-0.4836414933015476,1.0000312611721334,9.376581827775563e-05
-0.48352944692378513,-0.48352944692378513,1.0001326384654226,9.245207650127846e-05
-0.48341131298075196,-0.48341131298075196,1.0000031348403362,9.506942013520525e-05
-0.48334636972649603,-0.48334636972649603,1.0000051975609683,9.22669684000444e-05
-0.4832319845634629,-0.4832319845634629,1.0000362747722338,9.458203484327648e-05
-0.48315136512974277,-0.48315136512974277,1.0000595451271874,9.593191549777957e-05
-0.48302366250063644,-0.48302366250063644,1.0000600071602388,9.383641883246952e-05
-0.4829340951670019,-0.4829340951670019,0.9998953854966622,9.428636857632289e-05
-0.4828161052610085,-0.4828161052610085,0.999942796493903,9.393476788208185e-05
-0.4826464114281407,-0.4826464114281407,1.000113635779034,9.282770838229115e-05
-0.48254676083597586,-0.48254676083597586,0.9998151202863756,9.607563593845189e-05
-0.48241801065014445,-0.48241801065014445,0.9999677636054412,9.409915820680398e-05
-0.4823053935135249,-0.4823053935135249,1.0000165208442093,9.208721191465206e-05
-0.4822220875765197,-0.4822220875765197,1.0001565253135467,9.633675301456113e-05
-0.48213866398946265,-0.48213866398946265,0.9999429535829696,9.574340253174506e-05
-0.482061398539372,-0.482061398539372,1.0000254635337202,9.47521475971082e-05
-0.48198921832808994,-0.48198921832808994,1.0000217053201443,9.68819597859456e-05
-0.481853456144745,-0.481853456144745,0.9999033741704764,9.356556803970313e-05
-0.4817057053565804,-0.4817057053565804,1.0001235212578452,9.338858596409346e-05
-0.4815299433787004,-0.4815299433787004,0.9998223060596321,9.558228084545294e-05
-0.48142200268848684,-0.48142200268848684,1.0001227455277781,9.403630229214309e-05
-0.4813425904030737,-0.4813425904030737,1.0000369696051123,9.609875592566966e-05
-0.48124365782641687,-0.48124365782641687,1.0001359141513309,9.311114550853163e-05
-0.4811460567594622,-0.4811460567594622,1.0001039494092452,9.297632317803869e-05
-0.4810484025794722,-0.4810484025794722,1.000018561965153,9.669575696401257e-05
-0.48090461013271124,-0.48090461013271124,1.0000597375758826,9.617789462051184e-05
-0.48082580990521817,-0.48082580990521817,1.0001792117805803,9.621805885838471e-05
-0.48066637501542575,-0.48066637501542575,1.0001085713911138,9.260029599229112e-05
-0.48054381549009123,-0.48054381549009123,0.9999284550969737,9.327362282547018e-05
-0.48041202623207935,-0.48041202623207935,0.9999000159069587,9.204502227769125e-05
-0.4802423228509724,-0.4802423228509724,1.0000605794139403,9.322130854232943e-05
-0.48018165250323364,-0.48018165250323364,0.9999535096672467,9.52873908532251e-05
-0.48009267668312533,-0.48009267668312533,1.0000381650979704,9.40193225876965e-05
-0.47992178371132466,-0.47992178371132466,0.9998817776439065,9.38185992573524e-05
-0.4797381000185851,-0.4797381000185851,0.9999369064527901,9.643337446745736e-05
-0.47965900807539585,-0.47965900807539585,1.0001280094362723,9.607456576260108e-05
-0.4795905218226835,-0.4795905218226835,1.000083265033552,9.441435353475618e-05
-0.47948393060141825,-0.47948393060141825,1.0000640594083121,9.418811112298622e-05
-0.47934550713398494,-0.47934550713398494,1.000141043782772,9.328416169150221e-05
-0.4791840662124741,-0.4791840662124741,1.0001356771768093,9.906805689949933e-05
-0.4790261875328724,-0.4790261875328724,0.9999909717514683,9.375212373690823e-05
-0.4789420876251825,-0.4789420876251825,0.999917613915391,9.368922721913328e-05
-0.47883892154641217,-0.47883892154641217,0.9999829363266546,9.646245954090638e-05
-0.4786448353952437,-0.4786448353952437,0.9999681420133605,9.563413420631829e-05
-0.47850226020964326,-0.47850226020964326,1.0000781202011637,9.487121031164666e-05
-0.4784381692887109,-0.4784381692887109,0.9999286610792886,9.50435517849666e-05
-0.47833115026078304,-0.47833115026078304,1.0002228828477178,9.380901955976452e-05
-0.4781372749603179,-0.4781372749603179,1.0000264558143783,9.35985411114374e-05
-0.4780331611444126,-0.4780331611444126,1.0000406481328135,9.514236609899272e-05
-0.47786184747892546,-0.47786184747892546,1.0001367245823918,9.527843674898636e-05
-0.47775830482860326,-0.47775830482860326,0.9999109416752849,9.339829967505794e-05
-0.47764364076938365,-0.47764364076938365,1.0000120569897875,9.420984556066972e-05
-0.47754024111345644,-0.47754024111345644,0.9999277577538411,9.378542862793365e-05
-0.47744562409425273,-0.47744562409425273,0.9999830310700663,9.269243752477956e-05
-0.47735813475737815,-0.47735813475737815,0.9999165183260855,9.340955634771264e-05
-0.4772565567531274,-0.4772565567531274,1.000031667765346,9.61850529061099e-05
-0.4771460841038788,-0.4771460841038788,0.9999120611746879,9.439591497402853e-05
-0.47701045319845436,-0.47701045319845436,1.0000573653544396,9.454168343497783e-05
-0.4768842305340513,-0.4768842305340513,1.0001259135829466,9.733122457201076e-05
-0.4767087083935621,-0.4767087083935621,1.0000960067146374,9.363901573588963e-05
-0.4765363522863481,-0.4765363522863481,1.0000764860548546,9.372357078832741e-05
-0.4764635714040196,-0.4764635714040196,1.0000434053226652,9.397531322656829e-05
-0.4763365533464821,-0.4763365533464821,1.0000718255369652,9.482925082297342e-05
-0.4762311675127421,-0.4762311675127421,0.9999236376866284,9.431789814768493e-05
-0.47609672224571115,-0.47609672224571115,0.9999457110783322,9.524406829849857e-05
-0.47597649089439076,-0.47597649089439076,0.9999626871553107,9.639329396366488e-05
-0.4758129743255267,-0.4758129743255267,1.000018359734845,9.612508948683364e-05
-0.4756381844563293,-0.4756381844563293,0.9999936791570448,9.713723062015926e-05
-0.4755440588123747,-0.4755440588123747,1.0000032436684039,9.31401974836004e-05
-0.47542031294069603,-0.47542031294069603,0.9999181796334444,9.328546218297256e-05
-0.47532342196500393,-0.47532342196500393,1.0001313998285155,9.391050619106365e-05
-0.4752391352434643,-0.4752391352434643,1.000069452697545,9.440061028867873e-05
-0.47513869832255295,-0.47513869832255295,0.9999276754295222,9.515494530074445e-05
-0.4750454400789749,-0.4750454400789749,1.0000261368579757,9.436065612998232e-05
-0.47494029796216636,-0.47494029796216636,1.0001426969891354,9.406731006848478e-05
-0.474829207584844,-0.474829207584844,1.0000579638687666,9.507604093169598e-05
-0.47470549057543393,-0.47470549057543393,0.9999341867344199,9.564041971478639e-05
-0.4745148894500744,-0.4745148894500744,1.0000290533458673,9.749238672706508e-05
-0.47436711983609714,-0.47436711983609714,1.0000344128754886,9.460647872280206e-05
-0.4742699922331667,-0.4742699922331667,0.9999634156384676,9.266630902011186e-05
-0.47415308852359883,-0.47415308852359883,1.0002160962747113,9.446073235179527e-05
-0.474087518730812,-0.474087518730812,1.0000407041897457,9.341261481369989e-05
-0.47396253741899275,-0.47396253741899275,1.000096399641503,9.620271141489527e-05
-0.4738718373715528,-0.4738718373715528,1.0001494440824366,9.59690595011604e-05
-0.4737252325976442,-0.4737252325976442,0.9998370565973798,9.434332558097187e-05
-0.4736126779404003,-0.4736126779404003,1.0000343948741546,9.532472014454404e-05
-0.4734726649148797,-0.4734726649148797,1.0000839822862548,9.781350759549418e-05
-0.47330761068733407,-0.47330761068733407,0.9999940565050836,9.544461353625433e-05
-0.4731822679139441,-0.4731822679139441,0.9998986617583405,9.410254401531336e-05
-0.4731042061794142,-0.4731042061794142,1.0001991111327075,9.423439075221111e-05
-0.47298289353057044,-0.47298289353057044,0.9999636076683138,9.459016501582311e-05
-0.47286738135589984,-0.47286738135589984,1.0000354942862097,9.594735320444133e-05
-0.47277332996891347,-0.47277332996891347,0.9999712664538698,9.363157858717371e-05
-0.4726892685139319,-0.4726892685139319,1.000064933733736,9.578279457208717e-05
-0.4725924419988587,-0.4725924419988587,1.0001323032620761,9.431037684521983e-05
-0.4724913929749164,-0.4724913929749164,1.0000649886350725,9.516521851136565e-05
-0.4722895803839492,-0.4722895803839492,0.9999830483080927,9.473674508463691e-05
-0.47212880306251465,-0.47212880306251465,0.9999985785748746,9.686468474151986e-05
-0.4719995829509571,-0.4719995829509571,1.0000132600024798,9.386090136315851e-05
-0.47188040527980774,-0.47188040527980774,0.9998650089899656,9.439252931729349e-05
-0.47172881826627416,-0.47172881826627416,1.0000849508730227,9.397771400919561e-05
