time,time,flux,flux_err
-0.49958756001982846,-0.49958756001982846,0.9998560486217892,6.488066971825597e-05
-0.4983675687046419,-0.4983675687046419,1.0000904657501313,6.521191860544705e-05
-0.4971650164507082,-0.4971650164507082,1.0000101557136014,6.552970271261884e-05
-0.4959413074387612,-0.4959413074387612,0.9998955609878957,5.943205251815138e-05
-0.4952222273078405,-0.4952222273078405,1.0001807033385046,5.917041414385567e-05
-0.4945152087419501,-0.4945152087419501,1.0000369270233977,5.936372017191931e-05
-0.4933102192251681,-0.4933102192251681,0.9999916724683878,5.9585060644498103e-05
-0.4923688589383346,-0.4923688589383346,0.999931254014008,5.982069768724592e-05
-0.49113777178008605,-0.49113777178008605,0.9999767534017927,5.9520124600156086e-05
-0.49037946536195703,-0.49037946536195703,0.9999236288795487,5.9110903107455215e-05
-0.4896592538897494,-0.4896592538897494,0.9999335210948178,5.9441372533452304e-05
-0.48837354856000276,-0.48837354856000276,1.000126158972882,5.958981923486337e-05
-0.48737262562854083,-0.48737262562854083,0.9999384820804501,5.980439817940675e-05
-0.48624712344649196,-0.48624712344649196,0.9999706979564149,5.9524596856992555e-05
-0.48549836668012175,-0.48549836668012175,0.9999711604433454,5.90512833659712e-05
-0.4847485580733064,-0.4847485580733064,0.9999670480973689,5.956978954455183e-05
-0.4834279221282486,-0.4834279221282486,0.999938517996292,5.9732126331771294e-05
-0.48224820959203496,-0.48224820959203496,1.000045255570118,5.971565287026308e-05
-0.4812783861344087,-0.4812783861344087,0.9999246799347687,5.937440506040659e-05
-0.48058516434316517,-0.48058516434316517,1.0000898445418516,5.930732549712435e-05
-0.4797280037009841,-0.4797280037009841,1.0000126054825347,5.93777200159238e-05
-0.47854250882828636,-0.47854250882828636,1.0001413545733573,5.9830474526655825e-05
-0.47731048801556425,-0.47731048801556425,1.0000398657530045,5.9636352461105084e-05
-0.4764721787561029,-0.4764721787561029,1.0001474076188541,5.929749426081587e-05
-0.4756745979073912,-0.4756745979073912,1.0000890759677552,5.933636146622741e-05
-0.474452878609236,-0.474452878609236,1.0001200288311467,5.947741786131261e-05
-0.47336040388499895,-0.47336040388499895,1.0000268472038707,5.976953626735806e-05
-0.4721670149887359,-0.4721670149887359,0.9999757879320643,5.953504113525616e-05
-0.47137790157585185,-0.47137790157585185,1.0002265782568007,5.921124254953383e-05
-0.4705557692871025,-0.4705557692871025,0.9999305591790975,5.95694655562787e-05
-0.46957554524879014,-0.46957554524879014,0.999901212711816,5.943004886150876e-05
-0.46841538268922706,-0.46841538268922706,0.9999198091248569,5.987660234419718e-05
-0.4672509438858469,-0.4672509438858469,0.9999703611647834,5.938820181957087e-05
-0.4665768978876258,-0.4665768978876258,0.9999422469814501,5.9317529759497854e-05
-0.4653098862060233,-0.4653098862060233,1.0000238825268952,5.938010581733224e-05
-0.464465286860559,-0.464465286860559,0.9999539875533813,5.966947089525481e-05
-0.46338034655059346,-0.46338034655059346,0.9998639392750197,5.980193774262464e-05
-0.46239188241247575,-0.46239188241247575,0.999821732584681,5.929834722444528e-05
-0.46166948312220485,-0.46166948312220485,0.9999667998126487,5.936738662108474e-05
-0.4603726185335745,-0.4603726185335745,0.9999983927957011,5.947468198597338e-05
-0.4594425107072766,-0.4594425107072766,0.9999512321322221,5.9645561259270385e-05
-0.45841173229555354,-0.45841173229555354,0.9999583250346827,5.974811367220363e-05
-0.4575452960077655,-0.4575452960077655,0.9999994573081834,5.9211970439740576e-05
-0.45675422972403795,-0.45675422972403795,1.0000124912242585,5.9492695388407575e-05
-0.45549527872781254,-0.45549527872781254,0.999943561801107,5.942559215110838e-05
-0.45452133541398326,-0.45452133541398326,1.0000638528832533,5.962744724878793e-05
-0.4535626257853892,-0.4535626257853892,1.0000274128891116,5.977636503243795e-05
-0.45269767596969357,-0.45269767596969357,0.9998981972011751,5.9134708811342215e-05
-0.4518192429618466,-0.4518192429618466,0.9999686929183687,5.946500749003598e-05
-0.4505771018339601,-0.4505771018339601,0.9999812430343494,5.957086334399193e-05
-0.4496416527725614,-0.4496416527725614,1.0000419771212623,5.970811811030778e-05
-0.448695651435537,-0.448695651435537,0.9999766053670165,5.964660727835566e-05
-0.4478850505412083,-0.4478850505412083,1.0001204751287394,5.925189280164165e-05
-0.44679907285481024,-0.44679907285481024,0.9999311346290026,5.9400827926869797e-05
-0.4458246654220147,-0.4458246654220147,1.0000001101358122,5.9728899502135714e-05
-0.444948226075212,-0.444948226075212,0.9999391972030824,5.971775221410772e-05
-0.4440022702630813,-0.4440022702630813,0.999934593639151,5.965624393002632e-05
-0.44319157051404545,-0.44319157051404545,1.0001817961741,5.926120641331678e-05
-0.44210564053041707,-0.44210564053041707,0.9999859676509144,5.9406444492681926e-05
-0.4411312592549166,-0.4411312592549166,1.0000595803919714,5.972721442577043e-05
-0.4402547993590815,-0.4402547993590815,1.0000759254271316,5.972759594249782e-05
-0.43930888911577315,-0.43930888911577315,0.9999842083357379,5.964974794429185e-05
-0.438498090499661,-0.438498090499661,0.9999940251631122,5.925257732839013e-05
-0.4374122082060694,-0.4374122082060694,1.0000827886543007,5.941445048352704e-05
-0.43643785308777294,-0.43643785308777294,0.9999541876212359,5.972523511766874e-05
-0.4355613726680076,-0.4355613726680076,1.000056273648346,5.973009560739771e-05
-0.43461550798128884,-0.43461550798128884,1.0001579795904463,5.966542137265346e-05
-0.43380461049159746,-0.43380461049159746,1.0000133516096894,5.925435942626089e-05
-0.4327187758879063,-0.4327187758879063,0.9998968422137786,5.940854382505107e-05
-0.4317444469395923,-0.4317444469395923,1.0001272180594267,5.972793959881273e-05
-0.4308679459770701,-0.4308679459770701,0.99991666115242,5.97343420609204e-05
-0.4299221268655856,-0.4299221268655856,1.000062269750623,5.96641887499754e-05
-0.42911113050849964,-0.42911113050849964,1.000055330923123,5.926067956732845e-05
-0.42792708035049143,-0.42792708035049143,1.0001243182905077,5.9542789150215396e-05
-0.4269586184315813,-0.4269586184315813,1.0000055663046132,5.956289050451883e-05
-0.4259225279731254,-0.4259225279731254,0.9999660414872844,5.9875337414962485e-05
-0.42484442625968766,-0.42484442625968766,1.0001285583076904,5.931054999477248e-05
-0.42430596885947125,-0.42430596885947125,1.0000569667361003,5.9479244533512245e-05
-0.4232336616804787,-0.4232336616804787,1.0000882375701003,5.953971080213255e-05
-0.42226521043066895,-0.42226521043066895,0.9999724769179613,5.956200731606919e-05
-0.42122909068248193,-0.42122909068248193,1.0000178814406648,5.9872199512050705e-05
-0.4201509943255587,-0.4201509943255587,0.9999448386286103,5.9314222747041584e-05
-0.41945758580664005,-0.41945758580664005,1.0000220914364282,5.940763384213947e-05
-0.4182159057928857,-0.4182159057928857,1.000038060456299,5.958247122573037e-05
-0.4173894803411713,-0.4173894803411713,1.0000410299980194,5.964332083037958e-05
-0.4160029271755775,-0.4160029271755775,1.0000606533043546,5.949927867103295e-05
-0.41516873616928934,-0.41516873616928934,0.9999062853234557,5.9449475895240925e-05
-0.4145692382593097,-0.4145692382593097,0.9999887022999914,5.9567755187427154e-05
-0.4134733946287724,-0.4134733946287724,1.0000114553649806,5.961474409160927e-05
-0.41269604877220445,-0.41269604877220445,1.0000489118747802,5.9648178715377765e-05
-0.41127198528488407,-0.41127198528488407,1.0000652467294764,5.9496417386535356e-05
-0.41045624490207044,-0.41045624490207044,0.9998706376031175,5.9162927033314486e-05
-0.40978221615328037,-0.40978221615328037,0.9999813379918002,5.9880223681391195e-05
-0.4085941950799679,-0.4085941950799679,0.9998190939978755,5.9724118718650056e-05
-0.4080006478266114,-0.4080006478266114,0.9998385165911696,5.952057971815876e-05
-0.4065785914524895,-0.4065785914524895,1.0001116312701104,5.9497601171111166e-05
-0.40576275264525064,-0.40576275264525064,1.000048063246384,5.9176885546629505e-05
-0.40508883635907295,-0.40508883635907295,0.9999523198693743,5.9885084772896866e-05
-0.4039007789216157,-0.4039007789216157,0.9999596902441326,5.9726252657972815e-05
-0.403081920997829,-0.403081920997829,1.0001028265316774,5.953522731579773e-05
-0.4018851976073165,-0.4018851976073165,0.9999708687161466,5.949945364109254e-05
-0.40106926041362384,-0.40106926041362384,0.9999908942302103,5.916594794582416e-05
-0.4003954565778258,-0.4003954565778258,1.0001198503303912,5.9887541943240614e-05
-0.39920736273802504,-0.39920736273802504,1.0000620247722851,5.971630963564024e-05
-0.398266278960682,-0.398266278960682,0.9999909333347198,5.950383336389077e-05
-0.3971638109828291,-0.3971638109828291,1.0000037084452535,5.953217137078531e-05
-0.39637576818158776,-0.39637576818158776,1.0000343094630206,5.9179305168164566e-05
-0.3957020768090388,-0.3957020768090388,0.9999711657719791,5.9889833487823534e-05
-0.3945139465355624,-0.3945139465355624,1.0000685969978786,5.971680966035957e-05
-0.39357281157472246,-0.39357281157472246,0.9998689598331856,5.950158927719007e-05
-0.39247044065546105,-0.39247044065546105,1.0001778115520323,5.953185764278759e-05
-0.39168227598775046,-0.39168227598775046,0.9999588960328699,5.918242047384555e-05
-0.3910086970277007,-0.3910086970277007,0.9998848169801928,5.987944987576687e-05
-0.38982053035820174,-0.38982053035820174,0.9999461043051523,5.971697888845565e-05
-0.3888793442327369,-0.3888793442327369,1.000023151522781,5.951701430583472e-05
-0.38777707030922104,-0.38777707030922104,1.0001420430026418,5.9538555769441466e-05
-0.38698878380005225,-0.38698878380005225,1.000014491213207,5.9182360184430225e-05
-0.3863153172841066,-0.3863153172841066,1.0001081421970572,5.988709092490673e-05
-0.385127114149418,-0.385127114149418,0.9999990889208041,5.9718864063138564e-05
-0.38418587690989625,-0.38418587690989625,0.9999622517572954,5.952372974891926e-05
-0.3830836999631629,-0.3830836999631629,0.9999208136809296,5.952587490091103e-05
-0.38229529162499604,-0.38229529162499604,0.9999755437280976,5.918176828101545e-05
-0.3816219375154105,-0.3816219375154105,1.0001170166024107,5.9902393697074836e-05
-0.38043369792185333,-0.38043369792185333,0.999973352776296,5.971715111506463e-05
-0.37949240959324015,-0.37949240959324015,1.0000435677160917,5.9533957128823817e-05
-0.37839032961687735,-0.37839032961687735,0.999930705459321,5.952489229012975e-05
-0.3776017994623544,-0.3776017994623544,1.0000797045998926,5.917940489371716e-05
-0.37692855779691853,-0.37692855779691853,0.9999443234227371,5.9904070559819775e-05
-0.37566518744147287,-0.37566518744147287,1.0000513370945612,5.9712588664421164e-05
-0.374798942282996,-0.374798942282996,1.0001018042658383,5.9530912344897805e-05
-0.3736594125597549,-0.3736594125597549,1.0000056801318442,5.952779927114422e-05
-0.37290830731881214,-0.37290830731881214,0.999964302578473,5.917811791699822e-05
-0.37223517805973644,-0.37223517805973644,0.9999521788537434,5.99075467024299e-05
-0.3708629073074917,-0.3708629073074917,1.000012396235275,5.966986821599341e-05
-0.3699890543570291,-0.3699890543570291,0.9998247880197646,5.95770811840787e-05
-0.36896135216247783,-0.36896135216247783,0.9999817627377204,5.9532464682977845e-05
-0.3680958921900583,-0.3680958921900583,0.9999200745105465,5.926104947026763e-05
-0.3675152244516539,-0.3675152244516539,0.9999128161390874,5.981964383386494e-05
-0.3662963179036979,-0.3662963179036979,0.9998312182605045,5.9637118642639934e-05
-0.36544843322021736,-0.36544843322021736,0.9999601732639377,5.959416043010018e-05
-0.3644655438079553,-0.3644655438079553,1.0000577765317789,5.952317594255296e-05
-0.3635213231007583,-0.3635213231007583,0.999994324832382,5.9185084257091765e-05
-0.36297248535006477,-0.36297248535006477,0.9999853672635522,5.988825233185236e-05
-0.36183803461522074,-0.36183803461522074,0.9999938742628249,5.951479228268515e-05
-0.3609796893131261,-0.3609796893131261,0.9999707781962008,5.985331370724319e-05
-0.3599354352765204,-0.3599354352765204,1.000053443914339,5.9395619004734375e-05
-0.35912422584465276,-0.35912422584465276,1.0001865062240496,5.952279748692472e-05
-0.3584676720637162,-0.3584676720637162,0.9999849930596744,5.949144508063497e-05
-0.3576431178164512,-0.3576431178164512,1.0001480313006632,5.96760602848708e-05
-0.3567114162983671,-0.3567114162983671,0.9999802319367067,5.970678273488628e-05
-0.35539099610509767,-0.35539099610509767,0.9999467692366503,5.939406055674892e-05
-0.35449583355380127,-0.35449583355380127,0.999844089595662,5.93666744832144e-05
-0.35377425219594444,-0.35377425219594444,1.0000554988397772,5.9487609476468746e-05
-0.35294971975631595,-0.35294971975631595,0.9999917128218161,5.9668873014027184e-05
-0.35201801094308394,-0.35201801094308394,1.0000185430267738,5.969980785278892e-05
-0.3505834576812049,-0.3505834576812049,0.9999217413306954,5.953411360488382e-05
-0.34976629750744903,-0.34976629750744903,1.000053458790482,5.922224457211644e-05
-0.3490808323467718,-0.3490808323467718,0.9999635848724348,5.9493843523615934e-05
-0.3482563217088682,-0.3482563217088682,0.9999376572077526,5.966473944758145e-05
-0.34732460560057915,-0.34732460560057915,1.0000738993556242,5.9704992384431246e-05
-0.3457398406962966,-0.3457398406962966,0.9998401808723241,5.954103091264762e-05
-0.3450352937203206,-0.3450352937203206,1.0000572715653748,5.923040284930381e-05
-0.3443874124916874,-0.3443874124916874,1.0000002804309074,5.949281481775949e-05
-0.3434127353068561,-0.3434127353068561,1.0000184504946712,5.9663504146872836e-05
-0.34263120027053445,-0.34263120027053445,1.0000149183119817,5.970153771545875e-05
-0.340885102824177,-0.340885102824177,1.00008386608447,5.955375144438285e-05
-0.34027786380102043,-0.34027786380102043,0.9999628238158017,5.922159043457259e-05
-0.3396939926613868,-0.3396939926613868,1.0000217171998593,5.948817361463955e-05
-0.33864424311364016,-0.33864424311364016,0.9999921747671221,5.965052092316638e-05
-0.3379377949469017,-0.3379377949469017,1.000034632145737,5.970505198820811e-05
-0.3361916759630731,-0.3361916759630731,1.0001166674306947,5.9551487182104615e-05
-0.33558440715942195,-0.33558440715942195,0.9998770949936928,5.9211213999789175e-05
-0.33500057285637014,-0.33500057285637014,0.9999543136188225,5.949014113783246e-05
-0.33393004887734606,-0.33393004887734606,1.000105846374412,5.944473239427023e-05
-0.3329552026191777,-0.3329552026191777,1.0001646562758577,5.9692371970368194e-05
-0.331470308553844,-0.331470308553844,0.9999261878900999,5.9782707336669154e-05
-0.3308909505432439,-0.3308909505432439,1.000011151210722,5.922519427742624e-05
-0.3303071530577199,-0.3303071530577199,1.0000459674747062,5.950020719555804e-05
-0.3292366487402433,-0.3292366487402433,0.9999952097618967,5.9438618981291674e-05
-0.3282617862784264,-0.3282617862784264,1.000125121020068,5.967467167238194e-05
-0.326776894856539,-0.326776894856539,1.0000523069477878,5.979226368958439e-05
-0.3261974939709944,-0.3261974939709944,1.0000862115431262,5.92264039875273e-05
-0.32561188942027003,-0.32561188942027003,0.9999704795567144,5.938031222903915e-05
-0.3244324526677701,-0.3244324526677701,1.0000659794936457,5.9557950213053124e-05
-0.32356836995631966,-0.32356836995631966,0.9998157209553662,5.968777176230349e-05
-0.3220834811841996,-0.3220834811841996,0.9999924281315083,5.978912859194199e-05
-0.3215040373546344,-0.3215040373546344,0.9999959189774754,5.9229097961871435e-05
-0.3209184564162115,-0.3209184564162115,0.9998928541383652,5.938087465079911e-05
-0.3196639725910245,-0.3196639725910245,1.000225275650516,5.9564387038624234e-05
-0.31887495364699137,-0.31887495364699137,1.000081299910405,5.969637132615447e-05
-0.31739006751222404,-0.31739006751222404,1.0000484502013776,5.978749997141583e-05
-0.3168105807949814,-0.3168105807949814,1.0000438086180814,5.922883088504967e-05
-0.31622502342456754,-0.31622502342456754,1.0000549800914673,5.93776245134432e-05
-0.3149705858227662,-0.3149705858227662,1.0000037725961506,5.955898235707021e-05
-0.31418153732483917,-0.31418153732483917,0.9998768042054198,5.969192643899344e-05
-0.31269665383988465,-0.31269665383988465,1.0000552191252092,5.9785015792096835e-05
-0.3121171242731634,-0.3121171242731634,0.9999461588097732,5.9227416669824986e-05
-0.31153159044583845,-0.31153159044583845,1.0000681686102373,5.939032492237124e-05
-0.3102771990673318,-0.3102771990673318,0.9999895253051039,5.9549875955507756e-05
-0.3094881210657604,-0.3094881210657604,0.999942398793317,5.969798692478115e-05
-0.3080032401489007,-0.3080032401489007,0.9999141935178427,5.977509197622296e-05
-0.30742366775748453,-0.30742366775748453,1.0001552451646618,5.92368138815134e-05
-0.3068381574792511,-0.3068381574792511,1.0001851592289053,5.938094756511872e-05
-0.3055838123623289,-0.3055838123623289,1.0000203315112648,5.955448439937558e-05
-0.3047947047437901,-0.3047947047437901,1.000041943773706,5.9710605031999764e-05
-0.30330982648924876,-0.30330982648924876,1.0001565757033393,5.978324802403002e-05
-0.30273021127331956,-0.30273021127331956,1.0001577505021622,5.924122640333227e-05
-0.3021447245632771,-0.3021447245632771,1.0003161293215934,5.939080124900387e-05
-0.3008919226831949,-0.3008919226831949,1.0002513364175125,6.060555383267755e-05
-0.3003905526722065,-0.3003905526722065,1.0001055436256032,5.9713644160192054e-05
-0.29876766657584997,-0.29876766657584997,1.0002282059646377,5.976165820535172e-05
-0.2981007343046258,-0.2981007343046258,1.0001938196775302,5.924996488600398e-05
-0.29745129164730316,-0.29745129164730316,1.0001045620432507,5.9388092645205006e-05
-0.2963683941594809,-0.2963683941594809,1.0000556990191518,5.95506975307264e-05
-0.29569714743656733,-0.29569714743656733,1.0002006531413312,5.971812385311467e-05
-0.2944124078909226,-0.2944124078909226,1.0001842526831655,5.963102701549488e-05
-0.29344500255538153,-0.29344500255538153,1.0002244927708444,5.932637087366668e-05
-0.292904068610369,-0.292904068610369,0.9996225798897804,5.9290620961948524e-05
-0.29175272380052775,-0.29175272380052775,1.000037065373205,5.9570041771394436e-05
-0.29100374218851355,-0.29100374218851355,1.0002852667390068,5.971815493402145e-05
-0.28957765182644835,-0.28957765182644835,0.9989633898623662,5.9640870833212e-05
-0.288739691400815,-0.288739691400815,0.9993466041185188,5.935420279513911e-05
-0.2881009490680754,-0.2881009490680754,0.99956816161295,5.925019614631758e-05
-0.2870593378130252,-0.2870593378130252,0.99999925192233,5.957586286867171e-05
-0.28635890720233875,-0.28635890720233875,1.0002330014646241,5.9679905424292205e-05
-0.2852498986440423,-0.2852498986440423,0.9987280540691612,5.96467110629896e-05
-0.28412151212219217,-0.28412151212219217,0.9985758532371962,5.942405561590494e-05
-0.28351715481144313,-0.28351715481144313,0.999118155721354,5.933673928103843e-05
-0.2826454304035906,-0.2826454304035906,0.9996627791375607,5.949934053404661e-05
-0.28168795742117253,-0.28168795742117253,1.000362879100603,5.964951872479209e-05
-0.2807818312443942,-0.2807818312443942,0.9995173083189389,5.9660772314249684e-05
-0.2795720613821686,-0.2795720613821686,0.9979160831517182,5.9503203218062233e-05
-0.278919779695434,-0.278919779695434,0.9981231450832141,5.932021937183467e-05
-0.27819543272298686,-0.27819543272298686,0.9993994799256422,5.932629111097239e-05
-0.27711904110224167,-0.27711904110224167,0.9998331190767524,5.980161536915439e-05
-0.2763819008679548,-0.2763819008679548,0.999437591499715,5.941791710315903e-05
-0.27480442833420965,-0.27480442833420965,0.9981043021745405,5.9697064378932464e-05
-0.2743263505149116,-0.2743263505149116,0.997723349534018,5.9308033939178164e-05
-0.2737693084500279,-0.2737693084500279,0.9989394927860988,5.9440082717886936e-05
-0.2725441189954836,-0.2725441189954836,0.9988802181229053,5.964426439341313e-05
-0.27201195550142077,-0.27201195550142077,0.9981015500451151,5.948165946906353e-05
-0.27023949095482747,-0.27023949095482747,0.9984853604263725,5.95538625477698e-05
-0.2696338099643526,-0.2696338099643526,0.9983571674031756,5.953268227233356e-05
-0.2692134805405203,-0.2692134805405203,0.9983690589631349,5.949461865789659e-05
