time,time,flux,flux_err
-0.49931677959709003,-0.49931677959709003,1.0000866722605066,0.00019203802071338406
-0.4978832563676406,-0.4978832563676406,0.9997398267128128,0.0001823092915395978
-0.4972705647247494,-0.4972705647247494,1.000076514328611,0.0001879083186385913
-0.4968610423580685,-0.4968610423580685,0.9999379861173552,0.00019380505031800073
-0.496376198692451,-0.496376198692451,1.0000032393038274,0.00017331917203953665
-0.49549940203578446,-0.49549940203578446,0.9999943812539085,0.00017699946961301628
-0.4945336109463824,-0.4945336109463824,1.0002737607197532,0.0001879076684169102
-0.49346213028620695,-0.49346213028620695,0.9998134672684627,0.00017740040828392647
-0.4927535083676048,-0.4927535083676048,1.0000643239264217,0.0001923095780367191
-0.4923472859816684,-0.4923472859816684,1.0004341746205252,0.00018237693685010988
-0.49148405051091687,-0.49148405051091687,1.0001585638174058,0.00017699860481908532
-0.4899136862222804,-0.4899136862222804,1.0001377889426035,0.0001823362325184995
-0.48857840337514064,-0.48857840337514064,0.9999931387804146,0.00018731954424159615
-0.48816297434605077,-0.48816297434605077,0.9999587476396024,0.00018347783039668347
-0.487880514965218,-0.487880514965218,0.999930269670618,0.00017776168144716014
-0.4868152293645835,-0.4868152293645835,0.9999311861994888,0.00017166034174552746
-0.4854867866364657,-0.4854867866364657,1.000086539314344,0.00017718562039698786
-0.4846212693213602,-0.4846212693213602,0.9999576561110389,0.00018222784968991842
-0.4840935130217986,-0.4840935130217986,1.0000044539073425,0.00019230473587894341
-0.48360307754701354,-0.48360307754701354,1.0000695985484298,0.00017915834091930308
-0.4828442362872011,-0.4828442362872011,0.9999216714688737,0.00017701728110756628
-0.4817788548592944,-0.4817788548592944,1.0000202181626745,0.00017218712704860758
-0.48035373520833674,-0.48035373520833674,1.0001451915244313,0.00018228757244181124
-0.4797810556643526,-0.4797810556643526,1.000075602328521,0.00019235827966347993
-0.4793658711889293,-0.4793658711889293,1.0001999382245903,0.000177252337654528
-0.47802587328624213,-0.47802587328624213,1.0001091987712434,0.00017705938104876651
-0.47630461390144774,-0.47630461390144774,0.9998942671980513,0.00018735156024691645
-0.4755505591398105,-0.4755505591398105,0.9998701692015073,0.00019300170312881444
-0.47525934250516,-0.47525934250516,1.000120397175423,0.00017784755145145453
-0.4750029440547223,-0.4750029440547223,0.9997426810819492,0.0001778426702606853
-0.47395261318597476,-0.47395261318597476,0.9999842727982345,0.00017699023193026855
-0.4729236327861145,-0.4729236327861145,0.9997795046713815,0.00017187146379800546
-0.4718494816173916,-0.4718494816173916,1.000141650295522,0.00018226379401988012
-0.4712993753484625,-0.4712993753484625,1.0001869922362865,0.00019229936865315433
-0.47082087471499107,-0.47082087471499107,1.000278240314244,0.00018992623212345952
-0.47037393806458566,-0.47037393806458566,0.9998376155140912,0.00017160214371399435
-0.4693842791413772,-0.4693842791413772,0.9999247489018176,0.00017167851545996603
-0.4677389427903108,-0.4677389427903108,1.0000800938005674,0.0001822788882939639
-0.4669737993790477,-0.4669737993790477,1.000344947358244,0.0001923505811962911
-0.4664951109029062,-0.4664951109029062,1.0000715145698746,0.00017731668717549024
-0.4651477125342353,-0.4651477125342353,0.9999821042186683,0.00017707422689945896
-0.46349922096924273,-0.46349922096924273,1.000339295434045,0.0001823165954420779
-0.4628950974176405,-0.4628950974176405,1.000096801092795,0.00019226306452524468
-0.462439628373977,-0.462439628373977,0.9999553769041233,0.00018433260387189292
-0.4622318134723173,-0.4622318134723173,1.0000917741878181,0.00018320360084338438
-0.46132033189423965,-0.46132033189423965,0.999775201526797,0.00017151616378795523
-0.4603584859869443,-0.4603584859869443,1.0002028308109672,0.00017733306194520033
-0.4590674604827655,-0.4590674604827655,1.0001914997988923,0.0001770259601258726
-0.45849441356112947,-0.45849441356112947,1.0000272400900614,0.00019234679136540342
-0.45803397015624797,-0.45803397015624797,0.9999935722371098,0.00019035065971862691
-0.4575068040117912,-0.4575068040117912,1.0003951805005165,0.00017160148151351364
-0.4562885689105315,-0.4562885689105315,0.9999276654140516,0.00017712433655680474
-0.45448811043897874,-0.45448811043897874,1.000114446854792,0.0001823127441813238
-0.45387949958167156,-0.45387949958167156,0.9999395352387674,0.00018767647530776188
-0.4532984897072311,-0.4532984897072311,1.0002350092819534,0.00017697526255355375
-0.4519959401732194,-0.4519959401732194,0.9999738148573423,0.00017709547263070616
-0.45041562517362765,-0.45041562517362765,1.000012713752494,0.00018224406643951724
-0.4498728400714754,-0.4498728400714754,0.9996533038307062,0.0001923710016256922
-0.44954193467565345,-0.44954193467565345,1.0000793779380135,0.00017989734906427593
-0.44926775853600703,-0.44926775853600703,0.999604387848045,0.00018334898205512568
-0.44853074608254245,-0.44853074608254245,1.0000117951943936,0.00017703431754223267
-0.4476525258411129,-0.4476525258411129,1.000016512292014,0.0001716339394622804
-0.44640537288432824,-0.44640537288432824,1.000149926873236,0.0001825538918731596
-0.4458124775985198,-0.4458124775985198,0.9999810666422375,0.00018234092564499709
-0.4453406886248558,-0.4453406886248558,0.9997931224389693,0.00019235629870404276
-0.4448101868474623,-0.4448101868474623,0.9999805443366376,0.00016602436901649043
-0.44370624501098066,-0.44370624501098066,1.0001386033200899,0.00017709722649673297
-0.4420155249448726,-0.4420155249448726,0.9998227584379252,0.00018229816087423633
-0.44120992882890275,-0.44120992882890275,1.0001726648782865,0.00019230269086395704
-0.44084986281814054,-0.44084986281814054,1.0000368277628544,0.00018260429400511615
-0.43990090424194933,-0.43990090424194933,0.9998838376097556,0.00017699767614900096
-0.43841023755885544,-0.43841023755885544,1.000115438567628,0.00017711422071212154
-0.43742211408607545,-0.43742211408607545,0.9997070433930191,0.0001822638005538752
-0.4368870913618593,-0.4368870913618593,1.0000866746947268,0.00019367713093013485
-0.43664610674168214,-0.43664610674168214,0.9998898757474393,0.00017915219839314067
-0.43620370482240106,-0.43620370482240106,1.00015057806233,0.00017284687526911694
-0.43524289898050483,-0.43524289898050483,0.9998021241722063,0.00017701917957646613
-0.4345685213113029,-0.4345685213113029,1.0001044023823962,0.00018257934826903944
-0.4334418719292444,-0.4334418719292444,0.9998559852203636,0.00017711182520654077
-0.43281710767405457,-0.43281710767405457,1.0000784965707052,0.00018733965846140112
-0.4323652776569361,-0.4323652776569361,0.9999992847174871,0.00018747511185618777
-0.431772803455533,-0.431772803455533,0.9999564980324953,0.00017157327047392443
-0.4307074056283454,-0.4307074056283454,0.9999381948728754,0.00017901065439789848
-0.4291373527419637,-0.4291373527419637,0.9999180120285611,0.00018232741524407483
-0.4283224771868845,-0.4283224771868845,1.0000923522390104,0.0001922910529686337
-0.4279725092732406,-0.4279725092732406,1.0001523899229714,0.00018269360090563362
-0.42721826983688516,-0.42721826983688516,1.0002436674715667,0.00017697105738237242
-0.42589382009464316,-0.42589382009464316,1.0001082278068887,0.00017713266361921444
-0.4246335724950768,-0.4246335724950768,0.9999783507706909,0.0001770184900450444
-0.42409499495915953,-0.42409499495915953,0.9998401961888878,0.00019011037784555306
-0.4237532343453495,-0.4237532343453495,0.9999522076133308,0.0001901326898302895
-0.42318783447990427,-0.42318783447990427,0.9999944602191745,0.00017159185706926941
-0.4221847773878835,-0.4221847773878835,0.999986539333243,0.00017708973945403762
-0.421220321211149,-0.421220321211149,1.0000550993739155,0.00017746628974619732
-0.4203110373557138,-0.4203110373557138,1.0002196925980746,0.00017709264498375605
-0.41982283153774913,-0.41982283153774913,0.9997113727282233,0.00019229160443791422
-0.4193871639785357,-0.4193871639785357,0.999793865781669,0.0001822462828634821
-0.4186801490162907,-0.4186801490162907,0.9999565733188124,0.000177038734390905
-0.4176096175542625,-0.4176096175542625,0.999895392699675,0.00017956507169165177
-0.4159098957752576,-0.4159098957752576,0.9998591152863222,0.00018736803476871548
-0.41528230884869116,-0.41528230884869116,1.0000691529651387,0.00018736143650396666
-0.4149071894091321,-0.4149071894091321,0.9997566477697575,0.0001775861476230217
-0.41388118748291164,-0.41388118748291164,0.9998404366765736,0.00017703538498123334
-0.4125168180922628,-0.4125168180922628,0.9999976077975361,0.00017709912251328774
-0.41166536456366887,-0.41166536456366887,0.9999317949120863,0.0001823032848291817
-0.4111165268572222,-0.4111165268572222,1.0000008537502987,0.00019127259972391865
-0.41062900772158173,-0.41062900772158173,1.0000465542403791,0.0001784702417150385
-0.4096638456241635,-0.4096638456241635,0.9999567192152959,0.00017702827357949472
-0.4086208038053883,-0.4086208038053883,0.9998071600391135,0.00017760998793461122
-0.40743763466307426,-0.40743763466307426,1.0000634884710586,0.00017714428556686308
-0.40693259663676146,-0.40693259663676146,0.9998153258386507,0.0001922594314712679
-0.4065109820374346,-0.4065109820374346,0.9999795356326459,0.00018235432982852384
-0.40580635657534003,-0.40580635657534003,0.9999379188369895,0.00017701713455855553
-0.4047366365128255,-0.4047366365128255,0.9998936383046371,0.00018023894271522223
-0.40302683701956993,-0.40302683701956993,0.9998291665359831,0.00018736003164652022
-0.40232837436706176,-0.40232837436706176,0.9999131452875852,0.0001822904541057334
-0.40194719402425105,-0.40194719402425105,0.9997811888115871,0.0001776740664125526
-0.40075852837908316,-0.40075852837908316,1.0000742434094707,0.0001770726747807357
-0.3993415247372468,-0.3993415247372468,0.9997878478991581,0.00017713410110495304
-0.3986693095663213,-0.3986693095663213,0.9998605137245951,0.0001873595693980894
-0.39814916075920337,-0.39814916075920337,0.9999047394400062,0.00019342592123945118
-0.39766266215083307,-0.39766266215083307,0.9997878693032172,0.0001733058245878826
-0.3967870729364222,-0.3967870729364222,0.9999434538988702,0.00017701686453677144
-0.3957314000377664,-0.3957314000377664,0.9999508051706512,0.0001831267605623903
-0.3946750436763978,-0.3946750436763978,1.0001349665523123,0.00018226345171459195
-0.394042508945131,-0.394042508945131,0.9997956793902383,0.00019226151493977023
-0.3936348901210295,-0.3936348901210295,0.9998836896460744,0.00018240759672943783
-0.39277137324097566,-0.39277137324097566,0.999900722037258,0.00017698568780886978
-0.3912013103472418,-0.3912013103472418,0.9998735821889385,0.0001823442608741267
-0.38986727610972594,-0.38986727610972594,0.9997754235135174,0.0001873669319221707
-0.3894504850148223,-0.3894504850148223,1.0002823817791406,0.00018342799407772495
-0.38916748992123756,-0.38916748992123756,0.9998596779704881,0.0001777117512304376
-0.3881432768321247,-0.3881432768321247,0.9999007786490719,0.00017697778023569494
-0.3870800691584009,-0.3870800691584009,1.0000788000871734,0.0001718365046098854
-0.3860141820718127,-0.3860141820718127,0.999840679197024,0.00018223407536231454
-0.3854252740748052,-0.3854252740748052,0.9999326315124606,0.0001923463959917853
-0.384890017950238,-0.384890017950238,1.0001467574671963,0.0001790645367559988
-0.3841318092221627,-0.3841318092221627,0.9997351394686451,0.00017702242102637895
-0.383091507874633,-0.383091507874633,1.0000419819714985,0.00017771429201255136
-0.38187628160085296,-0.38187628160085296,0.9999154582932235,0.00017754332469532315
-0.38115256753590077,-0.38115256753590077,0.9999697178066249,0.0001923034999075123
-0.380751654307096,-0.380751654307096,1.0002014047426804,0.00018244272415514714
-0.37959342102403754,-0.37959342102403754,1.000207722126762,0.00017703523044318347
-0.37797067553401575,-0.37797067553401575,0.999872373543354,0.00018228527103221704
-0.3769417295610765,-0.3769417295610765,0.9997942221177419,0.0001923514131361137
-0.37657541577573284,-0.37657541577573284,1.0001715806853508,0.0001837219841511407
-0.37637628877710083,-0.37637628877710083,1.0003042797902852,0.00017787717121510357
-0.37547460972855334,-0.37547460972855334,0.9997678629748734,0.00017156112586091992
-0.3745220921111468,-0.3745220921111468,1.0001723384434975,0.0001772605991384705
-0.37322406462117214,-0.37322406462117214,0.9996018580966599,0.00017699054684670642
-0.37267431003710955,-0.37267431003710955,1.000054047731864,0.00019228402014634784
-0.3722052038567199,-0.3722052038567199,0.999718700584261,0.00018989942392674805
-0.3716606562367815,-0.3716606562367815,1.0003518974286298,0.00017164349922660867
-0.370671652481542,-0.370671652481542,0.9999199870781996,0.00017164868140562409
-0.36902671041898427,-0.36902671041898427,1.0001796219652541,0.0001822984457185966
-0.3682627714893897,-0.3682627714893897,0.9997719931318949,0.0001922905740165167
-0.36787509149653486,-0.36787509149653486,0.999910448688983,0.00018250740197105358
-0.3667174031950708,-0.3667174031950708,0.9999902043828734,0.00017701888684999606
-0.3651287098233297,-0.3651287098233297,1.0001273625797804,0.000182303288955901
-0.3642734443594236,-0.3642734443594236,1.0001581260476562,0.00018734076411486598
-0.36378909997147274,-0.36378909997147274,0.9999499052721379,0.00018824670797041348
-0.3635817453810887,-0.3635817453810887,0.9999901602363298,0.00018428226312906364
-0.3628788434973103,-0.3628788434973103,0.9997003797501911,0.0001715285362731979
-0.3618147540604696,-0.3618147540604696,0.9998298212771676,0.00017163139242887246
-0.36056165920381317,-0.36056165920381317,0.9997096928686574,0.0001824466502479359
-0.3598804769826529,-0.3598804769826529,0.9997106446423848,0.00018736523737701398
-0.35942221542354674,-0.35942221542354674,1.0001598053170973,0.00018738948892365072
-0.3589488730969606,-0.3589488730969606,0.9998563491771251,0.0001747914526334323
-0.3578729956781899,-0.3578729956781899,0.9999664833236093,0.00017703177833383442
-0.3560503588312713,-0.3560503588312713,0.999955617462523,0.00018231795248035024
-0.35526870313769904,-0.35526870313769904,1.0003665249074143,0.00018738353099282762
-0.35479651041168836,-0.35479651041168836,0.9999895510116372,0.00017736006794406123
-0.3535574615074438,-0.3535574615074438,1.0001961848876237,0.00017707026941521042
-0.3519121952551359,-0.3519121952551359,1.0000324481485738,0.00018227180815339313
-0.3512926248840813,-0.3512926248840813,1.0001131707345066,0.00019225261200967519
-0.3508899401509552,-0.3508899401509552,0.9999419999334865,0.0001798603425378091
-0.3507025840364804,-0.3507025840364804,1.000133879148919,0.00018844854399977965
-0.35020877164424746,-0.35020877164424746,0.9998720303771608,0.00017164127150282068
-0.34924596810087677,-0.34924596810087677,0.9999231388721779,0.0001770190741240424
-0.3481643183418782,-0.3481643183418782,0.9999420014810385,0.00017189753897689682
-0.3473382898453565,-0.3473382898453565,1.0001279829456426,0.0001822702073191864
-0.34680786296084987,-0.34680786296084987,0.9999646773604655,0.00019232592873132313
-0.34633092692602074,-0.34633092692602074,0.9999113764007881,0.00017703342002879237
-0.34545990808765054,-0.34545990808765054,1.0002043415548794,0.00017701413106406685
-0.3439947417973599,-0.3439947417973599,1.000052196248207,0.000182349545002565
-0.3427463776206423,-0.3427463776206423,1.000328592033089,0.00018228804020435643
-0.3422681045165518,-0.3422681045165518,0.9999677077188863,0.00018773336305796806
-0.3417152688598435,-0.3417152688598435,0.9999738816961823,0.00017703294030212878
-0.3404083151399391,-0.3404083151399391,0.9999455863252498,0.00017706080750150435
-0.3388608383422252,-0.3388608383422252,0.9999753464242446,0.00017700679391798973
-0.33840111576937487,-0.33840111576937487,1.000116372517923,0.00019227950069407838
-0.33798080663982544,-0.33798080663982544,0.9999238617174061,0.00018579502172194978
-0.33773001004810793,-0.33773001004810793,0.9998479967344347,0.00017812076230449525
-0.3369440472080896,-0.3369440472080896,1.0000137424473752,0.00017698088702405537
-0.33617492106932334,-0.33617492106932334,1.0000568529110547,0.00017706634819977194
-0.3349803190358216,-0.3349803190358216,0.9998422537975113,0.0001825507554849235
-0.3342170813077246,-0.3342170813077246,1.000209997707716,0.00018230571740027255
-0.3337381876313884,-0.3337381876313884,0.9997452011444985,0.0001923195129256698
-0.3332352449542668,-0.3332352449542668,0.9999716747771166,0.0001660460382828677
-0.3321153730998049,-0.3321153730998049,1.0002775284043348,0.0001770789065389713
-0.33042516458735915,-0.33042516458735915,1.0000630060160765,0.00018228626602757964
-0.32961121696353074,-0.32961121696353074,0.999909987450992,0.0001923137927891198
-0.32926024023036005,-0.32926024023036005,1.0002055277483883,0.0001826913693885391
-0.32831572991854047,-0.32831572991854047,1.0003862417331664,0.00017699409088145268
-0.32707820921132225,-0.32707820921132225,0.9998523440035217,0.00017718202909016337
-0.3259208938987285,-0.3259208938987285,0.9999959858706353,0.0001770084859515322
-0.32538329738381433,-0.32538329738381433,0.999901367036468,0.00018999630595186438
-0.3250410855951486,-0.3250410855951486,0.9999420528758594,0.00019013074920433203
-0.3244745370313467,-0.3244745370313467,1.000112571307584,0.00017160313781998122
-0.32347253156331135,-0.32347253156331135,0.9998777916899654,0.00017698706418667277
-0.3225074803092866,-0.3225074803092866,1.0000468422580486,0.00017745130041155183
-0.3215983844405855,-0.3215983844405855,0.9996202920525116,0.0001770230014707859
-0.32111186348774934,-0.32111186348774934,1.0002807734675858,0.0001923164539432907
-0.32067478677781763,-0.32067478677781763,1.0000617555315927,0.0001822821410549786
-0.319967533043382,-0.319967533043382,1.0001641526012386,0.00017699487119902078
-0.31889692069089504,-0.31889692069089504,1.0000499749562732,0.00017955230515259745
-0.3171982087871584,-0.3171982087871584,1.0000601845797819,0.00018737615881243226
-0.3165706368192332,-0.3165706368192332,0.9998702176548692,0.0001873234704908861
-0.3161941836908227,-0.3161941836908227,1.0000204122133562,0.00017753722266724566
-0.3153809057519538,-0.3153809057519538,0.999961300305048,0.00018221343484222806
-0.3141148127899214,-0.3141148127899214,1.0002051708748632,0.0001771742313093323
-0.3130704898314434,-0.3130704898314434,0.9996549956246383,0.00017158717902568285
-0.31261849217335114,-0.31261849217335114,0.9999737020667834,0.00019230661666397734
-0.3122199099205318,-0.3122199099205318,1.0002425474288061,0.00018798383523410155
-0.31175849452920373,-0.31175849452920373,0.9999846845064209,0.0001730414593450863
-0.31075708780263084,-0.31075708780263084,0.9998750569234115,0.00017699369788647814
-0.30961060147965325,-0.30961060147965325,0.9997471981015483,0.00018280617115035844
-0.3086271814601787,-0.3086271814601787,0.9999571189725032,0.00017709424225590813
-0.3081380776697188,-0.3081380776697188,1.0001629115070765,0.000192326817984608
-0.30772331077387205,-0.30772331077387205,0.999873443970818,0.00017708511305274986
-0.3068319708225317,-0.3068319708225317,1.000046132114,0.0001770606321630244
-0.30569764569809194,-0.30569764569809194,0.9998281044723798,0.0001853407819977553
-0.3041263689985499,-0.3041263689985499,0.999919631749093,0.0001873584655950984
-0.3035642418348289,-0.3035642418348289,0.9999757812390904,0.0001829132250349996
-0.3030199678200006,-0.3030199678200006,0.9999164223422049,0.00017696374669369752
-0.3017900784208905,-0.3017900784208905,0.9998938619844712,0.0001717206408883485
-0.3004571857971314,-0.3004571857971314,1.0001258849390129,0.00018233143763187652
-0.29983224201569103,-0.29983224201569103,1.000145095194841,0.00018734355972439286
-0.2993295785410737,-0.2993295785410737,0.9999627319004956,0.00019463587239700693
-0.29882757272280286,-0.29882757272280286,1.0001160064203838,0.0001660088083607141
-0.2978797874209704,-0.2978797874209704,0.9997913582578011,0.0001770140558501171
-0.2968928702270205,-0.2968928702270205,0.9998402692514098,0.00018286355874673737
-0.29581137888235387,-0.29581137888235387,0.9999816190707149,0.00018231625362653375
