time,time,flux,flux_err
-0.4998906761757098,-0.4998906761757098,1.0000127756855253,0.00021824080480762264
-0.49954248961585107,-0.49954248961585107,0.9997626520636999,0.00022202134664122287
-0.4991536207133322,-0.4991536207133322,0.9999148717226174,0.00021825579123168856
-0.49874344357231165,-0.49874344357231165,0.9998811355756553,0.00022205585031249744
-0.4984172809170559,-0.4984172809170559,1.0000326532433215,0.0002182160871713048
-0.49805400640616426,-0.49805400640616426,0.9994970858874026,0.00021448523811545963
-0.4977754372812342,-0.4977754372812342,0.9998031394716763,0.00021834095683125106
-0.49737763628363607,-0.49737763628363607,0.9998071620113734,0.0002144908174736357
-0.49707440835773015,-0.49707440835773015,0.9999025433763336,0.00021837358271690373
-0.49672725325071954,-0.49672725325071954,1.0001376160502482,0.00021446542449652474
-0.49634497218939944,-0.49634497218939944,0.9999105961711339,0.000218336821440381
-0.49603718903963456,-0.49603718903963456,1.0003694941501782,0.00021451325658172906
-0.49569222942518537,-0.49569222942518537,1.0002665493423228,0.00021927347306572787
-0.49531999872560845,-0.49531999872560845,0.9998878165978631,0.00021826857692093345
-0.49484448264120146,-0.49484448264120146,1.0002885723059618,0.00022201733060391455
-0.4945065234787762,-0.4945065234787762,0.9998136919524125,0.00021436883077098596
-0.493972982474952,-0.493972982474952,0.9997771180481978,0.0002183048225171001
-0.49369193624006585,-0.49369193624006585,0.999899471419605,0.00022199190056892992
-0.49310507195768877,-0.49310507195768877,0.9998073589938693,0.0002143761490488825
-0.49284698626433965,-0.49284698626433965,1.0001195756924741,0.0002182771904506995
-0.4923110715521034,-0.4923110715521034,1.0000871149870203,0.00021811497197280882
-0.49186388162343064,-0.49186388162343064,1.0000222807152626,0.0002144582217447151
-0.4913004337067832,-0.4913004337067832,1.000062359319091,0.00022208415481658476
-0.49072489490063165,-0.49072489490063165,0.9999892001560216,0.0002181601183645717
-0.4901479700187338,-0.4901479700187338,0.9997867992181885,0.00021448163809246237
-0.489645262848353,-0.489645262848353,1.000268426746211,0.00021828290253057353
-0.4890613321796991,-0.4890613321796991,0.9998513598381729,0.0002143801300051878
-0.4883798971713986,-0.4883798971713986,1.0000241048878449,0.00021827608126004854
-0.48766705334128346,-0.48766705334128346,0.9998569206008641,0.00021826363156845756
-0.4868864671385381,-0.4868864671385381,1.0001350358660475,0.00021450889113589308
-0.4859230536108953,-0.4859230536108953,0.999514517042785,0.00021441295591683078
-0.48495542598393515,-0.48495542598393515,0.9999760084021816,0.00021449397224517506
-0.48378938735695554,-0.48378938735695554,1.000199017362803,0.00022216777894494316
-0.4816996291221585,-0.4816996291221585,1.0000061435429286,0.00020654228708064746
-0.4781007658035378,-0.4781007658035378,1.0002104421770661,0.0002145806797938517
-0.475256714556599,-0.475256714556599,1.000129637099082,0.00021846351340789027
-0.4714414274625597,-0.4714414274625597,1.000163463278352,0.00022601394249633608
-0.4672224367852323,-0.4672224367852323,1.0000364704744102,0.00022598099170673737
-0.4635956938393065,-0.4635956938393065,0.999923592376786,0.00025099150875198775
-0.4618276984328986,-0.4618276984328986,0.9999400204049855,0.0002799455676778865
-0.45960675857932076,-0.45960675857932076,1.0000435462068706,0.0002222432958336137
-0.4563166427818942,-0.4563166427818942,1.0001845367837194,0.00021845794943665402
-0.4539627044563531,-0.4539627044563531,0.9999900412961376,0.00020681987307735278
-0.4517514374136226,-0.4517514374136226,1.0001679053408086,0.00021082762893064982
-0.4507579124023323,-0.4507579124023323,1.0000336793631788,0.00021957887744926673
-0.44977724263153507,-0.44977724263153507,0.9998473652429624,0.00021731695073764806
-0.4488114074047189,-0.4488114074047189,1.0003333247738846,0.0002202016430139924
-0.44755566561507293,-0.44755566561507293,1.0000962412217889,0.00021463862871145935
-0.44636936015303946,-0.44636936015303946,1.0003677153172064,0.00021158299443141708
-0.44541184857371263,-0.44541184857371263,1.0002144840120182,0.0002164126601958864
-0.4444366019553854,-0.4444366019553854,0.9999859149230858,0.00021047177956506563
-0.44355007049744016,-0.44355007049744016,1.0002862021726917,0.0002105417394144233
-0.4427045878226636,-0.4427045878226636,0.9997258605345041,0.00021442278837844583
-0.44196451988536867,-0.44196451988536867,0.9999609408985434,0.00021443791902020184
-0.4413188690828974,-0.4413188690828974,0.9998880003450917,0.00021056910428227907
-0.4407390515931183,-0.4407390515931183,0.9999640182674154,0.0002144729907760465
-0.44017881497566125,-0.44017881497566125,0.9998096559889641,0.00021444600782740886
-0.4396325664347387,-0.4396325664347387,1.0000820923592018,0.0002143787686951305
-0.43913174861954757,-0.43913174861954757,0.9998720293865011,0.00021827190498798364
-0.43866186435188864,-0.43866186435188864,0.9996885697632731,0.00021452493447545948
-0.4381549906436703,-0.4381549906436703,0.9999014506775851,0.0002144062075971985
-0.4378068261416047,-0.4378068261416047,0.999830322723447,0.0002145517731901451
-0.43733147672610356,-0.43733147672610356,0.999956254709819,0.0002143188992996722
-0.4367826890127617,-0.4367826890127617,1.00011871388595,0.00021820860867214557
-0.4362944090637029,-0.4362944090637029,0.9999594250712288,0.00021823709599685012
-0.43587039139092665,-0.43587039139092665,0.9997983029250713,0.00021815216987668465
-0.435334831601358,-0.435334831601358,1.0002386453383831,0.00022199024654726154
-0.43491457382624504,-0.43491457382624504,0.9999692295072171,0.0002143159630280626
-0.4344374416657956,-0.4344374416657956,0.9998771145920149,0.000218226132207315
-0.43401041090255604,-0.43401041090255604,0.9995547331981995,0.00021961093961069474
-0.4336479415738722,-0.4336479415738722,1.0000075468892553,0.00021831834994161695
-0.433253843554121,-0.433253843554121,0.9998590348136362,0.00021898414689637525
-0.43289321171614575,-0.43289321171614575,0.9998305820838048,0.00021440618498233614
-0.4325877096678596,-0.4325877096678596,0.9997098722613771,0.00022269997409428522
-0.4322010510353721,-0.4322010510353721,0.9999418622554149,0.00021442628173265092
-0.43188775393209655,-0.43188775393209655,0.9996308090240091,0.00022208917131267842
-0.43150386122142664,-0.43150386122142664,1.0000880489805717,0.00021845674620979888
-0.43113486751099117,-0.43113486751099117,0.9997480168642495,0.00021825536210601216
-0.43081900645775023,-0.43081900645775023,1.0002104930223843,0.00021827116672862808
-0.4305038463426172,-0.4305038463426172,0.9999267370650466,0.00021442167379619312
-0.4302401901804842,-0.4302401901804842,0.9998551914082883,0.000218254549756593
-0.42979978800285606,-0.42979978800285606,1.0002300791070566,0.00021823034128943994
-0.4295230431118398,-0.4295230431118398,1.0000954291502153,0.00021837680864306622
-0.42913173337292393,-0.42913173337292393,1.0001083543190608,0.00021812483881889782
-0.4288263352224021,-0.4288263352224021,1.0002412258850633,0.00021838197910938766
-0.42847605647548337,-0.42847605647548337,1.0002956789097779,0.00021809049765823918
-0.42813078978360863,-0.42813078978360863,0.9997883083429695,0.00021844759005832005
-0.42777641431603114,-0.42777641431603114,1.0003563330140293,0.00021820881546265794
-0.42744977749098323,-0.42744977749098323,0.9997739804229898,0.00021830379869534352
-0.4270910970342811,-0.4270910970342811,1.0000571659330912,0.00022205324455132586
-0.4268901554212789,-0.4268901554212789,0.9997930366475858,0.00021446362294638179
-0.4264033671744983,-0.4264033671744983,0.9997129355123657,0.00022200284436864017
-0.42613124239142053,-0.42613124239142053,0.9996261888442168,0.0002182461665879316
-0.4256227571386262,-0.4256227571386262,1.0001139995765782,0.00021823915284339463
-0.4253700912493514,-0.4253700912493514,1.0002664320128682,0.00022218062687130036
-0.4249258044801536,-0.4249258044801536,1.0000716349427716,0.0002193230707030123
-0.4246240964741446,-0.4246240964741446,0.9999295377487085,0.00022205877384994037
-0.42429554056870983,-0.42429554056870983,1.0000411615451235,0.00021711683721129042
-0.42389764155086596,-0.42389764155086596,1.000255781803983,0.00022212829975947103
-0.42361378564237384,-0.42361378564237384,1.0002286513194747,0.0002193152514946424
-0.4232231190195307,-0.4232231190195307,0.9998488463929576,0.00021825473185912848
-0.4228726169880247,-0.4228726169880247,0.999731662560712,0.00021834618838866945
-0.42246638870856257,-0.42246638870856257,1.0002979081057792,0.00022202858928133617
-0.4220978976780316,-0.4220978976780316,0.9999174316428414,0.0002182896338009937
-0.42171532816137186,-0.42171532816137186,1.0003263444395565,0.00021820110888161147
-0.421375825292489,-0.421375825292489,0.9997760582019868,0.0002144495347309975
-0.4210971167849493,-0.4210971167849493,0.999884728775854,0.00021841964888059183
-0.4207802745091612,-0.4207802745091612,1.0000794238134352,0.00021820090042712795
-0.42043047658808064,-0.42043047658808064,1.00003152424014,0.00021850882742737945
-0.4201199982460821,-0.4201199982460821,1.000003410024378,0.00021815431121056383
-0.419751621875912,-0.419751621875912,1.000084012293566,0.00021066485162487257
-0.41941370374552206,-0.41941370374552206,1.0001357278282579,0.0002221629613383457
-0.419110543752322,-0.419110543752322,0.9998133788907022,0.00021111294260562998
-0.4186817676309147,-0.4186817676309147,1.0005433664028487,0.00022580846013214075
-0.4183461260399781,-0.4183461260399781,0.9998265371442528,0.0002144197689408267
-0.41784931548318127,-0.41784931548318127,1.0001242209175374,0.00021820851141232932
-0.4174570447183214,-0.4174570447183214,1.0002305476444118,0.00021827471107275942
-0.4170508090552175,-0.4170508090552175,0.9999037510499533,0.0002182224173663178
-0.41657291211304254,-0.41657291211304254,1.0000492612627387,0.00021831336253470146
-0.4162293649584171,-0.4162293649584171,1.0001449041485981,0.00022199829298954256
-0.41561473294132156,-0.41561473294132156,1.0004091489752969,0.00021434627308159442
-0.4152287833712762,-0.4152287833712762,0.9998007074103883,0.00021828175858767726
-0.4146849395358004,-0.4146849395358004,0.9999466895740833,0.0002181805848211002
-0.41404174991184844,-0.41404174991184844,1.0000834642541054,0.0002220618455513604
-0.4133994652162073,-0.4133994652162073,0.9997519530323047,0.0002144485208951056
-0.41290166902617786,-0.41290166902617786,0.9997360043789774,0.00021826420422164152
-0.41234249048284255,-0.41234249048284255,1.0000358493584696,0.00021825752193278033
-0.4117447996104602,-0.4117447996104602,0.9999473792591858,0.00021442890751767344
-0.41108356855111194,-0.41108356855111194,1.0000894886363942,0.00021825445381785466
-0.41029932521341833,-0.41029932521341833,1.0002770378881876,0.00021453949494292857
-0.4093791795763536,-0.4093791795763536,1.0000558424580932,0.00021829802552659157
-0.40842365844146117,-0.40842365844146117,1.000019044035689,0.00021440890163282921
-0.40745276575762546,-0.40745276575762546,0.9999377770858615,0.00021445358258264128
-0.4062762119603576,-0.4062762119603576,1.000023189367114,0.0002145301641018833
-0.40352441620489116,-0.40352441620489116,1.000170764195798,0.00020658253346342512
-0.40000181878567675,-0.40000181878567675,1.0001824525268248,0.0002184264917122854
-0.39721897943963996,-0.39721897943963996,1.0003349139939735,0.00022230501153583534
-0.39302396857674465,-0.39302396857674465,0.999793885203621,0.00022600843618531016
-0.38956395745044575,-0.38956395745044575,0.9999067904387612,0.0002222755057100392
-0.386353409725416,-0.386353409725416,1.0000259990720888,0.0002485528193292031
-0.3842474653487443,-0.3842474653487443,0.9997452959366718,0.0002765905845205143
-0.38123596326477127,-0.38123596326477127,1.0002312260678323,0.00022221696569345908
-0.3790187157923356,-0.3790187157923356,1.0000687510039807,0.00021874878371220042
-0.3771645698303473,-0.3771645698303473,0.9998731793387892,0.00021074230051477562
-0.37490461243287426,-0.37490461243287426,0.9998515875211653,0.0002067114001833376
-0.3735872122677392,-0.3735872122677392,1.0000678576535504,0.00021553268206161457
-0.3726729987101862,-0.3726729987101862,1.0000761643713594,0.000225469051356859
-0.3715894519642461,-0.3715894519642461,0.9996710582668046,0.00021456221941668232
-0.370324157930736,-0.370324157930736,0.9999170735311651,0.0002107271427145888
-0.36912858503346796,-0.36912858503346796,1.0001050325371303,0.00021690737620724089
-0.3680432314504287,-0.3680432314504287,1.000066669637765,0.00021056985646378804
-0.3671623512433143,-0.3671623512433143,1.0001162842844562,0.0002144101551820177
-0.3662561751567409,-0.3662561751567409,1.0002877226259599,0.0002104939007991547
-0.36536033414449776,-0.36536033414449776,1.0001250913112332,0.00021443029564675612
-0.3647115181738627,-0.3647115181738627,0.9997592188305241,0.00021051281567488928
-0.36407235877850325,-0.36407235877850325,1.0000193414818594,0.0002106773107476481
-0.36352013009163786,-0.36352013009163786,1.0000461719193,0.00021827481737632525
-0.36301213301339885,-0.36301213301339885,1.0001039015288988,0.00021441311784626085
-0.36250593864533587,-0.36250593864533587,0.9998740644966061,0.0002144164840042427
-0.3619676933216397,-0.3619676933216397,0.9999258104583495,0.00021448726763622202
-0.3615068320927094,-0.3615068320927094,0.9999968604356457,0.00021816379087790362
-0.3610770634782966,-0.3610770634782966,1.0002312893147878,0.0002146387395898591
-0.36057565557712223,-0.36057565557712223,0.9999301962703047,0.00021430963337204073
-0.36003249038330976,-0.36003249038330976,0.9999445585477333,0.0002182139424492989
-0.3595481703508995,-0.3595481703508995,1.000178013973628,0.00022210199645632118
-0.3592117249063449,-0.3592117249063449,0.9999671267831035,0.00021434470392794422
-0.3586820289172465,-0.3586820289172465,0.9999653354088662,0.00022200775699803016
-0.35827294375776547,-0.35827294375776547,1.0000786853947468,0.00021430606214706236
-0.35775486257916783,-0.35775486257916783,1.0002793634614426,0.000221994305734564
-0.3573644983480335,-0.3573644983480335,0.999786971198873,0.00021986987196067706
-0.3569464753265493,-0.3569464753265493,0.9997942198575116,0.00021824006754623767
-0.3566153338746517,-0.3566153338746517,0.9995689948622362,0.0002153389973369668
-0.3561767352410243,-0.3561767352410243,1.0001926629085365,0.000218285678080828
-0.3559293752317899,-0.3559293752317899,1.000337136509864,0.00021864518792394792
-0.3555109286826337,-0.3555109286826337,0.999764309744178,0.00021865874789684165
-0.3552177923862473,-0.3552177923862473,0.9998767166217675,0.00021840322549605893
-0.35482205689040713,-0.35482205689040713,1.0001641428541688,0.00021849560202870646
-0.354456922483223,-0.354456922483223,0.9997521797729274,0.00022198160032684818
-0.3541522132829414,-0.3541522132829414,1.0000830549810855,0.00021448035942397137
-0.3538054905075114,-0.3538054905075114,0.9998209939760379,0.00021824683781066574
-0.3535426652655588,-0.3535426652655588,0.9996678722154269,0.0002181819320750999
-0.3531408700422617,-0.3531408700422617,1.0000121118106207,0.00021825901830910388
-0.3528277537581744,-0.3528277537581744,0.9998681540864014,0.00021831208964405096
-0.35246849049581214,-0.35246849049581214,1.000064704651317,0.00021819909496708284
-0.35214566081995147,-0.35214566081995147,1.0000425766133243,0.00021453760541020046
-0.3517972685644054,-0.3517972685644054,1.0001994118115267,0.0002219346141990714
-0.3514454845979344,-0.3514454845979344,0.9998163280065862,0.0002145429214846633
-0.35109637813293376,-0.35109637813293376,1.0002158625063078,0.00022203235438721228
-0.350784864857269,-0.350784864857269,1.000006303283338,0.0002143941519398695
-0.3503635376604507,-0.3503635376604507,1.000256872280525,0.0002221270967245143
-0.3502134086709702,-0.3502134086709702,0.9999572841665962,0.0002143164049694459
-0.3497265182100818,-0.3497265182100818,1.0002027485806633,0.00021841359774071124
-0.34945792666403575,-0.34945792666403575,0.9999116786418082,0.0002219289651062405
-0.3489610739547061,-0.3489610739547061,0.9996776542439069,0.00021825471869840464
-0.3486811561480863,-0.3486811561480863,0.9998457615930636,0.00022201804320568741
-0.3482616895445972,-0.3482616895445972,1.0002034041209842,0.00022023581464636902
-0.34793242625455606,-0.34793242625455606,1.0000472492375334,0.00022200344412912852
-0.3476326287316624,-0.3476326287316624,1.0002030061436924,0.00021769977380469192
-0.34721460044238484,-0.34721460044238484,0.9998664594453792,0.000218246863305648
-0.3469370414153673,-0.3469370414153673,1.0001578324796399,0.00021959391748459914
-0.3465315504086902,-0.3465315504086902,0.9998237236279481,0.00022190786345915073
-0.3462174713597051,-0.3462174713597051,1.0001529337390553,0.00021844216409709584
-0.3457794004265452,-0.3457794004265452,1.0000286676924532,0.00021824110703954394
-0.3454327104889671,-0.3454327104889671,0.9999524760895472,0.00022216886900492332
-0.3450383881630842,-0.3450383881630842,1.0003075766802094,0.00021820143198053197
-0.3446872776694363,-0.3446872776694363,1.0004242553748057,0.00021448968698184614
-0.3443514709069859,-0.3443514709069859,0.9997400846725555,0.00021841222623052758
-0.3440293895328068,-0.3440293895328068,0.9999867782532995,0.00021817810853088157
-0.34368754395400175,-0.34368754395400175,1.000063868965185,0.00021856822024998772
-0.34337019625818355,-0.34337019625818355,0.9998868164300514,0.0002182056402103895
-0.3429939224166446,-0.3429939224166446,0.9998468498635615,0.0002106041916072812
-0.3426737654226599,-0.3426737654226599,0.9998361758601935,0.0002220811377016757
-0.3423518599607632,-0.3423518599607632,0.9998049635086799,0.00021087803921888293
-0.34194603453943273,-0.34194603453943273,1.0003082114918596,0.00022571805518239362
-0.3416835159383481,-0.3416835159383481,0.9999905413913186,0.00021060445152293683
-0.34114829481259223,-0.34114829481259223,1.0000464406141707,0.00022194601334707184
-0.3408413030861993,-0.3408413030861993,0.9999642543903644,0.00021829276080390165
-0.34034243515925483,-0.34034243515925483,1.0000192378202655,0.00021815295683929244
-0.3399450772049022,-0.3399450772049022,0.9998375507488119,0.00021829221421951547
-0.33954832341551083,-0.33954832341551083,0.9998731073379783,0.0002181258732490788
-0.3390562592961942,-0.3390562592961942,0.999858619028385,0.00021460317191835196
-0.3387567262820085,-0.3387567262820085,0.999999145199452,0.00022197066135075345
-0.3382175324688433,-0.3382175324688433,1.0000030075032014,0.0002144618339695315
-0.3377056073921267,-0.3377056073921267,1.0001555900029042,0.00021829396122459188
-0.3370298774636467,-0.3370298774636467,1.0000173419636194,0.00021817458194511985
-0.3364598452753853,-0.3364598452753853,1.0002061248813825,0.00022209210031125655
-0.3358945965024759,-0.3358945965024759,1.000453218351575,0.00021448019824752118
-0.3353852903630468,-0.3353852903630468,1.0000142071415397,0.00021444230844677676
-0.33480481393635275,-0.33480481393635275,0.9999452420534232,0.00021822007295375099
-0.3340338396388688,-0.3340338396388688,0.9999572949395686,0.0002182654531005399
-0.3331728306598961,-0.3331728306598961,0.9999784196536649,0.00021445097322706432
-0.33221143019909505,-0.33221143019909505,1.0000303774138308,0.00021446347829351736
-0.33125870958028825,-0.33125870958028825,0.9999974876163819,0.00021826152906042422
-0.3303130064057768,-0.3303130064057768,0.9999424262345158,0.00021837214137963336
-0.3286528865777655,-0.3286528865777655,1.0000893471054342,0.00021056678885144486
-0.3253510700247716,-0.3253510700247716,0.9999125238091715,0.0002065723387553717
-0.32184150309476534,-0.32184150309476534,0.9999948693020698,0.00022230469166613807
-0.3179853847104823,-0.3179853847104823,1.0002078881003482,0.00022600859400240554
-0.3141770817528595,-0.3141770817528595,1.0001753314575137,0.00022225617758573802
-0.3111419076754828,-0.3111419076754828,1.0000386954777523,0.0002302262189178591
-0.3090699686683365,-0.3090699686683365,0.9999210345306946,0.0002549410660065463
-0.30686480203148675,-0.30686480203148675,0.9998728167115349,0.0002551621122309023
