time,time,flux,flux_err
-0.4981325274178137,-0.4981325274178137,1.0000907536854282,2.7697393724763048e-05
-0.49596059247051016,-0.49596059247051016,1.0000078272224666,2.7692621459787696e-05
-0.49477280308807775,-0.49477280308807775,0.999984076528959,2.7695584153012456e-05
-0.4936694322008407,-0.4936694322008407,0.999972867537358,2.530098973308367e-05
-0.49270180883904685,-0.49270180883904685,0.9999497662198014,2.5323518689830163e-05
-0.49197761235409415,-0.49197761235409415,0.9999595722551508,2.5279022185827333e-05
-0.4907473405211931,-0.4907473405211931,1.0000777068575069,2.528527691685039e-05
-0.4883196789276553,-0.4883196789276553,0.999991033428944,2.5307791157993587e-05
-0.48567207125597633,-0.48567207125597633,0.9999590444779572,2.5293821764245162e-05
-0.48287678820779545,-0.48287678820779545,0.9999558579173582,2.528121478936312e-05
-0.4816036698393873,-0.4816036698393873,0.9999929963878793,2.528088604204901e-05
-0.48054703861271264,-0.48054703861271264,0.9999239156610276,2.5287200952602327e-05
-0.4796400202860241,-0.4796400202860241,0.9999993899589918,2.5313998411908564e-05
-0.47866181795398005,-0.47866181795398005,1.0000343169126955,2.5281884154380105e-05
-0.47712424670608017,-0.47712424670608017,1.0000359630376106,2.5284633416227374e-05
-0.4749796308620716,-0.4749796308620716,1.0000076169598668,2.5861164858657428e-05
-0.4726134552678559,-0.4726134552678559,0.9999585225775215,2.533187708490107e-05
-0.4696672058387776,-0.4696672058387776,0.9999386502229584,2.528022164863835e-05
-0.46822475601511543,-0.46822475601511543,1.0000205290622,2.527707207241379e-05
-0.46726429472037123,-0.46726429472037123,0.9999551420290287,2.5283951796676716e-05
-0.4663976855648798,-0.4663976855648798,0.9999821104285301,2.5299452660347884e-05
-0.46554487261455507,-0.46554487261455507,0.9999916383709164,2.5313529698639334e-05
-0.4648009497876046,-0.4648009497876046,0.9999484954921766,2.5277303949044186e-05
-0.46318301234714454,-0.46318301234714454,0.9999922471418523,2.528488843478133e-05
-0.4601420002945815,-0.4601420002945815,1.0000125078809217,2.5367464486872023e-05
-0.45729064554616344,-0.45729064554616344,0.9999549788573254,2.5284609101427435e-05
-0.45509703695279313,-0.45509703695279313,0.9999874884654136,2.5284124232006024e-05
-0.45402626440918536,-0.45402626440918536,1.00002730235023,2.5282352289925147e-05
-0.4530191391109838,-0.4530191391109838,0.9999774928370913,2.528546915088537e-05
-0.45205211813590723,-0.45205211813590723,0.9999401784117499,2.5293129016766624e-05
-0.45122108363430014,-0.45122108363430014,1.0000340734120656,2.5327293390799485e-05
-0.45057179054565494,-0.45057179054565494,1.0000287923748412,2.5279068518999288e-05
-0.44827479555096944,-0.44827479555096944,1.0000541595376962,2.5297574106346046e-05
-0.44585986922174925,-0.44585986922174925,1.0000367550951927,2.531706738241755e-05
-0.4425095791768399,-0.4425095791768399,1.0000758291000333,2.5282825275722756e-05
-0.44089849617594157,-0.44089849617594157,0.9999655829545049,2.527985989804548e-05
-0.4398517719600932,-0.4398517719600932,0.9999902062077609,2.5286748830856584e-05
-0.4389043339164346,-0.4389043339164346,1.0000158033815794,2.5294874191535264e-05
-0.4379204688331811,-0.4379204688331811,0.9999617143743844,2.5305891929524737e-05
-0.43663567827898075,-0.43663567827898075,1.000006529473411,2.5278565176530526e-05
-0.43453297258674867,-0.43453297258674867,0.9999697488528916,2.5281980503683678e-05
-0.4324728670588229,-0.4324728670588229,1.0000462959497904,2.5349347246316466e-05
-0.430032663854945,-0.430032663854945,1.0000487581259059,2.528063555927602e-05
-0.4275362715576193,-0.4275362715576193,0.9999526325805187,2.52787913789072e-05
-0.4265323808096582,-0.4265323808096582,0.9999964089427082,2.5286226563805807e-05
-0.4256343313099933,-0.4256343313099933,0.9999962225377294,2.5290046180450594e-05
-0.4247721710271435,-0.4247721710271435,0.9999982543690953,2.529290740344165e-05
-0.4239200139345485,-0.4239200139345485,1.0000468708832906,2.5320833034219596e-05
-0.42304733047494664,-0.42304733047494664,0.9999183060185505,2.528022552160586e-05
-0.4207011904247338,-0.4207011904247338,1.0000769485068228,2.5297621553552217e-05
-0.4168536455181311,-0.4168536455181311,1.0000549194118609,2.5304696656774505e-05
-0.41425903309282147,-0.41425903309282147,0.9999269050081242,2.5288236392923295e-05
-0.41305253638274736,-0.41305253638274736,1.0000198421251816,2.5282887029616967e-05
-0.4120495883500553,-0.4120495883500553,1.0000058073609446,2.528404581989523e-05
-0.4109612296073465,-0.4109612296073465,0.9999408508930326,2.529997957523541e-05
-0.4100697044108529,-0.4100697044108529,0.999972428100196,2.5330716342203088e-05
-0.409414503640437,-0.409414503640437,1.0000004990945168,2.5280477117720097e-05
-0.4073369807767449,-0.4073369807767449,1.0000234760580498,2.5287155264156614e-05
-0.4048489098466234,-0.4048489098466234,1.0000130598781514,2.5329625612106486e-05
-0.4013565395027399,-0.4013565395027399,0.9999586999696788,2.5280533517640072e-05
-0.3997439714425127,-0.3997439714425127,0.9999698412212028,2.5278628407165677e-05
-0.39870090815384174,-0.39870090815384174,1.000043642135105,2.528898998289917e-05
-0.39775111164635746,-0.39775111164635746,0.9999312771479059,2.5295084495450798e-05
-0.39690863143769095,-0.39690863143769095,0.9999729364242196,2.5311718550633188e-05
-0.39584008038946195,-0.39584008038946195,1.0000412502470517,2.5283427296352566e-05
-0.39384951550018743,-0.39384951550018743,1.0000103015415784,2.5284068029500572e-05
-0.39158628025616055,-0.39158628025616055,1.000024390148449,2.5356125437078682e-05
-0.3889907116885297,-0.3889907116885297,1.0000174593444484,2.528440907392314e-05
-0.38658784143190134,-0.38658784143190134,0.9999631427723811,2.5283089840249394e-05
-0.38555769978702303,-0.38555769978702303,0.9999942781755902,2.5277525032939666e-05
-0.3847108501373441,-0.3847108501373441,1.0000179816546546,2.5286007001768738e-05
-0.383755519137776,-0.383755519137776,0.999949200393537,2.529933785701077e-05
-0.38290746824786764,-0.38290746824786764,0.9999290093310759,2.532068930392249e-05
-0.3821699133797665,-0.3821699133797665,1.0000347133069778,2.5279118664488876e-05
-0.38080084586981683,-0.38080084586981683,1.0000628518735377,2.5286018456127477e-05
-0.3777000968315406,-0.3777000968315406,0.9999760567825652,2.5331613645182772e-05
-0.374363837466808,-0.374363837466808,1.0000292918625335,2.528361761631241e-05
-0.37259332597604955,-0.37259332597604955,0.9999778369084501,2.5278657502671494e-05
-0.3715352082581376,-0.3715352082581376,0.9999722426783719,2.5285648390877094e-05
-0.37043088212085423,-0.37043088212085423,0.9999796535649651,2.5281358225705237e-05
-0.36942052638187306,-0.36942052638187306,1.0000369259427515,2.5298004624469448e-05
-0.36833630039182025,-0.36833630039182025,0.9999596473378848,2.527659493660502e-05
-0.3663083029328845,-0.3663083029328845,0.9999796486060895,2.5287259726084834e-05
-0.36438281160371844,-0.36438281160371844,0.9999623713061684,2.5336069973051864e-05
-0.36141818136238724,-0.36141818136238724,1.0000008209696845,2.527161372404927e-05
-0.3592288385698339,-0.3592288385698339,0.9999818747510542,2.5282154036611272e-05
-0.3581456335814437,-0.3581456335814437,0.9999763918159223,2.528046335219691e-05
-0.3570965977589367,-0.3570965977589367,1.000005381808663,2.5290259772175057e-05
-0.35626370657701045,-0.35626370657701045,0.9999780828347982,2.5326639927348492e-05
-0.35541559267730916,-0.35541559267730916,0.999944433325439,2.5279459383401378e-05
-0.35371552155993413,-0.35371552155993413,1.0000467681421612,2.5282353971479338e-05
-0.3511634757334832,-0.3511634757334832,1.0000159129832111,2.531433968573849e-05
-0.3484383191447705,-0.3484383191447705,0.9999268017892659,2.5322927871366186e-05
-0.34574785975855776,-0.34574785975855776,0.9999915169091629,2.5288407097945766e-05
-0.34458438700967237,-0.34458438700967237,0.9999572380927011,2.527519105188857e-05
-0.3437333367604879,-0.3437333367604879,0.9999474053230861,2.528554714309549e-05
-0.34276803928078153,-0.34276803928078153,0.999960339011421,2.5301074458911863e-05
-0.3419272241240833,-0.3419272241240833,1.0000427046427791,2.532351194077829e-05
-0.34120095425023467,-0.34120095425023467,0.9999679443070049,2.5285964821226645e-05
-0.3397301204808173,-0.3397301204808173,0.9999523085452756,2.528375808220336e-05
-0.33655924843478713,-0.33655924843478713,0.9999739654491856,2.533270881858972e-05
-0.33321099016466177,-0.33321099016466177,1.0000119165715915,2.5282346828255764e-05
-0.3314386340847705,-0.3314386340847705,0.9999462469367474,2.5279905476651987e-05
-0.3303840229549678,-0.3303840229549678,1.0000114603949275,2.5287104432895078e-05
-0.32944169316178884,-0.32944169316178884,1.000000180229781,2.5293621933240107e-05
-0.3284596664540004,-0.3284596664540004,0.9999293268797051,2.530250024696187e-05
-0.3271797742927447,-0.3271797742927447,1.0000311147692698,2.5280676813500754e-05
-0.3251611508312635,-0.3251611508312635,1.0000073420789768,2.5289027490376266e-05
-0.32297960250871255,-0.32297960250871255,1.0000319756283638,2.5335205978467525e-05
-0.3202233044925379,-0.3202233044925379,1.0000703050176465,2.5275271614800578e-05
-0.3180748138795025,-0.3180748138795025,1.0000409820924756,2.5282036913047895e-05
-0.31703086780325973,-0.31703086780325973,1.0000155337522014,2.528722046347871e-05
-0.3161649157322245,-0.3161649157322245,0.999962541221216,2.528776354964688e-05
-0.3153128737103543,-0.3153128737103543,0.9999642211540367,2.529212808224299e-05
-0.3144584518347983,-0.3144584518347983,1.0000441543368612,2.531408187664685e-05
-0.3133351719967322,-0.3133351719967322,0.9999434880566749,2.5278389037399678e-05
-0.310806490725372,-0.310806490725372,1.0000221598396544,2.5295983824624264e-05
-0.3079368511447683,-0.3079368511447683,0.9999399851204505,2.5349282521192815e-05
-0.30509533808362904,-0.30509533808362904,0.9999829483718985,2.5282073865318064e-05
-0.3038299260515487,-0.3038299260515487,1.0000028400999565,2.5280906813356476e-05
-0.3028938408591785,-0.3028938408591785,1.0000023349345732,2.5277851155469645e-05
-0.30190008766803655,-0.30190008766803655,0.9999962179524168,2.530118027087326e-05
-0.30093186925514603,-0.30093186925514603,0.9999917419967452,2.5325141788852854e-05
-0.3002084838502924,-0.3002084838502924,1.0000885685930894,2.5278568395654044e-05
-0.29897760207386453,-0.29897760207386453,0.9999603746995639,2.5283685815960034e-05
-0.2965477571415249,-0.2965477571415249,1.0000560661624764,2.5309369618415635e-05
-0.29372974658181195,-0.29372974658181195,0.9999714586101996,2.5296035830494553e-05
-0.29081859321013326,-0.29081859321013326,1.0000380012364005,2.528815042671545e-05
-0.28959459632169454,-0.28959459632169454,1.000037490749507,2.5282758671777192e-05
-0.2886276406265097,-0.2886276406265097,0.9999857880269964,2.5294359367020885e-05
-0.2876691256227787,-0.2876691256227787,1.0000327420660013,2.5303357453840492e-05
-0.28666951758787035,-0.28666951758787035,0.9999705933376599,2.5279367160393753e-05
-0.28487283576396294,-0.28487283576396294,0.9999146427489161,2.528707494914279e-05
-0.2823065865188255,-0.2823065865188255,0.9999839832695173,2.533917349336728e-05
-0.2797199501350406,-0.2797199501350406,1.000011409034447,2.527599779252465e-05
-0.27712028019159335,-0.27712028019159335,0.999968286254466,2.5283538292571773e-05
-0.2760573435793049,-0.2760573435793049,0.9999730729577037,2.528326153877066e-05
-0.27517331226990793,-0.27517331226990793,0.9999968554619538,2.5281594564143623e-05
-0.27429187999368876,-0.27429187999368876,0.9999585723973319,2.529622477640154e-05
-0.2734462075735792,-0.2734462075735792,1.0000490511752944,2.5312753795540013e-05
-0.2725534957833588,-0.2725534957833588,0.9999995098997344,2.5278803402330032e-05
-0.2702398176988936,-0.2702398176988936,0.99995851973485,2.5283671329450928e-05
-0.2673664463771274,-0.2673664463771274,1.0000043627789543,2.5369146938183538e-05
-0.2643265272461576,-0.2643265272461576,1.000037365016918,2.5283328509459576e-05
-0.2629162835641182,-0.2629162835641182,1.0000059148968854,2.527461677695704e-05
-0.2619332905218471,-0.2619332905218471,0.9999854438608008,2.528548554192946e-05
-0.26097508512611967,-0.26097508512611967,1.0000002429420665,2.5281826758006556e-05
-0.259971771830169,-0.259971771830169,0.9999599706900197,2.5347340787436607e-05
-0.25922836685349465,-0.25922836685349465,1.0000253134011037,2.527993163258203e-05
-0.25816406082885807,-0.25816406082885807,1.0000345108984532,2.52812565338677e-05
-0.255407385120634,-0.255407385120634,0.9999371382761746,2.5308517469042136e-05
-0.2527935662685195,-0.2527935662685195,0.9999877498216814,2.529566833695959e-05
-0.24995565650315257,-0.24995565650315257,0.9999789141562644,2.5282264673377686e-05
-0.24868145897926297,-0.24868145897926297,0.9999678388451774,2.528109219465653e-05
-0.24762684475426794,-0.24762684475426794,1.000014611989883,2.5288908421636626e-05
-0.246714717373834,-0.246714717373834,1.000003861632773,2.531712325353535e-05
-0.2457623737034737,-0.2457623737034737,0.9999752730864664,2.585056542377666e-05
-0.2445959043179755,-0.2445959043179755,0.9999948368557258,2.527941071186634e-05
-0.242207159283862,-0.242207159283862,0.9999698124937211,2.529600006949754e-05
-0.2398922226682771,-0.2398922226682771,0.9999868427637593,2.5335161972570268e-05
-0.23726653081394034,-0.23726653081394034,1.0000444293554378,2.5276340626118305e-05
-0.23552069531579037,-0.23552069531579037,1.0000064985175328,2.5281052010308343e-05
-0.23459499276650603,-0.23459499276650603,0.9999534041644725,2.5276866035507074e-05
-0.23383411291142692,-0.23383411291142692,1.0000473002305919,2.529071307520288e-05
-0.2330031268764287,-0.2330031268764287,0.9999956025784356,2.5291636264541554e-05
-0.23215076867927564,-0.23215076867927564,0.9999490524256892,2.531732087147954e-05
-0.23127762699587037,-0.23127762699587037,0.9999962877206954,2.5281101670455364e-05
-0.22893027466052446,-0.22893027466052446,1.0000036774586658,2.5296857049226303e-05
-0.22508467123698211,-0.22508467123698211,1.0000210650526176,2.530581992588449e-05
-0.22248841249383985,-0.22248841249383985,0.9999769150559871,2.5288737245766527e-05
-0.2212830915406812,-0.2212830915406812,0.9999752460086906,2.5283202066681843e-05
-0.2202804948319681,-0.2202804948319681,0.9999991395087262,2.5284161971140568e-05
-0.21919237372931094,-0.21919237372931094,1.000031949446682,2.5300087122744957e-05
-0.2182999757307698,-0.2182999757307698,1.0000007178137333,2.5330369349802228e-05
-0.2176459547437844,-0.2176459547437844,0.9999355988940082,2.528034014842116e-05
-0.2153621380770346,-0.2153621380770346,0.9999533726878198,2.5297809063028492e-05
-0.21237889344483846,-0.21237889344483846,1.0000673832228806,2.532031832130817e-05
-0.20918508033646505,-0.20918508033646505,0.9999090350560934,2.5282337239266067e-05
-0.20775716736534378,-0.20775716736534378,0.9999683368648544,2.528199751093368e-05
-0.20691914577910211,-0.20691914577910211,1.0000034232022263,2.5280850196111306e-05
-0.2059817490997375,-0.2059817490997375,1.0000388274584284,2.529676688825348e-05
-0.20513948287116363,-0.20513948287116363,0.9999995394679665,2.531167072813575e-05
-0.20407047361077274,-0.20407047361077274,0.9999956088882398,2.5282558564858157e-05
-0.20207934291393032,-0.20207934291393032,1.0000011851141002,2.528544226314655e-05
-0.19952158353407867,-0.19952158353407867,1.0000092291918006,2.5356038111728297e-05
-0.19659876400546636,-0.19659876400546636,0.9999620263041405,2.5277805580419418e-05
-0.19461326959572034,-0.19461326959572034,0.9999920760216552,2.5280301041351266e-05
-0.1936124580402975,-0.1936124580402975,0.9999802078067186,2.528479938900247e-05
-0.192714225925738,-0.192714225925738,0.9999966802504462,2.5289920291312674e-05
-0.19184837023349247,-0.19184837023349247,0.9999312885475705,2.5290136391431952e-05
-0.1909970212247572,-0.1909970212247572,0.9999884238558459,2.5320873348320503e-05
-0.1901261675346177,-0.1901261675346177,1.0001197964865534,2.5283093584887684e-05
-0.1878989415403339,-0.1878989415403339,1.0000207133392744,2.529082810714292e-05
-0.18471224841632647,-0.18471224841632647,0.9999748824098574,2.5318527479134235e-05
-0.1816403921751771,-0.1816403921751771,1.0000275060486374,2.5283958386788175e-05
-0.18037060334027047,-0.18037060334027047,0.9999973973397438,2.5281681673923652e-05
-0.17930796584114433,-0.17930796584114433,0.9999939297201174,2.52874155695126e-05
-0.17821161473548272,-0.17821161473548272,0.9999548860763958,2.5298696101505597e-05
-0.17731190204940503,-0.17731190204940503,1.0000371344627594,2.5337155245562823e-05
-0.17655300354672362,-0.17655300354672362,0.999996990650377,2.5285328089516373e-05
-0.1746250251730089,-0.1746250251730089,1.0000116280577223,2.5290545143889066e-05
-0.17303567173221382,-0.17303567173221382,1.0000301781516163,2.5305169216092093e-05
-0.17034810049663066,-0.17034810049663066,0.9999745205530044,2.5299486283216896e-05
-0.16765297767997253,-0.16765297767997253,1.0000183160800968,2.528457025695045e-05
-0.1666025959304534,-0.1666025959304534,1.000004224170901,2.527821595718586e-05
-0.1655454233274213,-0.1655454233274213,0.9999379683998881,2.5288832459290576e-05
-0.16469887015409768,-0.16469887015409768,0.999931982856521,2.5294139191301194e-05
-0.16384318601194536,-0.16384318601194536,1.0000005471471096,2.5309745354506483e-05
-0.16234742514352546,-0.16234742514352546,0.999985458401676,2.5284687134681772e-05
-0.15991927046270576,-0.15991927046270576,1.0000094607095036,2.5297472309343713e-05
-0.15731658456206787,-0.15731658456206787,0.9999787631060713,2.5345594630134776e-05
-0.1543459230742883,-0.1543459230742883,1.000003667392772,2.528795118927265e-05
-0.152995491825277,-0.152995491825277,0.9999593395138225,2.5275769558615387e-05
-0.15214087610511343,-0.15214087610511343,0.9999951084517488,2.5285836678697796e-05
-0.15116825551231158,-0.15116825551231158,0.9999626757775248,2.5302601711703662e-05
-0.1503126479597995,-0.1503126479597995,1.0000069868590968,2.5324179856693324e-05
-0.14959340111236089,-0.14959340111236089,0.9999353988604195,2.527927909840097e-05
-0.14835923049831762,-0.14835923049831762,1.000061713781471,2.5285189466640083e-05
-0.1455428395536728,-0.1455428395536728,0.9999939318673082,2.532897446382911e-05
-0.14205354540608822,-0.14205354540608822,0.9999761577408434,2.5285532887549533e-05
-0.13987560694949935,-0.13987560694949935,1.0000182232771595,2.5285755878095934e-05
-0.13879900398314932,-0.13879900398314932,1.0000200560356,2.528297629149052e-05
-0.13783571834792382,-0.13783571834792382,1.000006279661229,2.5294823714899284e-05
-0.13688109097565757,-0.13688109097565757,0.9999978388639432,2.5302115788357603e-05
-0.1357571520115016,-0.1357571520115016,0.9999916741427916,2.528242424022675e-05
-0.13381291067635176,-0.13381291067635176,0.9999758992914944,2.52898645693563e-05
-0.13189168719691224,-0.13189168719691224,0.9999708296456591,2.5305476931683588e-05
-0.1296219210504205,-0.1296219210504205,1.0000508291541734,2.5308269632759695e-05
-0.12688183878781273,-0.12688183878781273,0.9999873213492411,2.5283277958520677e-05
-0.12565052579157054,-0.12565052579157054,1.0000429806697524,2.5275348778718307e-05
-0.12479757332766894,-0.12479757332766894,1.0000048170792675,2.528686086414292e-05
-0.12383731002773857,-0.12383731002773857,0.9999968780573785,2.529945704498346e-05
-0.12300525829341495,-0.12300525829341495,0.9999909208946857,2.531037949074276e-05
-0.1222191463544732,-0.1222191463544732,1.0000265407838191,2.5281605088060702e-05
-0.12017476681648986,-0.12017476681648986,0.9999483636829305,2.5283252164086797e-05
-0.11723998601955828,-0.11723998601955828,1.0000380781241824,2.536637389157604e-05
-0.11428394798567751,-0.11428394798567751,0.9999879643619037,2.5283228728216883e-05
-0.11230575816880446,-0.11230575816880446,1.0000164186320846,2.5276825099382142e-05
-0.11131287997268373,-0.11131287997268373,1.000005071536307,2.5285560359887e-05
-0.11036303052096627,-0.11036303052096627,1.0000196590118107,2.5279355761203262e-05
-0.10935356686532031,-0.10935356686532031,0.9999433382443831,2.5341814501673674e-05
-0.10858967439708067,-0.10858967439708067,0.9999827024330663,2.527618653322921e-05
