time,time,flux,flux_err
-0.4992760453409574,-0.4992760453409574,1.0000763366129615,0.00017985458088716307
-0.4977556732519588,-0.4977556732519588,1.0001373925320742,0.00017986854224111658
-0.4958702402815106,-0.4958702402815106,0.9996337323092499,0.00018073066061395724
-0.4929790142195998,-0.4929790142195998,0.9999166131529009,0.0001798397034157364
-0.4917210363513732,-0.4917210363513732,0.9998851193502141,0.00017903722336332157
-0.4908403522516892,-0.4908403522516892,0.9999539240896542,0.0001788472005321138
-0.4901316731418774,-0.4901316731418774,1.000123981780214,0.00018057483097431228
-0.48838007481463136,-0.48838007481463136,0.9999980762982664,0.0001796562347911155
-0.48710686183985674,-0.48710686183985674,1.0000750213218084,0.00018087139767394698
-0.48595925917397836,-0.48595925917397836,1.0000806688697286,0.00018027504065151292
-0.48525145386302027,-0.48525145386302027,1.0000134469934652,0.00017951077975307292
-0.48430653559189524,-0.48430653559189524,1.0001352437760522,0.0001800239127291811
-0.48253822369952104,-0.48253822369952104,0.9998068898914816,0.00017976521052277835
-0.4799013598734746,-0.4799013598734746,1.0001552739852517,0.00018002044187431798
-0.4778331055866147,-0.4778331055866147,1.0000576806776773,0.00017847333802935246
-0.47700843069251275,-0.47700843069251275,0.9999454127110117,0.00018021036123960023
-0.47570100778320923,-0.47570100778320923,0.9998557155761061,0.00017977184250008517
-0.47440757262520494,-0.47440757262520494,1.00002456743643,0.00018000200155041368
-0.47322721419404845,-0.47322721419404845,0.9997982540554531,0.00018073847943713783
-0.4721618627867429,-0.4721618627867429,0.9997550543868969,0.0001793669290921447
-0.47098029811604647,-0.47098029811604647,0.9999394166962695,0.00017974908370235247
-0.4685590369037527,-0.4685590369037527,0.9998062996422302,0.00017986558653810156
-0.465156505782943,-0.465156505782943,0.9999537016375474,0.0001790475682623365
-0.46354320649334113,-0.46354320649334113,1.0001613862644922,0.00017928387470455724
-0.4620320553876809,-0.4620320553876809,1.0000389410651693,0.00017971559674714472
-0.46077940292234415,-0.46077940292234415,0.999574228174952,0.00018032930016266983
-0.4598342813573254,-0.4598342813573254,1.0000129118359586,0.00018086979500323645
-0.45878715290964467,-0.45878715290964467,0.9998274552608872,0.00017951075583939213
-0.457342681154114,-0.457342681154114,1.0001446219563168,0.00017972359205767953
-0.4551216165695223,-0.4551216165695223,1.0000514343437317,0.00017904614149104035
-0.45303289186922485,-0.45303289186922485,0.9997529103211408,0.00017954461556103976
-0.45187024986225877,-0.45187024986225877,0.9998779439783394,0.00018000952232909221
-0.45081907107742153,-0.45081907107742153,1.000307392037295,0.00017855242023621042
-0.45000269933589154,-0.45000269933589154,1.0001574253469607,0.00017997315814358015
-0.44857560460441165,-0.44857560460441165,0.9998462230590986,0.00017957199750743015
-0.44732866316335274,-0.44732866316335274,1.0001182003271911,0.0001805522527534641
-0.4461307190023945,-0.4461307190023945,1.000140473384598,0.00017989284515746896
-0.445192473789939,-0.445192473789939,1.0003225043164257,0.00017948504147255185
-0.4436627858558495,-0.4436627858558495,1.0001875602584032,0.00017963680416653062
-0.44130333748180417,-0.44130333748180417,1.0000832527050292,0.0001799932798268662
-0.4393491969909519,-0.4393491969909519,0.9999464767101826,0.0001794724064993625
-0.43813415733893635,-0.43813415733893635,0.9998714745262017,0.0001793140547550948
-0.43681884932448156,-0.43681884932448156,0.9999816584983432,0.00017927669378150384
-0.4359562669320439,-0.4359562669320439,0.9999431480878009,0.00017964914819995414
-0.43492677083413583,-0.43492677083413583,1.00008721049028,0.000179948316324727
-0.4340147880655422,-0.4340147880655422,0.9999935874147614,0.0001803092894402765
-0.4328457540257659,-0.4328457540257659,0.9997995677948701,0.00017958825278101108
-0.4321090101118898,-0.4321090101118898,1.0000063571365443,0.00018025663192249676
-0.43148510325700046,-0.43148510325700046,1.0001894131563334,0.00017963372057150094
-0.42946921702459806,-0.42946921702459806,1.0004048998111486,0.00017981255102509703
-0.4279549252030847,-0.4279549252030847,1.0001088291302946,0.00018007629665218867
-0.42679733635668526,-0.42679733635668526,1.000262431840275,0.00017982116692269402
-0.4255712392601708,-0.4255712392601708,0.9997837079537945,0.0001800899830203266
-0.4240844097737863,-0.4240844097737863,1.0000305279672257,0.000178567292230354
-0.4231451521569397,-0.4231451521569397,0.9996512363989375,0.00018033487488386372
-0.42225175769854106,-0.42225175769854106,0.9999259579760768,0.0001793939034413742
-0.42126593373322974,-0.42126593373322974,0.9998635179295216,0.00017971059307743555
-0.4204876236472046,-0.4204876236472046,0.9995502963287939,0.00017983069056681404
-0.41903456290383473,-0.41903456290383473,0.9998822345974011,0.00018013100571041783
-0.4168239355938567,-0.4168239355938567,0.9998300009034461,0.0001798275473648492
-0.41459288366677355,-0.41459288366677355,1.0002082765957687,0.00018026721011879616
-0.4132517235353589,-0.4132517235353589,1.0000214788263413,0.00017935959274248273
-0.4108608467235172,-0.4108608467235172,1.000109770621738,0.00017900761996459847
-0.40921428378569547,-0.40921428378569547,1.0000435356538158,0.00017999514678428968
-0.4084102386106679,-0.4084102386106679,1.000197982828024,0.0001786142164650978
-0.40747431522031546,-0.40747431522031546,1.0000165804786167,0.00017955883309890469
-0.40611219907805207,-0.40611219907805207,1.0000678985172615,0.00017993825285177428
-0.40498451648818445,-0.40498451648818445,0.9999793423818343,0.00017992609418145494
-0.4038343422114849,-0.4038343422114849,0.9999311807767232,0.0001808310166725369
-0.4023746294078592,-0.4023746294078592,1.000102360761185,0.0001792246601718852
-0.4008830510516418,-0.4008830510516418,0.9998627745957309,0.00018018221214251352
-0.3996460644339095,-0.3996460644339095,0.9998173347758644,0.00017984749320253612
-0.3974831784973503,-0.3974831784973503,0.9998076503963415,0.0001790905744101854
-0.3958547974762041,-0.3958547974762041,0.9998958415192772,0.0001797303003854156
-0.3947920016624266,-0.3947920016624266,1.0001079977814271,0.0001785329489912918
-0.3937094990433252,-0.3937094990433252,0.9997595025101003,0.00017989186941618488
-0.39209687657639736,-0.39209687657639736,1.000516346079252,0.00017912385702867608
-0.3910530028377252,-0.3910530028377252,0.9999935649487448,0.00018088452594535015
-0.38938549835511366,-0.38938549835511366,1.0002490039436247,0.000179843841416955
-0.38734515239484607,-0.38734515239484607,1.0002965220901603,0.0001803226581508679
-0.3840776934419409,-0.3840776934419409,1.000044366021254,0.0001795602612768382
-0.38228612363454884,-0.38228612363454884,0.9999670990983075,0.00017915673361430234
-0.38129651886192734,-0.38129651886192734,0.9999085729242893,0.0001788842254628271
-0.38063736255062397,-0.38063736255062397,1.0004562412026505,0.00018045417584485157
-0.37911539557389917,-0.37911539557389917,1.000235773123359,0.00017974928370137036
-0.37732121315202677,-0.37732121315202677,0.9999890541984259,0.000180797343859275
-0.3761911702727957,-0.3761911702727957,0.9999463304229973,0.00018072415713544333
-0.3756640877611062,-0.3756640877611062,0.9996821057999483,0.0001791431585378704
-0.37487668848334577,-0.37487668848334577,0.9999019091178889,0.0001800667443234282
-0.37363240893027977,-0.37363240893027977,0.999942419036957,0.00018017208420273103
-0.37195655230025293,-0.37195655230025293,1.0001103848241673,0.00018012543400190386
-0.36969874988353696,-0.36969874988353696,1.0000415152929079,0.00017976806475233418
-0.3682140178279951,-0.3682140178279951,1.0000117581595196,0.0001784589856823545
-0.3673889492973103,-0.3673889492973103,0.9998145063376904,0.0001802133928966857
-0.36608163722848985,-0.36608163722848985,1.0000058318363971,0.00017978392891159132
-0.36471198929430104,-0.36471198929430104,0.9996449409449746,0.0001801147346833187
-0.36368055059283505,-0.36368055059283505,1.0000376637889712,0.00018065070808515602
-0.362765210854559,-0.362765210854559,0.9999482711646385,0.0001799865146845661
-0.3615283870851272,-0.3615283870851272,1.0000074228539781,0.0001794209442825509
-0.36049732807223334,-0.36049732807223334,1.0002928376249942,0.00018018364967268386
-0.3586784646693559,-0.3586784646693559,1.0001930538967059,0.00017953227782124305
-0.35524849852445184,-0.35524849852445184,1.000073616290677,0.00017875433737819492
-0.3539240530815732,-0.3539240530815732,0.9996971720295017,0.00017923792998359312
-0.3524121297807142,-0.3524121297807142,1.0001190264967499,0.00017971791610839062
-0.35116026219620833,-0.35116026219620833,0.9998061885812293,0.00018033476933754662
-0.350324257669854,-0.350324257669854,0.9999491654565211,0.0001807450026403061
-0.34933575373506753,-0.34933575373506753,1.0000488738012627,0.00017977117567205374
-0.3475964422352263,-0.3475964422352263,0.9998620225947945,0.00017914396148674893
-0.3450286447397957,-0.3450286447397957,0.9996690097137714,0.00017912591478385476
-0.3433873126276012,-0.3433873126276012,0.9999205566166196,0.00017981823227366213
-0.34225044852501013,-0.34225044852501013,1.000110942048565,0.00018002442071300681
-0.34120067985568314,-0.34120067985568314,0.9997312401517549,0.0001785325697982019
-0.34029443891558914,-0.34029443891558914,1.0000574581238852,0.00018016965723520332
-0.3392313907206699,-0.3392313907206699,0.9997974210310948,0.00017944879710577388
-0.33773255375272127,-0.33773255375272127,1.0001306332910869,0.00018031816203447284
-0.3365114480926422,-0.3365114480926422,1.00006072105764,0.0001798855030592338
-0.33545157718181146,-0.33545157718181146,0.9997925403832891,0.00017951281761467561
-0.3337251238517638,-0.3337251238517638,0.99991987870326,0.0001798756124012229
-0.3318522784924426,-0.3318522784924426,0.9997898040572195,0.00017943714374777663
-0.3300435725657735,-0.3300435725657735,1.0000121684214878,0.00017987143503231184
-0.32878650106067653,-0.32878650106067653,1.0000153411568797,0.00017959477165760382
-0.3274386792792939,-0.3274386792792939,1.0002642130065627,0.00017924647121505096
-0.3265161058079684,-0.3265161058079684,1.0002910489149521,0.00017955825840235213
-0.325217404509749,-0.325217404509749,1.000383444476131,0.00017952700916371353
-0.32424382077660996,-0.32424382077660996,1.0002016336358717,0.00018037279888088355
-0.32313740741228686,-0.32313740741228686,1.000080720097119,0.00017982151976310098
-0.322154922336631,-0.322154922336631,0.999987539681265,0.00017966220002322718
-0.31985014010133456,-0.31985014010133456,0.9997915868973528,0.00017977022883449977
-0.31800402397639116,-0.31800402397639116,1.0001698000140211,0.00018044417018792412
-0.3170970868697623,-0.3170970868697623,0.9999580748868635,0.0001795426861455871
-0.3159153331864218,-0.3159153331864218,1.000131085300567,0.00018056620098005674
-0.3145176236037514,-0.3145176236037514,1.0003505744007775,0.00017898556853573959
-0.3134959835508198,-0.3134959835508198,0.9996858485203545,0.00017989350297574084
-0.31263195221326895,-0.31263195221326895,1.0000216733863265,0.00017939723189015514
-0.3115682083720458,-0.3115682083720458,0.9997404227587898,0.00017964691067247235
-0.31051898213045204,-0.31051898213045204,0.9999449897210464,0.00017991608430978104
-0.30904053344274873,-0.30904053344274873,0.999859631066718,0.00017994350880930115
-0.30747497997217577,-0.30747497997217577,1.0002983867705297,0.0001804911148704463
-0.3054029956801969,-0.3054029956801969,1.0001383362602434,0.0001796039236105588
-0.3037983598725987,-0.3037983598725987,0.9999722885115517,0.00017966683224468458
-0.3017138642440841,-0.3017138642440841,1.00004550260754,0.00017933555490774988
-0.3003922043542843,-0.3003922043542843,1.0002011048428086,0.00017892951316793516
-0.29950968703633407,-0.29950968703633407,0.9998722150380808,0.00018035796471839658
-0.29878766658803213,-0.29878766658803213,0.99973103779777,0.0001785566518740804
-0.29781317541201136,-0.29781317541201136,0.9999151176724572,0.00017984846277467023
-0.29645571234141244,-0.29645571234141244,1.000253984562502,0.00017981872648775943
-0.294926271798613,-0.294926271798613,0.9999992089405797,0.00018001860754567696
-0.29363348270126155,-0.29363348270126155,0.9998680631684846,0.0001803058458413319
-0.2922762474474439,-0.2922762474474439,0.9999966711528284,0.00017975974580322377
-0.29117393934357094,-0.29117393934357094,1.0000418986666273,0.00017999811430026268
-0.2903051417786628,-0.2903051417786628,0.9998656199709657,0.00017987111500454756
-0.28867611382593167,-0.28867611382593167,1.0000167059017797,0.00017922900806807584
-0.2870561162395461,-0.2870561162395461,0.9997404084184357,0.00017983387331596697
-0.2857186330562399,-0.2857186330562399,1.0000554883824446,0.0001795116779266466
-0.2847373059477832,-0.2847373059477832,1.0001253052316579,0.00017869121412796932
-0.2834520533629984,-0.2834520533629984,0.9999592905012061,0.00017979291753508132
-0.2818943334015785,-0.2818943334015785,1.0002918012608943,0.00017991819493761948
-0.28049353868264004,-0.28049353868264004,0.9999283117349111,0.00018076970882631178
-0.27862194946646923,-0.27862194946646923,1.0000586917456238,0.00017961365690550576
-0.27739856482294273,-0.27739856482294273,0.9999855307962819,0.0001801234053190545
-0.2746057133634167,-0.2746057133634167,1.000155715148636,0.00017964857735694602
-0.27295108855178113,-0.27295108855178113,0.9998527992937426,0.0001794444416003765
-0.2717416556602984,-0.2717416556602984,1.0000489390068552,0.00017848997695782526
-0.27074823688381,-0.27074823688381,1.0000123907634855,0.00018025608535828696
-0.26856467341349344,-0.26856467341349344,1.0001446738116502,0.00017984130167315908
-0.2671767418745731,-0.2671767418745731,1.00030245942748,0.00018066402004248745
-0.26641076850137324,-0.26641076850137324,1.0001556602723407,0.00017997574252721866
-0.2656049630997586,-0.2656049630997586,0.999986230941413,0.00017958991554703816
-0.26429445337053037,-0.26429445337053037,1.0002126876456796,0.00018025727924777323
-0.2625813445687527,-0.2625813445687527,0.9998247472875714,0.00018029581719777052
-0.2606466606448521,-0.2606466606448521,0.9998135227366725,0.0001796627748590948
-0.2589108071726514,-0.2589108071726514,0.9998206980985742,0.00017911831964694596
-0.25798091799442774,-0.25798091799442774,1.0003864750983904,0.0001793411992729111
-0.2570224601433438,-0.2570224601433438,0.9999869093830126,0.00018043673414936542
-0.2555628594898735,-0.2555628594898735,1.0001773829266871,0.00017957537847082034
-0.2543114441257785,-0.2543114441257785,0.9997924843016202,0.00018075732042047518
-0.25339868341179683,-0.25339868341179683,1.0000549128753786,0.00018027441696714635
-0.25240853456198237,-0.25240853456198237,1.00001202399751,0.00017950750496941714
-0.2511285561369732,-0.2511285561369732,1.0002064306020109,0.00018028325044036706
-0.24933889632229694,-0.24933889632229694,0.9998959553542643,0.0001797657599589583
-0.24644639979014754,-0.24644639979014754,1.000212399212967,0.00017935777546034074
-0.24469244437568705,-0.24469244437568705,1.000151726595972,0.0001789479920895028
-0.24351006487413543,-0.24351006487413543,0.9999806557174319,0.00017968400706729987
-0.24210797991545405,-0.24210797991545405,1.0002565533304193,0.00017965061473615315
-0.24126314755849307,-0.24126314755849307,1.000205928762121,0.00018028248393432
-0.24021451168518979,-0.24021451168518979,1.0002267390700303,0.00018065782144882829
-0.238309221687814,-0.238309221687814,0.9998617783704182,0.00017990546467551997
-0.2360761482748785,-0.2360761482748785,1.000094782649265,0.0001791263222084156
-0.23400377554862645,-0.23400377554862645,0.9999388493972953,0.00017960901212789982
-0.23294597506755962,-0.23294597506755962,1.0001714220551297,0.00017992128292088695
-0.2319955354963895,-0.2319955354963895,1.000175629495712,0.00017966273192596412
-0.2309736073977547,-0.2309736073977547,1.0002432399600298,0.00017987392158742423
-0.22978230046646786,-0.22978230046646786,1.0000953703398237,0.00017912666413381358
-0.2281187361018965,-0.2281187361018965,1.0001082182496133,0.00017985458392447842
-0.22713601724681212,-0.22713601724681212,0.9998594368705953,0.00018011541305407812
-0.22612425506013095,-0.22612425506013095,0.9998162955448434,0.00017956637120754998
-0.2244742281138315,-0.2244742281138315,1.0000044961491463,0.00017932226674050278
-0.22213307626952883,-0.22213307626952883,1.0001107856005855,0.0001798293493938078
-0.2201123817176267,-0.2201123817176267,1.0003119178314113,0.00017951805442854133
-0.21889431145464186,-0.21889431145464186,0.9999323949941432,0.00017930548007535416
-0.2176077772390272,-0.2176077772390272,0.9999243803574396,0.00017952115526255173
-0.21676067851949482,-0.21676067851949482,0.9999468861909369,0.00017948172866791512
-0.21567582022908027,-0.21567582022908027,0.9999780378327447,0.00017975877055484893
-0.21477565425811918,-0.21477565425811918,1.0001115952347146,0.00018032904873363124
-0.213756281141832,-0.213756281141832,0.9998102385168217,0.00017979869853737297
-0.21253608357365011,-0.21253608357365011,1.0000700322996254,0.00017965403221800394
-0.21051263414265123,-0.21051263414265123,1.0002167470653012,0.00017987731549509782
-0.20850128205420332,-0.20850128205420332,0.9997486807129615,0.00017985845427408636
-0.20747783724873442,-0.20747783724873442,1.0000945868231323,0.00017954443286248204
-0.20576499210947077,-0.20576499210947077,0.9998908174629056,0.00017958097415928434
-0.2046005530792172,-0.2046005530792172,1.0000547564905424,0.00017892426353284782
-0.20371345572566496,-0.20371345572566496,1.0001916502303136,0.0001803321363272517
-0.20279955083606183,-0.20279955083606183,1.0000671150204572,0.00017914831537925408
-0.20173307670702342,-0.20173307670702342,1.0001386516894555,0.00018000148279293023
-0.20060831727823825,-0.20060831727823825,0.9997968555297309,0.00017994983637400775
-0.19908738931117115,-0.19908738931117115,1.0001727487437084,0.00017985200298323214
-0.19653338036732748,-0.19653338036732748,1.0002138517366692,0.00017975173997872448
-0.19463331058359473,-0.19463331058359473,1.0001924841523742,0.00018009294511763882
-0.19355381571149338,-0.19355381571149338,1.0001617692579947,0.00017971381588158605
-0.19181641099930857,-0.19181641099930857,0.9999311590225636,0.0001793115433223129
-0.19044211658401763,-0.19044211658401763,0.9999781997714183,0.00017992150889102582
-0.18951927056259593,-0.18951927056259593,1.0003936987994388,0.00017951562673051223
-0.1884441860835068,-0.1884441860835068,0.9999316515135099,0.00017945542433955817
-0.18739602132554864,-0.18739602132554864,1.0000083214465696,0.00017990261443803188
-0.18567398919258266,-0.18567398919258266,1.0002617207731361,0.00018006795868936542
-0.1840224205116101,-0.1840224205116101,1.0004614608943798,0.0001807428905159247
-0.18281296678542275,-0.18281296678542275,1.000109870165554,0.00017966753945117305
-0.18191933988637174,-0.18191933988637174,0.9996663493990383,0.00017984502575056974
-0.1807182260439731,-0.1807182260439731,0.9998412714028018,0.00018016481799856544
-0.17883932453405577,-0.17883932453405577,0.9998458542214465,0.00017953370911004074
-0.17734693161328324,-0.17734693161328324,0.9998620902186921,0.00017965679275591968
-0.17627772516789264,-0.17627772516789264,0.9999607066752232,0.000179569313233722
-0.17543554496587604,-0.17543554496587604,0.99989990041508,0.000178978718645973
-0.17415174353591284,-0.17415174353591284,1.0003241983485363,0.00017996782748753914
-0.1725654689136718,-0.1725654689136718,0.9998942072325281,0.00017942476177229316
-0.17175121659674913,-0.17175121659674913,1.0000103091947103,0.0001809524958404081
-0.17050651715981074,-0.17050651715981074,0.9999819900842614,0.00017985569386113205
-0.16908622632618062,-0.16908622632618062,0.9999198389014878,0.00017983345850714638
-0.16799099191994174,-0.16799099191994174,1.0003715527952053,0.00018005976201239534
-0.16629335561810876,-0.16629335561810876,1.0000747590942844,0.0001793488852731644
-0.16430527273478218,-0.16430527273478218,0.9999751242084078,0.00017938916493736234
-0.16304737178434153,-0.16304737178434153,0.9999971952035505,0.00017914693221872722
