time,time,flux,flux_err
-0.49993255692485644,-0.49993255692485644,0.9999673381197624,8.78812523835327e-05
-0.4998233587314947,-0.4998233587314947,0.9999855759527376,8.658288954491873e-05
-0.49971307854987873,-0.49971307854987873,0.9999883019044202,8.689713372471349e-05
-0.49962360927384,-0.49962360927384,1.000086838922904,8.914592894761252e-05
-0.49953561439178884,-0.49953561439178884,1.0000262209931232,7.935707726185663e-05
-0.4994827579997946,-0.4994827579997946,0.999917360586123,8.05908683576044e-05
-0.4994058518685051,-0.4994058518685051,1.0000967091865631,8.241115242817044e-05
-0.4993241448850313,-0.4993241448850313,1.0001008238425513,8.338477584094672e-05
-0.499229512544116,-0.499229512544116,1.000063633111406,7.819596524037509e-05
-0.4990922245437105,-0.4990922245437105,1.0000009871502815,7.997520686364417e-05
-0.4989372557123716,-0.4989372557123716,1.0001171504725057,7.959545877284316e-05
-0.498834032718878,-0.498834032718878,1.000068438604718,7.861849648620073e-05
-0.4987624842113291,-0.4987624842113291,0.9999612510773586,7.971395178789141e-05
-0.49856472961982945,-0.49856472961982945,1.0000857344644598,8.166768983050133e-05
-0.49838212072791066,-0.49838212072791066,1.0000159509875424,7.900989485333565e-05
-0.4983047523593996,-0.4983047523593996,1.0000020723229843,8.34240464598227e-05
-0.4981685618877236,-0.4981685618877236,0.9999394962058876,8.337854171649692e-05
-0.4980571740597952,-0.4980571740597952,0.9999458812840473,8.142762020422168e-05
-0.4979482438633568,-0.4979482438633568,0.9998762974376397,8.292001981038648e-05
-0.4977448424935574,-0.4977448424935574,1.00010527166845,8.643977283414735e-05
-0.49764074521590373,-0.49764074521590373,0.9998605900796307,8.63114490582831e-05
-0.49755431811645395,-0.49755431811645395,1.0000772083584253,8.292306539609233e-05
-0.4973656886322715,-0.4973656886322715,1.0000724615273162,7.995330712774168e-05
-0.4972060318461445,-0.4972060318461445,0.9999288497093947,7.945039236082323e-05
-0.49702653296189964,-0.49702653296189964,0.9998751982744094,7.858905608414804e-05
-0.496939196036692,-0.496939196036692,1.0001363729186188,8.262987089575122e-05
-0.4968823104398325,-0.4968823104398325,1.0000048952694651,7.831991715498745e-05
-0.49677197026248904,-0.49677197026248904,0.9999423788094953,8.264440911736568e-05
-0.49666442207962974,-0.49666442207962974,1.0000483441719372,7.959471154503215e-05
-0.4965769141119381,-0.4965769141119381,0.9999737257298502,8.361410782980834e-05
-0.4964195002648921,-0.4964195002648921,1.0000512552670393,8.289922655866132e-05
-0.4963286029153096,-0.4963286029153096,0.9998994113831369,7.98063731029134e-05
-0.4961709610870457,-0.4961709610870457,1.000054917650538,8.012107761549579e-05
-0.4959908555661968,-0.4959908555661968,0.9999356304439638,7.841179379972392e-05
-0.49589174137072406,-0.49589174137072406,1.0000547892610534,8.077313098683785e-05
-0.49576132246511406,-0.49576132246511406,0.9999820860163438,8.59856054337795e-05
-0.49566312013703284,-0.49566312013703284,1.00003051392921,8.575574960184646e-05
-0.4955816390363907,-0.4955816390363907,1.0000513913554194,8.025365696810545e-05
-0.49553875606143266,-0.49553875606143266,0.9999655565653962,8.292501754591518e-05
-0.4954506595895509,-0.4954506595895509,0.9999027264450225,8.3079979247759e-05
-0.49532088525520523,-0.49532088525520523,1.000067393687279,8.382747782226358e-05
-0.49520385463911226,-0.49520385463911226,1.0000243639259525,8.039278497485721e-05
-0.4951239070149313,-0.4951239070149313,0.9999479688646797,7.922106642903898e-05
-0.49504245278731107,-0.49504245278731107,0.9999792421541025,7.916687068469618e-05
-0.4948837213385559,-0.4948837213385559,1.000111742848495,7.89658772680478e-05
-0.4947362384729786,-0.4947362384729786,1.000020053408508,7.933035445195497e-05
-0.49465246694380766,-0.49465246694380766,0.9999183054166998,8.126509659813416e-05
-0.494538362336607,-0.494538362336607,0.9998915054083908,7.809619138457623e-05
-0.49447637616394785,-0.49447637616394785,1.0000508653842168,7.983182315672558e-05
-0.49438496292641504,-0.49438496292641504,0.9999657751723546,8.054431619507092e-05
-0.49429379078792407,-0.49429379078792407,0.9999328882383516,7.952743269609716e-05
-0.494188264656259,-0.494188264656259,0.9999409377232702,7.94486158904644e-05
-0.4940825395198772,-0.4940825395198772,1.0000617540813694,7.848957412470227e-05
-0.49399714491300983,-0.49399714491300983,0.9999686897967667,7.952377891228866e-05
-0.4938108387621469,-0.4938108387621469,0.9999864510449253,8.015464212334762e-05
-0.49360950494810824,-0.49360950494810824,0.9999394709751954,7.884993929558614e-05
-0.49346686634162323,-0.49346686634162323,0.9999800375527595,8.036398773646471e-05
-0.4933962354756659,-0.4933962354756659,0.9999180200311428,7.963326549842995e-05
-0.49330694506861616,-0.49330694506861616,1.000010748844772,7.921471225071405e-05
-0.49320999953488354,-0.49320999953488354,0.9998933787789633,7.946757672759932e-05
-0.4931204611384601,-0.4931204611384601,1.00010524622756,7.905292961313253e-05
-0.4929997189283313,-0.4929997189283313,1.0001162236352568,7.89043480505278e-05
-0.4928891266710707,-0.4928891266710707,1.0000754698855192,7.83659903225598e-05
-0.49282876025608857,-0.49282876025608857,0.9998842910823875,7.960671552030815e-05
-0.49273625204368726,-0.49273625204368726,1.0001445019085087,7.957373537036976e-05
-0.4926137708840542,-0.4926137708840542,0.9999936791914374,7.849740809523163e-05
-0.49254245886113496,-0.49254245886113496,0.9998671926917776,7.943117882233572e-05
-0.4924467461562017,-0.4924467461562017,1.0000218093195306,7.954203229694568e-05
-0.49235339152292,-0.49235339152292,0.9998077042280779,8.317111309958381e-05
-0.4922429234939045,-0.4922429234939045,0.9999672490820821,8.210583593006515e-05
-0.49209765568593866,-0.49209765568593866,1.0000309803161902,7.838252476983838e-05
-0.4919380324739905,-0.4919380324739905,1.0000540195625545,7.953127564785199e-05
-0.4918462852110679,-0.4918462852110679,1.0000529542261696,8.710708118448874e-05
-0.491699810459977,-0.491699810459977,0.9997749469700354,7.935631883814911e-05
-0.4916334615183587,-0.4916334615183587,1.0001155064390574,7.932515406796711e-05
-0.4914568293024786,-0.4914568293024786,1.00018081593326,7.961912628074043e-05
-0.49126737648111884,-0.49126737648111884,1.0001236501560378,7.972836067718687e-05
-0.4911891027062666,-0.4911891027062666,0.999996981604441,7.884213913515854e-05
-0.49107905177370414,-0.49107905177370414,1.0000603808950776,7.928534768748304e-05
-0.4910109168937197,-0.4910109168937197,1.0001958150436785,8.24152133818717e-05
-0.49090684258408146,-0.49090684258408146,1.0000344049811272,8.023131274368585e-05
-0.49083400441668346,-0.49083400441668346,0.9999893116073251,8.277883429587369e-05
-0.4907372663699789,-0.4907372663699789,1.0001783692485082,7.942077909069743e-05
-0.49067740545870037,-0.49067740545870037,1.0001495324423106,8.231209459716445e-05
-0.49054560867734837,-0.49054560867734837,1.0000933048194507,7.95564987431231e-05
-0.4904098519553372,-0.4904098519553372,1.0000882228169747,7.841264133135646e-05
-0.4902616339357337,-0.4902616339357337,0.9999935123355946,7.927468014470611e-05
-0.4901781877524627,-0.4901781877524627,0.9999330673108411,7.974286797428843e-05
-0.49008246800731287,-0.49008246800731287,0.9999225100070147,7.855512742539384e-05
-0.48983052920229964,-0.48983052920229964,1.000045197102715,8.276007830670964e-05
-0.4897282552352408,-0.4897282552352408,1.0000188436482973,8.023116458525357e-05
-0.4896408183485619,-0.4896408183485619,0.9999406654720502,8.307201184926119e-05
-0.48950960947331623,-0.48950960947331623,1.0000866701901399,8.213694964510736e-05
-0.48939819053921385,-0.48939819053921385,1.0001646113786287,8.534340950070103e-05
-0.489184830452723,-0.489184830452723,1.0001066648194432,8.606661020564677e-05
-0.48905255053250585,-0.48905255053250585,1.000178068708238,8.676940249034164e-05
-0.4889466690372501,-0.4889466690372501,1.0000437175813637,8.330481948405101e-05
-0.4887153050593042,-0.4887153050593042,0.9999750340439899,7.945806680690614e-05
-0.48848441483132776,-0.48848441483132776,0.9999051878652386,7.925381332077422e-05
-0.48834792377456326,-0.48834792377456326,1.0000838436659185,7.85135070811186e-05
-0.48827782143853254,-0.48827782143853254,1.0000570215186093,8.28153846175739e-05
-0.48813977165700634,-0.48813977165700634,1.0000558780443307,8.285876771915124e-05
-0.48801561560321716,-0.48801561560321716,1.0000659930668157,8.251623363337676e-05
-0.4878751833872229,-0.4878751833872229,1.0000137829260898,8.265262925956575e-05
-0.48772708832257194,-0.48772708832257194,0.9999331684567305,7.995064114326645e-05
-0.4875067019238486,-0.4875067019238486,1.0000406709403038,8.05509223430722e-05
-0.4873226313997293,-0.4873226313997293,0.9999330912846816,8.019369457200768e-05
-0.48721993914659834,-0.48721993914659834,0.9999997374573528,8.635141124011225e-05
-0.48708650964908884,-0.48708650964908884,1.000047323674557,8.593191997582431e-05
-0.4869798380685097,-0.4869798380685097,1.0000887591670478,8.067417981716807e-05
-0.4869306754779245,-0.4869306754779245,1.0000820327717306,8.322468933561802e-05
-0.48686055374055287,-0.48686055374055287,1.0000021056415662,8.663874084071196e-05
-0.4867277615405328,-0.4867277615405328,1.0001603008922544,8.311469461466184e-05
-0.486637624456489,-0.486637624456489,1.000082818497892,8.148762860411748e-05
-0.4865562106664584,-0.4865562106664584,1.0000012476208031,7.921381872545455e-05
-0.48646572179713987,-0.48646572179713987,0.9999249759950036,7.949252042159387e-05
-0.4863711181540566,-0.4863711181540566,1.000138406839405,7.852156346211117e-05
-0.486201660669758,-0.486201660669758,1.000087567384421,7.9659234231712e-05
-0.4860948491528688,-0.4860948491528688,1.0000234133671315,7.9862170130697e-05
-0.4859847474675917,-0.4859847474675917,1.0000955043581061,7.944144236391232e-05
-0.4858977611147566,-0.4858977611147566,1.0000086189661501,7.907183135826431e-05
-0.48579542698716977,-0.48579542698716977,0.9999421458121504,8.039881122713989e-05
-0.48572428137995305,-0.48572428137995305,1.0001238679522524,7.95972648565601e-05
-0.4856079824116023,-0.4856079824116023,1.0000289091732664,7.934411545335943e-05
-0.4855011019586527,-0.4855011019586527,1.0000002451883383,7.885484568688688e-05
-0.4854168304671475,-0.4854168304671475,1.0001203619705827,7.918831300262142e-05
-0.4852424286909809,-0.4852424286909809,0.9999828055586777,7.995289338721818e-05
-0.4850669111394382,-0.4850669111394382,0.9999470299956273,7.874461139947432e-05
-0.4848987641307758,-0.4848987641307758,0.9999865293002482,7.984109390357235e-05
-0.4848092864835053,-0.4848092864835053,0.999996457349859,7.892807863595903e-05
-0.4847245905424643,-0.4847245905424643,0.999919418330523,7.912375391022541e-05
-0.4846363959914015,-0.4846363959914015,0.9999992498006243,7.960712017541873e-05
-0.4845474841138639,-0.4845474841138639,0.9998636202848911,7.905546490747758e-05
-0.4844815074044163,-0.4844815074044163,0.9999583715576064,7.924505551413442e-05
-0.48435746755858416,-0.48435746755858416,1.0000812407843398,7.886255893919445e-05
-0.48428134365967707,-0.48428134365967707,0.9999104617913168,7.846969769579365e-05
-0.48419274869738727,-0.48419274869738727,0.9999154695578685,7.974783771824598e-05
-0.48408918272034496,-0.48408918272034496,1.0001369020450355,7.964196230115803e-05
-0.48399810423215966,-0.48399810423215966,1.0001523072583618,7.890969109686795e-05
-0.48394412536072196,-0.48394412536072196,0.9999890832845134,8.334250428280901e-05
-0.48386438807137894,-0.48386438807137894,0.9999788154780038,7.95410713262803e-05
-0.4837654481787467,-0.4837654481787467,0.9998953780429674,8.1275199783674e-05
-0.4836818732161191,-0.4836818732161191,1.0000341839761604,8.245150558545665e-05
-0.4835283073480241,-0.4835283073480241,1.000035397802845,7.816604485204991e-05
-0.48340188898946507,-0.48340188898946507,0.9999315898883914,7.967471781589022e-05
-0.48331660465555615,-0.48331660465555615,1.0001825446245929,7.87772354159525e-05
-0.48317476052543495,-0.48317476052543495,1.0001022507174233,8.739850734508381e-05
-0.4830702198371,-0.4830702198371,0.9999541326133036,7.860410864833148e-05
-0.48301263538451167,-0.48301263538451167,1.0000074426920842,8.079276685014012e-05
-0.48283947254676607,-0.48283947254676607,1.0001055420997231,7.969584295441584e-05
-0.4826990279820166,-0.4826990279820166,1.0000428950313085,7.981847685502523e-05
-0.4826047798691434,-0.4826047798691434,1.0001710326961846,7.88936570599049e-05
-0.4825118921566173,-0.4825118921566173,1.0000321558174605,8.008024133209255e-05
-0.48243439120051335,-0.48243439120051335,1.0001050262808235,8.206738024596133e-05
-0.4823302678785694,-0.4823302678785694,1.0000299774400432,8.011485951374662e-05
-0.4822450846528227,-0.4822450846528227,1.0000087627953071,8.258772649011187e-05
-0.4821412335637433,-0.4821412335637433,1.0000921190040868,7.93788751191493e-05
-0.4820424299417937,-0.4820424299417937,1.0001291002154586,8.286004721108204e-05
-0.48186978336016184,-0.48186978336016184,1.0001034063991614,7.986649317468529e-05
-0.4816835130113759,-0.4816835130113759,1.0000677737261623,7.930625464219295e-05
-0.4816219093940163,-0.4816219093940163,0.9999558767065103,8.253158692900412e-05
-0.4815375560290704,-0.4815375560290704,0.9999166905846627,8.335442220344136e-05
-0.48135421313636473,-0.48135421313636473,0.9999874287388713,8.081220275717987e-05
-0.48116819074712114,-0.48116819074712114,1.000005904599226,8.300046496029849e-05
-0.48108738421360614,-0.48108738421360614,0.9999327060538364,8.26306052079712e-05
-0.4810199568288226,-0.4810199568288226,1.000097830522706,8.001709783174134e-05
-0.4809349669718358,-0.4809349669718358,1.0000759193798392,8.234910394711359e-05
-0.4808055791363586,-0.4808055791363586,0.9999800775120704,8.583410483643671e-05
-0.48058369232094267,-0.48058369232094267,1.000038245189817,8.608830024052558e-05
-0.4804465945177071,-0.4804465945177071,1.0000595635412068,8.659766194111172e-05
-0.4803175920322246,-0.4803175920322246,1.0001027994218368,8.246126923313888e-05
-0.48011557724385057,-0.48011557724385057,1.0000265348562603,8.019425014200953e-05
-0.47993783837882803,-0.47993783837882803,0.9999959825402966,7.874248492619642e-05
-0.4797702458126878,-0.4797702458126878,1.000017068255421,7.890716433189082e-05
-0.4796806739534077,-0.4796806739534077,1.0000539292952846,7.908687800087495e-05
-0.4795416065157042,-0.4795416065157042,1.0001256591993333,8.265261542492682e-05
-0.4794295093728579,-0.4794295093728579,0.9999121340144859,8.29190642510897e-05
-0.4793132338229043,-0.4793132338229043,1.0000406152411734,8.237543154493822e-05
-0.4791660721966764,-0.4791660721966764,1.0000387962678856,7.987899387994447e-05
-0.47893129294607206,-0.47893129294607206,0.9999290641409129,8.03732016353776e-05
-0.4787083806564624,-0.4787083806564624,1.0000066350082863,8.873386606550159e-05
-0.4786128102517978,-0.4786128102517978,1.0000548796234134,8.633786578470006e-05
-0.47848751470664863,-0.47848751470664863,0.9999940809075312,8.282990848435422e-05
-0.4783889942140377,-0.4783889942140377,1.0000821430510112,8.374483809983903e-05
-0.47833481240086256,-0.47833481240086256,0.9999166565741507,8.34012892945491e-05
-0.4782679256881238,-0.4782679256881238,1.0000730520553467,8.291830520442844e-05
-0.4781885868564132,-0.4781885868564132,1.000053774523399,8.297225804743585e-05
-0.4780949694788433,-0.4780949694788433,0.9999765627851127,8.379395341159752e-05
-0.4780166012176778,-0.4780166012176778,1.000060622174173,8.018824783698697e-05
-0.47795230361734864,-0.47795230361734864,0.9999935468900404,7.893505097197903e-05
-0.47788360630729587,-0.47788360630729587,0.9999318099835698,7.99199494486942e-05
-0.47773818629284504,-0.47773818629284504,1.0000294961966403,7.986802987911412e-05
-0.477555979097815,-0.477555979097815,1.0000142674259576,7.96703859913554e-05
-0.4774219519793405,-0.4774219519793405,1.00005566369835,8.06257770956543e-05
-0.477346031882189,-0.477346031882189,1.0000229775332796,7.813384577062249e-05
-0.477250964405539,-0.477250964405539,0.9998885919353894,7.973229214818107e-05
-0.4771297199979017,-0.4771297199979017,0.9999353864408687,7.983784987001485e-05
-0.4770027149745147,-0.4770027149745147,1.0000201743485113,8.012174128092797e-05
-0.47687341047640075,-0.47687341047640075,1.0000649157148,7.882879043091224e-05
-0.47676427360856904,-0.47676427360856904,1.0000743734526396,7.990213225230642e-05
-0.476671283543692,-0.476671283543692,1.0001068391524428,7.858558865745864e-05
-0.47652669907620293,-0.47652669907620293,1.0001051505792466,7.987309044516149e-05
-0.47635368018964075,-0.47635368018964075,1.0000091481315478,7.881516226938639e-05
-0.4762147917404945,-0.4762147917404945,0.9999959660338711,7.91858940102406e-05
-0.47612377007535545,-0.47612377007535545,0.9999257800283798,7.913471633015127e-05
-0.47600374687099245,-0.47600374687099245,1.000000877380991,7.94213771855063e-05
-0.475936678249127,-0.475936678249127,1.0000778485294912,7.885827425800492e-05
-0.4758540426650143,-0.4758540426650143,1.000086393880831,8.481417949120405e-05
-0.47574286313683845,-0.47574286313683845,1.0000066176003308,7.892137539585448e-05
-0.47565999122016367,-0.47565999122016367,1.000175044841068,7.917346522526717e-05
-0.4755621119948046,-0.4755621119948046,0.9999412185114682,7.940104505640161e-05
-0.47546852166415193,-0.47546852166415193,1.0000972241689352,7.915439158764201e-05
-0.47537319741313694,-0.47537319741313694,0.9999791522578413,7.956999229855627e-05
-0.4752993689951836,-0.4752993689951836,1.0000708255735504,7.952264785573006e-05
-0.4751874056630186,-0.4751874056630186,0.9999644534298199,8.1386327307787e-05
-0.47512749694506057,-0.47512749694506057,0.9999353837097106,7.874476737849216e-05
-0.4750013572782336,-0.4750013572782336,1.0001184552665252,8.194203013815739e-05
-0.4748971945809899,-0.4748971945809899,0.9999337104166115,8.31121665540206e-05
-0.4747571070176491,-0.4747571070176491,0.9999762835410184,7.949508375249326e-05
-0.47465544445221897,-0.47465544445221897,1.0000548381148837,8.58823447125253e-05
-0.474495907410892,-0.474495907410892,0.9999842481471054,8.273239668254401e-05
-0.47443760405149077,-0.47443760405149077,0.9999601253958336,8.390337456673357e-05
-0.4743683614375186,-0.4743683614375186,0.9999937800727248,7.817337259852315e-05
-0.47423855999222725,-0.47423855999222725,1.0000404062111432,8.020609391200146e-05
-0.47408215394680153,-0.47408215394680153,0.9999714007183715,7.887079271676297e-05
-0.4739492259635881,-0.4739492259635881,0.9999891735398927,7.886080440165695e-05
-0.47385499906449696,-0.47385499906449696,0.9998195430085843,8.260690208981931e-05
-0.47375355159674654,-0.47375355159674654,1.0000267627797927,8.141002291340226e-05
-0.473665367069043,-0.473665367069043,1.0000012317794102,8.254606156491807e-05
-0.4735577397535963,-0.4735577397535963,1.0001423942140961,7.976557626358724e-05
-0.473499314422952,-0.473499314422952,1.000028382760299,8.236570989300545e-05
-0.47339017314589,-0.47339017314589,0.9999541809986863,7.817476944927213e-05
-0.47322941036327393,-0.47322941036327393,0.9999982900303588,7.983872550208522e-05
-0.47307305912909214,-0.47307305912909214,0.9998903230501897,7.878871421264953e-05
-0.47300810126689613,-0.47300810126689613,1.0000775935120436,7.883446320424579e-05
-0.47295034191556623,-0.47295034191556623,0.9999889657715526,8.394826432881736e-05
-0.47276159347238716,-0.47276159347238716,0.9998379694152298,8.061085779920863e-05
-0.47256789110979297,-0.47256789110979297,1.0000201361520964,8.324096691424946e-05
-0.4724674413140747,-0.4724674413140747,0.9999632117903514,8.306629314827307e-05
-0.47239537208806726,-0.47239537208806726,1.0000360368740515,7.995920435160134e-05
-0.4723202478839085,-0.4723202478839085,0.9998643791720128,8.316367883224378e-05
-0.47220949847760496,-0.47220949847760496,1.0000931693655475,8.227213063097709e-05
-0.47205795469781153,-0.47205795469781153,0.9999024947743065,8.593654942333205e-05
-0.47189952588960293,-0.47189952588960293,1.0000851723110356,8.205846421348588e-05
-0.47183252221148,-0.47183252221148,1.0000485105698647,8.632008677463861e-05
