time,time,flux,flux_err
-0.4999361502832471,-0.4999361502832471,0.9999100998239627,0.0002091668806503975
-0.49972772587170766,-0.49972772587170766,1.0000231574078338,0.0002252910659709753
-0.4996388237571712,-0.4996388237571712,0.9998713318195614,0.00020873481312472987
-0.4995825148384029,-0.4995825148384029,1.000033490021114,0.00018885324915520174
-0.4995351099481923,-0.4995351099481923,0.99993029001802,0.00021730332074724437
-0.49944867947706373,-0.49944867947706373,1.0003684069595005,0.0001922089595968501
-0.4993911967700114,-0.4993911967700114,1.000249622523928,0.00018894971453734357
-0.4993516602429736,-0.4993516602429736,0.9998455951900347,0.00019645888456525334
-0.49915661973427633,-0.49915661973427633,1.0001091105279643,0.0002162237769328359
-0.49900910194555764,-0.49900910194555764,1.000201005801386,0.00019216256652872387
-0.49884198264117,-0.49884198264117,0.9999605839622328,0.0001900649813405937
-0.49865411106220564,-0.49865411106220564,1.0001755483939183,0.00018590015513264552
-0.49856191108046916,-0.49856191108046916,0.9998356600419965,0.00018854554286403777
-0.4984830898407381,-0.4984830898407381,0.9999801374029499,0.00018783926331171583
-0.4984058296548028,-0.4984058296548028,0.9998710299431913,0.00021383431566035475
-0.49834691903815836,-0.49834691903815836,0.9999158259031076,0.00019112114537151971
-0.49829221025283915,-0.49829221025283915,0.9998000183187251,0.0001931280153385711
-0.49818938969692683,-0.49818938969692683,0.9999008780256874,0.00019373935898545606
-0.49801314870564967,-0.49801314870564967,1.0000295757135091,0.00021433203862630118
-0.4978318339548423,-0.4978318339548423,1.0000000961020183,0.0001895632526259748
-0.4976254692490329,-0.4976254692490329,0.999917935369297,0.00018827540291892181
-0.49750118038791696,-0.49750118038791696,0.9998498768319756,0.00019280931862806377
-0.4974399312850437,-0.4974399312850437,0.9998655314902678,0.00018977404578111675
-0.49734113816957687,-0.49734113816957687,1.0000811910202296,0.0002147522541904571
-0.4972811706829816,-0.4972811706829816,1.0001777925532518,0.00019329663729620713
-0.49720942786880185,-0.49720942786880185,1.0001476033791843,0.00019602646390279535
-0.4970545522715838,-0.4970545522715838,1.0001638539216582,0.0002155178373448304
-0.4968886206122988,-0.4968886206122988,1.0001255432117477,0.00019269610414316204
-0.496648998807359,-0.496648998807359,1.0001374253437414,0.00018820791673123852
-0.4964456501766108,-0.4964456501766108,1.0000222578143667,0.00018910697548220936
-0.4963760732789524,-0.4963760732789524,1.0000309003157033,0.00019325782085153576
-0.49626315613786576,-0.49626315613786576,0.999980574793162,0.00021370079306017148
-0.4962071297886723,-0.4962071297886723,0.9998028761947572,0.0001945473696063527
-0.49613109309138964,-0.49613109309138964,0.9998164694116249,0.00019456569396150773
-0.4959301471535582,-0.4959301471535582,0.9998576647914448,0.00021500216078914323
-0.49573059370086414,-0.49573059370086414,1.000264601803626,0.00019658921357163076
-0.49547064857033546,-0.49547064857033546,1.0004286119698076,0.00019358605425391423
-0.4953297487736563,-0.4953297487736563,0.9999211900351732,0.00019098700093502213
-0.4952038329000061,-0.4952038329000061,1.0000374688101972,0.0002162042890442216
-0.4951417345771915,-0.4951417345771915,1.0002106910475994,0.00026461415803028616
-0.4950678177250666,-0.4950678177250666,0.9999544757130844,0.0001977485858707247
-0.49485630802810193,-0.49485630802810193,0.99990667198882,0.0002149966194444834
-0.49466891416668657,-0.49466891416668657,1.000012499999277,0.00019779437708885035
-0.4944716876161692,-0.4944716876161692,1.0003800037954418,0.000193570699277344
-0.4943138852751872,-0.4943138852751872,0.9998812712616708,0.00018888449124116702
-0.49423638690423105,-0.49423638690423105,0.9998057110016936,0.00019209885296220356
-0.49414589140505993,-0.49414589140505993,0.999970328511736,0.0001986691064213092
-0.49406572307270835,-0.49406572307270835,1.0001499401958203,0.000194560675736612
-0.4939108883510926,-0.4939108883510926,0.9999877305264253,0.00019872280379091184
-0.49373598179081457,-0.49373598179081457,0.99969960129645,0.00021002689485034978
-0.49351090305572143,-0.49351090305572143,1.0000588797738277,0.0001999851548116069
-0.49337209364312,-0.49337209364312,0.9999493981976538,0.0001925601370742013
-0.4932254384024418,-0.4932254384024418,1.0002059353988684,0.0001915542975030919
-0.49315855506574735,-0.49315855506574735,1.0002536745732709,0.00019371213696706615
-0.4930778311754693,-0.4930778311754693,0.9997781508575768,0.00021400134805089514
-0.4930108995496994,-0.4930108995496994,1.0002801196589934,0.0001900354761433001
-0.4929311742220307,-0.4929311742220307,1.0001913465698227,0.0001937303969055561
-0.49274327944003743,-0.49274327944003743,1.0001932112327383,0.000196361964556606
-0.49257616085451444,-0.49257616085451444,1.0001666099941164,0.0002135498276344002
-0.4923237034025078,-0.4923237034025078,0.9998573634336025,0.00019418649507639278
-0.4921890312129108,-0.4921890312129108,0.9997146223377896,0.00018960611203878457
-0.49208107881204344,-0.49208107881204344,1.000126746228116,0.00018906221071533685
-0.4920046274084598,-0.4920046274084598,1.0002271281894373,0.00020776321882504082
-0.4919565264164703,-0.4919565264164703,0.9999599152508797,0.00019180189654195815
-0.4919049822470697,-0.4919049822470697,1.0000551244119014,0.0001900566963804064
-0.49175074654995116,-0.49175074654995116,1.0000732838075588,0.0001988327818607759
-0.4915617416256282,-0.4915617416256282,0.9999746645582336,0.00021399102863378815
-0.4912886061007157,-0.4912886061007157,0.9999502817306538,0.00019837892288092273
-0.4911951075817342,-0.4911951075817342,1.0003044858713428,0.0002065093978992896
-0.49109048585087295,-0.49109048585087295,1.0000836003765698,0.00018690309689930903
-0.491002376810502,-0.491002376810502,0.999739983425355,0.00018898805928281755
-0.49092782804073065,-0.49092782804073065,1.000160545008664,0.0002132685946019832
-0.4908904583615367,-0.4908904583615367,1.0000986662310456,0.00019196269975828398
-0.49078942360065414,-0.49078942360065414,1.0001028407631136,0.0001943402024628645
-0.4906418594655406,-0.4906418594655406,1.0002069622797054,0.000195236790065323
-0.4903584359672095,-0.4903584359672095,1.0000853148842828,0.00021361095213696244
-0.4901619880372891,-0.4901619880372891,0.9994597895449353,0.00019080950480955102
-0.4901051933542476,-0.4901051933542476,0.9997361815743744,0.00018214183443698
-0.4900368691392941,-0.4900368691392941,0.9997534432754946,0.00018411001322552042
-0.4899439679662464,-0.4899439679662464,1.0000316052066118,0.0001922198365721608
-0.48985512626168204,-0.48985512626168204,1.0001504769093594,0.00018581709451481447
-0.48980355292442257,-0.48980355292442257,0.999796762766279,0.00021248856116702506
-0.48963362810827676,-0.48963362810827676,1.0002667610451086,0.00020186512251896865
-0.489438585282187,-0.489438585282187,1.000143585634332,0.00021589386235582142
-0.48913472346175696,-0.48913472346175696,1.0001820997431692,0.0001909507080793905
-0.4890695262103691,-0.4890695262103691,1.00024974768296,0.00018221505123429917
-0.4890037838493299,-0.4890037838493299,0.9999789034900679,0.00018437234177163254
-0.488880981879629,-0.488880981879629,0.9997577977098349,0.00018849333272561282
-0.4888086833947455,-0.4888086833947455,1.000089959688883,0.00018427549241013116
-0.4887440175960364,-0.4887440175960364,1.0001886029148506,0.00023409047006382608
-0.4886496548329887,-0.4886496548329887,1.0002166107435055,0.00020671851229750313
-0.48848669242070175,-0.48848669242070175,1.000172567262053,0.00019116912243141452
-0.48823486853289066,-0.48823486853289066,0.9999499914775856,0.0002107578667959197
-0.4880344378623704,-0.4880344378623704,1.000363762306115,0.0001889438421129744
-0.4879916979291011,-0.4879916979291011,0.9999432540136773,0.00018548746089335155
-0.48794428914043236,-0.48794428914043236,1.0000155401233868,0.00018367020504377561
-0.48784643786857484,-0.48784643786857484,0.999928298781049,0.00018852175929132595
-0.4877581509274023,-0.4877581509274023,1.000242748797151,0.00019199827104171473
-0.48767158806876976,-0.48767158806876976,0.9998391201491307,0.00021184616025381886
-0.4875418193085352,-0.4875418193085352,0.9999367455974966,0.00021843526871151612
-0.48738763958899656,-0.48738763958899656,0.9998734662628106,0.00019572550098565438
-0.48719607805032866,-0.48719607805032866,0.999674918076644,0.00021406292957212693
-0.48695864806140887,-0.48695864806140887,1.0001904880073489,0.00018888906837656957
-0.4869067335377622,-0.4869067335377622,1.0001366100377314,0.00018583805799168314
-0.48681622114163475,-0.48681622114163475,0.9999563562286617,0.00018848221630393325
-0.48673262627926306,-0.48673262627926306,0.9998179682633287,0.00018838895804555882
-0.48663220796588574,-0.48663220796588574,0.9997798750527236,0.00021945502338832903
-0.4865254084776097,-0.4865254084776097,1.000112449708594,0.0002120879279263269
-0.4863569420806016,-0.4863569420806016,1.0001375087039133,0.00023592307711855896
-0.48614995743264444,-0.48614995743264444,0.9997179212588758,0.0002155482552755698
-0.4859118775872048,-0.4859118775872048,1.0001451084680075,0.00018887420758058646
-0.4858480936978594,-0.4858480936978594,1.0001573726968231,0.00018268038997197627
-0.48578556847642174,-0.48578556847642174,1.000038076428231,0.00018746543939248252
-0.4857015419787786,-0.4857015419787786,1.000290295021318,0.00018742310883787517
-0.48564617623414963,-0.48564617623414963,1.000060067511721,0.0001930991532111439
-0.4855124942114344,-0.4855124942114344,1.0000055249760285,0.000214690567942913
-0.48532598296369545,-0.48532598296369545,1.0001379058923052,0.00019237615576560025
-0.48512829811661506,-0.48512829811661506,1.0001172389069226,0.00019419069583706324
-0.48489344757908837,-0.48489344757908837,0.9999346032163269,0.00020971395936608228
-0.48479959752366997,-0.48479959752366997,0.9998025132017336,0.00019058101217817885
-0.4847468310072145,-0.4847468310072145,1.0000027431145442,0.00018647860846301648
-0.48465712524412086,-0.48465712524412086,1.000005357332125,0.00018868702966189657
-0.4845819797570584,-0.4845819797570584,1.0000624625021568,0.00019255187330007042
-0.48446513749222503,-0.48446513749222503,1.0003129361032757,0.00019006970052756967
-0.48435959827475017,-0.48435959827475017,1.0000950759185756,0.00020976986748354418
-0.4841740628384287,-0.4841740628384287,0.9998500950834235,0.00020065241149253395
-0.48402710474765626,-0.48402710474765626,0.999890316517616,0.00019828466236979434
-0.48388513433601477,-0.48388513433601477,1.0001034742801984,0.00021391665513397556
-0.4837492065191327,-0.4837492065191327,0.9996085439545295,0.00018473566380118345
-0.4837079022348917,-0.4837079022348917,0.9999445292396718,0.00018706183664056914
-0.48363434658604093,-0.48363434658604093,0.9999153925655209,0.00018744385806439103
-0.48358027313879576,-0.48358027313879576,1.0001052110242132,0.00018872338932610232
-0.4835222237474227,-0.4835222237474227,0.99981066655139,0.00019498383497968964
-0.4833796835373505,-0.4833796835373505,1.0004067811929338,0.00020978539642354794
-0.4833041305791994,-0.4833041305791994,1.0001057759988714,0.00018737843709949072
-0.48313378004240803,-0.48313378004240803,1.00011957859376,0.0001937232992272871
-0.48293572458132983,-0.48293572458132983,0.9999173823378091,0.00020179637185493258
-0.48276174106576947,-0.48276174106576947,1.000037677919706,0.00020945741135542864
-0.4826656333418214,-0.4826656333418214,0.9998107070491088,0.00018829555735654639
-0.4825809858040884,-0.4825809858040884,1.0002597142517264,0.00018596778550742177
-0.48250593384655077,-0.48250593384655077,1.0001176559263372,0.00018868183226020374
-0.4824050633236766,-0.4824050633236766,1.0004029271838686,0.0001907677236408126
-0.48226248628416213,-0.48226248628416213,0.999856820383662,0.00021016893072469143
-0.4821070486184908,-0.4821070486184908,0.9998849836654845,0.00019116407863159848
-0.48191224232359675,-0.48191224232359675,0.9999293773126606,0.0001967410072608403
-0.4817655993545486,-0.4817655993545486,0.999663035203868,0.00021766293734342025
-0.48164340833827735,-0.48164340833827735,0.9995603427287623,0.0001846301702177773
-0.48155884477382643,-0.48155884477382643,1.0000797139517092,0.00018294764098590412
-0.4814656078073313,-0.4814656078073313,0.9998538892837624,0.0001902736817412963
-0.4813962493542931,-0.4813962493542931,1.0003066186572518,0.00019166204505582888
-0.48129606443471856,-0.48129606443471856,0.9998132713201213,0.00018670591922160114
-0.48117470249853794,-0.48117470249853794,1.0002716686858915,0.000211841270976034
-0.48103599800160735,-0.48103599800160735,1.000152034699167,0.0001911907874244209
-0.4808414037026523,-0.4808414037026523,1.000301651137566,0.0002011915355027751
-0.4807114583258226,-0.4807114583258226,0.9998260161311843,0.00021250517547241322
-0.48057711775036294,-0.48057711775036294,0.9999670022469935,0.00020823613393075778
-0.4804960313216725,-0.4804960313216725,1.0001688842143694,0.00018302699012881008
-0.4803953035152517,-0.4803953035152517,1.0001250681893692,0.00019026198422920974
-0.48031756487107485,-0.48031756487107485,1.0003315604052407,0.0001914781869738531
-0.48018193787283964,-0.48018193787283964,0.9998678306274877,0.0001944104446731057
-0.48007851368092813,-0.48007851368092813,1.0000846892475002,0.00021139946888380795
-0.47989604355607296,-0.47989604355607296,1.0002382249855093,0.00019287448692742963
-0.4797104995101108,-0.4797104995101108,0.9998509640996283,0.0002226215123786869
-0.47954212257391193,-0.47954212257391193,1.0001147931326144,0.00021242574502644936
-0.47947333561605776,-0.47947333561605776,0.9998907747956839,0.00017976189445873734
-0.47938613746518965,-0.47938613746518965,1.0002111146889032,0.00018567636811887974
-0.47931753155280604,-0.47931753155280604,0.9998817861934194,0.00019150382183017562
-0.47916031341737836,-0.47916031341737836,0.9999715678928712,0.00019420012921323894
-0.4790062179446977,-0.4790062179446977,1.0001545319098701,0.00021446745260482033
-0.478856953374634,-0.478856953374634,0.9999782332330056,0.00018820554693762035
-0.4787022355871159,-0.4787022355871159,1.0001252543354782,0.00019715071185594078
-0.47850429185054966,-0.47850429185054966,0.9997339503132769,0.00021365475671020185
-0.4784140129384468,-0.4784140129384468,0.9999245031271314,0.0002052378850036612
-0.47831641753873555,-0.47831641753873555,1.0000746285458386,0.00018245029555089237
-0.4782416500769614,-0.4782416500769614,0.9997890146333489,0.00019455007310895266
-0.4780944958736654,-0.4780944958736654,0.9998550918494535,0.0001906666620517503
-0.47786904615641107,-0.47786904615641107,1.0000211724283683,0.00021272511661101341
-0.47765281243264324,-0.47765281243264324,0.9998628559459236,0.00019451496916262828
-0.4774640752417326,-0.4774640752417326,1.0001174849122967,0.0002097166571706517
-0.4773857564265199,-0.4773857564265199,1.0002059062046533,0.0001951287387198079
-0.4772902877972228,-0.4772902877972228,1.000060352364436,0.0002070453291437992
-0.4771669706089597,-0.4771669706089597,1.0002144105205226,0.000193307789486929
-0.4769811927319097,-0.4769811927319097,0.999985751928655,0.00018894374211460586
-0.47679204800660957,-0.47679204800660957,0.9999287651790304,0.0002154129734905209
-0.4765801431734872,-0.4765801431734872,1.0000781512023817,0.0001945531919559843
-0.47639336151405587,-0.47639336151405587,0.999774403262297,0.00020969784745721146
-0.4763245731213829,-0.4763245731213829,0.9997411509655405,0.00018496882069035742
-0.4762498553980549,-0.4762498553980549,0.9999253819624322,0.00021090899449148043
-0.4760803208759171,-0.4760803208759171,1.0000463262141133,0.00019684282831046446
-0.4759594128910976,-0.4759594128910976,0.9999449341674207,0.00018405452172672905
-0.4757503509361413,-0.4757503509361413,0.9997078948666995,0.00022005968188812966
-0.47558150113982267,-0.47558150113982267,0.9998524037845675,0.0001946604180123991
-0.4754622975415259,-0.4754622975415259,1.0001989983244957,0.0001908311961824723
-0.4753220004560717,-0.4753220004560717,0.9998904865594167,0.00020984114589114744
-0.47525664181303,-0.47525664181303,1.0001636439439414,0.0001789729128529556
-0.4751890835650556,-0.4751890835650556,0.9997448889440766,0.00020812778571850394
-0.4750223320123041,-0.4750223320123041,0.9999615730585936,0.00018760900943097855
-0.47490475992817666,-0.47490475992817666,1.0002505283079473,0.00018553123240503652
-0.47468918353843037,-0.47468918353843037,0.9999857186217959,0.00021423537702252652
-0.47451382081781046,-0.47451382081781046,1.0001431720359029,0.00019259001811587937
-0.4744148254285392,-0.4744148254285392,0.9999566622838942,0.00020938045410831687
-0.4742597264084907,-0.4742597264084907,0.9999051436979352,0.00018551017458997765
-0.474193003065011,-0.474193003065011,1.0000395548177328,0.00020380263866412733
-0.4740826130764617,-0.4740826130764617,0.9999098910851167,0.0002079355662486211
-0.47392855681609947,-0.47392855681609947,1.0000479974793948,0.00019381610149651996
-0.4737226263496268,-0.4737226263496268,1.000013895199253,0.00019617749226975503
-0.47355533872905653,-0.47355533872905653,1.0001888409908557,0.00021274986224327968
-0.4734319767507259,-0.4734319767507259,1.0000037336484637,0.00019126748524899933
-0.4733305261186615,-0.4733305261186615,0.9999258799908783,0.0002091049492508275
-0.47320418803501524,-0.47320418803501524,1.000068581869274,0.0001801756371849583
-0.47315015313142794,-0.47315015313142794,0.999849953702196,0.00022862840462414298
-0.47309909459290794,-0.47309909459290794,1.0001394160515902,0.00018874913676094772
-0.47289660394817473,-0.47289660394817473,1.0002294624428376,0.00021301606396903583
-0.47270300269301513,-0.47270300269301513,1.000212233390689,0.00019188103743068976
-0.4725068762083538,-0.4725068762083538,0.9999249695164284,0.0002192650212283882
-0.4723638484661933,-0.4723638484661933,0.999801388527181,0.00019300994295954387
-0.4722269499878166,-0.4722269499878166,1.0000563053747993,0.00020644889381870522
-0.47210090798398596,-0.47210090798398596,1.0003705422055866,0.0002085901539731397
-0.47200993379447026,-0.47200993379447026,1.0000081053989396,0.00020162018297764178
-0.4718720281794958,-0.4718720281794958,1.0000921782964827,0.00029068763855516803
-0.47172994727734474,-0.47172994727734474,0.9999104924159843,0.00019601476943827077
-0.47151273443960234,-0.47151273443960234,0.9997932030340282,0.00019229577229530547
-0.471322909045557,-0.471322909045557,0.9999784509539106,0.00021443503349977147
-0.47115837323581217,-0.47115837323581217,0.9995708112096905,0.00020607972135076305
-0.4710458525747526,-0.4710458525747526,1.0002268702591788,0.0001840612763007754
-0.47097490533487874,-0.47097490533487874,0.999863340307287,0.00022253036317855754
-0.470862210427731,-0.470862210427731,0.9997853472207128,0.00024392981915014565
-0.47071453929675044,-0.47071453929675044,1.0001431416492783,0.0002534234832584076
-0.47060917366397914,-0.47060917366397914,0.9995385034213946,0.00018675326328035916
-0.4704424122530327,-0.4704424122530327,1.000160376346038,0.00019641056451747056
-0.4702367232945107,-0.4702367232945107,1.0001642283079712,0.0002106745828351425
-0.4701222266921832,-0.4701222266921832,0.9999075936860233,0.00020395912630610477
-0.4700066274883284,-0.4700066274883284,0.999949067815713,0.00019166800147820545
-0.4699257563443098,-0.4699257563443098,1.0001731014072628,0.00021843368923393016
-0.4697838032931031,-0.4697838032931031,0.9999801504282935,0.0002432369321782387
-0.46962067798667706,-0.46962067798667706,1.0000119646098722,0.00025141494597479924
-0.46945284074827215,-0.46945284074827215,0.9999254720716104,0.0001911590910063718
-0.46921302786358865,-0.46921302786358865,0.9998986904351634,0.00021313706908088784
-0.4690626012867142,-0.4690626012867142,1.0000434969678236,0.0002091838046458102
-0.46891731498544686,-0.46891731498544686,1.0002335936253122,0.00019109949407319972
-0.46884610459965187,-0.46884610459965187,0.9999873225298075,0.00021492654411230675
-0.4687053975263552,-0.4687053975263552,0.999932081600486,0.00024239746695535886
