time,time,flux,flux_err
-0.49903273607439286,-0.49903273607439286,0.9999522535920592,0.0001773150955159098
-0.4978571704908973,-0.4978571704908973,1.0001258601144827,0.00016514398087163684
-0.4959470194480673,-0.4959470194480673,1.000059088434929,0.00016195838964832882
-0.49431230658083225,-0.49431230658083225,0.999726260291437,0.00016187324161735363
-0.49320955537186817,-0.49320955537186817,1.0001333052159818,0.00016197210122808502
-0.49210024681087816,-0.49210024681087816,1.0001320451673341,0.00017534748997078637
-0.49061128254397773,-0.49061128254397773,1.000096300436642,0.00020449473888636406
-0.4886355987939169,-0.4886355987939169,0.9998733019885216,0.00016190668632051856
-0.4872941049427027,-0.4872941049427027,1.0001341385984672,0.00016194665404985897
-0.4860483012649638,-0.4860483012649638,1.000144512337517,0.0001620967704579821
-0.4833271991461515,-0.4833271991461515,1.000024023542284,0.00016196347126511818
-0.481767704970116,-0.481767704970116,1.000107485360632,0.00016193570159003668
-0.48030969314495453,-0.48030969314495453,0.9999119586835142,0.00016206492304264702
-0.4781344930153864,-0.4781344930153864,0.999968513372344,0.00016260293034426487
-0.47601127264933896,-0.47601127264933896,1.0000646963010442,0.00016192320558672634
-0.47463775176001943,-0.47463775176001943,0.9997982388542732,0.00016196063655403
-0.47361165885959056,-0.47361165885959056,0.9998253409356573,0.00016224621328958148
-0.47133530710707416,-0.47133530710707416,0.999952823436093,0.00016507568029346117
-0.4699660110192781,-0.4699660110192781,1.0001827321724657,0.0001835287476080772
-0.46873132111650195,-0.46873132111650195,0.9997533666211027,0.00016164248294450905
-0.4674531653938175,-0.4674531653938175,0.9999462055840157,0.00016316551460669637
-0.46465475960067126,-0.46465475960067126,1.0000360928695375,0.00016196368437165586
-0.4629623437154805,-0.4629623437154805,1.0000114300623906,0.00016194852343066473
-0.46187181406930905,-0.46187181406930905,0.9999388842274561,0.00016784215228398596
-0.46061098457794286,-0.46061098457794286,1.0001156201482686,0.00016187969843792907
-0.45821260387965596,-0.45821260387965596,0.9998767961667733,0.00016190273774095482
-0.45687509357012457,-0.45687509357012457,0.9998631248829039,0.0001619362703595589
-0.4556961670117744,-0.4556961670117744,1.0001760687921704,0.00018168110949060137
-0.45419531654042655,-0.45419531654042655,1.000042710166018,0.00021327109545014482
-0.4524017464427743,-0.4524017464427743,0.9999181134878568,0.00022283917994142337
-0.4510243322671158,-0.4510243322671158,0.9998891135628736,0.0001619733696137899
-0.44964743145465036,-0.44964743145465036,1.0001317482761451,0.00016205176868652846
-0.4473697285284288,-0.4473697285284288,0.9997607654454242,0.00016199955473876
-0.4455916276107018,-0.4455916276107018,0.9998200900840555,0.00016193472182482802
-0.444202391016006,-0.444202391016006,0.9997699389239567,0.00016196188388980102
-0.4430632474730373,-0.4430632474730373,0.9999648960280096,0.00022658363325505225
-0.4408915131316462,-0.4408915131316462,0.9999471140294485,0.00016303096227756475
-0.4395369690733787,-0.4395369690733787,1.0003751966735077,0.0001719133577004677
-0.4384924984551617,-0.4384924984551617,0.9998128291865982,0.0001619832333267606
-0.43742285008192994,-0.43742285008192994,1.0002302734931288,0.0001626088963101193
-0.43563470102380963,-0.43563470102380963,0.9999111902250389,0.00016201215022964327
-0.433199545818934,-0.433199545818934,1.0001332064189457,0.00016194193211948313
-0.43185369432903825,-0.43185369432903825,0.9998909533185788,0.00016179056270341962
-0.43066216108709343,-0.43066216108709343,0.9998742832407241,0.00016383543108116987
-0.42803984858474,-0.42803984858474,0.9999438457335224,0.00016195667074361085
-0.4263413542474154,-0.4263413542474154,1.0000806693903392,0.00016194230310085522
-0.42525944771405194,-0.42525944771405194,1.0000041495676055,0.00017132293456206604
-0.4238460091910383,-0.4238460091910383,0.9999283615080099,0.00019667143295651937
-0.422099742302089,-0.422099742302089,0.9997419290433353,0.00016190792372345486
-0.420779648268217,-0.420779648268217,0.9999911354559032,0.00016191841215712128
-0.41945429557890745,-0.41945429557890745,0.9998134776260853,0.00016203496966254663
-0.418232595675363,-0.418232595675363,1.0000010583566852,0.00018901314967777227
-0.4160856615642842,-0.4160856615642842,0.9999396195629411,0.0002140616145040504
-0.414724428208865,-0.414724428208865,1.0001321945701616,0.00016195342949837664
-0.41326484238161354,-0.41326484238161354,1.000047597930168,0.00016205578831832574
-0.41078046369875665,-0.41078046369875665,0.9998176579694977,0.00016228962904121395
-0.4088038136513205,-0.4088038136513205,1.0000280998316078,0.00016191647194184009
-0.4072925614163978,-0.4072925614163978,0.9997448383540044,0.00016208472873484363
-0.40620484781320554,-0.40620484781320554,0.9998316963626929,0.0002282084255864663
-0.4042829395672015,-0.4042829395672015,0.9999323355296461,0.0001637516404734627
-0.4029206369748863,-0.4029206369748863,0.9997775958123107,0.00017697336579049672
-0.40172349600761664,-0.40172349600761664,0.9999311134695856,0.00016196201557241332
-0.40094885477956266,-0.40094885477956266,1.0000682853394385,0.00016241546934367692
-0.3994679876392183,-0.3994679876392183,0.9998064552686339,0.00016198895318255704
-0.3967157048682566,-0.3967157048682566,1.0000116506621146,0.00022105120048899798
-0.39548660180153095,-0.39548660180153095,1.0001178566345996,0.00016183055744146697
-0.3943638326207292,-0.3943638326207292,0.9998387004478004,0.0001653500529773053
-0.3922853170603048,-0.3922853170603048,0.9999225841374404,0.00016194941012017235
-0.3906498497191933,-0.3906498497191933,0.9999613618316779,0.00016187788942813213
-0.38954764333975617,-0.38954764333975617,1.0000462249695699,0.00016196390096765348
-0.3884392271625984,-0.3884392271625984,0.9998632592056206,0.0001758804647619174
-0.3869653818983352,-0.3869653818983352,1.0002903492781405,0.00020535785996514717
-0.38539785753164324,-0.38539785753164324,0.999933521685934,0.0001619428838686199
-0.38390806387615156,-0.38390806387615156,0.999787491833272,0.0001619216375401793
-0.3826008450014342,-0.3826008450014342,1.0000919601240377,0.00016207439701369797
-0.38026583028113237,-0.38026583028113237,0.9998140295328207,0.00016199726283013487
-0.3783829963795142,-0.3783829963795142,0.9998762128731646,0.0001618898720599082
-0.37687005266998314,-0.37687005266998314,0.9998406797791569,0.0001620451286104289
-0.3750750394166971,-0.3750750394166971,1.0001002009174307,0.0001620049134175817
-0.3731188892874343,-0.3731188892874343,0.9998304839972827,0.0001625267646781757
-0.37160353211074837,-0.37160353211074837,1.000282772061112,0.00016199574952604457
-0.37023591004690387,-0.37023591004690387,1.0000688209131767,0.00016233750354196025
-0.36815892040904147,-0.36815892040904147,0.9999443039861632,0.00016522495639079545
-0.36641398813444537,-0.36641398813444537,0.9999664799159756,0.00018438453123143834
-0.36534355614930974,-0.36534355614930974,0.9999081559980112,0.00016200335055233925
-0.3641690239557647,-0.3641690239557647,1.00015168098452,0.00016292054508992133
-0.36153286761546044,-0.36153286761546044,1.0000764985460533,0.0001619771667429743
-0.359580020269641,-0.359580020269641,1.0003095842763194,0.00016196113306279368
-0.35838442294625567,-0.35838442294625567,1.0003944145429349,0.00016815368804857692
-0.35701534061663553,-0.35701534061663553,0.9997734438427506,0.00016194475522656644
-0.35455064597190356,-0.35455064597190356,0.9999264607861216,0.00016190417244981735
-0.3532129249040736,-0.3532129249040736,0.9998029797226948,0.00016192087332093092
-0.3520349492529931,-0.3520349492529931,1.0001090400211314,0.00018239866720614256
-0.35053423878052853,-0.35053423878052853,0.9998631020900426,0.0002141054758383224
-0.34915870954355344,-0.34915870954355344,1.0000928464590533,0.00022198972467169924
-0.3479595315322513,-0.3479595315322513,1.0001292130687138,0.00016198297471858438
-0.34644795431013337,-0.34644795431013337,0.9998833184877594,0.0001620223362209904
-0.3446070190082537,-0.3446070190082537,1.0001150567651276,0.00016200339467837887
-0.34266701508968256,-0.34266701508968256,0.9998519394712966,0.00016198790576131593
-0.34117453868311715,-0.34117453868311715,0.9999408031917298,0.00016195244668729358
-0.33994079096082713,-0.33994079096082713,0.9999789729691264,0.0001620242718698679
-0.33830780996213433,-0.33830780996213433,1.0001049080777222,0.00022700617932852797
-0.33626208257483087,-0.33626208257483087,0.999924101797904,0.00017330652739320221
-0.33534175979875724,-0.33534175979875724,0.9998222082269468,0.00016195813905215556
-0.3342203474276175,-0.3342203474276175,1.0000529301185168,0.00016197105403017526
-0.33333239389539815,-0.33333239389539815,1.0000218795139424,0.0001625856355756428
-0.3307666172680911,-0.3307666172680911,0.999894076943075,0.00016199932656572451
-0.3290301429391548,-0.3290301429391548,0.9999099491044967,0.00016196738435317616
-0.32777428477056675,-0.32777428477056675,1.0001644665351728,0.00016382606346687363
-0.3261433450810728,-0.3261433450810728,1.0001294757512273,0.00016198513737582403
-0.32358755127352196,-0.32358755127352196,0.9999816089321163,0.00016192146295626483
-0.322104610480892,-0.322104610480892,1.0000674312474807,0.00016195569797917872
-0.32113902386336124,-0.32113902386336124,1.0001916339901402,0.0001717149608448331
-0.31955034477941807,-0.31955034477941807,1.0001091319750905,0.00019753805108093406
-0.31771162903969524,-0.31771162903969524,0.999965365934907,0.0001618795753299623
-0.31659130927873774,-0.31659130927873774,0.9999208207884562,0.0001619185893751664
-0.3154228089464596,-0.3154228089464596,1.0001804411476418,0.0001898791758199929
-0.31373620279264286,-0.31373620279264286,1.0000512315510561,0.00016197951380148633
-0.31180954529481825,-0.31180954529481825,0.9998962740338854,0.0002130078371670877
-0.3103990039038763,-0.3103990039038763,0.9997007126051785,0.0001619265750651797
-0.3089103682155837,-0.3089103682155837,1.00018276425132,0.00016210379063901645
-0.3060721543537511,-0.3060721543537511,0.9999493067252482,0.00016225973216617826
-0.3045581684949866,-0.3045581684949866,1.0002186336740104,0.00016197457599534558
-0.3031984887093131,-0.3031984887093131,1.0003006015027585,0.00022809281856281822
-0.30177566602433215,-0.30177566602433215,0.9999854757243835,0.00016203479993180054
-0.29996402044343995,-0.29996402044343995,0.9998644020138597,0.00017931971361036906
-0.2988683170857257,-0.2988683170857257,1.0000573757592688,0.00016195582917598333
-0.297685443663795,-0.297685443663795,1.0001159401709212,0.00016153266331874082
-0.29700742429849925,-0.29700742429849925,1.0000830634346765,0.00016290839165658994
-0.29437192043988036,-0.29437192043988036,1.0001662326535603,0.00022177347116476148
-0.29266075380146506,-0.29266075380146506,1.000328596383024,0.00016195483836122684
-0.2913598753228143,-0.2913598753228143,0.9998167831349122,0.00016545413290070568
-0.28996787721043804,-0.28996787721043804,1.000046526553217,0.00016197844095907027
-0.2878517985540384,-0.2878517985540384,1.000015495367173,0.00016194297278854982
-0.2866458890646754,-0.2866458890646754,0.999892830995211,0.00016189253736353476
-0.285365492550045,-0.285365492550045,0.9998034740523755,0.0001619684889854754
-0.28421513667926773,-0.28421513667926773,1.000076978208072,0.00021782990560829715
-0.28257020593300697,-0.28257020593300697,0.9999200306573804,0.0001619353314147065
-0.2807549931196263,-0.2807549931196263,1.0001379350370505,0.00016193487341864505
-0.27940605400581264,-0.27940605400581264,0.9999126953618818,0.00016203629272738685
-0.2773975803684152,-0.2773975803684152,1.0003666338305295,0.0001620458528233949
-0.2748887495021336,-0.2748887495021336,1.0001220842914562,0.00016192420636043636
-0.27349705500237176,-0.27349705500237176,0.9999793649899459,0.00016197825086915614
-0.2718031096490449,-0.2718031096490449,0.9997094495885277,0.00016209525694545427
-0.2694574204579112,-0.2694574204579112,1.0002845717317335,0.00016258593951330692
-0.2679419120249804,-0.2679419120249804,0.9999497974856192,0.00016198014120491982
-0.2665744762503891,-0.2665744762503891,0.9998384890363738,0.0001623604819547062
-0.26449785043369045,-0.26449785043369045,1.0000407970647776,0.00016547487217418447
-0.2627522101196519,-0.2627522101196519,1.0000153968082997,0.0001852747937394345
-0.2616820864837791,-0.2616820864837791,1.000067042202184,0.00016201065831226324
-0.2605079674620356,-0.2605079674620356,0.9998859149111539,0.0001629753179707269
-0.2578714307572227,-0.2578714307572227,1.0002417101075278,0.0001619704371178407
-0.25591790582402607,-0.25591790582402607,0.9999075307827028,0.00016193668872385058
-0.25472267607183313,-0.25472267607183313,1.00006285661894,0.000168455653117043
-0.25335395394940863,-0.25335395394940863,1.0000800041947282,0.00016197052717532143
-0.25088869028913907,-0.25088869028913907,0.9999733872527907,0.00016190374249273334
-0.24955075790785486,-0.24955075790785486,1.000077473027852,0.00016193797976344775
-0.24837373219270376,-0.24837373219270376,1.0001788043545168,0.00018310697646784714
-0.24687316101844772,-0.24687316101844772,0.9999219135784534,0.0002149166260581631
-0.24536829252028838,-0.24536829252028838,0.9997761369979015,0.0002211380236155966
-0.2440193669004657,-0.2440193669004657,0.9998567498685709,0.00016193536683113392
-0.24255838654571563,-0.24255838654571563,0.9999361933257791,0.00016205952488996953
-0.2410228808003012,-0.2410228808003012,1.0001754825288567,0.00016192526105834334
-0.2393172701522417,-0.2393172701522417,0.9997484020963714,0.00016202839536566915
-0.23782554412100582,-0.23782554412100582,1.0002459608932222,0.00016194917722463334
-0.23643866550337406,-0.23643866550337406,1.0000328583277098,0.00016203430302333483
-0.23509142245457043,-0.23509142245457043,1.0000509954154584,0.0002273581155276399
-0.23293642454154906,-0.23293642454154906,1.0000242781588011,0.0001812963831837444
-0.2320486897326191,-0.2320486897326191,1.000041912138227,0.0001727416776020173
-0.23101658017112642,-0.23101658017112642,1.0000694961831456,0.00016196553511941574
-0.230099867379613,-0.230099867379613,1.000000318241889,0.00016265893984918983
-0.228312401335279,-0.228312401335279,1.0003155666179664,0.00016204717526196625
-0.2258760141165112,-0.2258760141165112,1.000137967703711,0.00016193874972977035
-0.22453051574193522,-0.22453051574193522,0.9999167790521533,0.0001618000968693343
-0.22333880664227762,-0.22333880664227762,1.0004129785489153,0.00016406994830449605
-0.22071687964416925,-0.22071687964416925,1.0000635681862673,0.00016196632616865915
-0.21901717053260655,-0.21901717053260655,1.0000781894943942,0.00016193638078270404
-0.21793698398105335,-0.21793698398105335,0.9997183346299929,0.00017209499598911236
-0.2165215553570306,-0.2165215553570306,0.9999304341966658,0.0001983405950938271
-0.21477626245905412,-0.21477626245905412,1.0002148897354814,0.00016194443035952028
-0.21345580404740758,-0.21345580404740758,1.0000359314410656,0.00016192047319848454
-0.2121308539630263,-0.2121308539630263,1.000284146088517,0.0001620793907525536
-0.21050798575452062,-0.21050798575452062,0.9999766424703109,0.00016199462849253159
-0.20845989157314762,-0.20845989157314762,1.000194852566711,0.00021191129918242497
-0.2070842913526576,-0.2070842913526576,1.0001460426434519,0.00016198239519819353
-0.20570968231768347,-0.20570968231768347,0.9998512199861199,0.00016204763409374118
-0.2033276689602644,-0.2033276689602644,0.9999408016282079,0.00016230163314331523
-0.20147971404658166,-0.20147971404658166,0.9999579739816292,0.00016190227518431767
-0.19996863850974478,-0.19996863850974478,1.000180864245063,0.00016215310535173388
-0.19855252259512782,-0.19855252259512782,0.9999121603424712,0.00016200802683968282
-0.19661538059372105,-0.19661538059372105,0.9997328117161963,0.00016396401666668364
-0.19543309250511812,-0.19543309250511812,1.000255929719807,0.0001782427854931533
-0.1942062971618725,-0.1942062971618725,0.9998539916823175,0.00016152779005703316
-0.1934850116915186,-0.1934850116915186,1.0002599701635309,0.00016294112358257153
-0.1914094507585105,-0.1914094507585105,1.0002584471692373,0.0001620187590457965
-0.18921629699034384,-0.18921629699034384,1.0000269815642346,0.00022240724320577378
-0.1879146913517616,-0.1879146913517616,1.0000632817775286,0.0001618992638039887
-0.18672208737407345,-0.18672208737407345,1.0002842864148886,0.00016581638300604596
-0.18447304866131162,-0.18447304866131162,1.0001219112102928,0.00016191765858876412
-0.18316572813055246,-0.18316572813055246,0.9997213507501881,0.00016190816099935553
-0.18194297998343245,-0.18194297998343245,1.0000511914833257,0.0001619722127353766
-0.18086551635351497,-0.18086551635351497,0.9999773647536735,0.00017701807011612393
-0.1793158970300283,-0.1793158970300283,1.000173623628082,0.00020722992340854737
-0.17726927875773982,-0.17726927875773982,1.0001738961142195,0.00016189173974427365
-0.1760289974627085,-0.1760289974627085,1.0000477341332954,0.00016198079347109126
-0.1742903096754162,-0.1742903096754162,1.000006126698816,0.0001620808365509476
-0.17188111656651017,-0.17188111656651017,0.9997655538744098,0.00016193066364932534
-0.17057611665004516,-0.17057611665004516,1.0002338979799448,0.00016196302594967884
-0.1693246638358687,-0.1693246638358687,0.9999440574541849,0.00016207632112165302
-0.16715267636536738,-0.16715267636536738,1.0001950565274833,0.00016272986952518427
-0.16516845509177075,-0.16516845509177075,0.9996727033022488,0.0001690634101619342
-0.16392616862503928,-0.16392616862503928,1.0000798258327361,0.00016200876596258597
-0.16262639266060433,-0.16262639266060433,1.000250006704129,0.00016237323430221234
-0.16035278046765597,-0.16035278046765597,1.0000881666585284,0.00016577708062301972
-0.15898115020536352,-0.15898115020536352,1.0001483406591483,0.00018619822388565098
-0.15779757547425105,-0.15779757547425105,0.9996267153354808,0.00019099672331182024
-0.15684691236165235,-0.15684691236165235,1.0000345465046199,0.00016305900497204105
-0.15420999487687367,-0.15420999487687367,0.9999867200954464,0.00016196840420192694
-0.152255792208598,-0.152255792208598,0.9997907242380372,0.00016192892946744443
-0.15106092989371972,-0.15106092989371972,1.0001536101039896,0.00016880392434834011
-0.14969256797412528,-0.14969256797412528,0.999903630290695,0.00016196719420406941
-0.14722673474243492,-0.14722673474243492,0.9998418507295461,0.00016188811376118022
-0.14588859215655248,-0.14588859215655248,1.0001355492264843,0.00016194334916454564
-0.14471251582726835,-0.14471251582726835,1.0000089720727956,0.00018382034903275564
-0.14321208409091923,-0.14321208409091923,0.9999946957431753,0.0002157092192163873
-0.14170652437605896,-0.14170652437605896,1.0001178783754248,0.0002202915011324609
-0.14035749546237639,-0.14035749546237639,1.0001218506066334,0.0001619491363767639
-0.13889668971751234,-0.13889668971751234,0.9999803971381779,0.00016205936377664868
-0.13736097682995024,-0.13736097682995024,1.0002594700663459,0.00016193836121156503
-0.13565583691379288,-0.13565583691379288,1.0001261578447638,0.00016208177397215344
-0.1341637039593479,-0.1341637039593479,0.9999186224991261,0.00016192509539296162
-0.13277666769499774,-0.13277666769499774,1.0001967933884308,0.0001620552084654963
-0.13143039320857497,-0.13143039320857497,1.0001342690812665,0.00022765593867043522
-0.12924938177820877,-0.12924938177820877,1.0000539701788163,0.0001743648882241418
-0.12823897713096813,-0.12823897713096813,0.9998879952746605,0.00016189977948018528
-0.127094611281791,-0.127094611281791,0.9999604223105608,0.00016198447850466265
-0.1262987710790185,-0.1262987710790185,1.0001645937505266,0.00016270486735552343
-0.12398252909260918,-0.12398252909260918,0.9999267207071171,0.0001620156232536075
-0.1219687330085435,-0.1219687330085435,0.9998276331359988,0.00016193208149693197
-0.12065233580433414,-0.12065233580433414,0.9997998963635808,0.00016403912599320198
-0.11925909386845887,-0.11925909386845887,0.9999242154768766,0.00016195412329351156
