time,time,flux,flux_err
-0.49929067021488055,-0.49929067021488055,0.9997152786003772,0.0006358204298249991
-0.4982007715346602,-0.4982007715346602,0.9997885417861222,0.000853094947753425
-0.4970566087843811,-0.4970566087843811,1.0005307696652392,0.0006831208037388301
-0.4963328027311945,-0.4963328027311945,1.00082386306473,0.0006494639408552969
-0.49576182472810615,-0.49576182472810615,1.0007440138553783,0.000695635797256776
-0.4950939329137327,-0.4950939329137327,1.0002257740622045,0.0006493807580298102
-0.49419376845762597,-0.49419376845762597,1.000339114993675,0.0005420546918000729
-0.49358463392127305,-0.49358463392127305,0.9997739520650806,0.0006490350490933064
-0.4929612296662526,-0.4929612296662526,0.999408297215122,0.0006031358580153299
-0.4922437904868275,-0.4922437904868275,1.0008823581777915,0.0005986621150480258
-0.49144217431603465,-0.49144217431603465,1.0001781362411528,0.0006508413278501691
-0.49043513619690204,-0.49043513619690204,0.9998445329159658,0.0006655091372256512
-0.48985848983284086,-0.48985848983284086,0.999961189267256,0.0005977587997978102
-0.4892533515609102,-0.4892533515609102,0.9993805001879519,0.0006490149758237509
-0.4886144452786539,-0.4886144452786539,1.0000507626601571,0.0006489085497214164
-0.4874444333720021,-0.4874444333720021,1.0013856559185865,0.0007746759151829937
-0.4864860999485245,-0.4864860999485245,0.9994534141618006,0.000648319752560052
-0.4856409001571592,-0.4856409001571592,1.0000822853542357,0.0005977092880349215
-0.48499821045843416,-0.48499821045843416,1.0009038649934148,0.0006494256759660081
-0.4844228941103211,-0.4844228941103211,0.9999666295873828,0.0006959290483043199
-0.48375696927832906,-0.48375696927832906,0.9993862817407804,0.000649322805886156
-0.4828616430226248,-0.4828616430226248,1.0008461792709413,0.0005423730791299117
-0.48225309188419485,-0.48225309188419485,1.0005646127057009,0.0006488367709716529
-0.4816276868397836,-0.4816276868397836,1.0003184070461253,0.000603069290638927
-0.48089610853639897,-0.48089610853639897,0.9998452445253573,0.0006493873721625662
-0.47985002643836194,-0.47985002643836194,1.0008024671845148,0.0006506117544389413
-0.4789257351658307,-0.4789257351658307,1.0001788355930405,0.0006641899053628551
-0.47842402922105975,-0.47842402922105975,1.0002188096392892,0.0005419517635727441
-0.47776599931239616,-0.47776599931239616,1.000350402160243,0.0006965144684982431
-0.47673170699563344,-0.47673170699563344,0.9993082735805284,0.0006495247415046584
-0.47587473709136247,-0.47587473709136247,1.0001319117156515,0.0008050322303305459
-0.4748276571655879,-0.4748276571655879,0.9997012030693904,0.0005976642380292759
-0.47402115216245877,-0.47402115216245877,0.9993805363958526,0.0006963597512132853
-0.473437516897684,-0.473437516897684,0.9996029603997034,0.0005979961171126109
-0.47290072423929813,-0.47290072423929813,1.000682295242815,0.0006961569523988527
-0.472029796737479,-0.472029796737479,0.9998460739215329,0.0005979122573170966
-0.4712582682521315,-0.4712582682521315,1.000220967216609,0.0006491349198111152
-0.4706853528536158,-0.4706853528536158,1.0000658826534554,0.0005471350040134286
-0.4699904262612108,-0.4699904262612108,1.0003130680168468,0.0006490138929055243
-0.4692603165225592,-0.4692603165225592,1.0001730332790966,0.0006505141703396594
-0.4680548528034706,-0.4680548528034706,1.000210122621462,0.0006960190052334624
-0.46739224673365243,-0.46739224673365243,1.0003405316747067,0.0005597249735594563
-0.46683301737648436,-0.46683301737648436,1.0005336521198138,0.0006486211450232929
-0.46612242637493184,-0.46612242637493184,1.000959070842486,0.0006962594462723126
-0.4649543564126361,-0.4649543564126361,1.0003436265276036,0.0007129703611851102
-0.4641695789701771,-0.4641695789701771,1.0005772570177505,0.0006959005417858659
-0.46313449800363743,-0.46313449800363743,1.0007380505475818,0.0005973108631876005
-0.46237560056033544,-0.46237560056033544,1.0010435347679827,0.0006962035864963216
-0.4617516634549247,-0.4617516634549247,1.000342284396913,0.0006488621256665451
-0.46107651481288486,-0.46107651481288486,0.9999156551818368,0.0006960236582390431
-0.46019744319200984,-0.46019744319200984,1.0002076443964312,0.0005420181208587651
-0.45959005755139515,-0.45959005755139515,0.9996405859604038,0.0006486226153021556
-0.45900076158577574,-0.45900076158577574,1.0000926218297204,0.0005469719375890095
-0.45823008731240406,-0.45823008731240406,1.0008682428818587,0.0006965636002064276
-0.4571692661003908,-0.4571692661003908,1.0007998884588372,0.0006499918319356309
-0.45623895192111374,-0.45623895192111374,1.0003488192566063,0.0006625855320863994
-0.4557663962332299,-0.4557663962332299,1.000701731808339,0.0005422352364136246
-0.4550876896129921,-0.4550876896129921,0.9993715263975185,0.0006960386184579843
-0.45405775810650084,-0.45405775810650084,0.9997693598559778,0.0005979033287935845
-0.4531873333937256,-0.4531873333937256,1.0010838090421932,0.0008287151889620481
-0.4521590474061668,-0.4521590474061668,0.9998241620353248,0.0005978367450530059
-0.451341880185646,-0.451341880185646,1.0005837761929193,0.0006958601425915798
-0.4506496947433334,-0.4506496947433334,1.000065849690003,0.0006489515341733112
-0.4501090640493203,-0.4501090640493203,1.0000205256063623,0.0006958855431428552
-0.4491577901470009,-0.4491577901470009,1.0001729036308284,0.0005421318753378408
-0.4484768059483031,-0.4484768059483031,0.9999613636624683,0.0006958125268979528
-0.44792392626113725,-0.44792392626113725,1.000391664762859,0.0004850523351878454
-0.44714154860121197,-0.44714154860121197,1.0000306609728544,0.0006487329123987204
-0.44634133933577685,-0.44634133933577685,0.9993124879794145,0.0006970150328093882
-0.44521793312742375,-0.44521793312742375,1.0001986815770505,0.0006486670289580687
-0.4446544570469996,-0.4446544570469996,1.0004666991518631,0.0005580538529018943
-0.44400239846436307,-0.44400239846436307,1.0006108805476306,0.0006961616134446198
-0.4432742054515984,-0.4432742054515984,0.9996199429259474,0.0006489936204259641
-0.4420694700354943,-0.4420694700354943,0.9995875067198259,0.0007406117066418342
-0.4412594055145746,-0.4412594055145746,1.0007911321422707,0.000695940311153128
-0.4404242191027151,-0.4404242191027151,1.0004119841739374,0.0005421050418605023
-0.4396962755272398,-0.4396962755272398,0.9998643019979916,0.0006960963466246464
-0.43908558550756427,-0.43908558550756427,1.0002575909551497,0.0006490925251845488
-0.43852514409227294,-0.43852514409227294,1.0002038345800541,0.0007805498161526085
-0.43768125330971086,-0.43768125330971086,0.9995994949319517,0.00047987855424897076
-0.4370434989250498,-0.4370434989250498,0.9996723552786756,0.0006960358560710761
-0.4364919875457417,-0.4364919875457417,0.999955925694622,0.0005458330826442184
-0.4355512561975047,-0.4355512561975047,0.9999589123990523,0.0006959764124294776
-0.43448856941831765,-0.43448856941831765,1.0004655356782526,0.0006493370897469406
-0.4335613438102882,-0.4335613438102882,0.9998877254491723,0.0006115700621568274
-0.4331051247747382,-0.4331051247747382,1.0005098370136434,0.0005978060697510968
-0.4324040308594704,-0.4324040308594704,0.9990407829266946,0.000696172524233019
-0.43138605303538496,-0.43138605303538496,1.0001950709590341,0.0005982041589410694
-0.4304977674182737,-0.4304977674182737,1.0006054290544184,0.0008159776910734272
-0.42951421069155915,-0.42951421069155915,1.0002588266472792,0.0005976075554558193
-0.4287899883609498,-0.4287899883609498,0.9994778948277474,0.0006484015288850523
-0.4281249286723323,-0.4281249286723323,1.0003951262316981,0.000648996613107398
-0.4275556418841006,-0.4275556418841006,1.0001463726031532,0.0007359420273970472
-0.426904135235236,-0.426904135235236,0.9994201660917185,0.0006484637288397368
-0.4262012710707495,-0.4262012710707495,0.999309605684199,0.0005420267115298918
-0.42559562104870563,-0.42559562104870563,1.000320796960948,0.000648692981496739
-0.4249601961404551,-0.4249601961404551,1.000126457409186,0.000601049479429231
-0.424141331933788,-0.424141331933788,1.0000932931115318,0.0006494881202088696
-0.42283365772455,-0.42283365772455,1.0002337997719846,0.0006965991135328876
-0.42213747134956064,-0.42213747134956064,1.0000119203623457,0.0005563367157078579
-0.42166082171606833,-0.42166082171606833,0.9999278371188796,0.0006488188044126377
-0.4209173983952496,-0.4209173983952496,1.0011142100011308,0.0006968450980477557
-0.41980314085376447,-0.41980314085376447,1.000138966522861,0.0005985774854690458
-0.41901683874602896,-0.41901683874602896,1.000314241416822,0.0007697629609618499
-0.4181279637181433,-0.4181279637181433,1.0002295694313186,0.0005973460999871788
-0.41743894332321363,-0.41743894332321363,0.9996157062433275,0.0006487675052328158
-0.4166452099045273,-0.4166452099045273,0.9997762096137475,0.0006488034931300851
-0.4161093094415264,-0.4161093094415264,0.9992805389834514,0.0007328015964794153
-0.41543505232257305,-0.41543505232257305,0.9999475191952154,0.0005979017218866037
-0.4147383836854715,-0.4147383836854715,0.99989129143215,0.0005978426079356457
-0.4141566390229855,-0.4141566390229855,1.0008168806231612,0.000598052037836313
-0.413408223821898,-0.413408223821898,0.9999825309759695,0.0006514994795838476
-0.4125667772052111,-0.4125667772052111,0.9999461922387187,0.000649596161212259
-0.411344659482711,-0.411344659482711,0.9996173213280113,0.0006961537350375928
-0.4106730213970877,-0.4106730213970877,0.9995105014850392,0.0005419859058979775
-0.4099941446154844,-0.4099941446154844,0.9997289814938906,0.0006487708498234159
-0.40925933892431204,-0.40925933892431204,1.0008056311110043,0.0006965711983264416
-0.4080383037275169,-0.4080383037275169,0.9999760125390974,0.0007213672098212432
-0.4072427502425853,-0.4072427502425853,0.999996289007907,0.0006959533047448234
-0.4064335541188484,-0.4064335541188484,0.9997402566245539,0.0005420629628181191
-0.40556812353315763,-0.40556812353315763,0.9996761614938265,0.0006493244710386098
-0.40499666930991224,-0.40499666930991224,1.0004800975738803,0.0006965258718011715
-0.40434839519148225,-0.40434839519148225,1.0004366360375592,0.0006365867554914592
-0.40368821468146054,-0.40368821468146054,1.000068510335357,0.0005421079506859637
-0.40303511460951996,-0.40303511460951996,0.9998873032123624,0.0006963509220164299
-0.4025076490797801,-0.4025076490797801,1.0007214588421331,0.0005452190193059668
-0.4015330953814555,-0.4015330953814555,0.9999190842768,0.0006969413751313981
-0.40046765067963863,-0.40046765067963863,1.0000730174590107,0.0006487959013262332
-0.3995171333954204,-0.3995171333954204,1.0001613448425144,0.0005975479833494759
-0.39898637997685,-0.39898637997685,0.9999275788243722,0.0006485492957314669
-0.3982374826824525,-0.3982374826824525,0.999802695918433,0.0006962126008697537
-0.3971309637447121,-0.3971309637447121,0.9995417258679682,0.0005981208496131683
-0.39633430436369965,-0.39633430436369965,1.0005058821253425,0.0007591084486353768
-0.39531012146617284,-0.39531012146617284,1.001116988980683,0.0005976227963428113
-0.3945975440816255,-0.3945975440816255,1.0005173164786956,0.0006492055679151115
-0.3938641189713962,-0.3938641189713962,0.9998760411409371,0.0006489939974805563
-0.3933159739885014,-0.3933159739885014,1.0007511781133267,0.0007266831595783309
-0.3926662914542248,-0.3926662914542248,0.9998237316531989,0.0005419591737825338
-0.3919263908115681,-0.3919263908115681,1.0001185130730388,0.0006488934705672391
-0.3914017281844281,-0.3914017281844281,0.9997398535578809,0.0005447253442009338
-0.39065590825630353,-0.39065590825630353,1.0012850160190707,0.0006982910915322845
-0.39013007972098424,-0.39013007972098424,1.0000022109639333,0.0006492043777114613
-0.38880909939762204,-0.38880909939762204,0.9996307189219802,0.0006954575744928585
-0.3880900127871428,-0.3880900127871428,1.000290709884117,0.0005422899989450836
-0.3874834558519069,-0.3874834558519069,1.0001466617642425,0.0006488520612467285
-0.3867393006279599,-0.3867393006279599,0.9997628804422446,0.000740179214335725
-0.38557981405756436,-0.38557981405756436,1.0001608057167775,0.0006645060209984656
-0.3848004583240254,-0.3848004583240254,0.9992854973209024,0.0006958547937479889
-0.3838483316183556,-0.3838483316183556,1.0001314547740479,0.0005974968821661822
-0.3830920491251163,-0.3830920491251163,0.9999203629355031,0.0006490412116556641
-0.38242066575039646,-0.38242066575039646,0.9995371045006076,0.0006489001921234101
-0.38180010482901705,-0.38180010482901705,1.0004667748153784,0.000678787297050942
-0.38102048067376015,-0.38102048067376015,1.0003032383809292,0.0005424185408123282
-0.38036293752957134,-0.38036293752957134,0.999626081284787,0.0006959017388015503
-0.3799200488603674,-0.3799200488603674,1.0005647111189855,0.0005443768802268599
-0.3791502351465169,-0.3791502351465169,0.9996400479739679,0.0007266995756324225
-0.37828941840271,-0.37828941840271,1.000004267877041,0.000696404886655333
-0.3771778770373203,-0.3771778770373203,1.0004060182364036,0.0006487307186251166
-0.37655979284027125,-0.37655979284027125,0.9997781628767646,0.0005419624655987553
-0.3758622376190033,-0.3758622376190033,1.0002205645130402,0.0006964633348103099
-0.3749401638197014,-0.3749401638197014,0.9993288626545015,0.0006488618857048322
-0.3739288800628856,-0.3739288800628856,0.9997066403460091,0.0007065188442004687
-0.37323414323618637,-0.37323414323618637,1.0006038272499862,0.0006490676955976689
-0.3724351305922028,-0.3724351305922028,1.0003455417162677,0.0005978061279005756
-0.3715698956511915,-0.3715698956511915,0.9991700218218249,0.0006490020860140667
-0.3708756014093524,-0.3708756014093524,1.0002724935177933,0.0007645889914944692
-0.37015496382664426,-0.37015496382664426,0.9996986823015395,0.000597835251129139
-0.36940860976174006,-0.36940860976174006,1.0006846151118118,0.0005979422691433551
-0.3688430788606638,-0.3688430788606638,1.0000977811760279,0.0005977623149584393
-0.36826993827999105,-0.36826993827999105,1.0005494432985012,0.0006003606476453883
-0.3674543680739589,-0.3674543680739589,1.0004051242811285,0.0006970428200553807
-0.366126140076085,-0.366126140076085,0.9996520121650885,0.0006957876805426361
-0.3654257081972901,-0.3654257081972901,1.0000054272184677,0.000542044187340051
-0.364908474709955,-0.364908474709955,1.0003054451429685,0.0006487386321369028
-0.3642177440022351,-0.3642177440022351,1.0002788079346363,0.0006963202916595424
-0.3631228313461179,-0.3631228313461179,0.9994180756683086,0.0005981856036458299
-0.3623801880021347,-0.3623801880021347,1.0010295163106728,0.0007461038510908466
-0.36150647278118414,-0.36150647278118414,1.00017050832455,0.0005980604646559856
-0.3609375932166586,-0.3609375932166586,1.0001812983612608,0.0006274496111066699
-0.3601240112126106,-0.3601240112126106,0.9994558952321917,0.0006488768259913173
-0.3593785267468775,-0.3593785267468775,1.0002077543281043,0.0007618368897921473
-0.35866481107950676,-0.35866481107950676,1.0000704293908056,0.0005419238876716645
-0.3579298735508928,-0.3579298735508928,0.999453232104433,0.000598173061459242
-0.35744067826890386,-0.35744067826890386,0.9999643502182674,0.0006489969828242298
-0.35678097101917955,-0.35678097101917955,1.0003253462961226,0.0005441889043969845
-0.3561126616928959,-0.3561126616928959,1.0004538172568473,0.0006975683356905892
-0.3548978358623572,-0.3548978358623572,1.0010957501979791,0.0006485732688381926
-0.354175746551482,-0.354175746551482,1.000055995551572,0.0005976213593579504
-0.3536377026641276,-0.3536377026641276,1.0003021255841182,0.0006491152890835709
-0.3529458094824804,-0.3529458094824804,0.9998043071924473,0.0006493759758891714
-0.35224147652625104,-0.35224147652625104,1.0003064489582338,0.0006496322856629582
-0.3512082521134289,-0.3512082521134289,1.0008040110713785,0.0006495142887217183
-0.3503605594072724,-0.3503605594072724,0.9999207046140126,0.0005979127646842501
-0.34978670335258355,-0.34978670335258355,0.999796602032335,0.0006260724287448649
-0.34908383738365956,-0.34908383738365956,1.0004319403780682,0.0006962745654082005
-0.3483570691169007,-0.3483570691169007,0.9994749561259437,0.0006957790188340171
-0.3476079711719649,-0.3476079711719649,1.0008615379847676,0.0006213526848244509
-0.34688535253808367,-0.34688535253808367,0.9994608519206615,0.0005976375726406511
-0.3462679460440995,-0.3462679460440995,1.000548073956715,0.0006492527823647917
-0.3458336235868046,-0.3458336235868046,0.9992809921780573,0.0005995592160929238
-0.344836366630625,-0.344836366630625,1.0005284721911578,0.0006980674137661552
-0.34388536331243813,-0.34388536331243813,0.9998862112132244,0.0005973982836047324
-0.3429975869396003,-0.3429975869396003,1.000011664800398,0.000648823899403497
-0.34243844290322156,-0.34243844290322156,0.9999237636872526,0.0005979738204571285
-0.34174173065111974,-0.34174173065111974,1.0003248143588437,0.0006491529872391069
-0.3411202563205734,-0.3411202563205734,1.000121068901318,0.0006961352904293266
-0.3399394016742008,-0.3399394016742008,0.9999373541890858,0.0006488858189001836
-0.3390280156600056,-0.3390280156600056,0.999550767894859,0.000598119284155225
-0.3384507513634162,-0.3384507513634162,1.0003422795805204,0.0006250767416473594
-0.33774929543724286,-0.33774929543724286,0.999502700009107,0.0006489510198736997
-0.33701518579036926,-0.33701518579036926,1.0004741436723283,0.0007401411636003092
-0.3362722790508997,-0.3362722790508997,1.0007202920746878,0.0006189442968081403
-0.33555109838198405,-0.33555109838198405,1.0008055986645878,0.0005975244048768639
-0.3349345378024736,-0.3349345378024736,1.0003686478802805,0.00064909215590091
-0.33430860663647766,-0.33430860663647766,0.9995123930804372,0.0005436420402012527
-0.3334292780986289,-0.3334292780986289,1.0000301972425856,0.0006978192493897481
-0.33222567444900053,-0.33222567444900053,0.9992803621909229,0.0006485175491182584
-0.33144208419835197,-0.33144208419835197,1.0010649953345863,0.0005909958474030497
-0.3309634617908159,-0.3309634617908159,1.0003756300312567,0.0006486618726948936
-0.3302735759847565,-0.3302735759847565,0.9998731719448026,0.0006492376545369154
-0.3295620921941008,-0.3295620921941008,1.0001914166202275,0.0006487995143563466
-0.3284664282371523,-0.3284664282371523,0.9999473656138725,0.0006959825272156035
-0.32751185788656584,-0.32751185788656584,1.00076373614066,0.0005713600826133153
-0.32704237425350585,-0.32704237425350585,1.0002819366107811,0.000648721671186269
-0.3262391491967719,-0.3262391491967719,0.9999655814255055,0.0006491080851307093
-0.3254934883880196,-0.3254934883880196,1.000337689581956,0.0006959193802634992
-0.32480952180630995,-0.32480952180630995,0.999576424371343,0.0006656115357166511
-0.3240791169111617,-0.3240791169111617,0.9998599176299093,0.0005977277994418852
-0.32352976135734934,-0.32352976135734934,0.9999988412741205,0.0005979772580471472
-0.3227299701364245,-0.3227299701364245,0.9993367495072214,0.000598833179031113
-0.3219501999526983,-0.3219501999526983,0.9998967625445634,0.0006513732339512834
-0.3208891993795987,-0.3208891993795987,0.9992123404194686,0.0006484948740492099
-0.32011005023960026,-0.32011005023960026,1.000240631833334,0.0005920634047828252
-0.3196263695252128,-0.3196263695252128,1.0005292846528846,0.0006487668296598409
-0.3189375431305962,-0.3189375431305962,1.0007568444189503,0.0006495092273267826
-0.3182223594165407,-0.3182223594165407,0.999550594459027,0.0006491441103004136
-0.31720047504932153,-0.31720047504932153,1.0012655551283145,0.0006492762883004808
-0.31636297389050017,-0.31636297389050017,1.0004921073100608,0.0005977504770935485
-0.31577888981846625,-0.31577888981846625,0.9996039036340505,0.0006229884788076505
-0.3150871938734781,-0.3150871938734781,0.9999680983975852,0.000649185096069944
-0.31432453425077256,-0.31432453425077256,0.9997024314287696,0.0007401100460636423
-0.31360093064140526,-0.31360093064140526,0.9998649392420642,0.0006140701591675592
-0.31288264704926405,-0.31288264704926405,0.9998762618385445,0.0005974571014102743
-0.31226777766423763,-0.31226777766423763,0.9991769736994696,0.0006489756350939682
-0.31165129820583387,-0.31165129820583387,0.9999982508339077,0.0005431529706366991
