time,time,flux,flux_err
-0.4999179759179242,-0.4999179759179242,0.9999076789144618,0.00013360792833696245
-0.49976860164861137,-0.49976860164861137,0.9999696451549425,0.00013595259655926285
-0.49954748637537705,-0.49954748637537705,0.9999893104094055,0.00014350150347680095
-0.4993717150755401,-0.4993717150755401,1.00008620986694,0.00013554845723410942
-0.49919418909121305,-0.49919418909121305,0.9999095915447567,0.00012399554680931542
-0.499057107931003,-0.499057107931003,1.0000973877816077,0.00012559401732309517
-0.4989429181048763,-0.4989429181048763,1.0000432147741622,0.00013078367554838021
-0.4986636472778628,-0.4986636472778628,0.9998305814706944,0.0001201871499780592
-0.4984893255008501,-0.4984893255008501,1.0000659880040956,0.00013664693746052683
-0.4984171372678247,-0.4984171372678247,0.9998675269712912,0.00013584835240953983
-0.49833314283605434,-0.49833314283605434,0.99993486769626,0.00011864262807531011
-0.4983174912049435,-0.4983174912049435,0.9997633031176087,0.00012749241711597532
-0.49827898406001625,-0.49827898406001625,0.9998932735429881,0.00012731905012710793
-0.49818050917747314,-0.49818050917747314,1.0000200287377663,0.00011919980416215269
-0.49807314453209983,-0.49807314453209983,0.9999487668619202,0.0001252906065057938
-0.4979963664474781,-0.4979963664474781,1.0001637119386477,0.00013361381813193723
-0.4979035480071616,-0.4979035480071616,0.9998777969723106,0.00012623342719045725
-0.4977937581395963,-0.4977937581395963,0.9999694059482129,0.00011893387226836892
-0.4976680024861707,-0.4976680024861707,0.9999467421663508,0.00012746516937056139
-0.497559534417087,-0.497559534417087,1.000018543452177,0.0001234142156503275
-0.4974662134169193,-0.4974662134169193,1.0001333642409906,0.00012036731960299066
-0.4973947671780479,-0.4973947671780479,1.0001492906540865,0.00016965629571127978
-0.49732095345607374,-0.49732095345607374,1.000126975360266,0.00011956802085433138
-0.4972565934040176,-0.4972565934040176,0.9998705358721318,0.00011740473725837417
-0.49714271188058773,-0.49714271188058773,0.9998440561024292,0.00012607276215147485
-0.49694612155872164,-0.49694612155872164,1.0000317120918358,0.0001245856092818176
-0.4967888296341698,-0.4967888296341698,0.9998115112520196,0.00012972810173781608
-0.4966946712542267,-0.4966946712542267,0.9999052014294827,0.00012424820050421095
-0.4965876231479342,-0.4965876231479342,1.0000163427262816,0.00012362956802916837
-0.49648463914127205,-0.49648463914127205,1.0000780267412206,0.00011621684732333976
-0.4963142878637882,-0.4963142878637882,0.9999184251502384,0.0001246999544112798
-0.4961903772891674,-0.4961903772891674,1.0001057286606256,0.00011670245125647576
-0.4960432095118449,-0.4960432095118449,1.000023462905631,0.00012618729808929299
-0.4959000676535652,-0.4959000676535652,0.9997907578111226,0.00011597243785005423
-0.49573866395803634,-0.49573866395803634,1.000074549830122,0.00012502581688322896
-0.4956347846076824,-0.4956347846076824,1.0003519128353968,0.00012495169950046606
-0.4954858623059408,-0.4954858623059408,1.0000600200250243,0.00012472287862425193
-0.49531508124418905,-0.49531508124418905,1.0000373722156684,0.0001332209449848553
-0.4952100666225306,-0.4952100666225306,1.0001492212161556,0.00011542288206555103
-0.49500939445206316,-0.49500939445206316,1.000015947918664,0.0001325014479536977
-0.4948140182117641,-0.4948140182117641,0.9999135290156029,0.00012457673086192257
-0.49466852783443754,-0.49466852783443754,1.0000550856723236,0.00013270906587929963
-0.4945117158844369,-0.4945117158844369,1.0000555069984762,0.0001273260193635433
-0.49437379112277996,-0.49437379112277996,0.9999479238368754,0.0001291398687227531
-0.4942548890408943,-0.4942548890408943,0.9999871857451901,0.00012732930967008789
-0.49420853661431463,-0.49420853661431463,1.0002162450573509,0.00011928627988174428
-0.49412455248166226,-0.49412455248166226,1.0001661675487834,0.00011902256803103098
-0.49400699439211165,-0.49400699439211165,0.9997818023043553,0.00012758350880888477
-0.4939465629242477,-0.4939465629242477,0.999856686311564,0.00012497088548778652
-0.4938801689517277,-0.4938801689517277,1.0001835284235594,0.00012585489868588586
-0.49381401325590557,-0.49381401325590557,0.9997705495787734,0.00012621524002156547
-0.4937116515422531,-0.4937116515422531,1.0000304096063617,0.0001177705314299684
-0.49364545295029527,-0.49364545295029527,0.999930187304836,0.00013316213181147285
-0.49357118209445616,-0.49357118209445616,0.9999883127671744,0.00012647041574362234
-0.49343370098722517,-0.49343370098722517,1.0000421515652,0.00012179313161710809
-0.4933551484202326,-0.4933551484202326,1.0000665729570397,0.00012273513970704087
-0.4933105997952225,-0.4933105997952225,0.9998387379604091,0.00012830276902460043
-0.4932736948670936,-0.4932736948670936,1.0000804870126454,0.00012065259935386742
-0.49320350741181757,-0.49320350741181757,0.9999359784737667,0.00013440204271904192
-0.4930942964798305,-0.4930942964798305,1.0000046107572975,0.00011742472134806702
-0.49297866927154244,-0.49297866927154244,1.0000087508932076,0.00012396503063225026
-0.49282246201255475,-0.49282246201255475,1.0000058724994008,0.00011611424080662305
-0.49270125526963965,-0.49270125526963965,1.000169027058398,0.0001235827022341844
-0.4926055592673947,-0.4926055592673947,1.0001072507466269,0.00011640572308983769
-0.49240654830573477,-0.49240654830573477,0.9999573126378056,0.00011721705975867219
-0.4922896960815706,-0.4922896960815706,1.000122988148171,0.00012540109185464398
-0.4921684834487678,-0.4921684834487678,1.0000577419195784,0.0001250650990899333
-0.49206653768342223,-0.49206653768342223,0.9999639753248392,0.00012541738923810725
-0.4918277118493279,-0.4918277118493279,1.0001719654517685,0.00011714034205867788
-0.4917171377237537,-0.4917171377237537,0.9997598948069383,0.00012505043460086417
-0.4916041667449463,-0.4916041667449463,1.0001979491693596,0.00012392506845539117
-0.4914835258561652,-0.4914835258561652,1.000047821886293,0.00012437426076427347
-0.4913439365918748,-0.4913439365918748,0.9999907767105869,0.00011495743217938606
-0.4912496827178984,-0.4912496827178984,1.0001906486705363,0.00012466363693932334
-0.49110378808909444,-0.49110378808909444,0.9998423088401374,0.00013202344775605805
-0.49093758330564014,-0.49093758330564014,0.999966464980752,0.00012441627847924953
-0.49071443426655603,-0.49071443426655603,1.0000085145270596,0.00013224055677965937
-0.49052911243561537,-0.49052911243561537,1.000040568705888,0.00012804567714866166
-0.4903590126610652,-0.4903590126610652,1.0001075952015435,0.0001267769886215678
-0.4902680759514624,-0.4902680759514624,1.0000052941980313,0.0001197834123360406
-0.4901424901385326,-0.4901424901385326,0.9999412145413314,0.00012761376200152243
-0.4900993504561484,-0.4900993504561484,1.0000456177393668,0.00011918049519391233
-0.490036475998204,-0.490036475998204,0.9998281970583787,0.0001256581220418443
-0.4899686092423508,-0.4899686092423508,1.0001160144339507,0.00012631878498355444
-0.4898916312515212,-0.4898916312515212,0.9999205088971138,0.00011987755388319036
-0.48976075081591264,-0.48976075081591264,0.9999858996792421,0.00012619296216970173
-0.4896330229421437,-0.4896330229421437,0.999927359708412,0.000126839516763172
-0.48955624404770787,-0.48955624404770787,0.9999411090212538,0.00012582793542298553
-0.48949823776783885,-0.48949823776783885,1.0000051905643945,0.00011785884955044254
-0.4893905220022134,-0.4893905220022134,1.0000662976290817,0.00012753514387417778
-0.48929776009535997,-0.48929776009535997,1.000034156845969,0.00012775041491858684
-0.4892273417979595,-0.4892273417979595,1.0000559883093199,0.0001199194216951532
-0.48916739918495294,-0.48916739918495294,1.0000930452023795,0.00012190389216279557
-0.4890898789963103,-0.4890898789963103,1.0001362941694143,0.00012015000622516896
-0.4889790883018577,-0.4889790883018577,1.0000361782503981,0.00011867972406477823
-0.4888008042005822,-0.4888008042005822,1.0000338192382223,0.00011753427354796388
-0.4886700240625942,-0.4886700240625942,0.9998810191184161,0.0001258017934843411
-0.48852153928164627,-0.48852153928164627,1.0000440794736378,0.0001254250292306068
-0.4883603497590229,-0.4883603497590229,1.000039969242884,0.00011666081629282382
-0.48824069329275516,-0.48824069329275516,0.9997465697460818,0.0001250144494662862
-0.4881473222652858,-0.4881473222652858,0.9999690928932745,0.0001168590358434963
-0.4879816444823518,-0.4879816444823518,1.0001694679097712,0.000124117182456669
-0.4879060251216288,-0.4879060251216288,1.000065313273405,0.00011552698703079244
-0.4877705607046664,-0.4877705607046664,1.000058786266384,0.00011789898677041985
-0.48755245676002235,-0.48755245676002235,1.0001830763067723,0.00013360061826595167
-0.4873749976170075,-0.4873749976170075,1.0000956742207907,0.00012377435682479275
-0.4873257879793528,-0.4873257879793528,1.0001764704017497,0.0001171655945994027
-0.4871532746583398,-0.4871532746583398,0.9999393816634455,0.00013315351323010395
-0.4869458011453389,-0.4869458011453389,0.9997630992603888,0.0001319232765362849
-0.486654803995043,-0.486654803995043,0.9998792746352905,0.00013344247805709204
-0.4864547119141207,-0.4864547119141207,0.9999192701050541,0.0001393169860324251
-0.4862826696880802,-0.4862826696880802,1.0000356647429915,0.00011940761645178806
-0.48611100521447953,-0.48611100521447953,0.999983687957059,0.0001186658214176777
-0.4860064570108079,-0.4860064570108079,1.000128076849395,0.00011988663431669506
-0.48598226324465943,-0.48598226324465943,1.000036311644672,0.00011839494595644381
-0.48590627759112975,-0.48590627759112975,1.0000590161091456,0.0001272122265326894
-0.4857924614363583,-0.4857924614363583,0.9998333073635699,0.00011868717917602502
-0.48567623920098413,-0.48567623920098413,0.9999883953638049,0.00012613071178164758
-0.4855387182127743,-0.4855387182127743,1.000077172971384,0.00013429022242341968
-0.4854765541953384,-0.4854765541953384,0.9999462490190207,0.00012626990857603766
-0.4853742988569138,-0.4853742988569138,1.0000957549109966,0.00013375416772563731
-0.4852824410656467,-0.4852824410656467,1.0000568665819467,0.00011942260310337796
-0.48519683464837726,-0.48519683464837726,1.0000103932820532,0.00012759325069403393
-0.48512938225976543,-0.48512938225976543,1.0001362608165645,0.0001216318750928824
-0.48506773949193305,-0.48506773949193305,1.0000879288651991,0.00011951131100279859
-0.48499891200772255,-0.48499891200772255,1.0000747904611555,0.00012465456151577466
-0.48493456229771253,-0.48493456229771253,0.9999231335472928,0.00012654201097252256
-0.48482488919544264,-0.48482488919544264,1.0000440391260805,0.00012394130435259223
-0.4847205117395788,-0.4847205117395788,1.0000073284374247,0.00011819894427962684
-0.4845885508351785,-0.4845885508351785,1.0001206202243034,0.000126062786012096
-0.4844727958450676,-0.4844727958450676,1.0000129612810773,0.00011705427991851722
-0.484314970941341,-0.484314970941341,1.000009980635003,0.00011637457986965974
-0.48419278295405094,-0.48419278295405094,1.0000997800483822,0.00012409489721933908
-0.48406714317025035,-0.48406714317025035,1.0001518908057143,0.00011746157303255116
-0.4839131020271452,-0.4839131020271452,0.9999040235436345,0.00011609665839364725
-0.48378339748160215,-0.48378339748160215,1.000100041181508,0.00011605406977572902
-0.4836517811621889,-0.4836517811621889,1.0001176967388452,0.00013227749995138932
-0.48344416448890115,-0.48344416448890115,0.9999603486900964,0.00013375240578360396
-0.48330451672227354,-0.48330451672227354,0.9999380735046511,0.00012513419050660173
-0.4831890208319237,-0.4831890208319237,1.000023162451239,0.00012541842241646373
-0.4831160002970137,-0.4831160002970137,0.9998252748405496,0.0001246656834936479
-0.48300846107013057,-0.48300846107013057,1.0000710862680067,0.00013185787560936362
-0.48284454319582437,-0.48284454319582437,0.9998046975465167,0.00012508003201913768
-0.4827297889845795,-0.4827297889845795,1.0000372755350644,0.00011579164440312399
-0.48256775628469767,-0.48256775628469767,0.999984527280701,0.00014593010694099743
-0.4823453082623018,-0.4823453082623018,0.9999322356541807,0.00012602246942561494
-0.4820883552878513,-0.4820883552878513,0.9999853985419473,0.0001273788218561477
-0.48194329800244307,-0.48194329800244307,1.0000361896199368,0.00011833454316909932
-0.48190576513879935,-0.48190576513879935,1.000138027333619,0.00012712060240119044
-0.4818560899708245,-0.4818560899708245,0.9997435238661136,0.00012608134712382141
-0.4817709072274738,-0.4817709072274738,1.000427494098643,0.00012020580874090925
-0.4816990242943575,-0.4816990242943575,0.9999149697345976,0.00011896202523403024
-0.4815737473873014,-0.4815737473873014,0.9999529142412396,0.00012666052223143177
-0.4814789294010552,-0.4814789294010552,1.0001543901617367,0.00012530594756180274
-0.4814067953826452,-0.4814067953826452,0.9998208801978693,0.0001343446417548541
-0.4812934653113189,-0.4812934653113189,1.0000387192898486,0.00013247542011605946
-0.4812132963015756,-0.4812132963015756,0.9997913995552304,0.00013166874856498326
-0.48113129712728553,-0.48113129712728553,1.0000680815047356,0.00012598252065745946
-0.48102217708947137,-0.48102217708947137,1.000229938689623,0.00012072823897368278
-0.48096924294368365,-0.48096924294368365,1.0002143658899647,0.00011964616690305332
-0.4808881943848974,-0.4808881943848974,1.0001858376179988,0.00012012626133457579
-0.4808173553479719,-0.4808173553479719,1.0000262180751247,0.00012394177889287725
-0.48066327150299915,-0.48066327150299915,1.0000586975462602,0.0001163424362480622
-0.48055451195323257,-0.48055451195323257,0.9999453419705497,0.00012671806249495713
-0.48045370064864984,-0.48045370064864984,0.9998607011818793,0.00011533879905333203
-0.48030229394862545,-0.48030229394862545,0.9999552549454475,0.00011729610245623669
-0.4802083927927015,-0.4802083927927015,1.0001457163337892,0.00012554321895926341
-0.480099302889721,-0.480099302889721,0.9997641957147012,0.0001243803909947573
-0.4799356564042682,-0.4799356564042682,1.0000746607262165,0.00012374706954932944
-0.4798369768541306,-0.4798369768541306,1.000173210704915,0.0001275488281090008
-0.4796674430181156,-0.4796674430181156,0.9999386654278579,0.00011705794145344267
-0.4795642837467312,-0.4795642837467312,0.9998295659454091,0.00013339176973137316
-0.4794346083195705,-0.4794346083195705,1.0001078352957076,0.00012468316074412943
-0.47928418025330755,-0.47928418025330755,0.9999771040198813,0.0001248916783736502
-0.47914078983376385,-0.47914078983376385,1.0002048383261077,0.00012520189511535027
-0.4790361083978496,-0.4790361083978496,1.0002758615748035,0.00012488757064123483
-0.47889513760237606,-0.47889513760237606,0.9999695816875658,0.00012431969255881584
-0.4787675779189158,-0.4787675779189158,0.9995940056571339,0.00012659595516516042
-0.4786025654822879,-0.4786025654822879,1.000314977681958,0.00012470500898913503
-0.478463334315893,-0.478463334315893,0.9999852248226766,0.00013934002090926637
-0.4782838247359905,-0.4782838247359905,1.0000048869732059,0.0001247584201735739
-0.47812048621999564,-0.47812048621999564,0.9999753348449977,0.00012693027641550648
-0.4779583914918476,-0.4779583914918476,1.0000809819249892,0.00013515529269359937
-0.47785061934118855,-0.47785061934118855,0.9998590033628201,0.00011876867370993297
-0.47781936305691486,-0.47781936305691486,1.0002853075223193,0.00013033085055078557
-0.47778789951844375,-0.47778789951844375,1.000115117517462,0.0001192793732272039
-0.47770582289886077,-0.47770582289886077,0.9998254418412736,0.000125041935757196
-0.4776231784497213,-0.4776231784497213,0.9999514712619701,0.00012581557688500286
-0.4775633960074629,-0.4775633960074629,1.0000068787655514,0.00011917622788064424
-0.47748521196990623,-0.47748521196990623,0.9999547905289645,0.00012702105544833045
-0.47739318186067975,-0.47739318186067975,1.0000899327812607,0.00011878869601968509
-0.47730000745941653,-0.47730000745941653,0.9999478985249641,0.0001334669337295639
-0.47718314093726805,-0.47718314093726805,1.0001933840897483,0.00013347988324993566
-0.47710084703212485,-0.47710084703212485,0.9999178071358811,0.00012624381463014912
-0.477020700029243,-0.477020700029243,1.0000563539428995,0.00011959323419569415
-0.4769477420595649,-0.4769477420595649,1.000033709842825,0.00011959961356065949
-0.4768561426193628,-0.4768561426193628,1.000063784141495,0.00013027472798697514
-0.47680610266761503,-0.47680610266761503,0.9999888089000386,0.00012308197067024019
-0.47675827815110094,-0.47675827815110094,1.00024145617582,0.00011984327163042383
-0.47659513942344345,-0.47659513942344345,0.9999683076808801,0.0001250755901737921
-0.47638811925571645,-0.47638811925571645,0.9998619665446068,0.00011605469706881501
-0.47624844115489395,-0.47624844115489395,1.0001723242347127,0.00012616718882775655
-0.4761967220700171,-0.4761967220700171,1.0001158978888596,0.00011595012450858965
-0.4760828229409526,-0.4760828229409526,1.0001580208053955,0.00011528093262986835
-0.4759828484653553,-0.4759828484653553,0.9997524140538872,0.00012432232359278484
-0.47583789284763045,-0.47583789284763045,1.0002097318245775,0.00012381496254097586
-0.47573118960499416,-0.47573118960499416,1.0001571381202015,0.00011621378976587198
-0.4756072638927435,-0.4756072638927435,0.9999944956656165,0.000115995430254143
-0.47550275013563803,-0.47550275013563803,1.000123154257998,0.00013537188451690686
-0.475400638730207,-0.475400638730207,1.0000724830473797,0.00011476487296897262
-0.47529034115650576,-0.47529034115650576,1.0000628628111135,0.00013212338144969135
-0.47515296602941814,-0.47515296602941814,1.0001256035711983,0.00011704493529556253
-0.4749670655895898,-0.4749670655895898,1.000036099921677,0.00013333047417316698
-0.4748496674306807,-0.4748496674306807,0.999788281663087,0.000123666947998577
-0.47473347481281963,-0.47473347481281963,1.0001043280465165,0.00012477378924065393
-0.47455238562833985,-0.47455238562833985,1.0000137841095968,0.00013267638117054015
-0.4744498918276804,-0.4744498918276804,1.0001611808830233,0.00011621926780142309
-0.47425072913683836,-0.47425072913683836,0.9998818713134451,0.0001328617340910856
-0.4739618982574029,-0.4739618982574029,0.9998028130433338,0.000127648762668076
-0.4738144610360905,-0.4738144610360905,0.9999143570870803,0.0001285101511644149
-0.4737307293136837,-0.4737307293136837,0.9999018957993642,0.00012753360635157015
-0.47371596695302287,-0.47371596695302287,1.000032844583755,0.00011932730302862359
-0.47365984545103856,-0.47365984545103856,0.9998627571918476,0.000127598133191076
-0.473554675426567,-0.473554675426567,1.0000389565309178,0.00011777899904491134
-0.47345955326236433,-0.47345955326236433,1.0001528754120355,0.00012546845604081508
-0.4733556355939072,-0.4733556355939072,1.0001086416436369,0.00012702923395275796
-0.47324327319438453,-0.47324327319438453,0.9999704069619458,0.00013334844343505938
-0.4731424605852226,-0.4731424605852226,0.9999522239786456,0.00012643399922398298
-0.47304839146891026,-0.47304839146891026,0.99994972959704,0.0001281397960160677
-0.4730024840704573,-0.4730024840704573,0.9999059194307559,0.00011920910915312454
-0.4729059056669939,-0.4729059056669939,1.0002462784654989,0.00012476865326620766
-0.47283550064166774,-0.47283550064166774,1.000163649496589,0.00012219706394219276
-0.472747975839593,-0.472747975839593,1.0000094647598767,0.00012802048088087
-0.47264962730987464,-0.47264962730987464,0.9999869620933313,0.000127160996060737
-0.4724921052365971,-0.4724921052365971,0.999794506395218,0.00012536300037870607
-0.4723163816437591,-0.4723163816437591,1.0001100287798153,0.00011737512767641766
-0.4721678097681433,-0.4721678097681433,1.000057308033767,0.00012927622368785448
-0.47203788431288557,-0.47203788431288557,0.9999862359521059,0.00013063860830745197
-0.4719491155228752,-0.4719491155228752,0.9999893962467302,0.00011665062589348701
-0.4718083040934289,-0.4718083040934289,0.9999223985784068,0.00012477832648607825
-0.4716607128902979,-0.4716607128902979,0.9997183786503602,0.00011607222515038465
-0.47155237230690544,-0.47155237230690544,1.000063566050126,0.00011534171383538074
