time,time,flux,flux_err
-0.49985757910690154,-0.49985757910690154,1.0000103953357975,7.44287424504318e-05
-0.4996617188165449,-0.4996617188165449,0.9999730054308128,7.682439922899659e-05
-0.49950258319707547,-0.49950258319707547,0.99998001645857,7.455873464945324e-05
-0.4993038367902045,-0.4993038367902045,1.0000205851927582,7.610038190494276e-05
-0.4992194294587534,-0.4992194294587534,1.0000064679654044,7.304095249110795e-05
-0.4991457283984346,-0.4991457283984346,1.0000912797150412,6.798635064491901e-05
-0.4990263638006581,-0.4990263638006581,1.0000326280992597,6.773275111276723e-05
-0.4988783570290252,-0.4988783570290252,0.9999774374302739,7.007680347783315e-05
-0.49874280015865224,-0.49874280015865224,0.9998962193505367,6.833499702328233e-05
-0.4986729901698709,-0.4986729901698709,1.0000538565248571,6.746634420069194e-05
-0.49848668259219264,-0.49848668259219264,1.0000131042441602,7.113180085378857e-05
-0.4983702754892875,-0.4983702754892875,1.00008183737455,6.735376441422001e-05
-0.49828745924314716,-0.49828745924314716,1.0000511827269942,6.726062269562574e-05
-0.49817843235214243,-0.49817843235214243,0.9998890802766898,6.829551012378217e-05
-0.4980522629906773,-0.4980522629906773,0.9999218934608057,7.199298198707195e-05
-0.4979500251902209,-0.4979500251902209,0.9999959451933549,7.270415056921182e-05
-0.4977928778316709,-0.4977928778316709,0.9999786679458911,6.887085702982917e-05
-0.49763382692908636,-0.49763382692908636,1.0000360375422153,6.795230123950025e-05
-0.4975147164099326,-0.4975147164099326,1.0000434189346425,6.723472982806249e-05
-0.4973329536660458,-0.4973329536660458,0.9998654450699803,6.817822221184927e-05
-0.49714388763168244,-0.49714388763168244,1.0000151067336418,7.067071294375088e-05
-0.49699136151757556,-0.49699136151757556,1.00003017993907,6.748609805217097e-05
-0.49683609921121386,-0.49683609921121386,0.999977308624089,6.918720643848267e-05
-0.49670428692625135,-0.49670428692625135,1.0000307954518386,6.82688914300558e-05
-0.49667145152561715,-0.49667145152561715,1.00000316782345,7.01039740749623e-05
-0.4965961006571888,-0.4965961006571888,0.9999561919992853,7.029634685254758e-05
-0.4965127991607005,-0.4965127991607005,1.0000769459814283,6.806922478956626e-05
-0.49638915712057496,-0.49638915712057496,0.9999613203022131,6.955011665157552e-05
-0.49629282020177923,-0.49629282020177923,0.9999151258023478,6.856853343742548e-05
-0.4961734908836661,-0.4961734908836661,1.000058856686813,6.778659673939986e-05
-0.49597479350341017,-0.49597479350341017,0.9999584545099915,6.838405805981718e-05
-0.4958884969732026,-0.4958884969732026,1.000053830735353,6.773521681606258e-05
-0.4957935294813069,-0.4957935294813069,0.999963693058243,6.8306754694618e-05
-0.49564983118252715,-0.49564983118252715,1.0000182603947347,6.773855085192101e-05
-0.495496881112922,-0.495496881112922,0.9999046490088176,7.260193845424212e-05
-0.49538599120569415,-0.49538599120569415,1.0000134917727759,7.143915841904133e-05
-0.49522612159125856,-0.49522612159125856,1.0000311402581752,6.841376132765809e-05
-0.4951192620916117,-0.4951192620916117,1.0000723350456515,6.752832093680031e-05
-0.4949780815106351,-0.4949780815106351,1.0000836445317138,6.714668505083734e-05
-0.49478664470807415,-0.49478664470807415,1.0000168752087848,6.831368507382076e-05
-0.49468588678500963,-0.49468588678500963,1.0000324468932151,6.795570903430589e-05
-0.4946079228524468,-0.4946079228524468,1.0000625190351853,7.096985397473638e-05
-0.49453232556043075,-0.49453232556043075,1.0000931848941312,6.731071380947125e-05
-0.49440841827963594,-0.49440841827963594,0.9999230906986124,6.689912284697203e-05
-0.49422707912453917,-0.49422707912453917,1.0000113750867872,6.777267424556914e-05
-0.49413175606896403,-0.49413175606896403,0.999939709815647,7.232742230132551e-05
-0.4940323333932611,-0.4940323333932611,0.9999761354285253,7.083478792853267e-05
-0.4939315750336391,-0.4939315750336391,0.999937758090128,6.740531998894154e-05
-0.4938006654614583,-0.4938006654614583,1.000061496092723,7.073570849697015e-05
-0.49368968016278814,-0.49368968016278814,1.0000138853424672,6.846449424019598e-05
-0.4935698403722199,-0.4935698403722199,0.9999986040783184,6.767461669804046e-05
-0.49345461038101346,-0.49345461038101346,0.9999688070109777,6.78247466350301e-05
-0.49319644186034567,-0.49319644186034567,1.0001032768981268,6.859321244380177e-05
-0.49308985466486777,-0.49308985466486777,1.0000776967470408,7.077500761665058e-05
-0.49303612629228155,-0.49303612629228155,1.000167486518483,6.945611585448559e-05
-0.49290457592724124,-0.49290457592724124,1.0000848238580928,6.962899775243997e-05
-0.492769495457469,-0.492769495457469,0.9999918761982594,7.0737386324266e-05
-0.49261981100498814,-0.49261981100498814,1.000028606850588,6.783694498346148e-05
-0.49247902308707125,-0.49247902308707125,1.0000902631334503,6.77217344526529e-05
-0.49230641767935596,-0.49230641767935596,0.9997960127827665,6.732183760134754e-05
-0.4921765685845457,-0.4921765685845457,1.0001494146149388,6.876229063102717e-05
-0.49202453796970075,-0.49202453796970075,1.0000115128627123,6.81503220499423e-05
-0.4918335448972357,-0.4918335448972357,0.9998528392427133,6.859068383330113e-05
-0.4916846644307952,-0.4916846644307952,1.0000518862809398,6.808348897557911e-05
-0.4915849719727703,-0.4915849719727703,0.9999244020666895,7.253432100829821e-05
-0.49151828521426066,-0.49151828521426066,1.000037648960138,6.776163670801711e-05
-0.49140391465116406,-0.49140391465116406,1.000035581991524,6.717064656166075e-05
-0.491284986356186,-0.491284986356186,1.0000015316865802,7.004934080571173e-05
-0.4911486605225946,-0.4911486605225946,0.9999515791345013,6.864629595839612e-05
-0.49104178974448587,-0.49104178974448587,0.999999295433898,6.76932806645559e-05
-0.4909723326200037,-0.4909723326200037,0.9999610596486835,6.760249971093128e-05
-0.4908462711224274,-0.4908462711224274,0.9999378795061723,6.756002110559872e-05
-0.49071456235833466,-0.49071456235833466,1.0000024166663275,6.781181817433622e-05
-0.4906103430505027,-0.4906103430505027,0.9999464877265151,8.061635699305118e-05
-0.49052195084659617,-0.49052195084659617,1.0000477480138923,7.010771691523605e-05
-0.49042520762886854,-0.49042520762886854,1.0000321187609962,7.447983635414018e-05
-0.4903060815937351,-0.4903060815937351,0.999968263984519,6.956427971479449e-05
-0.49016202422862987,-0.49016202422862987,0.9999783596118167,6.754720631863567e-05
-0.4900357805963722,-0.4900357805963722,0.9999674241532525,6.738175545322375e-05
-0.48984185148292453,-0.48984185148292453,0.9999748607211867,7.044882684940286e-05
-0.4897481318075734,-0.4897481318075734,0.9999772813087324,6.75779600666723e-05
-0.4895697043299151,-0.4895697043299151,0.9999547979194616,6.907409579921163e-05
-0.48940835237153807,-0.48940835237153807,0.9998988808950047,6.889870703386418e-05
-0.48923925929993856,-0.48923925929993856,0.999980796926032,6.701747384455485e-05
-0.4891138229773787,-0.4891138229773787,0.9999475909012181,6.79908021034993e-05
-0.48905124789453114,-0.48905124789453114,0.9999381676614817,6.996720353639171e-05
-0.48896411726818767,-0.48896411726818767,1.000070557507272,6.978822368730855e-05
-0.48888162004514013,-0.48888162004514013,0.9999798765042094,6.763327789342167e-05
-0.4887689163639152,-0.4887689163639152,0.9999288070961325,6.851310082608437e-05
-0.488687065661361,-0.488687065661361,1.0002341247471775,7.075826439554916e-05
-0.4885908934265899,-0.4885908934265899,0.9999296756674401,6.803217861148521e-05
-0.48853938835381994,-0.48853938835381994,1.000164411270499,6.777281076642743e-05
-0.4884428062949155,-0.4884428062949155,1.0000291958863823,6.802914511324832e-05
-0.4883342517023266,-0.4883342517023266,1.0000121185411257,6.750537154375962e-05
-0.48822466030469513,-0.48822466030469513,1.0000231200615357,6.79355450628983e-05
-0.48808859542841676,-0.48808859542841676,1.000011375592861,6.754670124761712e-05
-0.48802217134580134,-0.48802217134580134,1.0000194456788232,6.834994276003049e-05
-0.48789411489342455,-0.48789411489342455,1.0000259909034563,7.445383011012838e-05
-0.4876821616577217,-0.4876821616577217,1.0001007572879979,7.01910992800142e-05
-0.48754626556983566,-0.48754626556983566,0.9999242436213702,6.914647125910661e-05
-0.4874322221206967,-0.4874322221206967,1.0000967103914853,7.009329355177899e-05
-0.4872515363706043,-0.4872515363706043,0.9998970590645737,6.785986345849774e-05
-0.48711315854088755,-0.48711315854088755,0.9999696040550035,6.857388968747279e-05
-0.4869627722146106,-0.4869627722146106,0.9999294994560023,6.834326393157377e-05
-0.4868245742698491,-0.4868245742698491,0.9999488910907953,7.114104165719533e-05
-0.486758450299385,-0.486758450299385,1.000011485445687,6.744632131253805e-05
-0.4866014132916462,-0.4866014132916462,0.9999598107305591,6.736849181325101e-05
-0.48647912332016857,-0.48647912332016857,1.0000372574281182,6.71559558242932e-05
-0.48640500695692024,-0.48640500695692024,0.9999049414508516,6.981476780157965e-05
-0.4862778126873309,-0.4862778126873309,1.0000561090735545,6.815274172489161e-05
-0.486175064111012,-0.486175064111012,1.000067986799293,6.879108059218813e-05
-0.48607986048373275,-0.48607986048373275,0.999998903224028,7.076144129617066e-05
-0.4859890766936587,-0.4859890766936587,1.0001345209712638,6.876647956389489e-05
-0.4858251747646136,-0.4858251747646136,0.9999956588066923,6.832557726785706e-05
-0.4857195148251776,-0.4857195148251776,1.0000090769704169,6.713755642113394e-05
-0.4856451433020993,-0.4856451433020993,0.9999832076218071,6.784932777265192e-05
-0.48553876978185145,-0.48553876978185145,0.9999467822850547,6.809961926505101e-05
-0.4854025232270942,-0.4854025232270942,1.0000223358864637,6.986427808021743e-05
-0.48526296945638026,-0.48526296945638026,0.99997173456124,7.071452667481987e-05
-0.4851261471158068,-0.4851261471158068,1.000103362644349,6.943567988710158e-05
-0.4849033806436637,-0.4849033806436637,0.999912025224331,6.824978843334589e-05
-0.4847520581068238,-0.4847520581068238,1.0000011856838347,6.758408781852503e-05
-0.48461636935317076,-0.48461636935317076,1.0001792840767276,6.815296852342954e-05
-0.4844751250675472,-0.4844751250675472,0.999927052901584,6.827399660017036e-05
-0.48436489076775613,-0.48436489076775613,0.9999862603238784,6.839494226636802e-05
-0.484258351092285,-0.484258351092285,0.9999352709995171,6.742573544005135e-05
-0.4842034613233409,-0.4842034613233409,1.0000480160676806,6.807178771399243e-05
-0.4840575055786758,-0.4840575055786758,0.9999021664266102,6.994178748683663e-05
-0.48392354690222417,-0.48392354690222417,1.0000477119698874,6.961293133885984e-05
-0.48379098551013155,-0.48379098551013155,0.9999705563278798,7.036520422344696e-05
-0.4837102931720437,-0.4837102931720437,1.000061575842261,6.777022302700848e-05
-0.4835995964378526,-0.4835995964378526,0.9999490471434074,6.937903395541381e-05
-0.48346429034427274,-0.48346429034427274,0.9998947410191773,6.813139359231591e-05
-0.48331770039658295,-0.48331770039658295,0.9999932004772754,6.990024444108612e-05
-0.4831494382829987,-0.4831494382829987,1.0000715367531512,6.741724118642315e-05
-0.4830215301444696,-0.4830215301444696,1.0001452322211608,6.784119009539396e-05
-0.48293233465592494,-0.48293233465592494,1.0000016435815011,6.75085769744856e-05
-0.48274829162983224,-0.48274829162983224,0.9999366566926767,7.285365723278083e-05
-0.4826241163129453,-0.4826241163129453,0.9999427135359396,6.88190204145354e-05
-0.4824109956920438,-0.4824109956920438,0.9999933928271745,6.818368358813718e-05
-0.48228134722521643,-0.48228134722521643,1.0000254953110705,7.022383293447528e-05
-0.48208373766829027,-0.48208373766829027,0.9999895279938377,6.765402447777454e-05
-0.4820121276119608,-0.4820121276119608,0.9999461727219208,7.287399923870829e-05
-0.4818845627953124,-0.4818845627953124,1.0000330848852481,6.854348202432186e-05
-0.48181589904343125,-0.48181589904343125,1.0000164642452354,7.067016439805872e-05
-0.48176565032990765,-0.48176565032990765,0.9999648765547804,6.721571134495717e-05
-0.4816606206004508,-0.4816606206004508,1.0001374084985097,6.742609919164677e-05
-0.4815447931759991,-0.4815447931759991,1.000111600994078,6.802825509903319e-05
-0.48147153600511955,-0.48147153600511955,1.0000222382053348,7.015811553648227e-05
-0.48135653741264833,-0.48135653741264833,0.999956625415261,6.938658019948462e-05
-0.48121038917743136,-0.48121038917743136,0.9999544131903335,6.845818808719941e-05
-0.4810963758638536,-0.4810963758638536,1.0000369870381356,6.796437016123341e-05
-0.48096643851240517,-0.48096643851240517,0.9999340501755954,6.86324920576881e-05
-0.4808586442588421,-0.4808586442588421,1.0000421193301179,6.692386934859886e-05
-0.4807823414346785,-0.4807823414346785,1.0001105933503964,7.063261867874349e-05
-0.4806088788755005,-0.4806088788755005,1.000017315359153,6.914373508312745e-05
-0.48041397733759367,-0.48041397733759367,1.0000490431784168,6.815678440079948e-05
-0.4802023338525032,-0.4802023338525032,0.9999901703139148,7.297886524105637e-05
-0.4800222216828843,-0.4800222216828843,0.9998524737733611,6.738972666124255e-05
-0.4797956262540538,-0.4797956262540538,1.0000276432233406,6.740058469496272e-05
-0.47968118947101174,-0.47968118947101174,0.9998266634464091,6.695655586944276e-05
-0.4795736263440631,-0.4795736263440631,1.0001213789945629,7.008280397060016e-05
-0.4794723072714987,-0.4794723072714987,0.9999325432319128,7.303279803871892e-05
-0.47942993780525284,-0.47942993780525284,0.9999824931242802,6.775252801965315e-05
-0.47931596900671136,-0.47931596900671136,1.00001584704227,6.825651190240109e-05
-0.47921808031023827,-0.47921808031023827,1.0000799066583639,7.031223797824872e-05
-0.47910697544721187,-0.47910697544721187,0.9998609452371602,6.733700852473774e-05
-0.47902639325111523,-0.47902639325111523,0.9999312155300435,7.120100882106485e-05
-0.4789435527090973,-0.4789435527090973,0.9999837031718665,6.842078551374197e-05
-0.4788014187564841,-0.4788014187564841,1.0000224760199177,7.033161990055596e-05
-0.47862186516649674,-0.47862186516649674,1.0000737679925682,6.859692980581426e-05
-0.47854354764931484,-0.47854354764931484,0.9998572427159254,6.803192918417687e-05
-0.4784461259187083,-0.4784461259187083,0.9999652520063507,6.801630846867304e-05
-0.478381095048826,-0.478381095048826,1.0000160061076833,7.007440029403302e-05
-0.47830852108600086,-0.47830852108600086,1.0000492218743138,7.012138493274924e-05
-0.4781491184410697,-0.4781491184410697,0.9998437094638929,7.127206926892623e-05
-0.4779341603818466,-0.4779341603818466,0.999975060279463,6.814415992704772e-05
-0.47784718046023045,-0.47784718046023045,0.9998986575551172,6.764589246276181e-05
-0.47770006379432745,-0.47770006379432745,1.00012364621749,7.044319270528313e-05
-0.47757840221747755,-0.47757840221747755,0.9998937296504173,7.010554399953918e-05
-0.4773592380239279,-0.4773592380239279,0.9999318408684517,7.091816905461441e-05
-0.477226776065072,-0.477226776065072,0.9999823931046905,6.745459358031985e-05
-0.47707584350573595,-0.47707584350573595,1.0000271338664415,6.972109678978244e-05
-0.47697815870997146,-0.47697815870997146,0.9998519804599424,6.952975711028282e-05
-0.47690980194020083,-0.47690980194020083,0.9999775102496573,7.046957008137052e-05
-0.4768359754394623,-0.4768359754394623,0.9998859418204576,6.80392764360177e-05
-0.47671311574958963,-0.47671311574958963,0.9999652761083617,6.99423523709966e-05
-0.4766017684502003,-0.4766017684502003,1.0000539396504702,6.776465173865538e-05
-0.4765066885098349,-0.4765066885098349,0.9999715426710661,6.726702874889121e-05
-0.4763726418816077,-0.4763726418816077,1.0001032756007044,6.818182602819458e-05
-0.4762062348185282,-0.4762062348185282,0.9998789457655105,7.20788200686752e-05
-0.4761232693577767,-0.4761232693577767,1.0000579464785744,7.008766617779073e-05
-0.47602773001926835,-0.47602773001926835,1.0000455571982987,6.777921689931306e-05
-0.4759362249431433,-0.4759362249431433,0.9999960861636239,6.692259425539846e-05
-0.47584081513559795,-0.47584081513559795,1.0000443799624075,7.009882947177519e-05
-0.47570878063488636,-0.47570878063488636,1.00011216849875,7.210252840320255e-05
-0.4756057938226149,-0.4756057938226149,1.0000485740522989,6.911246425568247e-05
-0.4754237651497533,-0.4754237651497533,0.9999490785351923,6.753714427647111e-05
-0.475290174462134,-0.475290174462134,0.9999546002552261,6.807070962039473e-05
-0.4750881691077666,-0.4750881691077666,1.0000229408655736,6.733919588847683e-05
-0.47498001218700664,-0.47498001218700664,1.0000578430009632,6.886102265209862e-05
-0.47484445441878054,-0.47484445441878054,1.0001093680361295,7.016889418738325e-05
-0.474712120526965,-0.474712120526965,1.0000144621236726,6.72049759650253e-05
-0.47455523070384514,-0.47455523070384514,1.0000200127782486,6.775664731621638e-05
-0.4744419202892459,-0.4744419202892459,0.9999674887440451,7.016788915880813e-05
-0.4743822429962165,-0.4743822429962165,1.0000450619197052,7.03882535499174e-05
-0.474331224123307,-0.474331224123307,0.9999751110749887,7.039686708184115e-05
-0.4742660717703984,-0.4742660717703984,1.0000060025900726,6.786594223370625e-05
-0.47413470443789263,-0.47413470443789263,1.0000070566085528,6.972937717002284e-05
-0.4740485974907642,-0.4740485974907642,1.0001275809414125,6.749132569096531e-05
-0.4739164290134795,-0.4739164290134795,1.0001146619057535,6.769562608681119e-05
-0.4738221645660815,-0.4738221645660815,0.9998307192972058,6.836850664766517e-05
-0.4736250201742223,-0.4736250201742223,0.9999914783491585,7.065128263501782e-05
-0.47354406439844754,-0.47354406439844754,1.0001146098962337,6.715340228615473e-05
-0.473454273086827,-0.473454273086827,1.0000183734132626,6.78199258404341e-05
-0.4733499282563571,-0.4733499282563571,1.0000000357341186,6.802223448749235e-05
-0.4732019848226628,-0.4732019848226628,0.9999303327006042,7.219288248929813e-05
-0.47301564430017606,-0.47301564430017606,1.0000162173673182,7.168511972912989e-05
-0.4728039798603277,-0.4728039798603277,0.9999230062715412,6.826839279914163e-05
-0.4725904084829381,-0.4725904084829381,0.9999318241770553,6.796756793254661e-05
-0.4724006373005977,-0.4724006373005977,0.9999766272505406,6.847393724563861e-05
-0.4723012854214176,-0.4723012854214176,1.0000305708911548,7.072864137327696e-05
-0.47216279917483917,-0.47216279917483917,0.9999138789912244,6.715374557560798e-05
-0.47202353164029776,-0.47202353164029776,0.9999653269507508,6.739046858135645e-05
-0.47189897029238637,-0.47189897029238637,0.9999095363177576,6.980606666172188e-05
-0.4718422208461561,-0.4718422208461561,1.0000307955298113,7.003483351162051e-05
-0.47176245872469735,-0.47176245872469735,0.9999717867561287,7.052446816885822e-05
-0.47166398676417887,-0.47166398676417887,1.0000679312200504,6.769952514968612e-05
-0.4715258225143771,-0.4715258225143771,0.9999742797576887,7.015344714344918e-05
-0.47138058228956653,-0.47138058228956653,0.9999795138606273,6.806361464431606e-05
-0.47131269453966523,-0.47131269453966523,0.9999847354772738,6.748964725631348e-05
-0.47117941508913647,-0.47117941508913647,1.0000862536300743,6.735114909764941e-05
-0.47108346460736356,-0.47108346460736356,0.9998437631427788,6.736647295870568e-05
-0.47094629820785483,-0.47094629820785483,1.0000187781363181,6.817605378393003e-05
-0.47079540352424376,-0.47079540352424376,1.0000513854231299,7.007610154029879e-05
-0.4706634362497425,-0.4706634362497425,0.9999937839169633,6.739268188954381e-05
-0.4705734793627926,-0.4705734793627926,1.000027404539269,7.203517711873729e-05
-0.4704640017407655,-0.4704640017407655,0.9999529470311662,7.17521216448565e-05
-0.4703490158950444,-0.4703490158950444,1.0000839569578832,6.729643623015481e-05
-0.47016907391080165,-0.47016907391080165,0.9999245620823235,6.733086898638672e-05
-0.47001370933576253,-0.47001370933576253,1.00003262309902,6.836216619586117e-05
-0.4698802717255603,-0.4698802717255603,1.0000721003317747,6.840292420162949e-05
-0.4698091259866487,-0.4698091259866487,1.000047601006478,6.972903672447129e-05
-0.46969039020623315,-0.46969039020623315,0.9999725941167213,6.816533201157014e-05
