time,time,flux,flux_err
-0.49960023498473066,-0.49960023498473066,1.000306236857654,0.0006290325159596885
-0.49910780192003584,-0.49910780192003584,1.0004432912425074,0.0005763602816375448
-0.4982916575856507,-0.4982916575856507,1.0003897402109465,0.0005676126236655067
-0.49753418507170866,-0.49753418507170866,1.0000576645582955,0.0005671892530524389
-0.4967731023207307,-0.4967731023207307,1.0005546743242353,0.0005688730488334113
-0.4955213032342726,-0.4955213032342726,0.9992425382666197,0.0005669379056055568
-0.49429719712643416,-0.49429719712643416,1.0010154369858515,0.000566661723396951
-0.4936764050857164,-0.4936764050857164,0.9997066939981807,0.0005765496933590169
-0.49304020311392377,-0.49304020311392377,1.0003033961673644,0.0005669885951264555
-0.49202783541404643,-0.49202783541404643,0.9987247775412612,0.0005759442040554903
-0.49128160474356264,-0.49128160474356264,0.9992489256416233,0.0005676875981404022
-0.49078445882187227,-0.49078445882187227,1.0005839647642232,0.0005857144269634465
-0.48923276154673656,-0.48923276154673656,1.0001861626531592,0.000556396312650731
-0.4884935476264218,-0.4884935476264218,1.0000627451274264,0.0005565221116643792
-0.4877915205637692,-0.4877915205637692,0.9990783811591728,0.0005866503251260333
-0.4869384562742198,-0.4869384562742198,0.9988237965343366,0.0005669538078186675
-0.48600105954683387,-0.48600105954683387,1.0005295094231326,0.0005900332454994788
-0.4853129427705426,-0.4853129427705426,0.9995642576759375,0.0005858782261331651
-0.4849568651494337,-0.4849568651494337,0.9997372168572376,0.0005661441641440735
-0.48355099400505425,-0.48355099400505425,0.9999774224218191,0.0005564521888725681
-0.48304169288021515,-0.48304169288021515,1.0002008064138597,0.0005761443165890445
-0.4823463195090881,-0.4823463195090881,1.0004068991559247,0.0005826412518462983
-0.4816577666439116,-0.4816577666439116,1.000490575931983,0.0005665668155207438
-0.4801782764989184,-0.4801782764989184,0.9995670083784021,0.0006527419083156536
-0.4795784344081767,-0.4795784344081767,0.9994789502914067,0.0005718815389973866
-0.47925505971943494,-0.47925505971943494,1.0000565009027182,0.0005854495971676099
-0.4780675762158353,-0.4780675762158353,1.0004065673375029,0.0005561954797752568
-0.4773673219839111,-0.4773673219839111,0.999727045390428,0.0005676177570511449
-0.4767003874643706,-0.4767003874643706,1.0003629062777002,0.000560733893416053
-0.4757865927473176,-0.4757865927473176,1.000717110627559,0.0005697117318681536
-0.47449516229098665,-0.47449516229098665,1.000246041237804,0.0005757839826238823
-0.47380074371467346,-0.47380074371467346,1.0004325995105634,0.0005760484630026458
-0.473135653429199,-0.473135653429199,1.000642483426284,0.0005666186079104345
-0.47224775645299816,-0.47224775645299816,1.0010137220325193,0.0005666720741433011
-0.4714557644270826,-0.4714557644270826,1.0002450073995635,0.0005693090368282881
-0.47091832458390853,-0.47091832458390853,1.0000509878020107,0.0005759731445501525
-0.46927340130787343,-0.46927340130787343,0.9993381141195321,0.0005667202667726467
-0.46851818781287874,-0.46851818781287874,1.000869347300769,0.0005662218281565345
-0.4679641843191348,-0.4679641843191348,1.000006832286736,0.0005767043803015027
-0.4669775169779314,-0.4669775169779314,1.0001704645590956,0.0005764136843781378
-0.46602792679914273,-0.46602792679914273,0.9999621291913783,0.0005673075433690989
-0.4654516193491872,-0.4654516193491872,1.0003178887624578,0.0005854494593487867
-0.4646109631983563,-0.4646109631983563,1.0003048836726403,0.0005759633290447309
-0.46322496412321923,-0.46322496412321923,1.0007089366463742,0.0005942385511911775
-0.46267605246102905,-0.46267605246102905,0.9992509543820864,0.0005661700372757647
-0.4620105819689343,-0.4620105819689343,1.0004002022942644,0.0005752873108104061
-0.46067887781537137,-0.46067887781537137,0.9999534897206704,0.0005798791389025653
-0.4600170412217267,-0.4600170412217267,0.9990258417038429,0.0005851983393046398
-0.4595938893908169,-0.4595938893908169,1.0004242476619951,0.0005756999028790735
-0.4588757598103257,-0.4588757598103257,1.0007745707802447,0.0005566327942599416
-0.4577192256023409,-0.4577192256023409,0.999938809645575,0.0005590772367098734
-0.45706830820709,-0.45706830820709,0.9991889205990881,0.0005869809939520893
-0.4565041368448874,-0.4565041368448874,0.9999963184543523,0.0005628715483334594
-0.4548906732845353,-0.4548906732845353,0.9999551530161821,0.0005758002319244371
-0.45415558737586254,-0.45415558737586254,1.0001247990683135,0.0005606039335709512
-0.4537164865381783,-0.4537164865381783,0.999334774141205,0.0005952531055648839
-0.45285160428029486,-0.45285160428029486,0.9996160015342156,0.0005466192216685287
-0.451822605507914,-0.451822605507914,1.0004340658601127,0.0005676303235989945
-0.45121165851305706,-0.45121165851305706,0.9998835916470551,0.0005602117616290991
-0.45001214871008416,-0.45001214871008416,1.0005691969876402,0.0005671063719016585
-0.4488043798803119,-0.4488043798803119,0.9991588802851428,0.0005663823374314293
-0.4481680307013448,-0.4481680307013448,0.9997397398215682,0.0005764165861499732
-0.4474065652495483,-0.4474065652495483,0.9994410426301551,0.0005667044513246024
-0.44661271520890294,-0.44661271520890294,1.000370898276763,0.0005668163091432457
-0.4457718738063704,-0.4457718738063704,1.000203901007001,0.0005682445495178205
-0.4450781106686918,-0.4450781106686918,1.0008579034280816,0.0005761105542275717
-0.4435339737276081,-0.4435339737276081,1.000659262346544,0.000566698426913801
-0.44290362341853323,-0.44290362341853323,0.9996604287901437,0.0005666919347228152
-0.4423093132005306,-0.4423093132005306,1.0001798225585596,0.0005913665958141398
-0.44143797912693117,-0.44143797912693117,1.000778987514471,0.0005664763903509227
-0.44050545885111203,-0.44050545885111203,0.9998002065333988,0.0005765526548217308
-0.43986742139968554,-0.43986742139968554,0.9994925523657358,0.0005852752619121214
-0.4393454084551195,-0.4393454084551195,1.0004190226323557,0.0005667735651863498
-0.4377870015887311,-0.4377870015887311,0.9995958655060904,0.0005561471127032686
-0.4373077079129871,-0.4373077079129871,0.9995359342365008,0.0006002290509646059
-0.43659735273977274,-0.43659735273977274,1.0000971578419466,0.0005738582893098255
-0.43539444576890673,-0.43539444576890673,0.9996160610935549,0.0005668029993351168
-0.43447797888948114,-0.43447797888948114,0.999121440193736,0.000585396355202269
-0.43405427953694015,-0.43405427953694015,0.9990936802638988,0.0005665186490659311
-0.4333715122193098,-0.4333715122193098,0.9996693971683548,0.0005659470405130778
-0.43221275570394935,-0.43221275570394935,1.000179374920878,0.0005587311307648069
-0.43151984067226296,-0.43151984067226296,0.999681298827096,0.0005873542835233883
-0.43078264023934026,-0.43078264023934026,1.0003762521073556,0.0005572692541641478
-0.42932063807384113,-0.42932063807384113,0.9997484441698694,0.0005669470268174135
-0.4286277680803323,-0.4286277680803323,1.0007543533272163,0.0005696240563098162
-0.4281380496249767,-0.4281380496249767,1.0005707508629964,0.0005859076336950108
-0.4274764872941887,-0.4274764872941887,0.9997395920572536,0.0005676654100158113
-0.4266870049294084,-0.4266870049294084,1.000584035766565,0.0005578070648641357
-0.4258085304609267,-0.4258085304609267,1.0003002427435075,0.0005788438161443011
-0.42487564130860844,-0.42487564130860844,0.9997084618760365,0.000557511064777262
-0.42338873913977293,-0.42338873913977293,0.9997893572836691,0.0005760633172602208
-0.42276647965773007,-0.42276647965773007,0.9997747641519809,0.0005669453056817685
-0.422204442115617,-0.422204442115617,1.0000167635140453,0.0005764059696108108
-0.4211592590989312,-0.4211592590989312,0.9999003684187201,0.0005664725672593239
-0.4203739519405644,-0.4203739519405644,1.000324325588712,0.000577044034502119
-0.41979849568451755,-0.41979849568451755,1.0000920362433452,0.0005758653992361664
-0.41832663780078294,-0.41832663780078294,1.0002621707463528,0.0005674688932184217
-0.4175504598475527,-0.4175504598475527,1.001020289930444,0.0005566600361423819
-0.41687895521172325,-0.41687895521172325,1.0001275060284907,0.0005765132346066549
-0.41617012486094607,-0.41617012486094607,1.0001222166660462,0.0005779648409515456
-0.41508940474304834,-0.41508940474304834,0.999120349016804,0.0005810787683440785
-0.4144093948387308,-0.4144093948387308,1.0001484637254188,0.0005856600876907348
-0.414024507169961,-0.414024507169961,0.9996953974557996,0.0005664869463714602
-0.4127992221794557,-0.4127992221794557,0.9999958383568103,0.0005662995508281414
-0.41209624870098194,-0.41209624870098194,0.9995962655107474,0.0005777863327580162
-0.4114491424814332,-0.4114491424814332,1.0006704040162109,0.0005729640563851125
-0.4109111882513389,-0.4109111882513389,1.0004720246461225,0.0005768463598600532
-0.40937042036675847,-0.40937042036675847,1.0005712474168775,0.0005665301422135501
-0.40855105179362,-0.40855105179362,0.999576011032371,0.0005816488055322271
-0.40816761579189914,-0.40816761579189914,1.0003956745522309,0.0005664434028457338
-0.4067831288120942,-0.4067831288120942,1.0001434684226946,0.0005562182176315271
-0.4061728417174891,-0.4061728417174891,1.000058150895145,0.0005773518796021279
-0.40559263826871755,-0.40559263826871755,1.000526052077578,0.000561239324765948
-0.40448268502077556,-0.40448268502077556,1.0003144423790238,0.0005602185991221551
-0.4034691265114816,-0.4034691265114816,1.0006384921501636,0.0005756934059846163
-0.4027687427966157,-0.4027687427966157,1.0007157714099197,0.0005761819356154506
-0.40234089678560847,-0.40234089678560847,1.0011791355725357,0.0005860940912127521
-0.4014113388926489,-0.4014113388926489,0.9994212023147633,0.0005566926316686927
-0.40074257320375184,-0.40074257320375184,1.000270783186329,0.0005763383062846559
-0.4001369286765112,-0.4001369286765112,1.0003483558120219,0.0005687869666919365
-0.39893801548460034,-0.39893801548460034,0.9996912710277849,0.0005664021576011273
-0.39773062551103067,-0.39773062551103067,1.000406404718107,0.0005667147795271962
-0.397119609429501,-0.397119609429501,1.0004062096339594,0.0005763725216516734
-0.3964782648457913,-0.3964782648457913,1.00000816701617,0.0005670495618201274
-0.39544616964703894,-0.39544616964703894,0.9998516774483616,0.0005759565501663016
-0.39472565859614406,-0.39472565859614406,0.9997818300503498,0.0005673174133240119
-0.3942759547790047,-0.3942759547790047,1.0000037757322962,0.0005855105921917765
-0.39283773820498025,-0.39283773820498025,0.9996476779845089,0.0005660239982133899
-0.39203417926910333,-0.39203417926910333,1.0003073160405498,0.0006075840879342532
-0.3913467659207527,-0.3913467659207527,0.9994067131449267,0.0005754026764389177
-0.3906378735526232,-0.3906378735526232,1.0004500516960362,0.0005766824089701668
-0.3895233474293491,-0.3895233474293491,1.0004406534962917,0.0005796718575993308
-0.3888532826094888,-0.3888532826094888,0.9999608484926241,0.0005855166553546629
-0.38852686289756094,-0.38852686289756094,1.0013936721229517,0.0005762967089114223
-0.3873090396344196,-0.3873090396344196,0.9998980819272056,0.0005564132137260928
-0.3864899812149815,-0.3864899812149815,0.9995451242963214,0.0005713093844723934
-0.3857762538827956,-0.3857762538827956,1.000403984868172,0.000582199184815333
-0.38457211311906575,-0.38457211311906575,0.9997860953303203,0.0005566969515166196
-0.3833687001693761,-0.3833687001693761,1.000533572789199,0.0005699598250388041
-0.38285977076739075,-0.38285977076739075,1.0002721111312298,0.0005858921358540888
-0.38205384816392324,-0.38205384816392324,1.0001519226944657,0.0005565410005358999
-0.38110449478554076,-0.38110449478554076,1.0000244292743858,0.0005573026885418803
-0.38031649416079744,-0.38031649416079744,1.0001910899251762,0.0005795560591244064
-0.3796640989196021,-0.3796640989196021,1.0001113928807708,0.0005570578875961949
-0.3780997023190139,-0.3780997023190139,0.9997988534541562,0.0005762317172724916
-0.377346090064384,-0.377346090064384,1.0001442428764915,0.0005665286937961737
-0.3767871902207844,-0.3767871902207844,0.9998324403143201,0.0005765894248813367
-0.3757989818986971,-0.3757989818986971,1.0007923534729508,0.000556956146182616
-0.3750521107664099,-0.3750521107664099,0.9998059586424592,0.0005681020764383759
-0.3744697516929591,-0.3744697516929591,1.0014406008998653,0.0005856820031847048
-0.37306382900860624,-0.37306382900860624,1.000152083629858,0.0005564303501491894
-0.37207272519881374,-0.37207272519881374,1.000353800126992,0.0005670680254492888
-0.3714988541411003,-0.3714988541411003,1.0004605335827528,0.0005767671406025059
-0.3708963719982421,-0.3708963719982421,1.0007961615595078,0.0005821248980526049
-0.36974294583196754,-0.36974294583196754,1.0001429498153669,0.0005762092040073454
-0.36906913878628983,-0.36906913878628983,1.0000226858750136,0.00057634603957223
-0.36859531856898686,-0.36859531856898686,0.9997672009937929,0.0005763974954977175
-0.36730237847659736,-0.36730237847659736,0.9994919630005163,0.0005663042120817453
-0.36650731416302734,-0.36650731416302734,1.0001936405364624,0.0005927261719976629
-0.36582746107596903,-0.36582746107596903,1.0001251411440293,0.0005743009169657397
-0.36493164545099716,-0.36493164545099716,0.9989769770538082,0.0005670202670509957
-0.36381283022928984,-0.36381283022928984,0.9996064914724162,0.000578097482495286
-0.36308510529052,-0.36308510529052,1.0000632579260806,0.0005839280956563719
-0.3627980661869515,-0.3627980661869515,1.0007869801084568,0.0005662737713607126
-0.36146403003367594,-0.36146403003367594,1.0006986607060189,0.0005565013827450726
-0.3608201268012635,-0.3608201268012635,0.9999400569171772,0.0005762026773200948
-0.36014317215594926,-0.36014317215594926,1.0005215896543778,0.0005718451768702138
-0.3587744082149584,-0.3587744082149584,0.9996783890521961,0.0005570501514040066
-0.35782116528134794,-0.35782116528134794,1.0003208317483516,0.0005659682858040185
-0.35730045062373395,-0.35730045062373395,0.9997195550950672,0.0005886786444432529
-0.3567826685088221,-0.3567826685088221,0.9995172622662665,0.0005668936458514172
-0.35575529897469094,-0.35575529897469094,1.0005972917340227,0.0005572071856123642
-0.3549261590320384,-0.3549261590320384,0.9999138702192605,0.0005799777378737261
-0.3541760129155591,-0.3541760129155591,1.0003602133645804,0.0005572208768762633
-0.35255028623214457,-0.35255028623214457,1.0006332697444063,0.0005763993343263728
-0.351839228568133,-0.351839228568133,0.9999325731520811,0.0005569543574248942
-0.35136453137383794,-0.35136453137383794,0.9997765590428369,0.0005860540974595524
-0.3503023908153409,-0.3503023908153409,0.9998242552591851,0.0005568589029191776
-0.3495705140841892,-0.3495705140841892,1.0003019544314726,0.0005582970053198257
-0.3490380595030729,-0.3490380595030729,1.000643882800969,0.000585391060724578
-0.3479278417333262,-0.3479278417333262,0.9997022806926793,0.0005675057877065606
-0.34673629215103574,-0.34673629215103574,0.9999739497187805,0.0005564320827203203
-0.3461242304590996,-0.3461242304590996,1.0001968967872776,0.0005665539697236847
-0.34549830296600703,-0.34549830296600703,1.0011731670608006,0.0005879095278384848
-0.34443763094313906,-0.34443763094313906,1.000077218360571,0.0005814665577189744
-0.34365765256225134,-0.34365765256225134,0.9998035468119714,0.0005763049159381405
-0.34312478768115395,-0.34312478768115395,0.9990095828727563,0.0005852682607900874
-0.342093429050874,-0.342093429050874,1.0001398922356655,0.0005660514600857645
-0.34112921680498404,-0.34112921680498404,1.0005020680007768,0.0005499121740274094
-0.3405654421658255,-0.3405654421658255,1.0000480436269594,0.0005949208718964291
-0.3399396586290095,-0.3399396586290095,1.0004411162326732,0.0005732740699186953
-0.3383923100453103,-0.3383923100453103,1.0007848817727871,0.0005774606010741006
-0.337622494858806,-0.337622494858806,0.9999894842716064,0.0005727742578084659
-0.337270771258045,-0.337270771258045,1.0005576496361954,0.0005759639443339368
-0.33598201745189726,-0.33598201745189726,0.9996873704973208,0.0005561321062011889
-0.3353345440409612,-0.3353345440409612,1.0003599752727306,0.0005736335228330021
-0.33471298587101045,-0.33471298587101045,0.9998631409496085,0.0005706603288073103
-0.33402633164078,-0.33402633164078,0.9994883120918449,0.000571372055087272
-0.3327600295539014,-0.3327600295539014,0.9992104180757053,0.000566324761479069
-0.3320035615150118,-0.3320035615150118,1.0001352003493302,0.00057582940376066
-0.3315163072606083,-0.3315163072606083,1.0005689645595703,0.0005759952073540175
-0.330700788172544,-0.330700788172544,1.0001230660727576,0.0005670314599314787
-0.33008244396187364,-0.33008244396187364,1.0005113874797769,0.0005668799934839731
-0.32924149931641294,-0.32924149931641294,1.0014912910539588,0.0005783571048028912
-0.32832590890175195,-0.32832590890175195,1.0007319445452354,0.0005574016459383598
-0.3268105410854332,-0.3268105410854332,1.00147440630831,0.0005764179692400769
-0.32622687189141286,-0.32622687189141286,1.0000850010919546,0.0005669487406008095
-0.32562210072064773,-0.32562210072064773,0.9996570361405522,0.0005766098014648637
-0.3245966459537158,-0.3245966459537158,1.0001328917786878,0.0005667072862853948
-0.3238069945393363,-0.3238069945393363,1.0002173456823598,0.0005676524017485188
-0.32335256666410717,-0.32335256666410717,0.9992272898438059,0.0005947369456031109
-0.32218970090616494,-0.32218970090616494,1.000270058452533,0.0005661436359452102
-0.32106476032058706,-0.32106476032058706,0.9991512909639801,0.0006038865502027123
-0.32046187143132554,-0.32046187143132554,1.000000675426139,0.0005766313709002753
-0.3198319669580087,-0.3198319669580087,0.999457416436532,0.0005753659181830515
-0.31862881331471726,-0.31862881331471726,0.9999225514267109,0.0005807381923448156
-0.31797139533155133,-0.31797139533155133,1.000155033772317,0.0005852305635043689
-0.3175395745784044,-0.3175395745784044,1.000899740066784,0.0005860491888464228
-0.3168716589716496,-0.3168716589716496,1.0005939192815476,0.0005658318335146101
-0.3156402497203089,-0.3156402497203089,1.0007877006025072,0.0005496116738618219
-0.3150147067412036,-0.3150147067412036,0.9999130727539439,0.0005890166558597051
-0.31420413609594106,-0.31420413609594106,1.0005795258472616,0.0005634027371650644
-0.3125740466377465,-0.3125740466377465,1.0002857256120474,0.0005664937378530864
-0.31191384921548887,-0.31191384921548887,1.0000844624780458,0.0005805779582285228
-0.3112637646176154,-0.3112637646176154,1.0001090096229197,0.0005667777697503238
-0.3101650355500169,-0.3101650355500169,1.0007075628032864,0.0005576105913172808
-0.30944393956451677,-0.30944393956451677,0.9997124913626403,0.0005798246266685302
-0.3089348517445615,-0.3089348517445615,1.0005168895130088,0.0005570030553907655
-0.3072316960169701,-0.3072316960169701,0.9999513864814128,0.0005663183786488679
-0.3064524842979154,-0.3064524842979154,1.0000235057863267,0.0005758007613755509
-0.30594590355176476,-0.30594590355176476,0.9991435735946694,0.0005765909647652928
-0.30488100144139024,-0.30488100144139024,0.9996322024078408,0.0005567546816520354
-0.3041774604207603,-0.3041774604207603,1.000269970895409,0.0005663631604267271
-0.3035703033267055,-0.3035703033267055,0.999798379862163,0.0005779847776983002
-0.3023716843366856,-0.3023716843366856,1.0000536071466148,0.00056590556308061
-0.30116437989345285,-0.30116437989345285,1.0006538175289534,0.0005668126954035208
-0.3005692840029951,-0.3005692840029951,0.9992640675726792,0.0005766608286850007
-0.30001441355561836,-0.30001441355561836,1.0002431599882815,0.0005828728621274449
-0.2989277091808617,-0.2989277091808617,1.0003483799222552,0.000576233500928814
-0.2981700849661138,-0.2981700849661138,1.0001010888848927,0.0005671513819305731
-0.29767913882096764,-0.29767913882096764,1.0002411454622884,0.00058544396480608
-0.2965942612674553,-0.2965942612674553,1.0004120478588239,0.0005663767198813491
-0.2955587580712745,-0.2955587580712745,0.9994069793554903,0.0005862383999178808
-0.29492311568465085,-0.29492311568465085,0.9987812306280507,0.000575958560514174
-0.29417607946379576,-0.29417607946379576,1.000411611930303,0.0005747737146441864
