time,time,flux,flux_err
-0.4999354200214536,-0.4999354200214536,0.9999892610542211,0.00024007633860795774
-0.49981271038996056,-0.49981271038996056,1.0002094031705349,0.0002421150948200856
-0.49970873064376065,-0.49970873064376065,1.0003127400314678,0.00021795491124906738
-0.49959597248744103,-0.49959597248744103,0.9998461016829762,0.00021883565521341858
-0.499419426087843,-0.499419426087843,0.9997140578842455,0.0002105205096119474
-0.49933395240295797,-0.49933395240295797,0.9999280304397009,0.0002214024209347139
-0.4991966397326905,-0.4991966397326905,1.0002732240625676,0.00021339695668157066
-0.49909012191419605,-0.49909012191419605,1.0000731120146527,0.0002152447477843439
-0.49895923368094375,-0.49895923368094375,0.9998928885347782,0.00021702324948715224
-0.49879296598228395,-0.49879296598228395,1.0002798902069476,0.000225754533447921
-0.4986191353680624,-0.4986191353680624,0.9999986286257903,0.00022035343931864376
-0.49845176157105014,-0.49845176157105014,0.9995822342869763,0.00021682529253743872
-0.4983533521561185,-0.4983533521561185,0.999866893366707,0.00022093206104247388
-0.49826680105325066,-0.49826680105325066,1.0001719250097343,0.00020917195361205582
-0.49816921328310854,-0.49816921328310854,1.0000136870275895,0.00021534865585663988
-0.4980868405291403,-0.4980868405291403,0.9999912666784722,0.00022232075184958527
-0.4980189816989878,-0.4980189816989878,0.9999445996150242,0.00022901147658383435
-0.4978260458359728,-0.4978260458359728,0.9998347780019443,0.00022175389750215762
-0.49774322523517184,-0.49774322523517184,0.9999480101578812,0.00022846053833747246
-0.4975175521612982,-0.4975175521612982,0.9997777292462195,0.00022621763002528115
-0.49736960006994196,-0.49736960006994196,0.9998490733683086,0.0002157008828588502
-0.4972406822598714,-0.4972406822598714,0.999827560343058,0.00022481693874841987
-0.4971334830588603,-0.4971334830588603,1.0000701825709257,0.0002258485225647286
-0.49705785475161973,-0.49705785475161973,1.0000861364050448,0.000213993851704305
-0.4970274222891021,-0.4970274222891021,0.9999562573593923,0.00023208538591204655
-0.49694556457034195,-0.49694556457034195,0.9998272266620678,0.00022391059071494762
-0.4968476936672232,-0.4968476936672232,1.0000000893343794,0.00022271225400422533
-0.49671707269662874,-0.49671707269662874,0.9998277664452777,0.00022186784812462464
-0.49661771775063246,-0.49661771775063246,0.9999388481312955,0.00021479497111641203
-0.4965395972452825,-0.4965395972452825,1.0000014635032999,0.00021898288734346606
-0.49648193204266133,-0.49648193204266133,0.9999713697688872,0.0002209670789224048
-0.4963754162985424,-0.4963754162985424,0.9999940826055276,0.00022430312254439672
-0.49626312192194744,-0.49626312192194744,0.9999417929892118,0.0002234489389998475
-0.4961326837306842,-0.4961326837306842,0.9998263835728844,0.00020610442392839107
-0.49606843558867697,-0.49606843558867697,0.9996242921569156,0.00021729648400911874
-0.49597774163630676,-0.49597774163630676,1.0002496890060493,0.00021967518337891097
-0.49590081812712017,-0.49590081812712017,0.9998434629016092,0.00022299145147749723
-0.49579651600506625,-0.49579651600506625,1.0000229668679488,0.00022471599433477744
-0.4956658968258125,-0.4956658968258125,1.0001900864309103,0.0002109924634286059
-0.4955789203129825,-0.4955789203129825,0.9998170306281862,0.00021517130679897336
-0.4954460898290563,-0.4954460898290563,0.9997209103507328,0.00022428702233720437
-0.49534215086387123,-0.49534215086387123,1.0000134878370708,0.0002110502124487824
-0.49524834532639944,-0.49524834532639944,1.0001549353974917,0.00021874642925028584
-0.49513083084093523,-0.49513083084093523,1.0003630144283486,0.0002236037870103286
-0.4950250880370731,-0.4950250880370731,1.0000925159055687,0.00021794805493125267
-0.49492153642495396,-0.49492153642495396,1.0003313624542214,0.00021264810255396002
-0.49476281217866924,-0.49476281217866924,1.0000706377297592,0.00021647214385727307
-0.4946697040286381,-0.4946697040286381,0.999855497704889,0.00021895935340720323
-0.4945287607391947,-0.4945287607391947,0.999899054233213,0.0002134440253748826
-0.4944004710239824,-0.4944004710239824,0.9999198862300549,0.00021586805788592053
-0.4942944959409942,-0.4942944959409942,0.9997991357681855,0.0002143827169107338
-0.49411358588840815,-0.49411358588840815,0.9999262144458768,0.00022859446552263868
-0.49387626327370526,-0.49387626327370526,0.9998292625406473,0.00022210043971089563
-0.4937173188038287,-0.4937173188038287,1.0001206410472325,0.00021906857747760214
-0.4936020479282888,-0.4936020479282888,1.0000583759324337,0.00021545350398390815
-0.4935150498393341,-0.4935150498393341,0.9997969690922929,0.00021548613543595068
-0.49339383115802776,-0.49339383115802776,0.9996535517550648,0.00022565551572204125
-0.493319496030017,-0.493319496030017,0.9999672248215233,0.00023682333623396804
-0.4931099099194398,-0.4931099099194398,0.9997895208084653,0.00022160007401528134
-0.492999884524761,-0.492999884524761,0.9994539075772465,0.00021910190067001386
-0.49270730039716,-0.49270730039716,0.9997837608926343,0.00022706396643504102
-0.4926016585464822,-0.4926016585464822,0.9996949591208806,0.00022241275308997757
-0.49249176202865785,-0.49249176202865785,0.9999987526100277,0.00022306430204351984
-0.49239446406791104,-0.49239446406791104,0.9995807061689727,0.0002168098427316223
-0.49235448116305636,-0.49235448116305636,0.9999633658951762,0.00020954100720621394
-0.4922643352052546,-0.4922643352052546,1.0001521066479682,0.00022079890975339883
-0.4921466982239508,-0.4921466982239508,0.9998313787672242,0.00021701461845857742
-0.492030909578898,-0.492030909578898,1.0001033872248413,0.0002233733694855022
-0.4919149715169624,-0.4919149715169624,1.0002729607546912,0.00021871842575113955
-0.49184355951292674,-0.49184355951292674,0.9998651879215199,0.00022056393765546747
-0.4917606468392478,-0.4917606468392478,1.0000866157830033,0.00022348937160182196
-0.4916777672005992,-0.4916777672005992,0.9999391266153772,0.00022071975226093106
-0.4915376376280619,-0.4915376376280619,0.9999390705085063,0.00022144899618081548
-0.49139168074470946,-0.49139168074470946,1.0002288139404034,0.00021667436949532296
-0.4912661804264644,-0.4912661804264644,0.9998445580042432,0.0002219165053629539
-0.4912100097310031,-0.4912100097310031,0.9999375989010778,0.00021873175028515072
-0.49108504945543247,-0.49108504945543247,1.000053191640478,0.00023055643260554143
-0.49094790248418574,-0.49094790248418574,0.9999400337086867,0.00020931681673296956
-0.490881689805974,-0.490881689805974,1.0001027503025903,0.00021106741325651563
-0.4907664583377482,-0.4907664583377482,1.0001473879887937,0.00022348413613596028
-0.490691597424302,-0.490691597424302,0.9999089835368636,0.00021141240280678816
-0.49058344543300336,-0.49058344543300336,1.000242661438137,0.0002166608810534606
-0.49047257161000746,-0.49047257161000746,0.9999688087288906,0.00022463731073903956
-0.4903720850968966,-0.4903720850968966,0.9997919971533987,0.00021686166631694733
-0.49029605460964376,-0.49029605460964376,0.9999107527214818,0.0002118826395705166
-0.4901527765498031,-0.4901527765498031,0.9997480111071029,0.00021357815925511725
-0.49001959650122445,-0.49001959650122445,0.9996910146817646,0.0002167467839178006
-0.4899107259167067,-0.4899107259167067,1.0000270085162155,0.00022113575103293136
-0.48974440986276024,-0.48974440986276024,0.999949482467495,0.00021443287247041853
-0.48960736365479535,-0.48960736365479535,0.9997860135783098,0.00021439964169528907
-0.4894179720948159,-0.4894179720948159,0.999799083456842,0.0002235558685813127
-0.48923814802474225,-0.48923814802474225,0.999804281953411,0.00022814459716726697
-0.4890818242558453,-0.4890818242558453,0.9998205679449743,0.00021661689014355342
-0.4889502859194181,-0.4889502859194181,1.000240180049656,0.0002213989252385686
-0.48886876145552377,-0.48886876145552377,0.999814408491614,0.00020967919084740168
-0.48874355145599113,-0.48874355145599113,0.9998670335922369,0.0002268193548404168
-0.4886075144728238,-0.4886075144728238,1.0000980576442824,0.0002225178715647144
-0.4884262485298677,-0.4884262485298677,1.000031241811643,0.0002216615823596342
-0.4882574829745863,-0.4882574829745863,0.9999653137060964,0.00022427529376815712
-0.488001559717668,-0.488001559717668,1.0002455718320669,0.00022297915807036143
-0.48790883892434067,-0.48790883892434067,1.000041440610729,0.00022282570361334468
-0.4877504664669686,-0.4877504664669686,1.0000227940497668,0.0002314355182895294
-0.48767330660120933,-0.48767330660120933,0.9996974069715312,0.00020947385265112227
-0.48756591082637896,-0.48756591082637896,0.9999452805375626,0.00022086521526223164
-0.4874214498624497,-0.4874214498624497,0.9998877815273396,0.00022276032389249045
-0.48726011323888085,-0.48726011323888085,0.9999870511473604,0.00021343365265923713
-0.48720235736545875,-0.48720235736545875,1.0000136579410965,0.00021759170670380065
-0.48710907437780404,-0.48710907437780404,1.0000172233579316,0.00022699363959608477
-0.48699277864725443,-0.48699277864725443,0.9994285025623769,0.00022323740336086358
-0.4868000614485936,-0.4868000614485936,0.999704984795366,0.00022056532448114187
-0.4866754943519481,-0.4866754943519481,1.000135814736597,0.00021763524028647796
-0.4865447665550164,-0.4865447665550164,1.000173290115606,0.00022587268550541186
-0.4865280966318096,-0.4865280966318096,1.0000832691212145,0.00021537858426583315
-0.48644991441979074,-0.48644991441979074,0.99987601196617,0.0002257896516635439
-0.48632884018225014,-0.48632884018225014,0.9996439979513625,0.00021785397939959693
-0.48621959929223524,-0.48621959929223524,0.9998738750202975,0.00021354183883218317
-0.48612433124435483,-0.48612433124435483,1.00012338077781,0.00021858917326409702
-0.48601820555486486,-0.48601820555486486,0.9999158694759771,0.00021721836335688674
-0.48590062043367654,-0.48590062043367654,0.9999155327116801,0.0002193721152934858
-0.4857948365126504,-0.4857948365126504,1.000068048297814,0.000228130190033488
-0.48570069653651443,-0.48570069653651443,1.0000641608472023,0.00021697772910941505
-0.4856141510521411,-0.4856141510521411,0.9997847050680481,0.00021668398785428049
-0.4854311001989117,-0.4854311001989117,1.000307792981292,0.00021032901149419165
-0.4853162425730261,-0.4853162425730261,1.0002463143407554,0.00021900241670108297
-0.4852191215395578,-0.4852191215395578,0.9998612062517989,0.0002211683961018405
-0.48501964031602257,-0.48501964031602257,0.9998260538527133,0.00021073920355708806
-0.4848976765526459,-0.4848976765526459,1.0002207669789034,0.00021500049849534786
-0.48473338805197275,-0.48473338805197275,0.9998954649653097,0.00022379683067980547
-0.4845540881913621,-0.4845540881913621,1.0000477256706735,0.000228514100061355
-0.4844186365917267,-0.4844186365917267,0.9999908395482106,0.0002174607961082506
-0.4843162698598462,-0.4843162698598462,0.9999359357282229,0.00021334584606884274
-0.4841962430677086,-0.4841962430677086,0.9998351312181922,0.0002147516505661075
-0.4840584783916711,-0.4840584783916711,1.00006643316846,0.00022682915243732102
-0.483938508087158,-0.483938508087158,0.9999924285514469,0.00022072087281968175
-0.4837517024279805,-0.4837517024279805,0.9998703794277771,0.00022120768571928608
-0.4836255005815474,-0.4836255005815474,1.0003438350072884,0.00022154901855796086
-0.4833728276775219,-0.4833728276775219,1.0000541922396737,0.00022502863354519122
-0.4832300192007096,-0.4832300192007096,0.9998812036844423,0.00021978478779008997
-0.48307234621534006,-0.48307234621534006,0.9999395445435303,0.00022627434054387822
-0.4830099290331418,-0.4830099290331418,0.9998850946332063,0.0002157097223982935
-0.4829061233867833,-0.4829061233867833,1.0001933571026602,0.00021391716344310393
-0.48276457652973476,-0.48276457652973476,1.000191466337758,0.0002226573232497895
-0.48262788742576956,-0.48262788742576956,1.0003013834055328,0.00021791290118245406
-0.48250036732424634,-0.48250036732424634,1.0000055347682693,0.00022382125265407222
-0.4823606779536931,-0.4823606779536931,0.9999726874159055,0.00023182997575287002
-0.48216320984211053,-0.48216320984211053,0.9997694200509682,0.0002164400798898637
-0.48199436664581297,-0.48199436664581297,1.0000798962392892,0.00022726902231266942
-0.4818600712089392,-0.4818600712089392,0.999940074897778,0.00022412316353507072
-0.4817758649602183,-0.4817758649602183,0.9998688818871584,0.000226507364880608
-0.48162013504988865,-0.48162013504988865,0.9999278156150272,0.00021488636713121195
-0.48152158268203493,-0.48152158268203493,0.9998963678073395,0.00021339130145266633
-0.4814357238574303,-0.4814357238574303,1.000026764642756,0.00021677522928701987
-0.4813281922797614,-0.4813281922797614,1.0001101054765325,0.00021549112188485792
-0.4812053594338067,-0.4812053594338067,0.9998063160325982,0.0002177357875236323
-0.4811041770393786,-0.4811041770393786,1.0000909064510062,0.00022724721489171323
-0.4810255652140768,-0.4810255652140768,0.9998700081097196,0.00021478509786092498
-0.48097526847341215,-0.48097526847341215,1.0001025373886139,0.00021832236222327678
-0.48085283459440686,-0.48085283459440686,0.9997447161998018,0.00022174234685568396
-0.4806577127317723,-0.4806577127317723,1.0001644293552039,0.00021696082648734637
-0.48056904445766124,-0.48056904445766124,0.9999070355516102,0.00022122175279412935
-0.4803553397236101,-0.4803553397236101,1.000303698338151,0.0002083415793077108
-0.4802330570149934,-0.4802330570149934,0.9999408276309341,0.0002146077302468243
-0.4801532968136598,-0.4801532968136598,1.0003170977330735,0.00023230923455296254
-0.4799721019749995,-0.4799721019749995,1.0001200668213543,0.000227347773041056
-0.47980668902237084,-0.47980668902237084,0.999751567730072,0.00022820681114694928
-0.47965451921991187,-0.47965451921991187,0.9998447408950497,0.00021286191127266484
-0.4795448322867742,-0.4795448322867742,1.0001154011420716,0.0002092012075799152
-0.4794139719895611,-0.4794139719895611,0.9999846345791509,0.00021878307615841907
-0.47930815801228166,-0.47930815801228166,1.000011267310692,0.00022873669847031297
-0.4791113633065834,-0.4791113633065834,0.9998984379156625,0.00022144642816548308
-0.4789773054195393,-0.4789773054195393,0.999803316753141,0.0002209239346456856
-0.4786932086695742,-0.4786932086695742,0.9997310548913975,0.00022804994442325862
-0.47854278775848796,-0.47854278775848796,0.9999720949059446,0.00021999401838625099
-0.47840394293380084,-0.47840394293380084,0.9999473786457251,0.00022284081809008182
-0.47834180972349716,-0.47834180972349716,1.0002020762011168,0.00022022435785040237
-0.47826624392691885,-0.47826624392691885,1.000085088576222,0.00021984936438535402
-0.4781349454788142,-0.4781349454788142,1.0001404005208916,0.00021736092576217833
-0.4780443528579781,-0.4780443528579781,0.999986282384975,0.00021690615256716913
-0.4778971779625863,-0.4778971779625863,1.0000610898004207,0.00022311027594346705
-0.4777641594511806,-0.4777641594511806,0.9997280294621549,0.00022653887945832504
-0.4776214592595352,-0.4776214592595352,1.000299917166619,0.00022462499455965093
-0.4773865951283369,-0.4773865951283369,0.9999761025655595,0.00022247963519054533
-0.47725333192793185,-0.47725333192793185,0.9998392419873532,0.0002241927926246149
-0.4771469541607075,-0.4771469541607075,0.9996023766350521,0.00023138641230990132
-0.4769452874221315,-0.4769452874221315,1.000050040698462,0.00022115669268417678
-0.4768389800789009,-0.4768389800789009,1.0000045592535325,0.00021031832821936952
-0.4767492147249868,-0.4767492147249868,0.9998841957574752,0.0002242161671928835
-0.4766194310548599,-0.4766194310548599,1.0001928275899932,0.0002202461280395961
-0.47645683091468527,-0.47645683091468527,0.9999820343804346,0.00023000520914538285
-0.4763553198812588,-0.4763553198812588,1.0000275025083756,0.00022332640998369373
-0.47626971731879164,-0.47626971731879164,0.9996802877099678,0.0002184020809011698
-0.47612318642495666,-0.47612318642495666,1.000191948600369,0.0002207249600236013
-0.4759732540558616,-0.4759732540558616,0.999478103022178,0.00022229266604862925
-0.4759230706280505,-0.4759230706280505,1.0000692318774358,0.00021300141399511682
-0.4757510948322306,-0.4757510948322306,0.9998552378564112,0.00020939595248993412
-0.4755839209879923,-0.4755839209879923,0.9997248374670334,0.0002095067520294549
-0.47549831664364317,-0.47549831664364317,1.00019380688292,0.00021456699029241406
-0.4753642446034064,-0.4753642446034064,0.9999962537275643,0.00022452849154527797
-0.47519533475424397,-0.47519533475424397,0.9997358258448126,0.00023319893950953752
-0.4750276441074675,-0.4750276441074675,0.9998649146506283,0.00021317123431605504
-0.47493090321440834,-0.47493090321440834,1.0002279571298465,0.0002095517982841155
-0.47483296729333235,-0.47483296729333235,0.9998732218773748,0.0002148711064956526
-0.47473159092041894,-0.47473159092041894,1.0000534922555189,0.00021073351920275802
-0.4746576737619762,-0.4746576737619762,1.0002424199934672,0.00022416745793647856
-0.47450427376752485,-0.47450427376752485,0.9999177698139569,0.00022103085676162144
-0.4743608484961442,-0.4743608484961442,1.0002718437036282,0.00022686206673784923
-0.47422670043015386,-0.47422670043015386,1.0001886906482245,0.00021694248171725202
-0.4740266544678889,-0.4740266544678889,0.9997626837580805,0.00021736683791468008
-0.47385290749152775,-0.47385290749152775,1.0002180399246483,0.00022061380366388125
-0.4736957173328847,-0.4736957173328847,0.9996681721245168,0.0002221321523688009
-0.4736274088667415,-0.4736274088667415,1.0001410536232265,0.00020990977235409847
-0.473528882827668,-0.473528882827668,1.000375342000504,0.00022285965121151906
-0.4734360098860634,-0.4734360098860634,1.0004779649914783,0.0002207554220048997
-0.4733600179119094,-0.4733600179119094,1.000042514936577,0.00022152195460743867
-0.4731767642471823,-0.4731767642471823,0.9997488452914599,0.00021965594830191128
-0.47303497789107496,-0.47303497789107496,0.9998763492597567,0.00022816750142564177
-0.4729019564729242,-0.4729019564729242,0.9999706904041492,0.0002218002515289164
-0.4727027740162157,-0.4727027740162157,1.0001044810258108,0.00022252013601412106
-0.4725601850164821,-0.4725601850164821,0.999778529884203,0.00022953116689451865
-0.47245226600716705,-0.47245226600716705,0.9999785209018963,0.00022700573829326519
-0.4722854879306396,-0.4722854879306396,1.000047364287056,0.00023198566306508153
-0.47215721311658854,-0.47215721311658854,0.9997597950323188,0.00020913773065325939
-0.4721215405224939,-0.4721215405224939,0.9996916145708139,0.00022619452748300021
-0.4720076024394075,-0.4720076024394075,1.000078581392484,0.00022223637988915622
-0.471853391143668,-0.471853391143668,0.9998967663279712,0.00022615101641261875
-0.4717441599794256,-0.4717441599794256,0.9999670063467239,0.00023367761776211567
-0.4716492048028158,-0.4716492048028158,1.0001377633943773,0.0002194728886938598
-0.4715338668102049,-0.4715338668102049,1.000196040226771,0.00021735773030566886
-0.471385983050277,-0.471385983050277,1.0001090317490893,0.00023655159148647177
-0.4712862145031977,-0.4712862145031977,0.9999268629612272,0.00022229032899757735
-0.4712383211008273,-0.4712383211008273,1.0000374238645755,0.00021300773270160759
-0.4710727012010466,-0.4710727012010466,1.0003559009687322,0.00021010403510996018
-0.4709227539351559,-0.4709227539351559,0.9999180617653186,0.00021475775200454776
-0.4707965664434596,-0.4707965664434596,1.0000064409591323,0.00021678109023265252
-0.47064460978581335,-0.47064460978581335,1.0001111385806156,0.0002264444665616215
-0.47052043814910577,-0.47052043814910577,0.99998642225554,0.00022393104159797186
-0.47037501416198213,-0.47037501416198213,1.000315600591573,0.000219245093943647
-0.47027347674011255,-0.47027347674011255,1.0000316367518307,0.00020902666951763552
-0.4701698300516,-0.4701698300516,0.9999633106101037,0.0002195887688448492
-0.47009391200335815,-0.47009391200335815,0.9995031256345627,0.0002097309210528779
-0.46999102548870725,-0.46999102548870725,1.0003248077681313,0.00022485070232772654
-0.4698957453780167,-0.4698957453780167,0.9996923754266618,0.00022382478682913585
