time,time,flux,flux_err
-0.49992915305544255,-0.49992915305544255,0.9997932869199525,0.0003328108900822166
-0.4998316621580064,-0.4998316621580064,1.0004554095419491,0.00035084513299010793
-0.4997117567163514,-0.4997117567163514,1.000199660193185,0.00034411363122160505
-0.499484760613268,-0.499484760613268,1.0004260674484247,0.0003097271436119239
-0.4993185414394247,-0.4993185414394247,0.9996252204777601,0.00030971329809580995
-0.499248486689612,-0.499248486689612,0.9998889493618108,0.0003096295485054759
-0.4991369417322858,-0.4991369417322858,0.9998052859390463,0.00029765034593565994
-0.4989428491011495,-0.4989428491011495,0.999953916279436,0.00031402623871982886
-0.49887737484896205,-0.49887737484896205,0.9999248086123265,0.00028741977094373975
-0.49879653085881726,-0.49879653085881726,1.0000296464603218,0.0003087931099612992
-0.4987002935842611,-0.4987002935842611,1.0001170890648678,0.000311588239989793
-0.4986285686194606,-0.4986285686194606,0.9998288505407193,0.0003001490186955405
-0.498528245556372,-0.498528245556372,1.000071724319231,0.0003124887723771596
-0.4984221874503419,-0.4984221874503419,0.9999936279046062,0.0003128031906556175
-0.4982625567135983,-0.4982625567135983,0.9997997986909753,0.000280935073938017
-0.49817297628032975,-0.49817297628032975,0.9999337010804688,0.00030915511052451915
-0.49812069701729345,-0.49812069701729345,1.0000917591618514,0.0003064372711097721
-0.49802627583339926,-0.49802627583339926,1.0003083767690264,0.0003074014670952742
-0.49785562134929934,-0.49785562134929934,0.9997795279772346,0.00030082287204878275
-0.4976648348289018,-0.4976648348289018,1.0002429324964939,0.0003178581951393171
-0.4975247899543319,-0.4975247899543319,1.0000876216484786,0.0002851121511217763
-0.49740183802132376,-0.49740183802132376,1.000148460966685,0.00031773747412730806
-0.4972692859810195,-0.4972692859810195,0.9999445227522947,0.0003081873809069684
-0.49721853077426204,-0.49721853077426204,1.0004105397748433,0.0003006904066600605
-0.4971570222376613,-0.4971570222376613,0.9999308664159671,0.0003122866378957243
-0.4970508940510626,-0.4970508940510626,1.0001403424157096,0.0002910840100712283
-0.49688892777849103,-0.49688892777849103,1.0000396605610962,0.00031160391867787
-0.49672426172328416,-0.49672426172328416,1.0002631564276254,0.00030636127690606297
-0.4966393728762341,-0.4966393728762341,0.9999964610747923,0.00030316575355097844
-0.4965734371209692,-0.4965734371209692,1.0000639178713784,0.000321435855623504
-0.4964955928109703,-0.4964955928109703,0.9998307464183327,0.0003002235782300459
-0.49637732037808746,-0.49637732037808746,0.9999920497813782,0.0003037989998228649
-0.496317789634486,-0.496317789634486,0.9999769589483298,0.00029701507090527403
-0.49624670990961023,-0.49624670990961023,1.0002301783148084,0.0002922130393552199
-0.496076826947683,-0.496076826947683,0.9995722360464457,0.00029893006797703154
-0.49599586476251717,-0.49599586476251717,0.9998234737610044,0.000319420047873277
-0.49586192999267953,-0.49586192999267953,1.0003462655595274,0.0003103648055705276
-0.4957283360461588,-0.4957283360461588,0.9999726748125018,0.00030227319736690557
-0.49564244428183885,-0.49564244428183885,1.0000208210720183,0.00030652184007541963
-0.4954600828517869,-0.4954600828517869,0.9998890041178337,0.00031426916286401014
-0.4953079751634505,-0.4953079751634505,0.9997529035142143,0.0002823324422304321
-0.495115126579185,-0.495115126579185,1.0003453722690663,0.00031464606723731757
-0.49495943030997297,-0.49495943030997297,0.999629190174615,0.00031344922819342145
-0.4948067065473879,-0.4948067065473879,1.0001841040891062,0.0003175854967963295
-0.49463478014586143,-0.49463478014586143,1.000310684006681,0.0002925384633060045
-0.49445301239247785,-0.49445301239247785,0.999735000240527,0.000305717547776014
-0.49430975211507755,-0.49430975211507755,0.9999049090199856,0.000314462463173224
-0.49419802588381573,-0.49419802588381573,1.0002513218759344,0.00030436856755695695
-0.49407845352616275,-0.49407845352616275,1.0001856342715432,0.0002781760573909884
-0.49395490105525824,-0.49395490105525824,1.0001123309272484,0.0002952859504889098
-0.4938870563892124,-0.4938870563892124,1.0005470191065362,0.00029824122708879144
-0.4937894812428567,-0.4937894812428567,0.9999015183084101,0.0003038159385428812
-0.49366311186895473,-0.49366311186895473,1.0000429713148355,0.00031247997103431605
-0.49355978279709234,-0.49355978279709234,0.9996952621900125,0.0003047312446166138
-0.49344300320153706,-0.49344300320153706,1.000082507766479,0.00032249069023813557
-0.49332848856574857,-0.49332848856574857,0.9999503956862199,0.000322146571370343
-0.4931859440614062,-0.4931859440614062,0.9998703774329549,0.00029266594487167656
-0.49294179881253514,-0.49294179881253514,0.9998814385439179,0.0002927557086976736
-0.4928039487429487,-0.4928039487429487,0.9996977722089456,0.0002984440925738479
-0.492711383644928,-0.492711383644928,1.0003886761164769,0.0003080590911618866
-0.4925908223456645,-0.4925908223456645,0.9999839679343008,0.0003135767443324142
-0.492431367883546,-0.492431367883546,1.0000627917822353,0.0002940459925751911
-0.49232463240623475,-0.49232463240623475,1.0000240570499181,0.0002977194204342395
-0.492238984702999,-0.492238984702999,1.0004954054520487,0.0003115692311691523
-0.49211798993856065,-0.49211798993856065,1.0000021321240324,0.0003075929599794605
-0.4919979706115555,-0.4919979706115555,0.9996754288140991,0.0003297864319640968
-0.4918716493200918,-0.4918716493200918,0.9999984977571993,0.00030065815857593155
-0.4917358993880043,-0.4917358993880043,1.0000407397154372,0.00030523793682801954
-0.4916539347046637,-0.4916539347046637,0.999993295844668,0.0002982386476317564
-0.49147687919758026,-0.49147687919758026,1.0001974438530283,0.0002962941215193138
-0.49136675053814544,-0.49136675053814544,0.9996043433385703,0.00029873648628363046
-0.4912838561431272,-0.4912838561431272,1.0002295032559183,0.000303339960549869
-0.49120557185524377,-0.49120557185524377,0.9999796965966181,0.00031696501074902764
-0.4911550312128384,-0.4911550312128384,0.9999207243187154,0.0003916347846539913
-0.49107085185387406,-0.49107085185387406,1.0000313573409794,0.00034304979320513016
-0.4909382188023301,-0.4909382188023301,0.9999140515417941,0.00029370548338226055
-0.4907898821445997,-0.4907898821445997,0.9997717007338046,0.00030960403860832975
-0.4906561022326059,-0.4906561022326059,0.9999505876551964,0.00030731305981665047
-0.49059493324821235,-0.49059493324821235,0.9998519281330962,0.00030238599153339235
-0.4904766623862088,-0.4904766623862088,1.0002103006749856,0.0003089809760629591
-0.4902901190747798,-0.4902901190747798,0.9999105940047404,0.0003144944643413176
-0.4901991158396413,-0.4901991158396413,1.0001452887832656,0.00029676307594031845
-0.49010758575677754,-0.49010758575677754,1.0000611352580817,0.00031856894895668323
-0.48999534335453065,-0.48999534335453065,0.9998642767068352,0.00030028362668720634
-0.4898825809461414,-0.4898825809461414,1.0005716172044754,0.0003205733479851491
-0.4897788816364482,-0.4897788816364482,1.000306049328442,0.00030172170987610833
-0.48960300834587545,-0.48960300834587545,0.999964819622523,0.0002894884254716559
-0.48950499926213525,-0.48950499926213525,0.9999817104725363,0.0003129730475405997
-0.4894613864620624,-0.4894613864620624,1.0004927265291927,0.0002937396520940582
-0.48936228186648806,-0.48936228186648806,1.0004701806200953,0.0003059651295312366
-0.489162758065504,-0.489162758065504,1.0001645948718823,0.00030395073212082993
-0.4889905517360603,-0.4889905517360603,0.9996535337225865,0.0003160512144407222
-0.4888601863916847,-0.4888601863916847,1.000063898643401,0.00029361949915620905
-0.4887492986439611,-0.4887492986439611,0.9997101332998326,0.00030190144198687395
-0.4886045916144212,-0.4886045916144212,1.0003695388552727,0.0003063892011420499
-0.48857308109072617,-0.48857308109072617,1.000195047427488,0.00030021267637008625
-0.48851278272195486,-0.48851278272195486,0.9997798460348573,0.000312410632974424
-0.4883683753061632,-0.4883683753061632,0.9998367462079424,0.0003049305999854625
-0.4882336099217355,-0.4882336099217355,0.9996789753577691,0.00036895503142209357
-0.4880676560191205,-0.4880676560191205,1.0000442261935105,0.000313619232878353
-0.4879786715573573,-0.4879786715573573,1.0003258697807256,0.0003107522757046127
-0.48790918278536993,-0.48790918278536993,1.0001088284457675,0.0003098085811116894
-0.48780819779931334,-0.48780819779931334,0.9998615980944769,0.00030237148695945443
-0.48771337215657695,-0.48771337215657695,1.0001829503008854,0.000302222915452516
-0.4876237327247509,-0.4876237327247509,1.0002582119231938,0.0003044431276321996
-0.48751153835837613,-0.48751153835837613,1.0004443665593308,0.0002954882887005945
-0.4874357284650614,-0.4874357284650614,1.0008010444651305,0.0002796712669126262
-0.48736291962559336,-0.48736291962559336,1.0001220009913792,0.00032074898740808307
-0.4872362582202186,-0.4872362582202186,1.0000218628693316,0.00031109465308643686
-0.4870675929741992,-0.4870675929741992,0.9996716288688685,0.00031095081754576253
-0.48694087213880266,-0.48694087213880266,1.0000454473959939,0.0003041687707262894
-0.48679585821300864,-0.48679585821300864,0.9999644226827739,0.00030246757692305
-0.48668094161475894,-0.48668094161475894,1.0002608976925393,0.0002945658581599875
-0.48650992083858,-0.48650992083858,1.0006115767862709,0.00029285826176004865
-0.4863722085276095,-0.4863722085276095,1.0001871433676457,0.00032501542558468967
-0.48623144523226075,-0.48623144523226075,1.000140839267051,0.0003113024743886826
-0.4860267577991181,-0.4860267577991181,1.000207791371099,0.0003002693800121832
-0.485917998405057,-0.485917998405057,0.9999381165031529,0.00030615746066466607
-0.48580142614300714,-0.48580142614300714,1.0004620043397936,0.0002880985016447717
-0.48568491025143884,-0.48568491025143884,0.9999698707844615,0.00031997824392254336
-0.4855738145779469,-0.4855738145779469,0.9997025913549475,0.00030266222189869986
-0.4854641419748077,-0.4854641419748077,1.000071108227963,0.00028742089009962463
-0.4853491065085109,-0.4853491065085109,0.9995686673994537,0.00030846518676498613
-0.4852553679673292,-0.4852553679673292,1.0003188390681033,0.00029898837047438953
-0.48514690135925775,-0.48514690135925775,0.9997840118964035,0.0003038870661925254
-0.4850230326570454,-0.4850230326570454,1.0000732419107108,0.0003001785568055642
-0.4849266853969311,-0.4849266853969311,1.0000424526313325,0.0003028533722425619
-0.48478997756028547,-0.48478997756028547,1.0001218815231407,0.0003229492671544084
-0.48467823387400133,-0.48467823387400133,1.0003871036132526,0.00031862431786810477
-0.4844761111351545,-0.4844761111351545,0.9998651978674706,0.00029717001744273294
-0.4843114882845839,-0.4843114882845839,1.0003618311400164,0.00031053147223113154
-0.48416651037405245,-0.48416651037405245,0.9998051614884892,0.00030894302580660794
-0.4840821790996415,-0.4840821790996415,0.9998028306955378,0.00030300577545339547
-0.4839790300851746,-0.4839790300851746,1.0002118333564514,0.00031093608302552856
-0.4838511346119049,-0.4838511346119049,1.0001186404889353,0.00030402199240955733
-0.48371183507115345,-0.48371183507115345,0.9996875179962192,0.0003036039811883544
-0.48363475588630533,-0.48363475588630533,0.9999530650950381,0.00030881931317863553
-0.4835216173523804,-0.4835216173523804,0.9994528141618397,0.00040894087639990046
-0.4834010910562938,-0.4834010910562938,0.9995971294716306,0.00031249605269691123
-0.48325338894646847,-0.48325338894646847,0.9998228500402091,0.00031578486936494326
-0.48311685142471106,-0.48311685142471106,1.0001238033846591,0.0002983968115376472
-0.4829873602699081,-0.4829873602699081,0.9998463816112798,0.0003080570085549081
-0.48282682972276236,-0.48282682972276236,1.000181112581188,0.0002932576522920225
-0.48271153691748625,-0.48271153691748625,1.0002760200669172,0.000289178595714287
-0.4826136860581755,-0.4826136860581755,0.9994356001665731,0.00032173602117185234
-0.48254301620982004,-0.48254301620982004,0.9997860526756941,0.0003165260676203811
-0.48243019250512587,-0.48243019250512587,1.000179631564702,0.0004003639207356682
-0.4822754413122311,-0.4822754413122311,1.0004356361713087,0.00028998719755329286
-0.4820742665891885,-0.4820742665891885,0.9996221863470188,0.00031227645173190666
-0.48200200147548455,-0.48200200147548455,1.00034068152039,0.00031956145353992274
-0.4819341707574495,-0.4819341707574495,0.9996731129957903,0.0002826272686267993
-0.4818006059118488,-0.4818006059118488,1.0001152493379781,0.00031717547072612485
-0.4816420584291336,-0.4816420584291336,1.0002440562623893,0.00032497637545387533
-0.4815732283721445,-0.4815732283721445,1.000045813787406,0.00028572290399843343
-0.48148824254385547,-0.48148824254385547,0.9998456924203026,0.0003194943152009194
-0.481367682232667,-0.481367682232667,0.9997719239029648,0.00031048165673063107
-0.4812976334964333,-0.4812976334964333,1.0000392083749021,0.00030822120219221036
-0.4811844764568377,-0.4811844764568377,1.0005841037603003,0.0003082575637394128
-0.4810855241812533,-0.4810855241812533,1.0000867052010078,0.0002935710464980723
-0.4809133247108548,-0.4809133247108548,1.0002820554975322,0.00030160833057563054
-0.4808476798694755,-0.4808476798694755,1.000051404246697,0.0003078257989821801
-0.48078715123701843,-0.48078715123701843,1.0000855376891837,0.0002991961188127175
-0.4806473327851563,-0.4806473327851563,1.0001611572995366,0.00029013094900164646
-0.4804318973881891,-0.4804318973881891,1.0001158119394424,0.00030881162583462385
-0.4802904363226844,-0.4802904363226844,1.0003587597614043,0.00030565868649831977
-0.4802248869680625,-0.4802248869680625,1.0001087819799601,0.00028403088965818496
-0.48015148692866205,-0.48015148692866205,1.000105792012246,0.0003013095146695185
-0.47998352090580737,-0.47998352090580737,0.9998935672890681,0.00031398803274930426
-0.4799197280139197,-0.4799197280139197,0.9999261369471586,0.00032192267263936455
-0.4797743178147357,-0.4797743178147357,0.9998378329836479,0.0003063637739007223
-0.47965099216016827,-0.47965099216016827,0.999938954863875,0.00035780369777432244
-0.4794759909549612,-0.4794759909549612,0.9998211424859813,0.00031132429603597387
-0.4793652464541083,-0.4793652464541083,1.0001256587145115,0.00029854247297639655
-0.47928625427157384,-0.47928625427157384,1.0002870579984378,0.00031410554312963926
-0.4791623216922744,-0.4791623216922744,0.9998442665889498,0.00030584685836160887
-0.47904437597098876,-0.47904437597098876,0.9997745363089816,0.0002898240415258144
-0.47889614396190155,-0.47889614396190155,1.0002443254696056,0.0003083291850061758
-0.4787856652386836,-0.4787856652386836,0.9996769812859142,0.0002800363074672441
-0.4787190368828306,-0.4787190368828306,0.9998792166450375,0.00032097551997427716
-0.4786069284302357,-0.4786069284302357,0.9997616511838011,0.00031778681549150345
-0.4784428629158356,-0.4784428629158356,1.0003370916763832,0.00030536319560716356
-0.4783859180904983,-0.4783859180904983,1.0000700858767355,0.00030704199119780664
-0.47822313254218896,-0.47822313254218896,0.9998778442580638,0.00031448016082357425
-0.4780858850812365,-0.4780858850812365,1.000076604444618,0.00028966368666271026
-0.4779067103358102,-0.4779067103358102,0.9998308869133771,0.00029998781299291137
-0.47778948576160474,-0.47778948576160474,1.0003533239779743,0.0003299282845991014
-0.4776897639319941,-0.4776897639319941,1.0000099942086034,0.0003055286494589599
-0.4776169123906584,-0.4776169123906584,0.9997016894090287,0.00030047292183945636
-0.4774265310537885,-0.4774265310537885,0.9997585666092224,0.00031011857613522846
-0.47734094173356423,-0.47734094173356423,0.9998082888122116,0.0003541682882337372
-0.4772086723074608,-0.4772086723074608,0.9999489130196523,0.0002940713149905764
-0.47707024584742613,-0.47707024584742613,1.000060852313621,0.00031038917244542155
-0.47695962820507704,-0.47695962820507704,0.9997446725949732,0.0003233726253847356
-0.4768673329737794,-0.4768673329737794,1.0000760128196484,0.0002958106920126852
-0.4767082073187339,-0.4767082073187339,0.9999355533712453,0.0003024692847619978
-0.4766055695115938,-0.4766055695115938,0.9998072330604275,0.0002985374271497418
-0.4764746404383914,-0.4764746404383914,0.9997991884873763,0.00030394553972536755
-0.4763541462176363,-0.4763541462176363,0.9995475816822216,0.0003004583783146087
-0.47625462004434665,-0.47625462004434665,1.0001675003352832,0.0003098952113469132
-0.47611047550526564,-0.47611047550526564,1.0002646983375434,0.0003310478316242535
-0.4760105416607985,-0.4760105416607985,1.0002409401162196,0.0003082020463418456
-0.4757931708954857,-0.4757931708954857,1.0000851344297825,0.0002958320379221475
-0.47559351256495574,-0.47559351256495574,0.9997954745974994,0.0003168295546583986
-0.4754747627179313,-0.4754747627179313,0.9995358672406727,0.00030811518288586815
-0.47534173648600697,-0.47534173648600697,1.000013883145095,0.0003261227480509506
-0.47523040637388475,-0.47523040637388475,1.0000505115579128,0.00031033411376144243
-0.4750857490551425,-0.4750857490551425,1.000240469449441,0.0002945289380473345
-0.4749914133739367,-0.4749914133739367,1.000093689810615,0.0003177135605560293
-0.47489029910357206,-0.47489029910357206,1.000454525332089,0.00038920930597985333
-0.4747302894451423,-0.4747302894451423,0.9999650877740833,0.0003025643052366902
-0.47458431585109795,-0.47458431585109795,0.9998920421854948,0.00031332320980561636
-0.4744695159017283,-0.4744695159017283,1.0002894977261734,0.00030378640349220504
-0.47434212230145933,-0.47434212230145933,1.0000100884359675,0.0003108090281615139
-0.474145850379864,-0.474145850379864,0.9998912276824796,0.00029631126297724334
-0.47403463777154686,-0.47403463777154686,0.9998920174648738,0.00031128500802385145
-0.4739279926165182,-0.4739279926165182,0.9999077789330826,0.00032221251346274693
-0.47385550895851336,-0.47385550895851336,1.0005402690709573,0.00031352964712642254
-0.4737245473093935,-0.4737245473093935,1.000280746175101,0.00029640888445311373
-0.4735331382078584,-0.4735331382078584,0.9998776323234342,0.00031691162676130737
-0.47339025350520386,-0.47339025350520386,0.9998147838536549,0.0003035948594406479
-0.47333227182753035,-0.47333227182753035,1.000731269140068,0.0003193400826016801
-0.4732285218407924,-0.4732285218407924,0.9997451230415202,0.00031510445096524407
-0.4730419752682792,-0.4730419752682792,0.9997141019173184,0.0003217428201507279
-0.4729607582426979,-0.4729607582426979,0.999743055964009,0.0002957569038927033
-0.4729077272910217,-0.4729077272910217,0.9999363020455719,0.00029947904487648297
-0.4728265499448753,-0.4728265499448753,0.9993591149658995,0.0003196899885237493
-0.4727050513945869,-0.4727050513945869,0.9997959855945323,0.0003099292312436567
-0.4726200438599335,-0.4726200438599335,0.9998651040149198,0.0003066611758334303
-0.47251264162841833,-0.47251264162841833,1.00037481320791,0.0003097200339309733
-0.4723789524417953,-0.4723789524417953,0.9997487583150907,0.0003007086589608066
-0.4722486442544323,-0.4722486442544323,1.0000455441033396,0.00030303934223724604
-0.47218321694381304,-0.47218321694381304,1.000202745794431,0.000310936748005647
-0.4720634279678052,-0.4720634279678052,1.0000768226153356,0.00029158945411023675
-0.4718765904384782,-0.4718765904384782,1.0003373743808837,0.0003062882068715107
-0.47171261064577263,-0.47171261064577263,0.9999265224255254,0.0003104191655771121
-0.47160443584434686,-0.47160443584434686,1.0004234714273001,0.0002836122256598581
-0.4715129183583485,-0.4715129183583485,1.0000678883659373,0.00030992062770032546
-0.47134798832048547,-0.47134798832048547,1.0000537715745053,0.0002989536294663722
-0.47127939398924357,-0.47127939398924357,0.9997389204767334,0.0003218192907020314
-0.47116087130780215,-0.47116087130780215,1.0002785378277665,0.0003138314647795622
-0.4709430511880782,-0.4709430511880782,1.0005644341490179,0.00031047526811471066
-0.47075730985670816,-0.47075730985670816,1.0000604487523268,0.00031220766533725876
-0.4706528979630093,-0.4706528979630093,1.0003267682296528,0.0003102601239595705
