time,time,flux,flux_err
-0.4999330494683818,-0.4999330494683818,1.0000331328837475,0.00010972131081185403
-0.4997817580466896,-0.4997817580466896,1.0000517310215817,0.00010732648418967138
-0.49954916805048316,-0.49954916805048316,1.0001930764221558,0.00010820407986149826
-0.49940884896786886,-0.49940884896786886,0.9999118955703148,9.946328723760422e-05
-0.49922805062960834,-0.49922805062960834,0.9999192423264743,0.00010062494711937168
-0.4991231503750896,-0.4991231503750896,0.9999948476258942,0.00010039773337289699
-0.4990269627451198,-0.4990269627451198,1.000054725890013,0.00010062070929286917
-0.4988336529233493,-0.4988336529233493,1.0001642283058898,9.956393055785975e-05
-0.49868664325622375,-0.49868664325622375,0.9999252293238158,9.94535013429087e-05
-0.49860377932782285,-0.49860377932782285,0.99980917911875,0.00010154276007224051
-0.49849871345213614,-0.49849871345213614,1.0001108860382073,0.00010008728350415093
-0.49843071431096175,-0.49843071431096175,1.0000246319523698,9.918449381095674e-05
-0.498319201025879,-0.498319201025879,1.0000882657728352,9.92958666899972e-05
-0.49824570734344886,-0.49824570734344886,1.0000026714256482,9.906781363717087e-05
-0.49809935060911814,-0.49809935060911814,1.0000482260351429,9.873267121607594e-05
-0.49794423292041756,-0.49794423292041756,0.9999602057957693,9.77540665943203e-05
-0.49778506917355114,-0.49778506917355114,1.000213292239001,9.95576823307105e-05
-0.4976977426558733,-0.4976977426558733,0.9999817519492111,9.952327011204128e-05
-0.4975765959796263,-0.4975765959796263,1.000012722608998,0.00010130618397984489
-0.49745361768000296,-0.49745361768000296,0.9998999009136357,0.00010088579039037161
-0.49735969757894055,-0.49735969757894055,0.9999821575843132,0.00010182120674127895
-0.49721287547436077,-0.49721287547436077,0.9998264828551383,9.9752353848546e-05
-0.49706026063649916,-0.49706026063649916,0.9999932129557362,9.869130458714384e-05
-0.496919722223538,-0.496919722223538,0.9999289787013987,9.989509847723999e-05
-0.4968465863581514,-0.4968465863581514,1.0000455063697318,0.00010067100581398292
-0.49680563041183634,-0.49680563041183634,0.9999539020019969,0.00010734388731252831
-0.49670930338616015,-0.49670930338616015,0.999983689948228,9.897291048085015e-05
-0.49653557255223857,-0.49653557255223857,1.0001392021995177,9.877382498322724e-05
-0.4964203267765697,-0.4964203267765697,0.9999436249628332,9.921948989903989e-05
-0.4963234320981428,-0.4963234320981428,0.9999413722991456,9.900711731466408e-05
-0.4961376553430455,-0.4961376553430455,0.9999346442872732,9.792625857102602e-05
-0.49597734218114053,-0.49597734218114053,1.0001836893893632,9.917396866070134e-05
-0.49580131194088606,-0.49580131194088606,0.9999557792189826,9.987721087965382e-05
-0.4957021889655152,-0.4957021889655152,0.9998121188362138,0.00010162284648443543
-0.4955776202637935,-0.4955776202637935,1.0000641845469225,0.00010176816600045042
-0.4953964571323013,-0.4953964571323013,0.9999786514081596,9.936011289040111e-05
-0.4951470681786304,-0.4951470681786304,0.9999199839738384,9.816175130881189e-05
-0.49506416645599527,-0.49506416645599527,1.0000286283407553,9.978510843385703e-05
-0.49499874181638004,-0.49499874181638004,1.0000030877492172,0.00010065260027557307
-0.4948372020473471,-0.4948372020473471,0.9999595430575484,9.840099050645254e-05
-0.4946701014850987,-0.4946701014850987,1.0000562768560066,9.912965647862048e-05
-0.49457377768703736,-0.49457377768703736,1.0000784687474542,9.951352549236222e-05
-0.49446567653503737,-0.49446567653503737,1.0000030476728077,9.789060100248827e-05
-0.4942535410431447,-0.4942535410431447,0.9998821064139886,9.923951359905263e-05
-0.49405778146465307,-0.49405778146465307,1.0000580937497476,0.00010030275031434099
-0.4939323046710342,-0.4939323046710342,1.000238567641134,0.00010062931391400722
-0.4938860246969853,-0.4938860246969853,0.9999094455437089,9.960471724634625e-05
-0.49371807792922484,-0.49371807792922484,1.0000178363949341,0.00010083941018993973
-0.4936208166938741,-0.4936208166938741,1.0000196354915518,9.943770224342045e-05
-0.49348018708697056,-0.49348018708697056,0.9998669779419668,9.831032483942334e-05
-0.493355381366564,-0.493355381366564,1.0000695374363064,0.00010315730856060802
-0.49324480843788476,-0.49324480843788476,1.0001468414725199,0.00010064639125889196
-0.4931614584464114,-0.4931614584464114,1.000203788291026,0.00010039418650040774
-0.4930217816552613,-0.4930217816552613,1.0001023690846769,9.865096973993535e-05
-0.49287791654933244,-0.49287791654933244,1.0001247807313043,9.883462254405935e-05
-0.4928130674030399,-0.4928130674030399,1.0000557038353866,0.00010001308264434188
-0.4926893976662541,-0.4926893976662541,1.0000850959689573,0.00010022238618905856
-0.4925172420713352,-0.4925172420713352,0.999903656657837,9.965890110465075e-05
-0.49236292397545184,-0.49236292397545184,1.000055628737694,0.00010042900063922653
-0.4922199523076415,-0.4922199523076415,0.9999040665081971,9.891727521147027e-05
-0.4921184070262825,-0.4921184070262825,1.000044587921571,0.00010107939278074314
-0.4919733249931596,-0.4919733249931596,1.0000245944899824,0.00010015455676555182
-0.4918493106873939,-0.4918493106873939,0.9998320938115471,9.995282624005732e-05
-0.4917347665177658,-0.4917347665177658,1.0000103335627375,9.723661939428231e-05
-0.49155169508012475,-0.49155169508012475,1.0000724987538576,0.00010049667906083391
-0.4914008394582197,-0.4914008394582197,0.9999018461050468,9.988178854036323e-05
-0.4912580206990242,-0.4912580206990242,1.0000707287717987,0.00010257031100499602
-0.49110726719663944,-0.49110726719663944,1.0000036877903227,9.90373129711582e-05
-0.49100099895731547,-0.49100099895731547,1.0001853469448228,9.973869195596837e-05
-0.4908469685819,-0.4908469685819,0.9998779131701128,9.971561358577926e-05
-0.49071512441150844,-0.49071512441150844,1.000054505211107,0.00010007508641445241
-0.4905133527412545,-0.4905133527412545,0.9998943851279136,0.00010052114886793347
-0.49032891337992623,-0.49032891337992623,0.9998031865064794,9.954968146392257e-05
-0.4902674462588038,-0.4902674462588038,1.0000883849835405,9.968797294121071e-05
-0.4901453423954081,-0.4901453423954081,0.9998939875088635,9.950376832984437e-05
-0.4900144848768832,-0.4900144848768832,1.0000811023770635,9.806168958687229e-05
-0.4898884921654826,-0.4898884921654826,0.9999864303757132,9.907639806284402e-05
-0.4896904027904384,-0.4896904027904384,1.0000665477543624,0.00010175640416896494
-0.48957284036441706,-0.48957284036441706,0.9999800662195175,0.00010078590610325211
-0.4894489742902806,-0.4894489742902806,1.0000313731405448,9.955194064207326e-05
-0.4893231756665045,-0.4893231756665045,1.0002263644749572,0.00010105282151947198
-0.4892150726955151,-0.4892150726955151,1.0000791802363647,9.911380632491361e-05
-0.48909979591844605,-0.48909979591844605,0.999954802454174,0.00010176263578133178
-0.4889725017652381,-0.4889725017652381,0.9998061686029169,9.953750684798342e-05
-0.48887836894136855,-0.48887836894136855,0.9998191196758235,9.974401905969413e-05
-0.4887697430938715,-0.4887697430938715,1.0000891935619345,9.942137080689044e-05
-0.48863298415089956,-0.48863298415089956,0.9999596122873982,9.781823476537423e-05
-0.4885778633353766,-0.4885778633353766,1.0000579239451568,9.963515496555938e-05
-0.48849260576826053,-0.48849260576826053,1.0001293156472624,0.00010257226690502696
-0.48824325228051746,-0.48824325228051746,1.0000672396369512,9.93070613886233e-05
-0.4880450949363876,-0.4880450949363876,0.9998784385452975,9.977026871306024e-05
-0.48789766934351064,-0.48789766934351064,1.0001063068614364,0.00010064990653489331
-0.4877771065424895,-0.4877771065424895,1.0000019950997954,9.934561085835295e-05
-0.4876486475783167,-0.4876486475783167,0.9998997316477961,0.00010076483332243349
-0.48754775734560096,-0.48754775734560096,0.9998560289216165,9.91621550460339e-05
-0.48737189412931914,-0.48737189412931914,1.0000476423916531,0.00010104631662586825
-0.4872504657367244,-0.4872504657367244,1.0000040547848301,0.00010057195641737669
-0.4871115499758162,-0.4871115499758162,0.9998689363944819,9.885204648355734e-05
-0.48697456102527215,-0.48697456102527215,1.0000661953301448,9.904828971677858e-05
-0.4869036740798037,-0.4869036740798037,0.9998804566218968,9.831160927481337e-05
-0.48672625825565774,-0.48672625825565774,1.0000923716971972,0.00010178813128427873
-0.4865399747824995,-0.4865399747824995,1.0000585851243036,9.907648849417627e-05
-0.48632340955373365,-0.48632340955373365,1.000071911407397,9.973232541404096e-05
-0.486168187650037,-0.486168187650037,1.0001454606087685,9.922089101648008e-05
-0.4859754529228667,-0.4859754529228667,0.9999524353115554,0.00010036384072975896
-0.48588074813887944,-0.48588074813887944,1.000155228630107,0.00010030911113241849
-0.4857034287211718,-0.4857034287211718,0.9999106686828092,0.0001011590295169579
-0.4855102016183082,-0.4855102016183082,0.999976507657688,9.998273695968449e-05
-0.4854091290384531,-0.4854091290384531,0.9999336831414585,9.75495361275758e-05
-0.48527731526119167,-0.48527731526119167,1.0000355380536643,9.791513224395345e-05
-0.48511882142629476,-0.48511882142629476,1.0000791448713326,9.984042659079212e-05
-0.4849601027381141,-0.4849601027381141,0.9999916509034247,9.9461855155562e-05
-0.4848064047546359,-0.4848064047546359,1.0000000561036735,9.915720786599713e-05
-0.48463397849409373,-0.48463397849409373,0.9999492966199934,0.00010133256014143802
-0.484413990797475,-0.484413990797475,1.000106269611167,0.00010010638229406867
-0.4842225977772614,-0.4842225977772614,0.9998724471846925,9.96600572787376e-05
-0.48408529500302394,-0.48408529500302394,1.0000758878578906,0.00010132033915182797
-0.4839955739589641,-0.4839955739589641,1.0000835953220562,9.926197295669306e-05
-0.4838899687601952,-0.4838899687601952,1.0000940672641605,0.00010136021010027141
-0.4837671517045237,-0.4837671517045237,1.0000238619633464,9.887288575308192e-05
-0.4836551829066593,-0.4836551829066593,1.0000478892770428,9.81480535055327e-05
-0.4835026180080604,-0.4835026180080604,1.0000904667638597,0.00010183594558300032
-0.4834044510673266,-0.4834044510673266,0.9999991032885992,9.927002364131656e-05
-0.48329443476104644,-0.48329443476104644,1.0001579878762357,0.00010036471809580826
-0.4831602313090116,-0.4831602313090116,0.9999158619653183,9.966886522437466e-05
-0.48307597952953074,-0.48307597952953074,1.0000443573367948,9.89042861426561e-05
-0.4828496100701159,-0.4828496100701159,0.9999240977337586,0.00010084045661370913
-0.482655975187663,-0.482655975187663,1.0001270250054188,9.952996226350178e-05
-0.48252144921571016,-0.48252144921571016,1.0000714364505032,9.886491929542466e-05
-0.4823754869576078,-0.4823754869576078,0.9999385278837731,9.993478039683069e-05
-0.482202347603743,-0.482202347603743,0.9999445565049951,0.00010033291981616356
-0.4821025156299584,-0.4821025156299584,1.0000092072598408,0.00010136860370597116
-0.4819613101630239,-0.4819613101630239,1.0001311523812504,9.857766924801535e-05
-0.48183808553148993,-0.48183808553148993,1.0001349304696558,9.903106825271451e-05
-0.48165395121031906,-0.48165395121031906,0.9999780806671792,0.00010013694583943008
-0.48147875361319165,-0.48147875361319165,1.0002546864316033,0.0001006396832548998
-0.48127809999568855,-0.48127809999568855,1.0000728164865667,0.00010073398409077268
-0.48112224707438145,-0.48112224707438145,1.000105360878814,9.947958352599651e-05
-0.48093126149033194,-0.48093126149033194,1.0002112403166534,9.920018599070392e-05
-0.48074400506448,-0.48074400506448,1.0001604588921706,9.946372511856233e-05
-0.4805596354475711,-0.4805596354475711,1.0000046452655884,0.0001012283693697947
-0.4804248379688943,-0.4804248379688943,1.000125708323195,9.95758842099965e-05
-0.48032853987533597,-0.48032853987533597,1.0002022847300247,0.0001004466023007064
-0.48022811476839705,-0.48022811476839705,0.9999932996412166,9.963244353794853e-05
-0.4800704491644865,-0.4800704491644865,0.9999520233293546,9.748600119268288e-05
-0.479915551940212,-0.479915551940212,1.000012231107946,0.00010060118323855833
-0.47976254243112637,-0.47976254243112637,1.0000217737265236,0.00010046375458195821
-0.47962452014908197,-0.47962452014908197,1.0000271279484099,0.00010060306373460275
-0.47945419531315564,-0.47945419531315564,0.9999309883530122,9.940378447264006e-05
-0.4793222762848018,-0.4793222762848018,1.0001007757590554,9.838014974238036e-05
-0.4792157518560998,-0.4792157518560998,1.0000889862285913,9.961218784350354e-05
-0.47901662612857765,-0.47901662612857765,1.0002648936593284,9.949123888629903e-05
-0.4788533769926289,-0.4788533769926289,1.000024222094477,0.00010070739244163776
-0.4786583824083209,-0.4786583824083209,0.9999769531345629,9.98152130513425e-05
-0.47855470297217834,-0.47855470297217834,1.0000313147660853,0.0001012354418720575
-0.47844079623464497,-0.47844079623464497,1.0000270578415746,9.903451687507821e-05
-0.4782379682786996,-0.4782379682786996,1.0000913875053332,9.885989195572706e-05
-0.4781145826214924,-0.4781145826214924,0.9999844504742468,9.997908341359955e-05
-0.47799772976432,-0.47799772976432,1.0000439181402154,0.00010073729065231609
-0.47782521955959967,-0.47782521955959967,1.0000395357010587,9.966605103253333e-05
-0.4776862065453315,-0.4776862065453315,1.0001689361478445,0.00010126486812958425
-0.4775736376614077,-0.4775736376614077,1.0000056962238908,9.917379404080118e-05
-0.4772864971368108,-0.4772864971368108,1.000018489857784,9.948202082015907e-05
-0.4770896112371702,-0.4770896112371702,0.9999265690695187,9.950435761678668e-05
-0.4770139271073276,-0.4770139271073276,1.0000614580008096,9.80856861381386e-05
-0.47690617982589173,-0.47690617982589173,1.0000055699512334,9.965135860071886e-05
-0.4768345268414123,-0.4768345268414123,1.0001422353748877,9.904235338611862e-05
-0.4767787647491787,-0.4767787647491787,1.0001691827648582,9.908661515722998e-05
-0.4766458893456729,-0.4766458893456729,1.000037614802446,9.804248408785806e-05
-0.47645715065300465,-0.47645715065300465,1.000141530322978,0.00010051365361402108
-0.4762204441765789,-0.4762204441765789,1.0000432165105901,0.00010004729178387613
-0.47607074239640496,-0.47607074239640496,0.9997684229378138,9.937849900292445e-05
-0.47596883010992314,-0.47596883010992314,0.9998737392120887,0.00010158595771401699
-0.47587126269645524,-0.47587126269645524,0.9999377604858586,0.00010039626878819766
-0.4756212264968781,-0.4756212264968781,0.9999860023250908,9.757923250676531e-05
-0.4754262691596523,-0.4754262691596523,1.0000578216659188,9.931239166365564e-05
-0.4753497063094983,-0.4753497063094983,1.0000317106503354,9.813033724041845e-05
-0.4752428573148791,-0.4752428573148791,1.000079219999848,9.961872010894786e-05
-0.4751482266554376,-0.4751482266554376,0.9999084244385884,9.80977201353559e-05
-0.475051742370124,-0.475051742370124,0.9999851662025027,9.969063190086558e-05
-0.47498729010985696,-0.47498729010985696,1.0001474316540524,9.805529716526964e-05
-0.4748120127391303,-0.4748120127391303,1.0001037579587444,9.950903498331635e-05
-0.4745624054776272,-0.4745624054776272,1.000039394204613,0.00010112574263020948
-0.4744117607042426,-0.4744117607042426,0.9999199413216022,9.941052480372664e-05
-0.4742981549614342,-0.4742981549614342,0.9999547163742427,0.00010051085708734624
-0.4741786857834086,-0.4741786857834086,1.0000765810543015,9.990254334763999e-05
-0.4739679115678882,-0.4739679115678882,0.9999035206832474,9.952235575797779e-05
-0.4738053599663544,-0.4738053599663544,1.0000683263392371,9.874866477454266e-05
-0.47368401612329764,-0.47368401612329764,1.0000494264740454,9.844250683763533e-05
-0.47361031310865653,-0.47361031310865653,0.9999177957820826,0.00010008591801332783
-0.4734940872207517,-0.4734940872207517,0.9999038309690802,9.8413172488955e-05
-0.47341004457557573,-0.47341004457557573,1.000045242925521,9.818040172600154e-05
-0.47329286407039034,-0.47329286407039034,1.0000292222389557,9.84560343544018e-05
-0.4731396852148464,-0.4731396852148464,1.0000513046194004,9.891010431469565e-05
-0.4729821309185354,-0.4729821309185354,1.0000035602640693,9.871872294751453e-05
-0.47279716344201006,-0.47279716344201006,1.0001560385554302,9.999491107049942e-05
-0.47265579889935905,-0.47265579889935905,1.0002478385683276,0.00010099272265538914
-0.4725646955688717,-0.4725646955688717,1.0000082402250092,0.00010071991990573783
-0.4725130343635101,-0.4725130343635101,1.0000019061117458,9.850571945289198e-05
-0.4723484415007988,-0.4723484415007988,0.9999489417652925,0.0001030380316147452
-0.4722287138894899,-0.4722287138894899,0.9998675480683626,0.00010026833767465798
-0.47201608371397014,-0.47201608371397014,0.9999080774366298,9.981776280977381e-05
-0.471938845058321,-0.471938845058321,1.0000456120344619,9.801244572253098e-05
-0.47185183863039126,-0.47185183863039126,1.0001649387358502,0.00010124774795072845
-0.4717244522558758,-0.4717244522558758,1.0001388274896912,9.780295874368137e-05
-0.47161910190188794,-0.47161910190188794,1.000176309306238,9.847527224451898e-05
-0.47147893032233695,-0.47147893032233695,1.0000265260479928,9.932773908187311e-05
-0.47132339981908444,-0.47132339981908444,1.0000894053753862,9.836416840201038e-05
-0.47122734542936084,-0.47122734542936084,0.9999135844161607,9.954237457200719e-05
-0.4711289439088432,-0.4711289439088432,1.0001152018606683,9.865898831723438e-05
-0.4709430114744464,-0.4709430114744464,0.9998450631392665,0.0001004926828084985
-0.4708610673813382,-0.4708610673813382,1.000015563340121,9.949607682731897e-05
-0.47079983915900814,-0.47079983915900814,1.0001976317030705,0.0001003460867845204
-0.4705761443648953,-0.4705761443648953,1.0001414417095806,0.00010140152329374478
-0.4704452892037807,-0.4704452892037807,1.0001007188279027,9.985674342266836e-05
-0.4702908724138979,-0.4702908724138979,1.0000949369883207,0.00010041103441917061
-0.4702054777386365,-0.4702054777386365,0.9999084691697245,9.849529003547078e-05
-0.47013869014917875,-0.47013869014917875,1.0000830201495419,9.920615720094863e-05
-0.4700459771993337,-0.4700459771993337,0.9998643543253068,9.79211055381526e-05
-0.46991841450799254,-0.46991841450799254,1.0000112726174677,0.00010019610316539784
-0.4697402624500683,-0.4697402624500683,1.0002643138900043,9.872201352454243e-05
-0.469557610238553,-0.469557610238553,1.0000039032684114,9.898345849713914e-05
-0.46936498416471295,-0.46936498416471295,0.9999272792009514,9.9368670406141e-05
-0.4692075564758852,-0.4692075564758852,0.999944015902353,0.00010099815655820379
-0.4691453133331379,-0.4691453133331379,1.0000132619097057,0.00010027216647594179
-0.46898511676699856,-0.46898511676699856,0.9999604984389073,9.96825903147338e-05
-0.46880020541429984,-0.46880020541429984,1.0000829659700057,0.00010056085027421963
-0.468712836492341,-0.468712836492341,0.9998395256587924,9.992542353597797e-05
-0.4685942912794417,-0.4685942912794417,0.999886159323629,9.923243387393297e-05
-0.46852398884657304,-0.46852398884657304,1.0001558210003032,0.00010013344967878422
-0.4684331425232813,-0.4684331425232813,0.9999672461136658,9.932619575708493e-05
-0.46834729102265554,-0.46834729102265554,0.9999721717619057,9.733366156126832e-05
-0.46827296655683315,-0.46827296655683315,0.9999701625975697,9.948423790260633e-05
-0.46813983876199927,-0.46813983876199927,1.000034962914053,9.919799001435758e-05
-0.4679784562205896,-0.4679784562205896,0.9998839823132935,9.775232996088658e-05
-0.46781776087882465,-0.46781776087882465,0.9999415206567608,9.987703297525301e-05
-0.46764434220676776,-0.46764434220676776,1.0001028412494153,0.0001004866319698118
-0.4675076670479029,-0.4675076670479029,0.9999776026937125,0.00010049937908480715
-0.46741534159809817,-0.46741534159809817,0.9999196986241643,0.00010059669638201336
-0.46726612987113186,-0.46726612987113186,1.000056916344621,9.861540586610428e-05
-0.4670530496252468,-0.4670530496252468,1.0000006013125362,9.905439449998412e-05
-0.46694859199924393,-0.46694859199924393,1.0000365416773604,0.00010013504176676943
-0.46689499222266023,-0.46689499222266023,0.9998761568206811,0.00010762593415599155
-0.4668514266726561,-0.4668514266726561,1.000024365595282,9.835703436035073e-05
