time,time,flux,flux_err
-0.49940815181616927,-0.49940815181616927,0.9999693803600703,9.078513698903191e-05
-0.4986230218237324,-0.4986230218237324,1.0000374000878696,8.970716899590412e-05
-0.49783111777651357,-0.49783111777651357,0.9999263353862607,8.930325145029145e-05
-0.49669632534350966,-0.49669632534350966,0.9999949264744732,8.368420127847739e-05
-0.49607293897424826,-0.49607293897424826,1.0001663398253808,8.050022399230674e-05
-0.4954649592691567,-0.4954649592691567,0.9998994232520921,8.515129444254654e-05
-0.4944864004428382,-0.4944864004428382,0.9999762276476554,8.361649360873863e-05
-0.4937905286220484,-0.4937905286220484,0.9999724547585288,8.368116024836983e-05
-0.49288983960577754,-0.49288983960577754,1.0000867394324253,8.523588827994915e-05
-0.4921404130422161,-0.4921404130422161,0.9999207656837564,8.051243311449691e-05
-0.49125137048977197,-0.49125137048977197,0.9999419404766575,8.513504574304476e-05
-0.49039564881677505,-0.49039564881677505,1.0001559713915906,8.5190669279946e-05
-0.48968820153386333,-0.48968820153386333,0.9999062437336098,8.207088093439922e-05
-0.48888052320689895,-0.48888052320689895,1.000060534572441,8.365322512643901e-05
-0.4881646065099631,-0.4881646065099631,1.0000379149801417,8.218123735569378e-05
-0.4873341431375593,-0.4873341431375593,1.000053564401259,8.206450540817026e-05
-0.48634250970935683,-0.48634250970935683,0.9999685534508489,8.362811154610598e-05
-0.48550412110926117,-0.48550412110926117,0.9998072939681257,8.050235934560625e-05
-0.48502764347649646,-0.48502764347649646,0.9999958579254263,8.359075704029795e-05
-0.4841610226983903,-0.4841610226983903,0.9999979207349108,8.366526612254305e-05
-0.4832534038621816,-0.4832534038621816,1.0001072603596608,8.51925780290755e-05
-0.4823112262689392,-0.4823112262689392,1.0000341514150846,8.518133638932076e-05
-0.48140401291748275,-0.48140401291748275,0.9999803201548904,8.05212525316268e-05
-0.4807216159213567,-0.4807216159213567,1.000013561539298,8.353670590828064e-05
-0.47981656679039586,-0.47981656679039586,1.0000046918627237,8.2050150293655e-05
-0.4789388090677676,-0.4789388090677676,1.0001000416901764,8.204863219075582e-05
-0.47853937263716945,-0.47853937263716945,0.9999658897782876,8.053549741716929e-05
-0.4778144094831077,-0.4778144094831077,0.9999435273127251,8.362298319954094e-05
-0.4768602320269565,-0.4768602320269565,0.9999839391994201,8.513728317399274e-05
-0.47608122054080015,-0.47608122054080015,0.9998181129068472,8.20483432130095e-05
-0.4750140563584864,-0.4750140563584864,0.9999703445321424,8.367178234501544e-05
-0.4743095509329578,-0.4743095509329578,1.0000606781045713,8.359293820432991e-05
-0.47334111344098345,-0.47334111344098345,1.0000931296014164,8.51856459381609e-05
-0.47248557520942996,-0.47248557520942996,0.9999942832415532,8.515369259456676e-05
-0.47178140235628235,-0.47178140235628235,1.0000160545217427,8.215688004370298e-05
-0.470899085275596,-0.470899085275596,1.000090539832725,8.211217635895731e-05
-0.4702480558989919,-0.4702480558989919,1.0001601233077717,8.044061574291562e-05
-0.46919991906615904,-0.46919991906615904,1.0000128505378085,8.36025277931027e-05
-0.468107377969136,-0.468107377969136,1.0000965994341349,8.050685861525999e-05
-0.4676539873005822,-0.4676539873005822,0.9999009439921174,8.213245364327444e-05
-0.4669510122097563,-0.4669510122097563,1.0000563827017137,8.360589334330205e-05
-0.46594147424766563,-0.46594147424766563,0.9999355876515048,8.360919050578571e-05
-0.46538132743735333,-0.46538132743735333,1.0000388241381268,8.364457926014196e-05
-0.46437029302469457,-0.46437029302469457,1.0001062593966707,8.413364406181076e-05
-0.46362036716745936,-0.46362036716745936,0.9999590361763623,8.206554048854225e-05
-0.4627094104173011,-0.4627094104173011,0.999984307506265,8.364847355529942e-05
-0.4617810663403361,-0.4617810663403361,0.999885531819546,8.516256854977984e-05
-0.46116697956022107,-0.46116697956022107,1.0000963204455398,8.210601141297907e-05
-0.4601992022260674,-0.4601992022260674,0.9999886475912596,8.361485292938112e-05
-0.45958128406928156,-0.45958128406928156,0.9999894651445237,8.051596327743016e-05
-0.4586770213471027,-0.4586770213471027,0.999942013457271,8.203052005917297e-05
-0.45759600780002074,-0.45759600780002074,1.0000709201747942,8.373143136484241e-05
-0.4570457692214404,-0.4570457692214404,1.0000019760394256,8.049553727669631e-05
-0.45652621983463176,-0.45652621983463176,1.000045952388263,8.365163654759358e-05
-0.4555948086883291,-0.4555948086883291,1.000007014879614,8.514849161287467e-05
-0.45478429827053335,-0.45478429827053335,1.00001938034992,8.364550942235802e-05
-0.4539576964860316,-0.4539576964860316,1.000005767033836,8.38317958300684e-05
-0.4532223839749349,-0.4532223839749349,1.000030957338885,8.211503148014103e-05
-0.4522809652276919,-0.4522809652276919,0.9999907279635192,8.359305176930247e-05
-0.451459531688306,-0.451459531688306,0.9999828158012395,8.518979336877096e-05
-0.4507127684599254,-0.4507127684599254,1.0000907910445935,8.206085339891533e-05
-0.4499619086593157,-0.4499619086593157,1.0001231937857578,8.362953910136437e-05
-0.4492300476093078,-0.4492300476093078,1.0000949787069184,8.207440116857973e-05
-0.4484395758045139,-0.4484395758045139,0.9999275269946949,8.066295533727082e-05
-0.4477214710539556,-0.4477214710539556,1.0000496599167397,8.359530590588572e-05
-0.4467768353453721,-0.4467768353453721,1.0000267710643373,8.214129408883855e-05
-0.44621065568353513,-0.44621065568353513,1.0000173750109835,8.051418458929877e-05
-0.4456279619553243,-0.4456279619553243,0.9999872366497478,8.514443579477047e-05
-0.444632283077226,-0.444632283077226,1.0000444262066979,8.362011282949709e-05
-0.4439473086531507,-0.4439473086531507,1.0000209448003088,8.369099118552413e-05
-0.44304202614584937,-0.44304202614584937,1.0000110717424788,8.517442799685402e-05
-0.4422813657220104,-0.4422813657220104,0.9998722770570764,8.050883469857035e-05
-0.44154414531367364,-0.44154414531367364,0.9999032248183359,8.512552685388007e-05
-0.4408873686945299,-0.4408873686945299,0.999876323708954,8.049943904478103e-05
-0.4401239646846079,-0.4401239646846079,0.999959146964778,8.362871761921639e-05
-0.43938392241107066,-0.43938392241107066,1.000213724827401,8.211696119914279e-05
-0.4385910328404862,-0.4385910328404862,0.9999428085082422,8.36183413239739e-05
-0.4376352543840767,-0.4376352543840767,0.9999258987232423,8.20968899887238e-05
-0.4367005065068952,-0.4367005065068952,0.9999863441804981,8.368606194206161e-05
-0.43576823737384984,-0.43576823737384984,0.9999220246804306,8.206699009665107e-05
-0.4352755338710267,-0.4352755338710267,1.0000842085169654,8.208553557724908e-05
-0.43441052132548064,-0.43441052132548064,0.999992718188199,8.515907836334918e-05
-0.43355081717745636,-0.43355081717745636,0.9999212089372858,8.517806542107149e-05
-0.43274843414110364,-0.43274843414110364,1.000015068508173,8.213149328036736e-05
-0.43186700177757303,-0.43186700177757303,1.0000340654237667,8.369497958182047e-05
-0.43111609658953964,-0.43111609658953964,0.9998424261162523,8.198338572406805e-05
-0.43035264195059425,-0.43035264195059425,0.9999109543081692,8.20626960427075e-05
-0.42920544177031844,-0.42920544177031844,1.0000615314945274,8.203813984122056e-05
-0.4286756485205842,-0.4286756485205842,1.000039803350144,8.053420319124384e-05
-0.42796492768102323,-0.42796492768102323,0.9999658236947052,8.362777674075015e-05
-0.42701303360954623,-0.42701303360954623,1.0000569219507702,8.513157039639863e-05
-0.426291630124615,-0.426291630124615,0.9999631411732427,8.364217668822403e-05
-0.42534711022890404,-0.42534711022890404,1.0001622165472812,8.364691545924223e-05
-0.4245880078495247,-0.4245880078495247,1.0000226490211936,8.04931249624106e-05
-0.42368657456245273,-0.42368657456245273,1.000010922183958,8.51445156543033e-05
-0.42280520311760483,-0.42280520311760483,0.9998097515006716,8.666150520812404e-05
-0.42226841247902486,-0.42226841247902486,0.9999741253473443,8.208943098443055e-05
-0.42152540344832234,-0.42152540344832234,1.000043972859715,8.210824891034708e-05
-0.42079813733143967,-0.42079813733143967,1.0000214941499634,8.05734362434282e-05
-0.41999859448405913,-0.41999859448405913,1.0000200860765263,8.199897204398516e-05
-0.4188776392067666,-0.4188776392067666,1.0000141806260623,8.539001621021929e-05
-0.41813548325008015,-0.41813548325008015,1.0000867179891495,8.051278948627113e-05
-0.4176946181090898,-0.4176946181090898,0.9999579903903921,8.209710657739342e-05
-0.41690646202478093,-0.41690646202478093,0.9999468754753961,8.363006789896348e-05
-0.41593710541055773,-0.41593710541055773,1.000100052715278,8.202139514585064e-05
-0.41541202591033655,-0.41541202591033655,1.0000725628286333,8.520513844957256e-05
-0.4145181165120448,-0.4145181165120448,1.0000425189097641,8.392363808408335e-05
-0.4137624325827346,-0.4137624325827346,0.9998777502446499,8.206007926817104e-05
-0.41286350823938844,-0.41286350823938844,0.99989168874817,8.36266070978082e-05
-0.41194776472548256,-0.41194776472548256,0.9999071914722298,8.516472975875025e-05
-0.4113033088389784,-0.4113033088389784,1.0000998725035726,8.211199726343436e-05
-0.41034843446541347,-0.41034843446541347,0.9999846785994018,8.362221631704855e-05
-0.40972738795826447,-0.40972738795826447,1.00000364874239,8.247020249666928e-05
-0.4091387619249872,-0.4091387619249872,1.0000480315809122,8.043404460105838e-05
-0.4081368823593948,-0.4081368823593948,1.0001383669688586,8.52385838121536e-05
-0.4073077076682239,-0.4073077076682239,0.9999566683777896,8.053194207374218e-05
-0.40683109626697844,-0.40683109626697844,1.000087838786131,8.361697946871033e-05
-0.4059408660439658,-0.4059408660439658,1.0001650984257313,8.368443615459223e-05
-0.4050486229316448,-0.4050486229316448,0.9999990492563844,8.36397113885688e-05
-0.4043202500572079,-0.4043202500572079,1.0000319664801558,8.521887645930568e-05
-0.40348916274670044,-0.40348916274670044,1.0001673942996423,8.22201490534026e-05
-0.4026553066825727,-0.4026553066825727,1.0000599610164251,8.358359210130004e-05
-0.4017799776571337,-0.4017799776571337,1.000091624716433,8.36574638063724e-05
-0.4009810234463657,-0.4009810234463657,0.9999906022721742,8.361063676122599e-05
-0.4002926384535385,-0.4002926384535385,0.9999237744595113,8.206021106998024e-05
-0.39952647640748185,-0.39952647640748185,0.9999506768290866,8.211031254392463e-05
-0.398673778277589,-0.398673778277589,1.0000054813394184,8.216742659102244e-05
-0.39787421205401186,-0.39787421205401186,0.999917228154979,8.360570976947369e-05
-0.396805334079545,-0.396805334079545,1.0001799010217787,8.367448611177312e-05
-0.3962257875056821,-0.3962257875056821,0.9998909624047629,8.0470698447499e-05
-0.395613024609338,-0.395613024609338,1.0000953487446835,8.365677898630925e-05
-0.39459600080299423,-0.39459600080299423,0.9999630187326932,8.515543956333828e-05
-0.39397217277728486,-0.39397217277728486,0.999927556528301,8.36928487531722e-05
-0.3929373980179662,-0.3929373980179662,0.9999130902803289,8.518523745805741e-05
-0.39215436381200564,-0.39215436381200564,1.0000695931030803,7.882377306211088e-05
-0.3914502489307779,-0.3914502489307779,1.0000238866247881,8.357386481045583e-05
-0.39059737574862086,-0.39059737574862086,0.9999064623028296,8.517186773556034e-05
-0.3898517727458966,-0.3898517727458966,0.9998773458151795,8.048443088645024e-05
-0.3891604668009677,-0.3891604668009677,1.000024677070138,8.516823412308287e-05
-0.3883240760376793,-0.3883240760376793,1.0000684866297918,8.21448416687609e-05
-0.3874538973541348,-0.3874538973541348,1.0000413301468867,8.208019828376026e-05
-0.3864359706145478,-0.3864359706145478,1.000043349672772,8.516725124325884e-05
-0.38566809731273677,-0.38566809731273677,1.000093994376115,8.049015801792705e-05
-0.3849867879471276,-0.3849867879471276,1.0000341230351855,8.359144617297153e-05
-0.38404160798236264,-0.38404160798236264,1.0001357240713542,8.669647693785957e-05
-0.3832223028788576,-0.3832223028788576,0.9999445133229244,8.215176865241684e-05
-0.3824036016332684,-0.3824036016332684,1.0000045940344207,8.363185700583534e-05
-0.3817086420094711,-0.3817086420094711,1.0000104427257488,8.055578655086126e-05
-0.381050207510998,-0.381050207510998,0.9999866262615488,8.354179065186809e-05
-0.3801435706904158,-0.3801435706904158,0.9999325832834309,8.205198404598272e-05
-0.37917717086384073,-0.37917717086384073,1.0000659361296773,8.207596582866389e-05
-0.37881214982189704,-0.37881214982189704,1.0000683272657784,8.053885687333572e-05
-0.37811565297888594,-0.37811565297888594,1.000090041280377,8.364626001909879e-05
-0.37716888988943537,-0.37716888988943537,0.9998563570285792,8.511915722406005e-05
-0.37644717214716367,-0.37644717214716367,1.0000202664091082,8.36614680401005e-05
-0.375313597258355,-0.375313597258355,0.9999512163376032,8.36603259156119e-05
-0.3744779716740595,-0.3744779716740595,1.0001946675883209,8.35855098756085e-05
-0.3735802146082278,-0.3735802146082278,0.9999354942005338,8.366045016351338e-05
-0.3726744080893695,-0.3726744080893695,0.9999957542629389,8.515090239258466e-05
-0.37205574212857756,-0.37205574212857756,0.9999094843651337,8.213211554619514e-05
-0.37124405132781246,-0.37124405132781246,1.0001391895511424,8.363539371268155e-05
-0.37063401212362806,-0.37063401212362806,1.000079574984099,8.051179042777114e-05
-0.36972678997699404,-0.36972678997699404,1.000064794830564,8.203285955792388e-05
-0.3686421498947311,-0.3686421498947311,0.9999823936201043,8.375923763255947e-05
-0.368098265118897,-0.368098265118897,1.0000325588606374,8.050943421774668e-05
-0.3675673149060458,-0.3675673149060458,0.9999967746219482,8.364253152785066e-05
-0.3666364817967406,-0.3666364817967406,0.9999052963305008,8.515177092762645e-05
-0.36582675963436484,-0.36582675963436484,1.0000937659115068,8.364318450557515e-05
-0.36500259507301963,-0.36500259507301963,0.9999158932933376,8.387495341259839e-05
-0.36426862124499165,-0.36426862124499165,1.0000699587564015,8.210223061565021e-05
-0.36332561456074475,-0.36332561456074475,1.0000967673742436,8.357754233365195e-05
-0.3624991451200913,-0.3624991451200913,0.9999939672269562,8.519244429811259e-05
-0.36176263636298245,-0.36176263636298245,1.000019691036099,8.205448506484404e-05
-0.36100671439926374,-0.36100671439926374,0.9999418702395968,8.36255407009221e-05
-0.3602732779894723,-0.3602732779894723,0.9999259649842124,8.208042263442087e-05
-0.35949872420023893,-0.35949872420023893,1.000050304972063,8.0714820759854e-05
-0.3587647617343464,-0.3587647617343464,1.0001331517482677,8.36053342206998e-05
-0.35770171336189377,-0.35770171336189377,0.9999988695059278,8.370243276069648e-05
-0.35714153744338545,-0.35714153744338545,1.000060841002126,8.048622747501166e-05
-0.35650730359193405,-0.35650730359193405,0.9998885802962676,8.364072357635944e-05
-0.3554715436694096,-0.3554715436694096,0.9999910616391521,8.514784561059004e-05
-0.3548696135054342,-0.3548696135054342,0.99994865589508,8.36926789851179e-05
-0.3539172494871309,-0.3539172494871309,1.000144227344272,8.368345400988302e-05
-0.3531426554400241,-0.3531426554400241,1.0001431558245522,8.208101252818272e-05
-0.352284977598174,-0.352284977598174,1.0000254478441268,8.36352264094278e-05
-0.3514177727367496,-0.3514177727367496,0.999890919739844,8.669518062923383e-05
-0.35077634238405153,-0.35077634238405153,1.0002038977756056,8.05074537692295e-05
-0.3499076454361784,-0.3499076454361784,0.9999529936166235,8.365819386695725e-05
-0.34912967220298013,-0.34912967220298013,1.0000056683959593,8.370322667344176e-05
-0.3483697479503462,-0.3483697479503462,1.00006769845698,8.206741604869135e-05
-0.3473223128108657,-0.3473223128108657,0.9999998117508252,8.363036781260426e-05
-0.34657646085106536,-0.34657646085106536,0.9999681392670776,8.048293037862742e-05
-0.3460785556526389,-0.3460785556526389,0.9999147649845085,8.513041161187073e-05
-0.34495218012307305,-0.34495218012307305,0.9999197653051487,8.365555401931501e-05
-0.34412034906999905,-0.34412034906999905,0.9999339015576238,8.369941008008228e-05
-0.3432717131450772,-0.3432717131450772,0.999838099179161,8.364267241659401e-05
-0.3423883399169426,-0.3423883399169426,0.9999524692056776,8.206164896786415e-05
-0.34140637131786206,-0.34140637131786206,0.9999658967741137,8.36146432676903e-05
-0.3402536522815353,-0.3402536522815353,0.9999148136956506,8.20296520766572e-05
-0.3397261656951741,-0.3397261656951741,1.0000755581013157,8.055440051771357e-05
-0.33900911700329744,-0.33900911700329744,0.999918590863162,8.362929385360086e-05
-0.3380561318161199,-0.3380561318161199,1.000040106905551,8.514977057868334e-05
-0.3372716100915568,-0.3372716100915568,0.9999737789603891,8.205720296566479e-05
-0.33620827393460784,-0.33620827393460784,0.9999711776672541,8.366655357044692e-05
-0.3354768279954442,-0.3354768279954442,0.9999466325612693,8.20507616425614e-05
-0.33454316081624713,-0.33454316081624713,0.999987816327115,8.51825738466577e-05
-0.33368898612097836,-0.33368898612097836,1.000023337447086,8.517160714121998e-05
-0.33296863625437256,-0.33296863625437256,0.9999852530532584,8.21519701188993e-05
-0.3320879609891563,-0.3320879609891563,1.0001902114206476,8.210596313314538e-05
-0.33143021337455136,-0.33143021337455136,0.9999589955619598,8.043513886364061e-05
-0.330395301648241,-0.330395301648241,1.0000280808227369,8.359590663426555e-05
-0.32938572205312083,-0.32938572205312083,0.9999194367778509,8.235164331918243e-05
-0.3289488750291639,-0.3289488750291639,0.999986036552898,8.053509906974468e-05
-0.32826658445992507,-0.32826658445992507,0.9999151928633687,8.364408026574337e-05
-0.3273249676218256,-0.3273249676218256,0.9998878498183761,8.513624387517169e-05
-0.32668572373950155,-0.32668572373950155,0.9999473776544313,8.363619056624868e-05
-0.3257648674611119,-0.3257648674611119,0.9999401320460738,8.400905949937698e-05
-0.32500581216881985,-0.32500581216881985,1.0000010188710373,8.051222058002283e-05
-0.3240500893749413,-0.3240500893749413,1.0000253465468825,8.513902387091714e-05
-0.3231818507774733,-0.3231818507774733,1.0000233568555963,8.517426634007335e-05
-0.3224868434801465,-0.3224868434801465,0.9999278076318637,8.21102551378847e-05
-0.32153093867818827,-0.32153093867818827,1.0000525150191673,8.206558297929789e-05
-0.32093881648324896,-0.32093881648324896,0.9998717663770875,8.212664023236884e-05
-0.3203524933225708,-0.3203524933225708,0.9999749832054429,8.241600221274991e-05
-0.31938721263431946,-0.31938721263431946,0.9999035003528434,8.362949307471899e-05
-0.31851873505220285,-0.31851873505220285,0.9999549091630657,8.217231798699784e-05
-0.31805774006643334,-0.31805774006643334,0.9999031330165948,8.049028393445952e-05
-0.3174020560240024,-0.3174020560240024,0.9999437488204276,8.364859338564651e-05
-0.31636920954188097,-0.31636920954188097,0.9999882067505856,8.360917509252605e-05
-0.31574586315109626,-0.31574586315109626,1.0001389616667766,8.522507995514397e-05
-0.31481415842281424,-0.31481415842281424,0.9999308063857081,8.375645165324057e-05
-0.314047345041763,-0.314047345041763,0.9999551243870503,8.205685360289072e-05
-0.3131724070524797,-0.3131724070524797,0.9999915138124376,8.362453265924451e-05
-0.3122821981509333,-0.3122821981509333,1.0000931204021648,8.667580474991664e-05
-0.3117013637893251,-0.3117013637893251,0.9999441050309091,8.050967644563624e-05
-0.31079351464723004,-0.31079351464723004,1.0000117406248978,8.36519962530394e-05
-0.3100754057159065,-0.3100754057159065,1.0000352401896446,8.219900020104723e-05
-0.309389684748021,-0.309389684748021,1.0000666416214379,8.204776373220627e-05
-0.30843651574396064,-0.30843651574396064,0.9999602222600427,8.363249451557026e-05
-0.30759630401153115,-0.30759630401153115,0.9998587620729051,8.050742729172252e-05
-0.3071218361335923,-0.3071218361335923,0.9999203462076117,8.359456941977393e-05
-0.3062469262455124,-0.3062469262455124,0.9999195571411598,8.365629705963901e-05
-0.3053508759243414,-0.3053508759243414,1.0000964049816488,8.516625726349693e-05
-0.3046455499017611,-0.3046455499017611,1.0000523749402874,8.369854454496904e-05
-0.30366165453597205,-0.30366165453597205,0.9999733439624053,8.210046466964748e-05
