time,time,flux,flux_err
-0.49995573941487237,-0.49995573941487237,1.0000492370594394,0.0002515800809471354
-0.4998319416057105,-0.4998319416057105,1.0001965782296156,0.00021424554113257617
-0.49966688451119506,-0.49966688451119506,0.9994073958392936,0.0003060755103243175
-0.49951146512612465,-0.49951146512612465,0.9996629042759887,0.0002798449824357377
-0.49939209910662613,-0.49939209910662613,1.0002273486241884,0.00023886870100424412
-0.49932617525628303,-0.49932617525628303,1.0000031250565398,0.00020864810365595066
-0.49915170542226406,-0.49915170542226406,0.9997951473377171,0.00023330028101854823
-0.4990199865816976,-0.4990199865816976,1.0000814759615522,0.0002176280906036684
-0.49888274692639245,-0.49888274692639245,0.9998630536763304,0.0002365794203662513
-0.49867623793543314,-0.49867623793543314,0.9999707258825588,0.00021252819032446614
-0.49853819979616676,-0.49853819979616676,1.0000661968492672,0.00020976547762313196
-0.4984119067608844,-0.4984119067608844,1.0001874647276292,0.00023652679650094975
-0.4982601190233254,-0.4982601190233254,0.9997926925587957,0.00020094929000300668
-0.49815825897239846,-0.49815825897239846,1.0000869830490138,0.0002083462512565598
-0.498035698995227,-0.498035698995227,0.9997314092527496,0.00021108482323862267
-0.49786014435085235,-0.49786014435085235,1.0001944601533022,0.00023593728443927734
-0.497689225130307,-0.497689225130307,1.0001423355715997,0.00020803449753009802
-0.4975162640796043,-0.4975162640796043,1.0001805116546678,0.0002087622246297436
-0.4974059450614732,-0.4974059450614732,0.9998310547293471,0.0002636287047938965
-0.4972668610935216,-0.4972668610935216,0.9999317813649219,0.00021722459876949717
-0.497110425606661,-0.497110425606661,1.0000189928354177,0.0002120071683538078
-0.4970281896996312,-0.4970281896996312,0.9996518975296687,0.00020055844524778562
-0.4969173163219239,-0.4969173163219239,1.0001254252455483,0.00025628653875751174
-0.4967984307237202,-0.4967984307237202,0.9997843533550819,0.00021936193229055083
-0.496683480743377,-0.496683480743377,1.000430332734285,0.0002120742403524242
-0.49662597590941004,-0.49662597590941004,1.0001863986991524,0.00021007536784238968
-0.4964624942294904,-0.4964624942294904,1.00006737129739,0.00021197357869782142
-0.4963384187183692,-0.4963384187183692,1.0001952291640053,0.00023583075852879202
-0.4962358733988367,-0.4962358733988367,1.0004343180534687,0.00020836263269246414
-0.4961481753518456,-0.4961481753518456,1.0000014838516242,0.00021429993223591026
-0.4960372847155668,-0.4960372847155668,0.9999449496711559,0.00020564968547007772
-0.4959404108711169,-0.4959404108711169,1.0001403412309517,0.00024431760607456686
-0.495822631464398,-0.495822631464398,0.9998869864437492,0.00020910731205699856
-0.49573469573224427,-0.49573469573224427,0.9999623975694671,0.00020300642811134638
-0.49559219612419836,-0.49559219612419836,1.0001138211738105,0.00022157318740499511
-0.4955107378089451,-0.4955107378089451,0.9997354585212866,0.00020514375309541223
-0.49537935557309537,-0.49537935557309537,0.9999454317765799,0.0002030875762132595
-0.4952522515755845,-0.4952522515755845,0.9998373501945004,0.00020165232519938806
-0.4951736653136322,-0.4951736653136322,1.0001652462259747,0.0002038476089674366
-0.4951001408029697,-0.4951001408029697,1.0001333649468576,0.00021369402226665996
-0.49494215272716247,-0.49494215272716247,1.0000689813326011,0.00020846035614350216
-0.49477284173917724,-0.49477284173917724,1.00007748666112,0.00020913689649521214
-0.49465659539273477,-0.49465659539273477,1.000195343069598,0.00020975255914550025
-0.4944545291364193,-0.4944545291364193,0.9998698079381814,0.00021065186497556504
-0.49428589033777826,-0.49428589033777826,0.99998642135794,0.00021142622876621332
-0.4941220998807694,-0.4941220998807694,0.999932176258941,0.0002641824364841601
-0.49392085026483984,-0.49392085026483984,1.0001841618037184,0.00021753700657538294
-0.4937514861216187,-0.4937514861216187,1.00026112153598,0.00021681677866318338
-0.49361599809053586,-0.49361599809053586,1.0000127129318541,0.00024063259425168227
-0.49348687333695124,-0.49348687333695124,0.9999410809533289,0.00021050049814660168
-0.4933972289742087,-0.4933972289742087,1.000208676332689,0.0002043400042361867
-0.49328537102410336,-0.49328537102410336,0.9999838951653368,0.0002132766044314513
-0.49323086781660097,-0.49323086781660097,1.0002415935271958,0.00020869730481778685
-0.4931092941580573,-0.4931092941580573,1.0001820012224178,0.00020284109885489074
-0.4930081097088987,-0.4930081097088987,0.99981292969956,0.0002087702247289663
-0.49291592520894484,-0.49291592520894484,1.0000147633181171,0.00021160409265630754
-0.49281044616072905,-0.49281044616072905,1.0000851624837355,0.00020374542819049467
-0.4927196358679794,-0.4927196358679794,1.000209962463156,0.0002168489556434265
-0.49260135868680666,-0.49260135868680666,0.9999546073680389,0.00021265008737060358
-0.4925001673604129,-0.4925001673604129,0.9998676338401526,0.00020565499598441603
-0.49238341822783693,-0.49238341822783693,0.9996686824889034,0.00027142234229862435
-0.4922900442732498,-0.4922900442732498,0.9998613067882056,0.00020613368724501637
-0.49219044766650766,-0.49219044766650766,1.000214016677559,0.00021425570182888437
-0.49199932532501406,-0.49199932532501406,1.0001945181430891,0.0002034150811771818
-0.49190948355535513,-0.49190948355535513,1.0000573414899931,0.00020654391897129894
-0.49173072535340906,-0.49173072535340906,1.0001688748127342,0.000205647061238093
-0.4915400479207165,-0.4915400479207165,0.9998959969012462,0.00020583351845549137
-0.49141143049055247,-0.49141143049055247,0.9997895875310508,0.00020460116006175514
-0.49130271511385215,-0.49130271511385215,0.9997959687371661,0.00024255244234215609
-0.4911643751722295,-0.4911643751722295,1.0001022293618669,0.00022898184855282746
-0.4910310489271069,-0.4910310489271069,1.0000118882179834,0.00021362209190086174
-0.4908546385544469,-0.4908546385544469,1.0000886837071818,0.00023749774446929047
-0.49072648084838877,-0.49072648084838877,0.9998913877935334,0.00023904732985613589
-0.4905911798821762,-0.4905911798821762,1.0000496568293478,0.00021354028325409007
-0.4904311009973753,-0.4904311009973753,1.0001372191190474,0.00024656585815497397
-0.490362267997989,-0.490362267997989,0.9998082176895544,0.00020905088811416306
-0.4903039064651239,-0.4903039064651239,0.9998503182274175,0.0002065512644832848
-0.49017114155722086,-0.49017114155722086,0.9996854042939021,0.00024204235708788084
-0.4900458975753281,-0.4900458975753281,1.0002129122131762,0.00020881684045960769
-0.4899544235726353,-0.4899544235726353,1.0001065301171135,0.00022106172161591737
-0.48990248519112356,-0.48990248519112356,0.999837966201172,0.00023414888080248918
-0.48976568011858035,-0.48976568011858035,0.9996783122146239,0.00020944408517392416
-0.48965261618577643,-0.48965261618577643,1.0003600466040665,0.00023384498685599518
-0.48955415836535393,-0.48955415836535393,0.9995650729253537,0.00021881876578913376
-0.4894714244524948,-0.4894714244524948,1.0002860866171743,0.00023551535110946683
-0.4893384482464171,-0.4893384482464171,0.9996126597716973,0.000212692368247095
-0.4892423226265237,-0.4892423226265237,1.0005094834619452,0.00020294105468267402
-0.4891435658064438,-0.4891435658064438,1.0000997166421186,0.00024177278995078986
-0.48901549432921454,-0.48901549432921454,0.9996227334367734,0.00020501007252289436
-0.48891908018122193,-0.48891908018122193,0.9997078612123221,0.00023535478064618944
-0.4888080619770335,-0.4888080619770335,1.000178874214004,0.00020229877082990686
-0.4887384409608785,-0.4887384409608785,1.0000003967261324,0.0001969845783661974
-0.48867253910575525,-0.48867253910575525,0.9999947321784095,0.00023162212800039513
-0.48859535342198795,-0.48859535342198795,0.9997746520260395,0.00020189641512351748
-0.48853256782749666,-0.48853256782749666,1.0003783719668928,0.00020523128102978186
-0.48848121611372336,-0.48848121611372336,1.0000094870736527,0.00022363207192737424
-0.48840691394434543,-0.48840691394434543,0.9996480336696925,0.00020180234388906816
-0.48832886203163073,-0.48832886203163073,1.0000850887585324,0.000207239356225908
-0.4882314790214878,-0.4882314790214878,0.9997047542481262,0.00020090239211068822
-0.4881581691952306,-0.4881581691952306,1.0000750312085434,0.00023224992726625116
-0.48805751748150217,-0.48805751748150217,0.9999489324788984,0.0002328120627206114
-0.48792385490378365,-0.48792385490378365,1.000079840809411,0.00021454072042004506
-0.48778777497500414,-0.48778777497500414,0.9999398617943243,0.0002075139844154143
-0.4876599039620487,-0.4876599039620487,1.0000193289612918,0.00023363272799846327
-0.4875600918123382,-0.4875600918123382,0.9998837310327753,0.0002389157762493631
-0.4874941185800708,-0.4874941185800708,1.0002938074693748,0.000205574615725946
-0.48741829710634194,-0.48741829710634194,1.0000394823432837,0.0002169519310506894
-0.48733683553000445,-0.48733683553000445,1.0003319072109687,0.00020959636872126933
-0.4872478558711009,-0.4872478558711009,1.0002527861619384,0.0001998642376946442
-0.48718126007734097,-0.48718126007734097,1.0001123792678004,0.00023785555523796092
-0.4871240805587149,-0.4871240805587149,1.0000570038236076,0.0002376829355794175
-0.4870406072674086,-0.4870406072674086,1.0000136477527384,0.0002341737935259501
-0.48694488184992224,-0.48694488184992224,1.0003306184272784,0.00021189329732199032
-0.48685079732676967,-0.48685079732676967,0.9998751759915876,0.00021457321868575643
-0.4867628777457867,-0.4867628777457867,0.9998926744635999,0.00020965756735026852
-0.4866746520419838,-0.4866746520419838,0.9996371164065876,0.00021064774205000635
-0.48659785484778695,-0.48659785484778695,0.9999892506376149,0.0002596260425284429
-0.4865093616535887,-0.4865093616535887,1.0002761079589622,0.0002138771869037458
-0.48647575082140976,-0.48647575082140976,0.9998080961378569,0.00024072568289194648
-0.4863797608937602,-0.4863797608937602,1.000276299628953,0.00020913963517986918
-0.4862722605947056,-0.4862722605947056,0.9999032601191964,0.00021166887980230965
-0.48618466822517803,-0.48618466822517803,0.99972208146418,0.0002114916146177352
-0.4861242065569968,-0.4861242065569968,0.9997781918316828,0.00025793506594851763
-0.4860527682933025,-0.4860527682933025,0.999811537331252,0.00021141297781975308
-0.485938860787428,-0.485938860787428,0.9999487558313269,0.00023326582772296246
-0.4858217332759523,-0.4858217332759523,1.0000844651015282,0.00021453647020545246
-0.4857401502027642,-0.4857401502027642,1.0002904648200568,0.000206922220994804
-0.485644375969423,-0.485644375969423,0.9998259063315128,0.00023513922709266717
-0.4855134739977075,-0.4855134739977075,0.9997679342661122,0.00023629324501079903
-0.4854312309937086,-0.4854312309937086,1.000041443353609,0.00021667167985687169
-0.4853725234643207,-0.4853725234643207,1.0000690008820758,0.0002031631302410899
-0.4852641986712115,-0.4852641986712115,0.9998921072643652,0.00020771759472070468
-0.4851301942282589,-0.4851301942282589,1.0001578506372812,0.0002581394928653082
-0.48501835435745305,-0.48501835435745305,0.999886493200368,0.00021278356770895165
-0.4849569733531098,-0.4849569733531098,1.0001228734222007,0.0002387837248962521
-0.48481832431134536,-0.48481832431134536,1.0001311314306849,0.00023410708297592588
-0.4847000116293202,-0.4847000116293202,1.0002908622036233,0.00020732802154030215
-0.48461062582500747,-0.48461062582500747,1.000038731437046,0.0002708250189662927
-0.4845541081012925,-0.4845541081012925,0.9998289184371563,0.0002096653234563924
-0.4844876740316977,-0.4844876740316977,0.999863272230997,0.00024321338802500472
-0.48432626209541924,-0.48432626209541924,1.0000901217965967,0.00023326313088891057
-0.4842647753190249,-0.4842647753190249,1.0000189443594127,0.00020939561507004922
-0.48415175616391937,-0.48415175616391937,1.0000136910125557,0.0002376447017932907
-0.484017329942435,-0.484017329942435,0.9998618043389789,0.0002350108501344319
-0.4839002660824917,-0.4839002660824917,1.000101656506375,0.0002157293504316842
-0.4838485017171479,-0.4838485017171479,0.9998694948644127,0.00023553880834655908
-0.48378224720945584,-0.48378224720945584,1.0001143572323208,0.00020990987630517812
-0.4836815054892213,-0.4836815054892213,1.0002349232612384,0.0002091295207691417
-0.48357068500044986,-0.48357068500044986,0.9998479082845242,0.00023767786247951085
-0.48346202558459483,-0.48346202558459483,0.9999455471962302,0.00023224697192826554
-0.48337038107420083,-0.48337038107420083,0.9997171416423247,0.00023143556344714655
-0.4832274492873694,-0.4832274492873694,0.9999604454735392,0.00021127511445774035
-0.4831245668392512,-0.4831245668392512,0.9999297312429863,0.00023006259627270597
-0.48294841926690424,-0.48294841926690424,1.0000206137788505,0.00022691784053263246
-0.48283668177609795,-0.48283668177609795,0.9998359246709226,0.00023760098010996593
-0.4827326107028057,-0.4827326107028057,1.000107337926299,0.00023861208149613755
-0.48256438222597353,-0.48256438222597353,1.0004002599582282,0.00020110568765830658
-0.4824365785389091,-0.4824365785389091,1.000170511513878,0.0002579772858482911
-0.4823613725893665,-0.4823613725893665,0.9999999782249469,0.000202108696342502
-0.48229662462690615,-0.48229662462690615,0.9999673114173534,0.00021254027204286582
-0.48207885086885655,-0.48207885086885655,0.9999319325350792,0.00023861943519537038
-0.4819466828252189,-0.4819466828252189,1.0003093809939156,0.00023563759028362398
-0.48180968734668567,-0.48180968734668567,0.9999506028162843,0.000254471182333653
-0.4816158299756353,-0.4816158299756353,0.9997223026576805,0.0002107960833827549
-0.4814470099445316,-0.4814470099445316,1.0000299422037047,0.00023893181742651068
-0.4812668377926457,-0.4812668377926457,0.9997071670121814,0.00021413292368837222
-0.48107492552080655,-0.48107492552080655,0.9998425445275739,0.00023692216434465955
-0.48089075557654726,-0.48089075557654726,1.0003125694719317,0.00020689195429516699
-0.4807478812668705,-0.4807478812668705,0.9997374443031916,0.00020933809435698804
-0.4806909865947091,-0.4806909865947091,0.9999628106525531,0.00021083995638432633
-0.48057569427619456,-0.48057569427619456,1.0000980005619904,0.0002254054988370993
-0.4804254990638583,-0.4804254990638583,0.9999801316445207,0.00020946311361883375
-0.4803744560893392,-0.4803744560893392,0.9999380671998427,0.00021115612542766787
-0.48020742949884154,-0.48020742949884154,0.9998989590464633,0.00021449457740992865
-0.4800733745985781,-0.4800733745985781,0.9995978789257964,0.000236621551383998
-0.47990326715516857,-0.47990326715516857,0.9998452154573074,0.00021957814595560655
-0.4797166052056127,-0.4797166052056127,1.0000267659934632,0.000203438168187152
-0.4795685301578487,-0.4795685301578487,1.000296296830491,0.00021470762277220695
-0.4794739583943738,-0.4794739583943738,0.9999295973739588,0.0002101101116876617
-0.4792767629114678,-0.4792767629114678,1.0003132662584773,0.00020614227873571282
-0.479152929240081,-0.479152929240081,1.0001088092707229,0.00021196624794521407
-0.4790822115988703,-0.4790822115988703,1.0000635539913696,0.0002143631256350237
-0.4789912053020089,-0.4789912053020089,0.9999472342390435,0.0002319171761435964
-0.4788316456848406,-0.4788316456848406,0.9998964663012326,0.00021633199128940462
-0.47872829624975566,-0.47872829624975566,1.0003539973309903,0.00020466587922207056
-0.4786204185904353,-0.4786204185904353,1.00006779506601,0.00021388352666646353
-0.478510853908665,-0.478510853908665,0.9996898140690889,0.00023141188038913084
-0.4783901416551089,-0.4783901416551089,0.9998726794740007,0.00021537994763445875
-0.4782676097282092,-0.4782676097282092,0.9998120465065083,0.0002193152575445381
-0.4781134643490077,-0.4781134643490077,0.9996879212300962,0.00021269631266960859
-0.47792221429408527,-0.47792221429408527,0.9998960281242132,0.00024057552065133545
-0.47781302975781725,-0.47781302975781725,0.9998024220368332,0.00021360577393964296
-0.4775827045465121,-0.4775827045465121,0.999543880355241,0.00021864119531955
-0.4774666135548614,-0.4774666135548614,1.000053427759574,0.00024395919872963537
-0.47732956448598995,-0.47732956448598995,1.0002002642151984,0.0002098885044169951
-0.47715698790125316,-0.47715698790125316,0.9995912399486222,0.00021560896487169567
-0.47701947977620873,-0.47701947977620873,0.9999075248518106,0.0002440448056335234
-0.476911061150895,-0.476911061150895,1.000004242253982,0.0002102238948650691
-0.47673157619137785,-0.47673157619137785,0.9997328154971425,0.000203514613395654
-0.47658349191769955,-0.47658349191769955,0.9999840975772297,0.00020914460146342624
-0.4764666789691546,-0.4764666789691546,1.0002617530130715,0.00023934944440319556
-0.47636625093000473,-0.47636625093000473,0.9997946926664879,0.00020317479196207258
-0.47628965970507126,-0.47628965970507126,1.0003206797503388,0.0002887389126283164
-0.4761285769811366,-0.4761285769811366,0.9997712540292006,0.00021902172546905233
-0.4760085386194987,-0.4760085386194987,1.0001837160714646,0.00023755744305876546
-0.47590399068722034,-0.47590399068722034,1.000034410558375,0.00023170001657008455
-0.47576994101254966,-0.47576994101254966,0.9998459254571435,0.00021329593296918288
-0.4755608375853626,-0.4755608375853626,0.9998914613618621,0.00021345027515594117
-0.4754187526952592,-0.4754187526952592,0.9998237177012095,0.00023580773150722465
-0.475295717890549,-0.475295717890549,0.9998846711105871,0.00020699764238454884
-0.47514074392674954,-0.47514074392674954,1.0000924184065951,0.0002052245071405447
-0.47501143717818195,-0.47501143717818195,0.9999270770892286,0.00022355594533209855
-0.47492306696076414,-0.47492306696076414,0.9998874916652477,0.0002407851809833328
-0.47485211891907964,-0.47485211891907964,0.9998870359017706,0.0002070592451648222
-0.4746669731612201,-0.4746669731612201,0.9999883343128662,0.0002009718597402813
-0.4745534656496602,-0.4745534656496602,1.0002038510142994,0.00023224396693159833
-0.4744773127749795,-0.4744773127749795,1.0001817814536644,0.0002731759773168413
-0.4743922313777148,-0.4743922313777148,1.0001625692626068,0.00020424621738770327
-0.4743423084306414,-0.4743423084306414,0.9998897559439449,0.00020169535093755544
-0.47419568800687556,-0.47419568800687556,1.0001288558330423,0.0001963511246620753
-0.4740813752869144,-0.4740813752869144,0.999946038360922,0.00022850083383389123
-0.4740301834026468,-0.4740301834026468,1.0002564803523053,0.0002015226815231144
-0.47393148487317377,-0.47393148487317377,1.0001905250138834,0.00023738431856831413
-0.47383270076825285,-0.47383270076825285,0.9999129014015089,0.00020486680464352962
-0.4736945418218966,-0.4736945418218966,1.000359174741385,0.0001946964606463983
-0.47361503510182956,-0.47361503510182956,1.000325700727286,0.0002586253480599864
-0.47351964457920986,-0.47351964457920986,1.0001093195876325,0.00023185654070956635
-0.4733928130255663,-0.4733928130255663,0.9998090344626664,0.00020838380239102797
-0.47319405242596985,-0.47319405242596985,0.9999787103504385,0.00023711779011488686
-0.4730678061343497,-0.4730678061343497,0.9999906595293837,0.0002142981378242109
-0.47298324623989174,-0.47298324623989174,0.9996981130611765,0.00023567959982738847
-0.4727748272343888,-0.4727748272343888,1.000115723474952,0.000234385227901253
-0.4726302333117928,-0.4726302333117928,0.9996487059859069,0.00021495733740587987
-0.4725301391634275,-0.4725301391634275,0.9999822345730445,0.00023901960130784253
-0.47236124493210807,-0.47236124493210807,0.9998097239470976,0.00020127203135144483
-0.47219773024262396,-0.47219773024262396,1.0001906841581403,0.00021183702534958602
-0.4720892668323359,-0.4720892668323359,1.0001256211095182,0.0002098016098217961
-0.471912454093399,-0.471912454093399,0.9999246737670022,0.00023715177734674186
-0.4717523157276446,-0.4717523157276446,1.000074172469977,0.0002082732156323827
-0.4716186740581179,-0.4716186740581179,1.0000949796261218,0.00023398308432528292
-0.4714865684029064,-0.4714865684029064,0.9996704581658531,0.0002314058968943415
-0.47130691970814953,-0.47130691970814953,1.0000841752949263,0.00020820891613000897
