time,time,flux,flux_err
-0.49990099779970476,-0.49990099779970476,0.9993615441129208,0.000493381512689534
-0.49982764094893356,-0.49982764094893356,0.9997013294027252,0.000443373755488088
-0.4997164223459549,-0.4997164223459549,0.9999580317499646,0.000557291700342876
-0.4996453631349141,-0.4996453631349141,1.0007108431043386,0.0004375082279009975
-0.49948907236539525,-0.49948907236539525,0.9997370807477525,0.0005166430390086167
-0.49939455277781236,-0.49939455277781236,0.9997098991794428,0.000475718953550676
-0.4993201773293549,-0.4993201773293549,0.9990534700723555,0.0005420128136897123
-0.4992029902394279,-0.4992029902394279,0.9996258243037712,0.00047444521458340843
-0.4989709223940736,-0.4989709223940736,0.9999423808810555,0.000488269074483219
-0.4988303954392904,-0.4988303954392904,1.0002700914563485,0.00043665486297475906
-0.4987103511404712,-0.4987103511404712,1.0002471929599657,0.0004960546643574778
-0.4985677915639826,-0.4985677915639826,1.00023471284081,0.000498339703506732
-0.49835956232855094,-0.49835956232855094,0.9992911726698874,0.0005624804101520785
-0.49824528477911373,-0.49824528477911373,1.0001438881537323,0.0004578057307895702
-0.49815481065015776,-0.49815481065015776,0.999269714902522,0.0004795105094789716
-0.49805382245540386,-0.49805382245540386,0.999650852723725,0.0004483574057371137
-0.4979333089038846,-0.4979333089038846,1.0000606470579037,0.0005036318858366493
-0.49784654060786127,-0.49784654060786127,0.9997341241390931,0.000522838670478111
-0.4976885558164213,-0.4976885558164213,1.0005660117918205,0.0005883233791676229
-0.4976209409025614,-0.4976209409025614,0.999587360982224,0.00047009962355527466
-0.49755913313128985,-0.49755913313128985,0.9996651276644295,0.0004720709908195106
-0.4974362041131826,-0.4974362041131826,1.0000863276867817,0.000511331926722884
-0.4973177919106092,-0.4973177919106092,0.9991166233787812,0.00046370330727948575
-0.4972136450538528,-0.4972136450538528,0.9996807410129651,0.0005091037461873215
-0.4971472896300838,-0.4971472896300838,1.0007855354682482,0.0005597374998884644
-0.49694502346101216,-0.49694502346101216,0.9996847306317358,0.00044508479998895827
-0.49684871411009224,-0.49684871411009224,0.9999840668087507,0.0005216226047419298
-0.49668979408888847,-0.49668979408888847,1.0006322203893032,0.00044156674160783624
-0.4965482847270323,-0.4965482847270323,1.0000843023309827,0.000507864731061303
-0.49641182290506547,-0.49641182290506547,0.9999293406837196,0.0004831750483656959
-0.49633354965772014,-0.49633354965772014,0.9998272993762747,0.00048380317377389397
-0.49626297111972234,-0.49626297111972234,1.0003373385904608,0.0005468774101717678
-0.49601893348881276,-0.49601893348881276,0.9995388663729239,0.00041697080345903326
-0.4959258737406344,-0.4959258737406344,1.0009067859566771,0.0005479463123819247
-0.4957999837439274,-0.4957999837439274,1.0001589041643526,0.0005087528429631729
-0.4956797963619465,-0.4956797963619465,1.0003236259027672,0.00046355096493062885
-0.4955091838899534,-0.4955091838899534,1.0000535853249892,0.0005262312078451071
-0.4954126630880637,-0.4954126630880637,1.0001252103217824,0.0005782620166744107
-0.495326216093963,-0.495326216093963,0.9995389524129615,0.0005110549899924285
-0.49517849517142165,-0.49517849517142165,1.0001211786390436,0.0005428991020421366
-0.49500250222336034,-0.49500250222336034,1.0002094531317889,0.0004704580123020858
-0.49491207882529126,-0.49491207882529126,1.000399626922371,0.000478900123507116
-0.49475629799853776,-0.49475629799853776,1.0001861018382832,0.0005225475230233474
-0.49465107814467046,-0.49465107814467046,0.999879853516806,0.0005472586584191012
-0.4944972376673832,-0.4944972376673832,1.0004950757678628,0.000457116644000755
-0.49430283641268036,-0.49430283641268036,0.9995273008706903,0.00047705688143003417
-0.4941154135070974,-0.4941154135070974,0.9999254856547936,0.00047405986643812647
-0.4940180414603674,-0.4940180414603674,1.0004595124043962,0.0005344541242425776
-0.4938543076321366,-0.4938543076321366,0.9991531583142796,0.0005455640187302783
-0.49371809535223293,-0.49371809535223293,0.999374177366723,0.0005184373881073681
-0.49360227806464535,-0.49360227806464535,1.0000571154452893,0.0005764478663264168
-0.49345281755668113,-0.49345281755668113,1.0004412773067073,0.00046664962700585926
-0.49336118357168746,-0.49336118357168746,1.0001748283092362,0.0005024132976345971
-0.4932619712068117,-0.4932619712068117,1.000012144358328,0.0004714467330678686
-0.493089255936502,-0.493089255936502,0.999951559646233,0.0004611925405117695
-0.49296886661613826,-0.49296886661613826,1.0002196433068935,0.00042535114416584216
-0.49286636227043346,-0.49286636227043346,1.0006736426041836,0.0004968626080964663
-0.49263908122375144,-0.49263908122375144,0.9999010797625347,0.000449069179527147
-0.49255468548799397,-0.49255468548799397,0.9997117893693735,0.0005219768660008775
-0.4924785973445978,-0.4924785973445978,0.9996167283737742,0.00048916685820499
-0.49239956476085356,-0.49239956476085356,0.9996658576237205,0.0004830030899261371
-0.4922234815501724,-0.4922234815501724,1.0005621075815738,0.0004462108176699017
-0.49203155694413,-0.49203155694413,0.9998697741878511,0.000439911334672689
-0.491965976258507,-0.491965976258507,0.9998189842307363,0.0005698711493067271
-0.49186562520626465,-0.49186562520626465,1.0001523235544758,0.0004823949402340237
-0.4917097762605408,-0.4917097762605408,1.0003313813765338,0.00046065024261828056
-0.4915838285916834,-0.4915838285916834,1.0001195044958104,0.0004762010128089874
-0.4914506958652055,-0.4914506958652055,1.000883529145184,0.000449733713921662
-0.49133688438596435,-0.49133688438596435,0.9992641860443827,0.0005816531760508239
-0.49125431649008533,-0.49125431649008533,0.9998087775944065,0.00042823850243445114
-0.4911946102860384,-0.4911946102860384,1.0000154143168523,0.0005140220870226355
-0.4910119638821925,-0.4910119638821925,0.9998635920794913,0.0004522441911663577
-0.4908827125967946,-0.4908827125967946,0.9997107917560065,0.0004890581714286225
-0.4907498846267117,-0.4907498846267117,1.0003237762155301,0.0005322874164096721
-0.4906953936748323,-0.4906953936748323,0.9998435159527865,0.0004825289053448827
-0.49054174199554834,-0.49054174199554834,0.9999862088813213,0.0004918764716253758
-0.49037551577202976,-0.49037551577202976,0.9995875230956568,0.00044871225289769723
-0.49030887006811097,-0.49030887006811097,1.000128098421955,0.0004906871493395493
-0.4902489871747093,-0.4902489871747093,0.9995311610584323,0.0005065395964923659
-0.4900104602551437,-0.4900104602551437,1.0001848693952429,0.00043521692003113514
-0.4898709129105555,-0.4898709129105555,1.0001094310208845,0.00047638433544096363
-0.48976002264535057,-0.48976002264535057,1.0000663641648262,0.0005654771071074374
-0.4896921333071077,-0.4896921333071077,0.9993719441742686,0.0005425326457589717
-0.48960109633771937,-0.48960109633771937,1.0002317204250848,0.0005793192254312937
-0.489454715019383,-0.489454715019383,1.0004564532395195,0.0005298948631325803
-0.48936391720781103,-0.48936391720781103,1.0001750382653458,0.000550600181481368
-0.4891845159625518,-0.4891845159625518,1.0005226989582516,0.0004806880159253889
-0.48905261572799646,-0.48905261572799646,0.9993076151247747,0.00044913043399858095
-0.4888877330595278,-0.4888877330595278,0.999798578474938,0.0004669315332453715
-0.488719733688049,-0.488719733688049,0.9998914517600831,0.000499229832489786
-0.48863458064734006,-0.48863458064734006,1.0008208004332393,0.0004479632478055607
-0.48850830627052344,-0.48850830627052344,1.0002374675196695,0.00047833338259968013
-0.4884201884124195,-0.4884201884124195,1.0005909149192564,0.0005247218648390653
-0.4883179371288861,-0.4883179371288861,1.0001457665103077,0.000499113275813498
-0.48821739115519447,-0.48821739115519447,1.0000866336887673,0.0004362795601632025
-0.48808224200620315,-0.48808224200620315,0.9994538524047598,0.0005205770536092941
-0.48802263494435466,-0.48802263494435466,0.9996396125487401,0.00048169082886969744
-0.48790896439459175,-0.48790896439459175,0.9999667287099246,0.0005029238351942948
-0.48777404492284404,-0.48777404492284404,0.9994093386843218,0.0004986973820004462
-0.4876485242290073,-0.4876485242290073,0.9998628617029374,0.00046463918206374666
-0.4874758652236778,-0.4874758652236778,0.9992461230411969,0.0005835111475189991
-0.48736388624238314,-0.48736388624238314,0.9999448541265478,0.0004756775686958731
-0.4871874193835538,-0.4871874193835538,1.0002829378799258,0.00047204740387529103
-0.4869304516367265,-0.4869304516367265,1.000073727569062,0.00046895261883469114
-0.4868243477161741,-0.4868243477161741,1.0000164420048878,0.0005567231451783001
-0.48673084032343467,-0.48673084032343467,0.9999318577701327,0.0004848917244444473
-0.4866026615316514,-0.4866026615316514,0.9996058056308564,0.0005060648720250892
-0.48635849527490793,-0.48635849527490793,0.9996814532563599,0.0005233340558911488
-0.48624496537959205,-0.48624496537959205,1.0000020959797635,0.000531443845775586
-0.4861561498211813,-0.4861561498211813,0.9995920305940377,0.00044814608380122574
-0.4860641419654712,-0.4860641419654712,0.9995890149884687,0.0005045145408585502
-0.48599423689302057,-0.48599423689302057,1.0000162024632318,0.0005204344257897477
-0.48583271028037417,-0.48583271028037417,1.0003466715035758,0.00044370580288878136
-0.4856622751292889,-0.4856622751292889,0.9998215619047531,0.000497389661352094
-0.4854819790547481,-0.4854819790547481,1.0007230590414236,0.0004874170980857716
-0.4853782111822511,-0.4853782111822511,1.0007723207528623,0.0005639913322907291
-0.4852883967134403,-0.4852883967134403,1.0006703235439818,0.00041334059611233397
-0.48518444331275534,-0.48518444331275534,0.9992702139289896,0.000497457773619951
-0.4851093313394813,-0.4851093313394813,0.9999802213192833,0.0005364232695850625
-0.4850412343221251,-0.4850412343221251,1.0000640581949247,0.0004517101197843254
-0.4849039676511893,-0.4849039676511893,1.0003920405122106,0.0005509775525057662
-0.4848124671305413,-0.4848124671305413,0.99933649561156,0.000499229258758529
-0.48466170472675,-0.48466170472675,1.0005122653481517,0.00044396428008932845
-0.4845144109902321,-0.4845144109902321,0.9998655274499466,0.0005319073309511564
-0.48438204272388247,-0.48438204272388247,0.9995729487746872,0.00044270749546417856
-0.48423237127572066,-0.48423237127572066,0.9999184799902012,0.0004629459094287621
-0.4841274731734302,-0.4841274731734302,0.999809368217538,0.0005332206740750653
-0.4840465635090368,-0.4840465635090368,0.9998778598229345,0.0004918366008143075
-0.48392083489452486,-0.48392083489452486,1.0001179124155337,0.0005342068306172571
-0.4838183184503578,-0.4838183184503578,0.9997409101074878,0.0005045644782413454
-0.4837213828242966,-0.4837213828242966,1.0002774414271758,0.0004866016979322074
-0.48357301748328607,-0.48357301748328607,0.9997190798405844,0.0006285407638699183
-0.48351800151722274,-0.48351800151722274,0.9998365254834237,0.0004578039725394825
-0.4834359263855731,-0.4834359263855731,0.9993399567412602,0.0004976052339137063
-0.4831257490921416,-0.4831257490921416,1.0000130942484566,0.00044926963563636643
-0.4829761724482523,-0.4829761724482523,0.9999894761945413,0.00047615137158582143
-0.4828404061234323,-0.4828404061234323,0.9995961076676704,0.0005193060210306024
-0.4827239428923349,-0.4827239428923349,0.9990642399829154,0.0004565723780389669
-0.48259813188924455,-0.48259813188924455,1.0001081959829112,0.0004926714853912829
-0.48252069487061816,-0.48252069487061816,0.9996398047134638,0.0004908177363866361
-0.4824389797809999,-0.4824389797809999,0.9997777537204644,0.0004502097539571601
-0.48231927763845306,-0.48231927763845306,0.9995646688585154,0.0005027771219659649
-0.48223237822385273,-0.48223237822385273,0.9992929363912261,0.00046129445353991147
-0.4821172736803419,-0.4821172736803419,1.000682692332921,0.0005520342439295105
-0.48195829457545186,-0.48195829457545186,0.9994251394612069,0.0006411739358111335
-0.48180353651550833,-0.48180353651550833,0.9998063785619935,0.00047708763937631536
-0.48174555776204214,-0.48174555776204214,0.9999639911239431,0.00048323442583667487
-0.4816311117247096,-0.4816311117247096,1.0000497702967137,0.000465806575013168
-0.48152299740031596,-0.48152299740031596,0.9999093964044563,0.00047728882919824655
-0.4813907793344697,-0.4813907793344697,1.0004199276411583,0.0005503009504443763
-0.48126985801500266,-0.48126985801500266,1.0001855389300105,0.0004848586163532732
-0.48108679297729395,-0.48108679297729395,1.0005389877382647,0.0004293815518021768
-0.48094063003809423,-0.48094063003809423,1.000129685154917,0.0005117547174021393
-0.4807583551795688,-0.4807583551795688,0.9994921862480393,0.0004901406055735432
-0.4806497342811781,-0.4806497342811781,1.000445105804054,0.0004489637417589557
-0.4805671086302027,-0.4805671086302027,1.000769618563308,0.00046125251858945317
-0.4805015729391016,-0.4805015729391016,1.0002185750076238,0.0005065688565686525
-0.48041162365843776,-0.48041162365843776,1.0002283275007815,0.0005492554825904238
-0.4802489473615424,-0.4802489473615424,1.0008353354162765,0.0004339775103759843
-0.4800489513814682,-0.4800489513814682,1.0002259858781444,0.0004528779166401901
-0.4798180508136284,-0.4798180508136284,1.0006253827140597,0.0005055583200610402
-0.4795866618282162,-0.4795866618282162,1.0000503733476582,0.0005027281038332151
-0.47948194077180234,-0.47948194077180234,0.99986712991626,0.0005426738417061751
-0.479406552988803,-0.479406552988803,0.9997143826161089,0.00047389222178450543
-0.4792506714191404,-0.4792506714191404,0.9994204311452547,0.0005028419797177991
-0.47910360344685615,-0.47910360344685615,0.9996251709646986,0.0004917075055496056
-0.4789160053085652,-0.4789160053085652,1.000305250366147,0.0005205352265362815
-0.4787521809572354,-0.4787521809572354,1.0002397133063965,0.00047904836059791306
-0.4785890497325454,-0.4785890497325454,0.9997791519977521,0.0005478166958782652
-0.4784255954902619,-0.4784255954902619,0.999784983985807,0.0004402503757983162
-0.47825985014787875,-0.47825985014787875,1.0000178791699093,0.000491484386553318
-0.47819314859225415,-0.47819314859225415,1.000442062864535,0.0005231875815489849
-0.4781214586328133,-0.4781214586328133,1.0004512071106837,0.00048603120148525545
-0.47791552218259314,-0.47791552218259314,0.9996183197571661,0.0004907027191772651
-0.4778266212408198,-0.4778266212408198,0.9999088208690423,0.0005109109063563707
-0.4777159517572727,-0.4777159517572727,0.9999608328315723,0.0005395779359969366
-0.47765201278671154,-0.47765201278671154,1.0002869503606497,0.0004659734822565302
-0.4775411896407604,-0.4775411896407604,0.9997810706174102,0.0004466847354321963
-0.4773837458822527,-0.4773837458822527,1.000770133450936,0.0004898447185157368
-0.4772407601543819,-0.4772407601543819,0.999663708623415,0.0004700010094383234
-0.47715921905619324,-0.47715921905619324,1.000200657059245,0.00044863449148868195
-0.4770228275025147,-0.4770228275025147,0.9997294246340589,0.0004975599178640331
-0.47691538323124405,-0.47691538323124405,1.0000403086593759,0.0004699370797657318
-0.47674956304545046,-0.47674956304545046,1.0004598163438942,0.0005540579572406344
-0.47666933546424844,-0.47666933546424844,1.0000790570338853,0.0004705323638442559
-0.4765959500116878,-0.4765959500116878,0.9995661690477288,0.00046368002512296453
-0.4764603862146032,-0.4764603862146032,0.9992080471430993,0.0004657703127526968
-0.4763104468249367,-0.4763104468249367,1.000144422115065,0.0004885955472236146
-0.47614650141913445,-0.47614650141913445,1.0000937986472809,0.0006176869766921341
-0.47606203113682566,-0.47606203113682566,0.9996269793342009,0.0004905182878659459
-0.4759393328145961,-0.4759393328145961,1.0000665928107673,0.0004720672045926382
-0.4758578635432059,-0.4758578635432059,1.0003742527256942,0.00047208311401755515
-0.47569383954250954,-0.47569383954250954,0.9997292473928876,0.00048562239763476
-0.4756324894711724,-0.4756324894711724,0.9998845926183243,0.0004702743829391099
-0.47555746450379954,-0.47555746450379954,0.9997331896629401,0.000579122387038786
-0.47543469694355733,-0.47543469694355733,1.0004558337257263,0.0005173037456268912
-0.47527382174885136,-0.47527382174885136,1.0002325602534103,0.0004433218124611785
-0.4751104662034777,-0.4751104662034777,1.0002768639662283,0.0005166747478353728
-0.4749916984466836,-0.4749916984466836,0.9997235967596664,0.000451555889905615
-0.47487991946109104,-0.47487991946109104,1.0010508923664967,0.0005108269962197845
-0.4747888751575374,-0.4747888751575374,1.0001296683217467,0.0005075734940200953
-0.4746789138196618,-0.4746789138196618,0.9995986966845166,0.000545558904392826
-0.4745755751588149,-0.4745755751588149,1.0000095127695627,0.00048622610366064927
-0.4744185994903091,-0.4744185994903091,0.9995936851997242,0.00044625357794971226
-0.4742009324618266,-0.4742009324618266,1.0000768287634134,0.0004333003294045926
-0.47401524029119174,-0.47401524029119174,1.000264308401891,0.00045610104148433446
-0.4739120709244162,-0.4739120709244162,1.0006669770621435,0.0005086413477977225
-0.4738052302403958,-0.4738052302403958,1.0000067450876848,0.0005486641108019956
-0.4737387886591023,-0.4737387886591023,0.9999565970238118,0.0005349412880475541
-0.47362011616351085,-0.47362011616351085,0.9998209001809812,0.0005732383145657936
-0.4734732050725142,-0.4734732050725142,0.999392178641435,0.0004533868544286848
-0.47332589303259737,-0.47332589303259737,1.0005188127713165,0.0004678512923911941
-0.4732250587781891,-0.4732250587781891,1.0003662455020164,0.0004891571914254491
-0.47309202644246395,-0.47309202644246395,0.9995259850095592,0.0004759873247620528
-0.47298329533368816,-0.47298329533368816,0.9994753967366433,0.0004918850530784167
-0.47282644724764394,-0.47282644724764394,1.0004502103982769,0.00046592154345939896
-0.4727232346020173,-0.4727232346020173,1.000026167563086,0.000499815066401726
-0.47257636924041435,-0.47257636924041435,1.0004322129905008,0.0005356538390771785
-0.47249194559117313,-0.47249194559117313,0.9997109789583088,0.00048441843809634124
-0.47232516270159974,-0.47232516270159974,0.9997675399484016,0.0005129910902409274
-0.4722169074782869,-0.4722169074782869,1.0001956994825174,0.0005279783797754559
-0.47203628383867907,-0.47203628383867907,1.0008825538382458,0.000596252789566258
-0.4719088318728609,-0.4719088318728609,1.0003073161537972,0.0004602256709056881
-0.471768921763578,-0.471768921763578,0.9999974037680971,0.00047370046754473944
-0.47168521555140613,-0.47168521555140613,0.999303140765368,0.0005254878201435487
-0.47156931439531036,-0.47156931439531036,1.0000809810943074,0.00046247381752629777
-0.47140535597427513,-0.47140535597427513,1.0002580864091706,0.0004620210546131681
-0.47129346219007856,-0.47129346219007856,1.000844619108576,0.0004471462863671175
-0.47113622115721226,-0.47113622115721226,0.9995767752011989,0.000462507148511125
-0.4709694828314241,-0.4709694828314241,1.0001852536693305,0.00045480586951469806
-0.4709162344573997,-0.4709162344573997,1.0003741199376446,0.0005107857582707712
-0.4708492532750824,-0.4708492532750824,1.0000480550191229,0.000490944020806397
-0.4706769568292657,-0.4706769568292657,1.0002214117661645,0.0004693330439879262
-0.4704463129703072,-0.4704463129703072,1.0002833613279585,0.0004996221426260277
-0.4703859304834623,-0.4703859304834623,1.0006023159470263,0.0005036537142689833
-0.4703209231622168,-0.4703209231622168,0.9998745826039382,0.0005089068186751257
-0.4701939423335716,-0.4701939423335716,0.9999780927548674,0.0004743280210462365
-0.47005730122327805,-0.47005730122327805,1.0000388285689368,0.00047561415655054907
-0.46983508226112464,-0.46983508226112464,1.0003780787560355,0.00046389795139372
-0.4696370255885995,-0.4696370255885995,0.9998027624759412,0.00044020365457626934
-0.46956299669254803,-0.46956299669254803,0.9998120112913422,0.0005196387357235156
-0.4694425212990609,-0.4694425212990609,1.0002811085260657,0.000492094364908612
-0.46931595928617753,-0.46931595928617753,0.999140877918739,0.0004388318639347304
-0.4692371503639151,-0.4692371503639151,0.9998767506015553,0.0005139231157917027
