time,time,flux,flux_err
-0.4993176299858533,-0.4993176299858533,0.9991769677847632,0.0008919637323548902
-0.4985555422163088,-0.4985555422163088,1.0002603915801525,0.000925220642249322
-0.4978520632897319,-0.4978520632897319,1.0005097942469297,0.000882047209224736
-0.497115972564643,-0.497115972564643,1.0002364423442063,0.0009011819771507194
-0.4959042175894865,-0.4959042175894865,0.998841759199889,0.000835763851532614
-0.4950694373834267,-0.4950694373834267,1.0017565477710657,0.0008681844661600432
-0.494595948967617,-0.494595948967617,1.0006724167791075,0.0008553502898812447
-0.4939924320038699,-0.4939924320038699,0.9998670158052239,0.0008111298747070401
-0.4931599448816996,-0.4931599448816996,0.9996747242369569,0.0008351100681050586
-0.49186735422372296,-0.49186735422372296,0.9998183092983777,0.0008332971250909632
-0.49145935211381586,-0.49145935211381586,0.9999745687200363,0.0008367588242973416
-0.49108019131563196,-0.49108019131563196,1.0002719222257934,0.0008654662548682376
-0.4905488427099044,-0.4905488427099044,0.9994985666319594,0.0008096307696531399
-0.4895573875401169,-0.4895573875401169,1.0010944446827361,0.0008381087896303825
-0.4880072196610854,-0.4880072196610854,0.9989106426973585,0.0008263569937202395
-0.48751682138972685,-0.48751682138972685,0.9998060909583462,0.0008346287247342742
-0.48703151085173885,-0.48703151085173885,1.0006973173711757,0.0008167924566078177
-0.48641606183409747,-0.48641606183409747,0.9996143597746213,0.0009167109776444651
-0.48529048539785435,-0.48529048539785435,0.9990751415518602,0.0008637212866087374
-0.4843271658632148,-0.4843271658632148,1.0000853196205015,0.0007863249670013077
-0.4839386151652434,-0.4839386151652434,0.9996265756584618,0.0008129601350296353
-0.4833931379525893,-0.4833931379525893,0.9994577291016441,0.0008372402550820889
-0.4828090548711771,-0.4828090548711771,0.999913372229497,0.0009266386598436643
-0.4816361996876367,-0.4816361996876367,1.0000362256602726,0.000809672493788548
-0.4806620956853294,-0.4806620956853294,1.0000055077320869,0.0008608012202331528
-0.48020517203767665,-0.48020517203767665,1.000352812662382,0.0008399831316674028
-0.4795073050478095,-0.4795073050478095,1.0001002500611211,0.0008356823071550775
-0.4780585785025323,-0.4780585785025323,0.999354120989785,0.0008058148133731612
-0.47705966723115123,-0.47705966723115123,0.9999628858699211,0.0008294244724325051
-0.47675323801886405,-0.47675323801886405,1.0000836337883825,0.0008584383219467052
-0.4760549893733696,-0.4760549893733696,1.0002313899933755,0.0008358618178056062
-0.4752023927107075,-0.4752023927107075,0.9986718429894352,0.000834935490259886
-0.47375001868640537,-0.47375001868640537,0.9997514622595153,0.0008234980642632219
-0.47309779218339826,-0.47309779218339826,0.9993976982120983,0.0008344559814462691
-0.4724888791632111,-0.4724888791632111,1.0001310337025024,0.0008355602055573532
-0.47191500411645393,-0.47191500411645393,1.0000237335380449,0.000867379662379535
-0.470661674933217,-0.470661674933217,0.9994048626401465,0.0008603657225920725
-0.46969409426819764,-0.46969409426819764,0.9999253636337159,0.0008120557224377061
-0.46929748826914874,-0.46929748826914874,1.000461455907632,0.0008379988657135741
-0.4686958377176779,-0.4686958377176779,0.9996901571825669,0.0008105703800051206
-0.4678733512912004,-0.4678733512912004,0.9993707806575104,0.0008356877883771005
-0.4665819874015142,-0.4665819874015142,0.9993686198069327,0.0008401763691081122
-0.46616906398376157,-0.46616906398376157,0.9987738515457825,0.0008417933777581613
-0.4658017678728356,-0.4658017678728356,1.0008134398994282,0.0008675542209256954
-0.46514299535738246,-0.46514299535738246,1.0005296155415255,0.0008348708518540337
-0.46388966871236337,-0.46388966871236337,0.9996201109978934,0.0008289612636349072
-0.4626160729851108,-0.4626160729851108,1.000226263928436,0.0008388493975421655
-0.4621864225413447,-0.4621864225413447,1.001149440985929,0.0008356128741985105
-0.46164102623915826,-0.46164102623915826,0.9996800743509692,0.000818844166074689
-0.4609126726933027,-0.4609126726933027,1.0000565450277321,0.0008342975770793192
-0.45969799666381733,-0.45969799666381733,0.9988159914569861,0.0008154914228977557
-0.4589163885215385,-0.4589163885215385,0.999193911699989,0.0008367737472890476
-0.4583640885673958,-0.4583640885673958,0.9997754026396553,0.0008097757975065546
-0.45776800103340065,-0.45776800103340065,0.9996233514957386,0.0008375936391535685
-0.4564130428374483,-0.4564130428374483,1.0003416250082822,0.000833792033416184
-0.4553754485648824,-0.4553754485648824,0.9998956136985392,0.0008755517960548221
-0.4549102687778941,-0.4549102687778941,1.0001457916815595,0.000846024172201609
-0.4543090517960081,-0.4543090517960081,1.0010651438387181,0.0008113630391407762
-0.4532249459403829,-0.4532249459403829,0.9985267479486797,0.0008095577142903018
-0.4520742101878568,-0.4520742101878568,1.0003040233521472,0.0008649368143527909
-0.45171024394257986,-0.45171024394257986,0.9993972060003931,0.0007990648919236219
-0.4513983062297484,-0.4513983062297484,0.9986719820625767,0.0008827199418879013
-0.4507670074908674,-0.4507670074908674,0.9999848832373595,0.000835153354340506
-0.4498618331621401,-0.4498618331621401,0.9995750148958346,0.0008378434722409976
-0.44827143738948505,-0.44827143738948505,1.0002954306745953,0.0008231828254679947
-0.4477438463887665,-0.4477438463887665,1.0005194811211466,0.0008103137346389316
-0.4470619691448519,-0.4470619691448519,0.9991026540843853,0.0008400407666090213
-0.4464389518339885,-0.4464389518339885,0.9995004789139601,0.0008972542296897578
-0.44512077543404305,-0.44512077543404305,0.9996967353447308,0.0008363336206513054
-0.4443088484673353,-0.4443088484673353,1.0006612234072256,0.000813012609761026
-0.44396887594521106,-0.44396887594521106,1.0006878538538444,0.0008658525155411607
-0.4433380708283948,-0.4433380708283948,0.9996071581912496,0.0008367242604315565
-0.4424347862437571,-0.4424347862437571,0.999514492209892,0.0008347439495058446
-0.4411951287926058,-0.4411951287926058,1.0006344391420172,0.0008503714800772716
-0.44073310150342876,-0.44073310150342876,0.9995653404234099,0.0008351902723691271
-0.4402013626156986,-0.4402013626156986,1.000226205465243,0.0008347974565716999
-0.4390385855753266,-0.4390385855753266,0.9986952170192243,0.0008642220533278509
-0.43758893093545337,-0.43758893093545337,0.9992064218028863,0.0008068152833674519
-0.43721451387973503,-0.43721451387973503,0.9994555449668653,0.0008451781734420243
-0.43685240615996007,-0.43685240615996007,1.0004429901566483,0.0008096412063281816
-0.436224198756463,-0.436224198756463,1.0002467719883357,0.0008459011403942213
-0.4356045061362238,-0.4356045061362238,1.0012334604739999,0.0008346083009260549
-0.4344018564603175,-0.4344018564603175,0.999584837535652,0.0008255440553320882
-0.43374623750569297,-0.43374623750569297,1.0008384188192518,0.0008124507410314971
-0.43323492916169926,-0.43323492916169926,1.000730020366315,0.0008346312722034066
-0.43253789012560445,-0.43253789012560445,0.999460753191563,0.0008387312523342154
-0.43175566556055855,-0.43175566556055855,0.9997759715888861,0.0008756328762638196
-0.43032993029482897,-0.43032993029482897,1.0002878874329086,0.0008898994708975278
-0.429838462128464,-0.429838462128464,0.9998808839146254,0.0008567656303943873
-0.42919776254129827,-0.42919776254129827,0.9991125839302348,0.000785520901322323
-0.428592644843593,-0.428592644843593,1.000300984757828,0.0008587151047511788
-0.4273471606014937,-0.4273471606014937,0.9995629283111107,0.0008096152269053006
-0.4266133543995238,-0.4266133543995238,1.001558219398512,0.0008676957493039733
-0.4262850183517003,-0.4262850183517003,1.0002230269005077,0.0008258379257999566
-0.42581968939484793,-0.42581968939484793,0.9997885115588737,0.0008174409710164992
-0.42509148450662904,-0.42509148450662904,1.0006658708753124,0.0008350644782622811
-0.4234762009917176,-0.4234762009917176,1.0000717890599045,0.00085414719554686
-0.42273723985163086,-0.42273723985163086,1.0001288061714397,0.0008339775870023835
-0.42228338711502145,-0.42228338711502145,0.9987474302361669,0.0008170162709606014
-0.4217017457132897,-0.4217017457132897,0.9994110411269217,0.0008347962306072285
-0.4207455704210588,-0.4207455704210588,1.0000747253075406,0.000937175526795655
-0.41946762522129577,-0.41946762522129577,1.0002456814574376,0.0007906515565784181
-0.4190155691510881,-0.4190155691510881,1.0001209964854625,0.0008135765303350157
-0.41854477976448834,-0.41854477976448834,1.0003358230545154,0.0008347312300042564
-0.4180279778829572,-0.4180279778829572,1.0002502242563494,0.0009063198386787335
-0.4171591299640568,-0.4171591299640568,1.0000185502221535,0.0008100460571892265
-0.4159128860323108,-0.4159128860323108,0.9994545718676517,0.0008584559273730145
-0.4154359481297433,-0.4154359481297433,0.9992522498636767,0.0008403380351530286
-0.4147803180705523,-0.4147803180705523,0.9992358025562632,0.0008101738627613733
-0.41387126707631977,-0.41387126707631977,0.99900308930747,0.0008351880482199163
-0.4122312370884174,-0.4122312370884174,0.9990999187409916,0.0008250210919601546
-0.4119229283216555,-0.4119229283216555,0.9995847660971104,0.0008340143324998663
-0.4115582826838363,-0.4115582826838363,1.000359214457855,0.0008097333771269873
-0.4107802614056709,-0.4107802614056709,0.9988012354964703,0.0008601508465209462
-0.4095483004603011,-0.4095483004603011,1.000220580204876,0.0008448428698425075
-0.40845806567667753,-0.40845806567667753,0.9997032001609073,0.0008120013230890372
-0.407951136614065,-0.407951136614065,0.999338980564034,0.0008343528594782389
-0.4072500574344303,-0.4072500574344303,0.9998703156826718,0.0008396545992917587
-0.40659252689183634,-0.40659252689183634,0.9990011436279801,0.0008855654659413508
-0.4051061034009763,-0.4051061034009763,1.000464743869698,0.0008123153419020869
-0.40456305893567335,-0.40456305893567335,1.0007247700468382,0.0008643309815119908
-0.4040438795975206,-0.4040438795975206,1.000547508210794,0.0007855470336855348
-0.40349830760060285,-0.40349830760060285,1.0010473533904096,0.0008595814690629469
-0.40230714217177593,-0.40230714217177593,0.998881764106509,0.0008100577796567498
-0.401408693495614,-0.401408693495614,1.0006687074710943,0.0008521798512118013
-0.4010461763286003,-0.4010461763286003,1.0001957858148973,0.0008291436858261029
-0.40061670281975237,-0.40061670281975237,1.0001799799464681,0.000843245989342833
-0.3998039040194271,-0.3998039040194271,0.9993636757017391,0.0008341662008160647
-0.3981984668018413,-0.3981984668018413,0.998056221749211,0.0008566804728821657
-0.39745521066834044,-0.39745521066834044,0.999575596144475,0.0008336999482198785
-0.3970507403348165,-0.3970507403348165,0.9993610873022201,0.0008185426161093771
-0.39641264453093755,-0.39641264453093755,1.000242513637596,0.0008342735462693896
-0.3953796326804877,-0.3953796326804877,0.999922818328792,0.0008922474375080063
-0.39435223575019335,-0.39435223575019335,0.9997532807398626,0.0008175751162463558
-0.3936981817925698,-0.3936981817925698,0.9996193871554123,0.0008351603332151563
-0.39311766924511177,-0.39311766924511177,0.9996696548462628,0.0008126158800819963
-0.3923813808753039,-0.3923813808753039,0.9999474634248748,0.0008589115285395589
-0.3909122084205592,-0.3909122084205592,0.9994136452866014,0.0008722584979440782
-0.3902051452703745,-0.3902051452703745,1.0006016432140545,0.0008230424967106978
-0.3896726672039222,-0.3896726672039222,1.000658373604898,0.0008102608144010872
-0.38913132961679364,-0.38913132961679364,1.0007965086305692,0.0008592399798850447
-0.3879100272857613,-0.3879100272857613,1.0002495600453514,0.0008095291460663353
-0.3869988147278491,-0.3869988147278491,0.9998844855217085,0.0008408335798372182
-0.3866769252970698,-0.3866769252970698,0.9985695881157739,0.0008248169691933863
-0.3863319427076931,-0.3863319427076931,1.0005931071246654,0.0008589240829115361
-0.3856268500563601,-0.3856268500563601,0.9993687369349298,0.0008353206843191771
-0.38473117251778605,-0.38473117251778605,1.0005282751250757,0.0008376634479519702
-0.3832902657693921,-0.3832902657693921,0.9991479390795309,0.0008225066974051314
-0.38276318227981393,-0.38276318227981393,1.0003089164621002,0.0008100394616101996
-0.38208142017429053,-0.38208142017429053,1.000158258274515,0.0008408402735491061
-0.38145865071055596,-0.38145865071055596,1.0003871120639443,0.0008967852887625959
-0.38013940351484055,-0.38013940351484055,1.0009024867786347,0.0008363787919167042
-0.37932802871400784,-0.37932802871400784,1.0001533796643725,0.0008131599174934501
-0.37898852186954174,-0.37898852186954174,1.0003108895126551,0.0008654681454591077
-0.37835720760740515,-0.37835720760740515,0.9998596145623647,0.000837542545089869
-0.3774540417456592,-0.3774540417456592,0.9998728425169929,0.0008345671432378937
-0.3762139489885158,-0.3762139489885158,0.999149151676914,0.000849078351204397
-0.375752662058585,-0.375752662058585,1.000850486519334,0.0008349006422751421
-0.37522067368590795,-0.37522067368590795,0.9998514237758638,0.0008345536954745498
-0.37405692304309923,-0.37405692304309923,0.9991938525122809,0.0008644382801455562
-0.37260845094970135,-0.37260845094970135,1.0000956703826533,0.0008073878494133166
-0.37223346681021213,-0.37223346681021213,0.9998124681439263,0.0008452016008435997
-0.3718720219319948,-0.3718720219319948,0.9995567261364778,0.0008096182914672978
-0.37124338573339627,-0.37124338573339627,1.0002581588815795,0.0008458542471333635
-0.3706237129816145,-0.3706237129816145,1.000584202543658,0.0008343864049547668
-0.3694213690530887,-0.3694213690530887,1.0002818648641756,0.000824692686854305
-0.36876545456325405,-0.36876545456325405,0.9997041576387172,0.0008121979769950258
-0.3682538564717106,-0.3682538564717106,1.0003688356402454,0.0008350709800453446
-0.3675570842449815,-0.3675570842449815,1.0009640936144593,0.0008386562596487399
-0.3665575330564025,-0.3665575330564025,1.0011571260812642,0.000834291065120279
-0.36518694040387345,-0.36518694040387345,0.9994690249508382,0.0008887863988804497
-0.3647661650669761,-0.3647661650669761,0.9993112996308161,0.0008563622750378888
-0.364106733061999,-0.364106733061999,1.0002441727652243,0.0007865066470018605
-0.3634160018806142,-0.3634160018806142,0.9993662038467918,0.0008591032223367873
-0.3621220846325741,-0.3621220846325741,0.9997719455642464,0.0008081605849669575
-0.3615645687263168,-0.3615645687263168,0.9996370650160902,0.000845305634412708
-0.36121866190333096,-0.36121866190333096,0.9999425087954457,0.0008504622758386392
-0.3607159919723927,-0.3607159919723927,1.0003838629478112,0.000816734805499035
-0.3599093314642232,-0.3599093314642232,0.9996815905510907,0.0008344175151030253
-0.3582046942741727,-0.3582046942741727,1.0001153739806221,0.0008299212306056719
-0.35766913499064684,-0.35766913499064684,0.9999869375266337,0.0008585500477492417
-0.35717258303557176,-0.35717258303557176,1.0000026343061,0.0007917953372948155
-0.35662912970037725,-0.35662912970037725,0.9997635832800258,0.0008351205077909412
-0.3554371009642637,-0.3554371009642637,1.000588896498946,0.000939435908205429
-0.3543665946694091,-0.3543665946694091,0.9989019451030863,0.0007857920296671947
-0.35398340405481576,-0.35398340405481576,1.0001558677787874,0.0008781719108171873
-0.3535640350957692,-0.3535640350957692,1.0014823164233735,0.0008344142641959652
-0.3530474688614049,-0.3530474688614049,0.9982179467687369,0.0009042740148372872
-0.3521786483393953,-0.3521786483393953,1.0000921028968108,0.0008094764053037306
-0.3509316987307102,-0.3509316987307102,0.9985009351771102,0.000857928097883383
-0.3504552348720608,-0.3504552348720608,1.0006350329842775,0.0008397945431620057
-0.3498005082783493,-0.3498005082783493,0.9998487478146911,0.0008108307429199303
-0.3488901874177827,-0.3488901874177827,0.9997319439510097,0.0008359878097568783
-0.34725072848923444,-0.34725072848923444,0.9999163665664426,0.0008250957827009636
-0.3469418924392812,-0.3469418924392812,1.0005559880851371,0.0008340229559648752
-0.3465778838177357,-0.3465778838177357,0.9989405659385209,0.0008093631381642164
-0.3457988529888098,-0.3457988529888098,0.9994981609479229,0.0008599744366150505
-0.3445673823705874,-0.3445673823705874,0.9997022045384952,0.0008453952988347703
-0.3434772717519081,-0.3434772717519081,0.9999368263931199,0.0008122509826181152
-0.3429700503314962,-0.3429700503314962,1.0004205322096185,0.0008353038392672384
-0.34226924179893103,-0.34226924179893103,1.0004906282372503,0.000839581638409135
-0.34161238332999344,-0.34161238332999344,1.000277980768677,0.0008858801695555841
-0.34012503217818446,-0.34012503217818446,1.0006232999801594,0.000811419980030484
-0.3395823886945436,-0.3395823886945436,0.9996788921627665,0.0008631433233737534
-0.3390642214777472,-0.3390642214777472,0.9997957933216709,0.0007856818038828762
-0.33851706528912473,-0.33851706528912473,0.9992974161671657,0.0008588489534133578
-0.33732657685468437,-0.33732657685468437,0.999143880216278,0.0008107840723306428
-0.3364277230135485,-0.3364277230135485,1.0001516692767152,0.0008518036091848165
-0.33606575169869757,-0.33606575169869757,0.9994639572475666,0.0008291017578105833
-0.33563576064552764,-0.33563576064552764,0.999438062509882,0.0008435246504514204
-0.33482307008016504,-0.33482307008016504,0.9992083661909449,0.0008342029992144597
-0.33321697802130074,-0.33321697802130074,0.9976924420875436,0.0008572263285658124
-0.33247400746731726,-0.33247400746731726,0.9996471255790992,0.0008337138025880866
-0.332070361161459,-0.332070361161459,0.9993520753335439,0.0008189887186017616
-0.33143191307281084,-0.33143191307281084,0.9994742832818926,0.0008352222919073725
-0.33037234078510663,-0.33037234078510663,1.0006231655441629,0.000859351043034227
-0.329196686629075,-0.329196686629075,1.0004293089732617,0.0007911379929763131
-0.3286520797770208,-0.3286520797770208,0.9997776020777642,0.0008345952023062636
-0.32799644897168034,-0.32799644897168034,1.0002718187709747,0.0008372832071627005
-0.3273712556656392,-0.3273712556656392,0.9997471114160925,0.0009457369648847549
-0.325931293332178,-0.325931293332178,0.9995286359524302,0.0008713485440517956
-0.3252249148401461,-0.3252249148401461,0.9991804655713985,0.0008223315733793919
-0.3246924230774312,-0.3246924230774312,0.9987490251556868,0.000809531933750526
-0.3240516175970697,-0.3240516175970697,1.0005189759334576,0.0008348390251104525
-0.3226723509204021,-0.3226723509204021,0.999736556987901,0.0008104042472905094
-0.3219357397694694,-0.3219357397694694,1.0001759260337924,0.0008401703514911053
-0.3216551823170448,-0.3216551823170448,0.9996778288870128,0.0008489693868648859
-0.32112930072944434,-0.32112930072944434,1.0001085804929417,0.0008339601839339841
-0.32039946078475623,-0.32039946078475623,1.000646866238695,0.0008352302231942069
-0.3190523822915566,-0.3190523822915566,1.0003258174353504,0.000822842884122979
-0.31809461183402166,-0.31809461183402166,0.9999174075487302,0.0008378762327215065
-0.31751200723665535,-0.31751200723665535,0.9992931381719785,0.0008348031934206041
-0.31693663277183076,-0.31693663277183076,0.999203865942819,0.0008741835680944901
-0.3163225310690905,-0.3163225310690905,1.0000541774225835,0.0008964308802529896
-0.31515803212241733,-0.31515803212241733,0.9996709553400246,0.0008357962812440098
-0.31434720931247284,-0.31434720931247284,0.9999507049421734,0.0008131296199433516
-0.3140081684938195,-0.3140081684938195,1.0004094189694865,0.0008650142033766331
-0.3133763456058659,-0.3133763456058659,1.0001146099793001,0.0008367797542014313
-0.3124732989941549,-0.3124732989941549,1.0018616924506074,0.0008346820605868418
-0.3112600613992981,-0.3112600613992981,1.0000220041290295,0.0008854274807617794
-0.3108382126200013,-0.3108382126200013,0.9997941300383474,0.0008098493844244991
-0.3104093090936658,-0.3104093090936658,1.0004361246743732,0.0008345779950756792
-0.3094072165906255,-0.3094072165906255,1.0001833338094888,0.0008593705040139968
-0.3077862578222266,-0.3077862578222266,0.9998237901523481,0.0008365196267424553
-0.3073056441007793,-0.3073056441007793,0.9997270282027573,0.0008205836974894758
