time,time,flux,flux_err
-0.4998918682837636,-0.4998918682837636,0.9995265259494571,0.00045513053598498127
-0.4997680169550828,-0.4997680169550828,0.9999501873604814,0.0004759710351870221
-0.49966466314738983,-0.49966466314738983,0.9997982993187128,0.00043407940583852606
-0.49953488247532124,-0.49953488247532124,1.0000238200832072,0.000480121358249782
-0.4994452009828819,-0.4994452009828819,0.9999845264841062,0.00039677469058880323
-0.49940525798811,-0.49940525798811,0.9997760631875195,0.0003925762353012987
-0.4993296664695663,-0.4993296664695663,1.000092975271008,0.0003728182044691284
-0.49922736348526087,-0.49922736348526087,0.9998715602456668,0.0004490340853715872
-0.4990620125710848,-0.4990620125710848,0.9993294422704293,0.0004634083927851595
-0.4989362414708012,-0.4989362414708012,1.0000109513448425,0.00047914057288543914
-0.4988453334044607,-0.4988453334044607,1.0002146694422591,0.00048310644329492244
-0.4987040583924681,-0.4987040583924681,0.9998608642096226,0.0005329178479189093
-0.4985510100494139,-0.4985510100494139,0.999457462932279,0.0003986777748053416
-0.4984558843767445,-0.4984558843767445,0.9996994200825459,0.00037010759933304375
-0.49830553208303174,-0.49830553208303174,0.9999392298074431,0.00046852122493053173
-0.49809439034288516,-0.49809439034288516,1.0001262925311738,0.0005459277353833293
-0.49792549775302175,-0.49792549775302175,1.000234801799506,0.00036166274358686266
-0.4978029665253416,-0.4978029665253416,1.0003801539555155,0.00040833685472410695
-0.49768388855300144,-0.49768388855300144,1.0001061374651972,0.00046090109613801963
-0.4975610039051389,-0.4975610039051389,1.000152519451504,0.0004841550539000968
-0.4974156776799646,-0.4974156776799646,0.9997064123775357,0.00039990492310298524
-0.4972735819857917,-0.4972735819857917,0.9999780974534851,0.00046246443511874463
-0.4971156118219369,-0.4971156118219369,1.0000101631187015,0.00046986670179593754
-0.49702148546493846,-0.49702148546493846,0.999828762272233,0.0004717290152498188
-0.4969020746153546,-0.4969020746153546,1.0000867392909112,0.0004121137047685045
-0.4967465380454087,-0.4967465380454087,0.9999626347859969,0.000396384783431212
-0.49659092514484654,-0.49659092514484654,0.9998901817694069,0.00048095031498914724
-0.4964140219417459,-0.4964140219417459,0.9997815118494906,0.0004682563873479028
-0.4962460686016129,-0.4962460686016129,0.9996675648077294,0.00040836013756313696
-0.4961514872673433,-0.4961514872673433,0.9995033916641705,0.0004379534413788244
-0.4960235236947483,-0.4960235236947483,0.9997536646687607,0.00048709839034485577
-0.4958486180017644,-0.4958486180017644,1.0003851584996384,0.0003927955052306061
-0.49570449961101987,-0.49570449961101987,1.000259618986117,0.0005429456503157492
-0.49555428595340345,-0.49555428595340345,0.9998911872431815,0.0003695037399122355
-0.49536937087468685,-0.49536937087468685,0.9999062325868436,0.0003883444493188943
-0.4952276643671212,-0.4952276643671212,1.0001237246248884,0.0003981744377992692
-0.4950739457795862,-0.4950739457795862,0.999699096891135,0.00047298260352314546
-0.49495331002326565,-0.49495331002326565,1.0003076866237448,0.0003941545902138821
-0.4948867034639989,-0.4948867034639989,1.0002775182773207,0.00041687195865585503
-0.4947883447115601,-0.4947883447115601,1.000243768952061,0.0003989289417956742
-0.4946997451079369,-0.4946997451079369,0.9996290502070704,0.0004340791533770441
-0.49450436533225,-0.49450436533225,0.9993286984939788,0.00039832190641903465
-0.49432289168034915,-0.49432289168034915,1.000091761710586,0.00040976434519691615
-0.4942238929594168,-0.4942238929594168,0.9999483042201188,0.0004453165859235582
-0.4940758430006099,-0.4940758430006099,0.9994036144443029,0.0004733890399124061
-0.49398167759354694,-0.49398167759354694,0.9999697377997785,0.00043734974942104986
-0.49385038799155156,-0.49385038799155156,1.0003151340328365,0.00039931936932245877
-0.49378435482212807,-0.49378435482212807,0.9997957577802351,0.0004480841157114909
-0.493667720240046,-0.493667720240046,1.0001303369477939,0.0004839203965818207
-0.49346005285115097,-0.49346005285115097,1.000118949664186,0.00041927556608073945
-0.49333319474462767,-0.49333319474462767,0.9997872552226141,0.00041094755159218154
-0.4932300820059027,-0.4932300820059027,0.9997057074541239,0.00041261006742352325
-0.49306632269072,-0.49306632269072,1.0004989878518473,0.00048587411806225026
-0.49293789874063804,-0.49293789874063804,1.0000160985304243,0.0004045463930164154
-0.4928667856795073,-0.4928667856795073,1.0003119934561073,0.00039434835824814836
-0.49280506835857524,-0.49280506835857524,0.9994110491739858,0.00043786154783809726
-0.49266447741465524,-0.49266447741465524,1.0001859736307879,0.0004589028359970166
-0.4925217836134834,-0.4925217836134834,1.0002544833545401,0.0004007429267783863
-0.4924169093683304,-0.4924169093683304,0.9998621946083235,0.0003675555729831245
-0.49232595781213606,-0.49232595781213606,1.0000174328412692,0.00048540736875575443
-0.49222962248313706,-0.49222962248313706,0.999421353743031,0.0005669344349721057
-0.49210066372033906,-0.49210066372033906,1.0005177182943439,0.00045996557907084076
-0.49200777547230246,-0.49200777547230246,1.000360166881304,0.00045717878347386806
-0.4919331925382721,-0.4919331925382721,0.9998742157194979,0.00041778211418193003
-0.49184494810688195,-0.49184494810688195,0.9999184969707539,0.00047199401290696954
-0.4916741402172192,-0.4916741402172192,0.9994642156267389,0.0004526008343543128
-0.4915124762657797,-0.4915124762657797,1.000315134030219,0.0003843511304843848
-0.49146286609829987,-0.49146286609829987,1.0002382948403485,0.00040163682988531664
-0.4912464780914888,-0.4912464780914888,1.0008705299857419,0.0004471838938939078
-0.4910252218061942,-0.4910252218061942,0.9998579391794209,0.0004614566991761728
-0.4908690308926452,-0.4908690308926452,1.000187996834222,0.0004073699484337643
-0.490721359114832,-0.490721359114832,0.9998213310071715,0.0004610742474125281
-0.49055511802216645,-0.49055511802216645,0.9999813516321625,0.00039772379801866016
-0.49043239295569946,-0.49043239295569946,0.9998876980841175,0.0003769900905139978
-0.49023158088020863,-0.49023158088020863,0.9996574809187845,0.0003869948351355744
-0.4900547822981025,-0.4900547822981025,0.9998880283373126,0.0004894611398292416
-0.48996060587960527,-0.48996060587960527,1.000314983119028,0.00046904224474007274
-0.48986042713731875,-0.48986042713731875,1.000198685065865,0.0003947798620560513
-0.489680918083468,-0.489680918083468,1.0001961793678409,0.0004014475408349987
-0.489501902901975,-0.489501902901975,1.0001192858865409,0.00046082575292733457
-0.489347890058707,-0.489347890058707,1.0004708243439535,0.0004130191709880417
-0.48927253719448344,-0.48927253719448344,1.0001142004235706,0.0004753602571723938
-0.4892019101243932,-0.4892019101243932,0.9996591482836902,0.00047170235663229727
-0.4891065848452854,-0.4891065848452854,1.0004504101805611,0.0003967168123424999
-0.4890533700367087,-0.4890533700367087,0.9998549943278896,0.0004112482754448527
-0.48895133754922426,-0.48895133754922426,0.9997985022839966,0.00040185014850508283
-0.488763871336414,-0.488763871336414,1.0005344562299707,0.00046173001765930906
-0.48858914574739176,-0.48858914574739176,0.9999470265670102,0.00039415012438554143
-0.488414889935666,-0.488414889935666,1.000023677898461,0.0003818341488989405
-0.48821357359629475,-0.48821357359629475,0.9997975985105917,0.0004287075003372509
-0.48803966794293957,-0.48803966794293957,1.0005096934474702,0.000481721167410236
-0.4879388519933855,-0.4879388519933855,0.999591530316577,0.0004145170500007945
-0.4878498706471873,-0.4878498706471873,0.9996304759201902,0.000434513424648276
-0.487751108755765,-0.487751108755765,0.9999800183483931,0.0003639935802930461
-0.48763346416890274,-0.48763346416890274,0.9999931955326755,0.00045784165600644454
-0.48748854077493886,-0.48748854077493886,0.9995548601185111,0.00039449775984933813
-0.48737919189588863,-0.48737919189588863,1.000348397633831,0.0004590830369500626
-0.4872807247462333,-0.4872807247462333,0.9998685919684535,0.0004049433836687996
-0.48717049647457317,-0.48717049647457317,1.0002477348657106,0.00038887324694099573
-0.48707348983662085,-0.48707348983662085,0.9999210363100184,0.00048235709694218604
-0.4869520265361643,-0.4869520265361643,1.0000467347871602,0.00055868159067522
-0.4868469488174014,-0.4868469488174014,1.0004111162888276,0.0004950357453114041
-0.4867511657314026,-0.4867511657314026,1.0003047629617845,0.00036780597354032693
-0.4866424325708067,-0.4866424325708067,1.0004671862719785,0.0003554515903276673
-0.4864372861418815,-0.4864372861418815,1.0001680270856803,0.00041374065204745667
-0.4862888382180245,-0.4862888382180245,0.999676078617501,0.0003793427839828381
-0.4861518503741536,-0.4861518503741536,1.00017044924355,0.0004824116895527468
-0.48600009198562477,-0.48600009198562477,1.0003341897355424,0.00046284765245148353
-0.4858720924770751,-0.4858720924770751,0.9996649333901473,0.0003978484280643526
-0.48579614210902944,-0.48579614210902944,1.000105945241983,0.00041119138531426285
-0.4856574526464101,-0.4856574526464101,1.0006457413467866,0.0004757994939107066
-0.4855436107216519,-0.4855436107216519,1.00012167580889,0.0003872230353499261
-0.48541847117885484,-0.48541847117885484,0.9999425255704552,0.00047543401713437606
-0.4853565141536819,-0.4853565141536819,0.9997432650973096,0.0003834632455719243
-0.4852284230008081,-0.4852284230008081,0.9998193889866652,0.00048132373052035035
-0.48512896288011687,-0.48512896288011687,0.9996487444394333,0.0004944111221359658
-0.4849966981630132,-0.4849966981630132,0.9995683815160691,0.00037726347408518254
-0.48489081356383396,-0.48489081356383396,1.0002451215683787,0.0004059414998982808
-0.4847711891379731,-0.4847711891379731,1.0005163752034625,0.0003873613414513591
-0.4845984985491668,-0.4845984985491668,0.9992891827559391,0.0004725696474970309
-0.48450320253759854,-0.48450320253759854,1.0004109936773677,0.000351243707116827
-0.48439258544094627,-0.48439258544094627,1.0005925660037895,0.0004204932523631108
-0.48423582080286,-0.48423582080286,1.0000459437249658,0.0005037059072662046
-0.4840227361630241,-0.4840227361630241,0.9997118741583133,0.0004106007518574244
-0.4838829291074944,-0.4838829291074944,1.000469077063358,0.000470415897614448
-0.48377424528225677,-0.48377424528225677,1.0000183069293045,0.0003820317398447664
-0.4836884885466134,-0.4836884885466134,1.0004563105901334,0.00044160559522971564
-0.4835641213117924,-0.4835641213117924,0.9998515918593809,0.00040716962376768196
-0.48338892907850095,-0.48338892907850095,1.0001668361126093,0.0003842238988204424
-0.48325207255547864,-0.48325207255547864,0.9995648943040258,0.0003988324137981698
-0.48312332955756576,-0.48312332955756576,0.9998026230681125,0.0005419237689708933
-0.4830455212926609,-0.4830455212926609,1.0003165161896819,0.00039052124585424
-0.48297792715966353,-0.48297792715966353,0.9998712278930928,0.0004959222622247966
-0.48287909458958894,-0.48287909458958894,1.000134986781387,0.0003752245231222236
-0.4827808387526602,-0.4827808387526602,0.9996508660785353,0.00043549649880112275
-0.48261815649748313,-0.48261815649748313,0.9998850027584103,0.0003960447625363099
-0.4824860164517304,-0.4824860164517304,1.0005445229280099,0.00043631392867004735
-0.48232968885204175,-0.48232968885204175,0.9994270550468046,0.0004878704335058168
-0.48223859568315675,-0.48223859568315675,0.9998837321441678,0.0005377402689799618
-0.4821515269373776,-0.4821515269373776,0.9999349574744002,0.0003953100915432893
-0.4820588818874967,-0.4820588818874967,0.9999388910235893,0.0004649454570778676
-0.4819429706483788,-0.4819429706483788,0.9999781870009288,0.0004828233408901195
-0.48173980022911567,-0.48173980022911567,0.9999816607735277,0.0003735994255617283
-0.48155194192950146,-0.48155194192950146,0.9997500131197024,0.0003899884240832576
-0.4813506486098049,-0.4813506486098049,0.9995789046268924,0.00037207811009369563
-0.4811838180910854,-0.4811838180910854,1.0000504733295446,0.0004961497545712348
-0.481009061660734,-0.481009061660734,0.999794597649089,0.0004460643108448514
-0.4809540430069319,-0.4809540430069319,1.0005142660401298,0.00040362480544591206
-0.48086697171165727,-0.48086697171165727,1.0001736884305095,0.0004111311123695157
-0.4807387367764022,-0.4807387367764022,1.0000195130821583,0.00043838293320502255
-0.4806603822595207,-0.4806603822595207,0.9998127255404567,0.00046091789981729335
-0.48058207249487167,-0.48058207249487167,1.0001442977878265,0.0003805303609820649
-0.4804641117923893,-0.4804641117923893,0.9996103185017043,0.0003712209230973732
-0.48025992946131735,-0.48025992946131735,0.9998492010363295,0.0005332470541271461
-0.48011379345771277,-0.48011379345771277,1.0002597365994723,0.00047509090313717676
-0.47999509477522223,-0.47999509477522223,0.9999963915337702,0.000564126350192174
-0.47983465516153956,-0.47983465516153956,0.9998814508562773,0.00041365133788617706
-0.4797004029082018,-0.4797004029082018,0.9999832140019869,0.0003844558575677152
-0.4794654166231339,-0.4794654166231339,1.0001726558121384,0.00037314560174206364
-0.4791774732031627,-0.4791774732031627,1.0002125448369463,0.0004643026144313826
-0.47903580712591065,-0.47903580712591065,0.9998554730872797,0.00038383650825229586
-0.47892836646569775,-0.47892836646569775,1.0001914987987717,0.0004102219137859739
-0.4788424828730058,-0.4788424828730058,1.0002263702283176,0.00048290639602914233
-0.47878220290804163,-0.47878220290804163,0.9998181551532846,0.0004733931715148481
-0.47860755321598847,-0.47860755321598847,1.0002659768727789,0.00043067714752750434
-0.47850773760219456,-0.47850773760219456,1.0004758786728307,0.00046689839779467425
-0.47840006713959154,-0.47840006713959154,1.0000754696845728,0.00036953581281403845
-0.47832965428970053,-0.47832965428970053,0.9997289970760758,0.0004809305651157725
-0.47820597591708064,-0.47820597591708064,0.9998763178444705,0.0004961216271931419
-0.4780610872221587,-0.4780610872221587,1.000054986009848,0.0004122744022043376
-0.4779201960969658,-0.4779201960969658,1.000155395829388,0.00040209356164751773
-0.47773322672583163,-0.47773322672583163,1.0000197963680377,0.00045156347671399596
-0.4775650727453467,-0.4775650727453467,1.0003479709540526,0.00043067250129738885
-0.4774527000241505,-0.4774527000241505,1.0004312545930079,0.00042041723908057264
-0.47730731156334516,-0.47730731156334516,0.999985997261421,0.00046183790622115453
-0.4771460030795424,-0.4771460030795424,0.9998264938215943,0.0004297658980107834
-0.47695846935966985,-0.47695846935966985,1.0002330940460809,0.00045868649316190723
-0.47686655572470044,-0.47686655572470044,1.000469061420278,0.0004721687030233749
-0.47672761823559995,-0.47672761823559995,0.9997065804176936,0.0003857005741407206
-0.4766034796506574,-0.4766034796506574,0.9996410660670734,0.0003764411424171217
-0.47645205265434926,-0.47645205265434926,1.0000589478534694,0.0003954858800153312
-0.4763044029692537,-0.4763044029692537,0.9996703168323273,0.0004007802033618388
-0.47620024748248396,-0.47620024748248396,1.0001705023819956,0.000531390969649286
-0.4761180106936081,-0.4761180106936081,1.0000465983591766,0.0003988154151035975
-0.4760399139464425,-0.4760399139464425,0.9999287574454438,0.0003830984482579372
-0.47599155422794864,-0.47599155422794864,1.000422130618815,0.00039813100083394405
-0.47588407786461173,-0.47588407786461173,1.0002224039973622,0.0003995375883233879
-0.47576666742679663,-0.47576666742679663,1.0002289207903476,0.0004367624850811769
-0.4755561352772929,-0.4755561352772929,1.0004933257495274,0.00039612120245367084
-0.47547625105944463,-0.47547625105944463,1.0002059125352338,0.0004908708333769311
-0.4753972938720835,-0.4753972938720835,1.0002121963472574,0.00040147851804037935
-0.47527304313189234,-0.47527304313189234,0.999641006711674,0.0005152909211313749
-0.4751502172533947,-0.4751502172533947,1.0006369155082866,0.00041700536645159864
-0.4750190590471902,-0.4750190590471902,1.0007081282694297,0.0004731923151897497
-0.4748602275787562,-0.4748602275787562,1.0003601728711256,0.0003740117543157323
-0.47470593764301156,-0.47470593764301156,0.9998438416687977,0.00035401180557860035
-0.47459863463664076,-0.47459863463664076,0.9998232940548342,0.00037154372857819306
-0.47451027718634575,-0.47451027718634575,1.0002499004644172,0.0003751665941623409
-0.47433923989592586,-0.47433923989592586,1.0000635922087913,0.0004657814951685428
-0.47417324995331,-0.47417324995331,0.9997370816434804,0.0003903267611370258
-0.4740385017976223,-0.4740385017976223,0.9996394565515105,0.00044543468048216083
-0.4739831932260131,-0.4739831932260131,1.0001882634992534,0.0004069024991288324
-0.47389001249684953,-0.47389001249684953,1.0001910167165837,0.00042171098055229913
-0.4737875512772007,-0.4737875512772007,0.999490182565469,0.0004548445586304146
-0.4736849956861988,-0.4736849956861988,0.9995639231978922,0.00040892477273834815
-0.47365549765963805,-0.47365549765963805,0.9999148244857953,0.00037719715596332517
-0.47357218662364176,-0.47357218662364176,0.9999997408502139,0.0003838622972975581
-0.4734321630552586,-0.4734321630552586,0.9997529047291913,0.00043739417402299384
-0.473282397192088,-0.473282397192088,1.0000533847310078,0.0004508084681868504
-0.473172179976973,-0.473172179976973,0.9996474259832574,0.0004750086350559466
-0.47309154454997043,-0.47309154454997043,1.0001226625763562,0.00047145502723486044
-0.4730314022410312,-0.4730314022410312,0.9999160960027972,0.0005027701291205088
-0.4728223994818109,-0.4728223994818109,1.0003205865530507,0.00042348811595381764
-0.47271276156461683,-0.47271276156461683,0.9997538700238506,0.0004128166226963682
-0.47257756240142046,-0.47257756240142046,0.9998735188789082,0.0004685995440551191
-0.47236013756191825,-0.47236013756191825,0.9998435281419413,0.000527178494980981
-0.4721595820497896,-0.4721595820497896,0.9996086394811032,0.00038772420367474313
-0.4720264822848549,-0.4720264822848549,0.9995594044274956,0.0004038450327262792
-0.47190895590174475,-0.47190895590174475,0.9996744116378569,0.000465205253323101
-0.4717716934952477,-0.4717716934952477,0.9999278104188978,0.0004865011889161067
-0.4716223551236908,-0.4716223551236908,0.9997996914357007,0.0004668251184571576
-0.4714531056364649,-0.4714531056364649,1.0000469839768698,0.00045586632748530426
-0.4713230297937116,-0.4713230297937116,1.0002663129505651,0.0005012064918407936
-0.4711571367057331,-0.4711571367057331,1.000013460828424,0.0004131205204353285
-0.47098505978428873,-0.47098505978428873,0.9999381788085902,0.000378873487499089
-0.47080286745840566,-0.47080286745840566,1.000361529795564,0.0004337332073211141
-0.4705902885172691,-0.4705902885172691,1.0000350847837463,0.00043607806130876986
-0.4704846487584291,-0.4704846487584291,0.9993071367852633,0.0004686719811656687
-0.4704081858959398,-0.4704081858959398,1.00073252400736,0.0004009848113222355
-0.4702763572138792,-0.4702763572138792,1.0001836130717385,0.00048792790434972817
-0.47009761939843886,-0.47009761939843886,1.0002839102797592,0.00037660507387189966
-0.46995972238582906,-0.46995972238582906,1.0006977853150947,0.0005428851488630918
-0.4697790725964296,-0.4697790725964296,1.000440006326867,0.00038414531392384044
-0.46959965861751696,-0.46959965861751696,1.0006099990053237,0.0005295802248567822
-0.46949199072623743,-0.46949199072623743,0.9997745206020646,0.00039809586296689624
-0.46936235486282385,-0.46936235486282385,1.0000338897518393,0.00040196247847838545
-0.46923104751185746,-0.46923104751185746,1.000078753335666,0.00046978316508793923
-0.46916462891240374,-0.46916462891240374,1.0002101529957272,0.0004033199596976941
-0.46906692001866757,-0.46906692001866757,0.9997756593144682,0.000405291276347971
-0.46896058180791445,-0.46896058180791445,0.9996853550930351,0.0004009495323084234
-0.46874031044353615,-0.46874031044353615,1.0000041586234698,0.00039196025407129233
-0.4685759712920117,-0.4685759712920117,1.000015734748382,0.000409802636302221
-0.46844640402996446,-0.46844640402996446,1.0004630708676692,0.00044832239260203337
