time,time,flux,flux_err
-0.4991866376343144,-0.4991866376343144,1.0000438374776248,4.68906687665108e-05
-0.4969367177254753,-0.4969367177254753,0.9999782491800326,4.6928473150702275e-05
-0.4950479344879568,-0.4950479344879568,0.9999831977370808,4.688550201669034e-05
-0.49327312177532195,-0.49327312177532195,1.0000537379146544,4.694264371388803e-05
-0.49175480167468777,-0.49175480167468777,0.9999932700462546,4.279139512116663e-05
-0.48999374431878095,-0.48999374431878095,1.0000086096683127,4.2925450497467604e-05
-0.4885960699932184,-0.4885960699932184,1.0000442656291686,4.278903135988059e-05
-0.4870063073161873,-0.4870063073161873,1.000127317518281,4.294681489469875e-05
-0.48519161832809915,-0.48519161832809915,1.0000092295772784,4.279431300254636e-05
-0.48416053312830626,-0.48416053312830626,0.9999487395941171,4.298050546339621e-05
-0.48250275159080047,-0.48250275159080047,0.9999450743242712,4.27950959986585e-05
-0.480971486272756,-0.480971486272756,1.000033197586361,4.279337044598342e-05
-0.48018680601380764,-0.48018680601380764,1.000033244556825,4.303302162274811e-05
-0.4786982816833188,-0.4786982816833188,0.9999729071572357,4.2784406727719066e-05
-0.4771181368705584,-0.4771181368705584,0.9998881619778496,4.279096546490103e-05
-0.4761073150599259,-0.4761073150599259,0.9999552330645253,4.3118832697142484e-05
-0.47430100440833484,-0.47430100440833484,0.999968260377722,4.2781344556974894e-05
-0.47301953055284685,-0.47301953055284685,1.0000337708235925,4.289689165911783e-05
-0.471313447925786,-0.471313447925786,1.0000864478179534,4.2784436908623554e-05
-0.4696471709248726,-0.4696471709248726,0.9999827969471925,4.280931027016942e-05
-0.4684753919776995,-0.4684753919776995,0.9999994726856372,4.293609911499336e-05
-0.46654441263963237,-0.46654441263963237,0.9999546885331647,4.278573795500673e-05
-0.4650792582790018,-0.4650792582790018,1.0000467758031362,4.280833128552069e-05
-0.46335253964352885,-0.46335253964352885,1.000050941162302,4.3044186641799926e-05
-0.4618838027556194,-0.4618838027556194,1.0000074853894485,4.281897040998038e-05
-0.46034970518230695,-0.46034970518230695,0.9999966650541546,4.278583714581781e-05
-0.4587092183835921,-0.4587092183835921,1.0000530996140005,4.2788330418894635e-05
-0.45714097151503663,-0.45714097151503663,0.9999821256354438,4.281847007025313e-05
-0.45547576771496096,-0.45547576771496096,1.0000661305422436,4.279194111838335e-05
-0.45382382952520856,-0.45382382952520856,1.0000484276242916,4.285346227188079e-05
-0.4521408589222119,-0.4521408589222119,0.9999703209931207,4.279066975664034e-05
-0.4507120135531295,-0.4507120135531295,0.9999390179790861,4.2867520925265267e-05
-0.4490672863306827,-0.4490672863306827,0.9999822934644265,4.279169155619733e-05
-0.44723592711525273,-0.44723592711525273,1.0000186511325044,4.2910348175794905e-05
-0.4454233398631914,-0.4454233398631914,0.999948904011295,4.2792147008868816e-05
-0.44410005259996976,-0.44410005259996976,0.9999687122161578,4.282066549821791e-05
-0.44231700667296536,-0.44231700667296536,0.9999603981093577,4.2908175468156596e-05
-0.44077091843209926,-0.44077091843209926,0.9999785422389282,4.278636692844246e-05
-0.4395850440923823,-0.4395850440923823,1.000060557538617,4.282523344298734e-05
-0.4378631124287494,-0.4378631124287494,0.9999489061490611,4.278958948687133e-05
-0.43671641958353574,-0.43671641958353574,1.0000444846465122,4.2966052875865614e-05
-0.4351476424897555,-0.4351476424897555,1.0000593819483012,4.282793466231838e-05
-0.4333146240198403,-0.4333146240198403,0.9999608596996994,4.27926226163012e-05
-0.4321968127624132,-0.4321968127624132,1.0000266117048455,4.307352393313881e-05
-0.43051503067981683,-0.43051503067981683,1.0000055790265203,4.298078122858196e-05
-0.4293028499203501,-0.4293028499203501,1.0000234722063615,4.279520343188063e-05
-0.4277320402747137,-0.4277320402747137,1.0000783849532173,4.287142959597213e-05
-0.4260075505444547,-0.4260075505444547,1.0000220866640817,4.280306878112626e-05
-0.4249092411439051,-0.4249092411439051,0.9999968821679927,4.2914522886224366e-05
-0.42294884308503244,-0.42294884308503244,1.0000255525537813,4.278142263872591e-05
-0.4214795721825794,-0.4214795721825794,0.9999908903942171,4.280846198175541e-05
-0.4197389704873785,-0.4197389704873785,1.0000352042154952,4.30084887774206e-05
-0.4181027536309557,-0.4181027536309557,0.9999925234475958,4.282002029375069e-05
-0.41643468902475433,-0.41643468902475433,0.9999931798723898,4.278809537593249e-05
-0.41445306393725334,-0.41445306393725334,0.9999072060265727,4.282182027975988e-05
-0.412740241397114,-0.412740241397114,1.0000906170549815,4.277949245770956e-05
-0.41131878381129355,-0.41131878381129355,1.000027238809159,4.279896868940904e-05
-0.40973249429662245,-0.40973249429662245,1.0000728417329057,4.282920470799566e-05
-0.40821319249662336,-0.40821319249662336,1.0000133190411244,4.278757979554051e-05
-0.40656722825951874,-0.40656722825951874,0.9999382313743282,4.2864135401685925e-05
-0.40480639628513015,-0.40480639628513015,0.9999659940242231,4.2794056666337635e-05
-0.40313076409947823,-0.40313076409947823,0.9999952040675992,4.289396308261994e-05
-0.40150696717755635,-0.40150696717755635,0.9999811125264342,4.27892620948885e-05
-0.40016788467910375,-0.40016788467910375,0.9999904078290769,4.2816471152364795e-05
-0.39863452312129083,-0.39863452312129083,0.9999853665261839,4.289763731991039e-05
-0.39722720424761065,-0.39722720424761065,0.9999889979440996,4.278956343937263e-05
-0.39616818976646756,-0.39616818976646756,1.0000075629697813,4.300370868329371e-05
-0.39465368100791237,-0.39465368100791237,1.0000376785552154,4.41044583533727e-05
-0.3933733487065183,-0.3933733487065183,1.0000267761438901,4.279084222014155e-05
-0.3923244657489704,-0.3923244657489704,1.0000545408090697,4.299269855423776e-05
-0.3905971835643868,-0.3905971835643868,0.9999947390883834,4.279265129176039e-05
-0.3891623794377665,-0.3891623794377665,0.9999181771778545,4.298731743519593e-05
-0.38808956184075216,-0.38808956184075216,0.9999783013611095,4.2847973670170076e-05
-0.3861327893464477,-0.3861327893464477,1.0000476781904857,4.279769728825993e-05
-0.38510069028125143,-0.38510069028125143,1.000049357083208,4.315145876547147e-05
-0.3834853057516739,-0.3834853057516739,1.000030212774341,4.277834844769486e-05
-0.3817937548432383,-0.3817937548432383,1.000008408587735,4.2797008647423086e-05
-0.3803880026200204,-0.3803880026200204,1.000021399095965,4.29015219724574e-05
-0.3782600493723294,-0.3782600493723294,1.0001574236069566,4.2790785659929836e-05
-0.37717678054759746,-0.37717678054759746,1.0000840244596292,4.297199218359838e-05
-0.37540405126637777,-0.37540405126637777,1.0000428151436458,4.298044108802859e-05
-0.373994664507336,-0.373994664507336,0.9999958392074321,4.281767818819558e-05
-0.37249703624111136,-0.37249703624111136,0.9999267478844258,4.277652911681257e-05
-0.3705509852632531,-0.3705509852632531,1.0000216421672632,4.279028031870339e-05
-0.3691143201329396,-0.3691143201329396,0.99996014330174,4.2817103249472794e-05
-0.3673479061966646,-0.3673479061966646,1.0000370213998857,4.27962041035832e-05
-0.3658224110986339,-0.3658224110986339,0.9999980974389315,4.281875148242686e-05
-0.36428587752452585,-0.36428587752452585,0.9999942209994652,4.2790365501304056e-05
-0.36237108682107644,-0.36237108682107644,0.9999718038966379,4.2856011686158034e-05
-0.3608861084692762,-0.3608861084692762,0.9999998025781037,4.279410265951819e-05
-0.3593501540235593,-0.3593501540235593,0.9999668906332339,4.28041638509515e-05
-0.35789718922023894,-0.35789718922023894,1.00002897686658,4.286643829929911e-05
-0.3567488206841517,-0.3567488206841517,0.9999599871637962,4.278853499494137e-05
-0.35478773710783573,-0.35478773710783573,1.0000085385624535,4.2919850549329915e-05
-0.35331125528464324,-0.35331125528464324,0.9999842903276189,4.2788764448804115e-05
-0.3518606361714774,-0.3518606361714774,1.000041841996017,4.294093622215325e-05
-0.3500174694490852,-0.3500174694490852,0.9999893572277452,4.27959151034717e-05
-0.3486964385039755,-0.3486964385039755,0.9999422519194605,4.282920546758608e-05
-0.3469985673233168,-0.3469985673233168,1.000001029138713,4.2792841422030805e-05
-0.34545524973073044,-0.34545524973073044,0.9999742256351555,4.2969862954544684e-05
-0.34446432541444666,-0.34446432541444666,1.0000808404187314,4.284127595298042e-05
-0.3427657015752629,-0.3427657015752629,0.9999843431209771,4.279461274781362e-05
-0.34149973310995846,-0.34149973310995846,0.9999256095884009,4.302478525537468e-05
-0.34023556996980914,-0.34023556996980914,0.9999542318125301,4.2857232674224885e-05
-0.33847129851637875,-0.33847129851637875,1.0000418395651653,4.279109838778345e-05
-0.337203696994402,-0.337203696994402,0.9999367716453449,4.2888786792740246e-05
-0.3353842887256178,-0.3353842887256178,0.9999521717393927,4.2795447353215045e-05
-0.3339706673621549,-0.3339706673621549,1.0000540206779065,4.278588560110194e-05
-0.33268396048079013,-0.33268396048079013,1.0000216611959263,4.292312275944066e-05
-0.3306078037174302,-0.3306078037174302,1.0000963996707042,4.278959365348761e-05
-0.3292485689104069,-0.3292485689104069,0.9999447069262178,4.280322334917984e-05
-0.3274413372302661,-0.3274413372302661,0.9999579169742022,4.302469986141216e-05
-0.32615825533139287,-0.32615825533139287,1.000060954988777,4.283265771783609e-05
-0.3243657125945901,-0.3243657125945901,0.9999468464226771,4.2780459523017924e-05
-0.32258222842065154,-0.32258222842065154,1.0000065337804234,4.2824558110810194e-05
-0.3209807392719085,-0.3209807392719085,1.0001120161294181,4.2787724079358784e-05
-0.31935426898417063,-0.31935426898417063,1.0000530984918337,4.2800223676120706e-05
-0.31786297195358204,-0.31786297195358204,0.9999813006063623,4.283318066087437e-05
-0.31627735488000325,-0.31627735488000325,0.9999987248410085,4.27865659361175e-05
-0.3148354175631539,-0.3148354175631539,1.0000015449118158,4.286989101694691e-05
-0.3132155148021411,-0.3132155148021411,1.0000126739090753,4.2792592135187027e-05
-0.31130263255909085,-0.31130263255909085,0.9999859252833894,4.290285186845726e-05
-0.3095871287790942,-0.3095871287790942,1.0000253773419523,4.2793979000129494e-05
-0.3082938747975277,-0.3082938747975277,1.0000621122416067,4.281923533692914e-05
-0.3064759938366478,-0.3064759938366478,1.0000243266243256,4.290664503773266e-05
-0.3050284103766899,-0.3050284103766899,1.0000156595782577,4.2794754927671846e-05
-0.3033586043631658,-0.3033586043631658,1.0000156543216003,4.2972285842630084e-05
-0.30178536015737334,-0.30178536015737334,0.9999599876463977,4.278720039839715e-05
-0.30073567404033386,-0.30073567404033386,1.0000372224043694,4.299724870109154e-05
-0.2988282848556992,-0.2988282848556992,0.9999770819243754,4.278415398892382e-05
-0.2974542080439278,-0.2974542080439278,0.9999797849088325,4.300023458315816e-05
-0.2958793621932273,-0.2958793621932273,0.9999709100764915,4.283874150767576e-05
-0.29394120676879537,-0.29394120676879537,1.0000024618554735,4.279704547058585e-05
-0.2925571723462781,-0.2925571723462781,0.9999911111792941,4.286768885940823e-05
-0.2908102541856351,-0.2908102541856351,1.0000371487575417,4.2795645040752446e-05
-0.28953433275601126,-0.28953433275601126,1.000073403575625,4.291797236927665e-05
-0.2877897228128859,-0.2877897228128859,0.9999750468836943,4.277195779157527e-05
-0.2861584449885413,-0.2861584449885413,1.000018868188493,4.281590520109415e-05
-0.28500904280663236,-0.28500904280663236,1.0000109217895496,4.295854443596695e-05
-0.28319080868677704,-0.28319080868677704,1.0000506709368384,4.2997784242902046e-05
-0.28188292086706496,-0.28188292086706496,0.9999910246550406,4.2810223214290474e-05
-0.28006266351003434,-0.28006266351003434,1.0000665148845453,4.2780637876388164e-05
-0.27828475889837134,-0.27828475889837134,1.000044216910408,4.2825340561304584e-05
-0.276321610933519,-0.276321610933519,0.9999722546688894,4.27825904999726e-05
-0.274442887645273,-0.274442887645273,0.9999798925550751,4.2828789663755586e-05
-0.27304654097679304,-0.27304654097679304,0.9999707710734892,4.278662597965323e-05
-0.27111496171128235,-0.27111496171128235,1.0000641575984133,4.2866156871913415e-05
-0.2692950850629131,-0.2692950850629131,1.0000286273954115,4.279273584973899e-05
-0.267762488151493,-0.267762488151493,1.0001382085888353,4.2805445344235896e-05
-0.26630606575054117,-0.26630606575054117,1.0000487196411405,4.2873257477668195e-05
-0.2652031730947783,-0.2652031730947783,0.999996220032296,4.278728183622544e-05
-0.26363984938361684,-0.26363984938361684,0.999944927129245,4.291886806462589e-05
-0.26191116179543317,-0.26191116179543317,1.0000511651399893,4.279173484306688e-05
-0.2606421016025706,-0.2606421016025706,0.9999175281904853,4.282334841842893e-05
-0.25880590230372036,-0.25880590230372036,0.9999821231315037,4.291920735260262e-05
-0.2573861817712896,-0.2573861817712896,1.0000050804005602,4.293618117808574e-05
-0.2561883988295449,-0.2561883988295449,1.0001007137916038,4.282878132470657e-05
-0.2543409770296421,-0.2543409770296421,0.9999888634790661,4.279507543497841e-05
-0.25333548565395175,-0.25333548565395175,0.9999742062578317,4.302377817968463e-05
-0.25192290164850417,-0.25192290164850417,0.9999965947106542,4.279761904164596e-05
-0.2502237620370579,-0.2502237620370579,1.000040982536269,4.2798037663216654e-05
-0.24933460618776734,-0.24933460618776734,1.000042311199603,4.311897903045559e-05
-0.24755477111175422,-0.24755477111175422,1.0000081664854197,4.279039164898747e-05
-0.24612350156967294,-0.24612350156967294,1.0000039298491519,4.27842147419611e-05
-0.24454683966905577,-0.24454683966905577,1.000009009157452,4.28849364904125e-05
-0.2428405221842695,-0.2428405221842695,1.0000344324295067,4.280649449546954e-05
-0.24171969770395663,-0.24171969770395663,1.0000196603216,4.2937110684223545e-05
-0.2397733520818292,-0.2397733520818292,0.9999567215440701,4.277467419854868e-05
-0.23829076031106525,-0.23829076031106525,1.0000085008903177,4.280992937603168e-05
-0.2365616200870136,-0.2365616200870136,0.9999964429784904,4.30463299981721e-05
-0.23503756207064724,-0.23503756207064724,0.9999647224745676,4.280567166812198e-05
-0.23360812158935004,-0.23360812158935004,1.0000329916546282,4.279485423466145e-05
-0.23197987228340936,-0.23197987228340936,0.9999993515052875,4.277268600986862e-05
-0.23031760243029567,-0.23031760243029567,1.000011273515792,4.283266783356266e-05
-0.22877085788786644,-0.22877085788786644,0.9999994478443746,4.278771363624279e-05
-0.2270081056340132,-0.2270081056340132,1.0000058082140177,4.284894589139819e-05
-0.2256230625731405,-0.2256230625731405,0.999987888622579,4.278566548576805e-05
-0.22414045424520737,-0.22414045424520737,1.0000632963267941,4.27847344984105e-05
-0.22289269338652956,-0.22289269338652956,1.0000249747759393,4.288232616255914e-05
-0.2213067075237632,-0.2213067075237632,1.0000851810659295,4.2793495257886746e-05
-0.21927775879012187,-0.21927775879012187,1.0000020888412728,4.291259337471005e-05
-0.21780253472388722,-0.21780253472388722,1.0000626096153655,4.27922421904847e-05
-0.21634126798744546,-0.21634126798744546,1.0000839509494321,4.293613086619337e-05
-0.21450497411278774,-0.21450497411278774,1.0000187234609175,4.279505293485388e-05
-0.2131811448096414,-0.2131811448096414,1.0000188548509428,4.2829694429932e-05
-0.21121769639285048,-0.21121769639285048,1.000028888945136,4.27925906164693e-05
-0.20972262599825625,-0.20972262599825625,1.0000481469078157,4.29616277820421e-05
-0.208498910968774,-0.208498910968774,1.0000080417694552,4.2830790788009146e-05
-0.20646483226882992,-0.20646483226882992,1.0000339938847378,4.279239864197927e-05
-0.20540902709471992,-0.20540902709471992,1.0001142266185925,4.307284090774192e-05
-0.20334287136938656,-0.20334287136938656,0.9999725364294114,4.2787792982965135e-05
-0.20198747149115662,-0.20198747149115662,1.0000398112883286,4.2883009257688755e-05
-0.20029766740335617,-0.20029766740335617,1.0000129383675247,4.277869555763547e-05
-0.19861739000625675,-0.19861739000625675,1.0000309455842908,4.280216763062024e-05
-0.19746453635452782,-0.19746453635452782,1.0000278937058074,4.291443420901962e-05
-0.1955013483631774,-0.1955013483631774,0.9999783205923478,4.278315147962855e-05
-0.1943814793121419,-0.1943814793121419,0.9999884075227063,4.300304437496881e-05
-0.19307279095519334,-0.19307279095519334,1.0000833736128203,4.27827118854881e-05
-0.19127507547382266,-0.19127507547382266,1.0000199187014138,4.301268773317421e-05
-0.18970032008801355,-0.18970032008801355,0.9999375171097734,4.281169726250246e-05
-0.18773553426726722,-0.18773553426726722,0.9999533427603386,4.278695973342658e-05
-0.1859724982525222,-0.1859724982525222,1.0000423336771347,4.281489195355974e-05
-0.1846046251928783,-0.1846046251928783,0.9999527611218003,4.278351043129296e-05
-0.18285120804648614,-0.18285120804648614,1.0000289545489713,4.2838206802519674e-05
-0.18145521726983133,-0.18145521726983133,1.0000196884185661,4.279401969782322e-05
-0.17972761273704235,-0.17972761273704235,1.0000445053061662,4.2864110487079495e-05
-0.1780486593255773,-0.1780486593255773,1.000034203234364,4.2791995300429236e-05
-0.17647039418370697,-0.17647039418370697,1.000006382353788,4.27843949283594e-05
-0.1750419033720391,-0.1750419033720391,1.0000263921346952,4.289996709794119e-05
-0.17366055584134302,-0.17366055584134302,1.000047136166391,4.2790085927818445e-05
-0.1720513500418747,-0.1720513500418747,1.000036059024528,4.292394517092206e-05
-0.17032043504150352,-0.17032043504150352,0.9999895221182973,4.279722218716937e-05
-0.16905525684414896,-0.16905525684414896,1.0000357777172244,4.282852626545866e-05
-0.167215169906558,-0.167215169906558,1.000041413755099,4.292540432784704e-05
-0.1657973469584249,-0.1657973469584249,1.0000911009480524,4.29478190501654e-05
-0.1645915639877785,-0.1645915639877785,1.0000793196887423,4.282963293952533e-05
-0.16275530623533996,-0.16275530623533996,1.0000634815945972,4.279685509912428e-05
-0.16174507365503815,-0.16174507365503815,0.9999419276208243,4.303188938149529e-05
-0.16032663937367034,-0.16032663937367034,1.0000472693725466,4.279552991845619e-05
-0.15842676585452864,-0.15842676585452864,1.0000296360662164,4.279742224948795e-05
-0.15741086393827572,-0.15741086393827572,0.9999486768447252,4.314137952361522e-05
-0.1556091765363817,-0.1556091765363817,1.0000076357701857,4.278715075119263e-05
-0.1543291865295032,-0.1543291865295032,1.000000851757379,4.290257620322404e-05
-0.15235366960405372,-0.15235366960405372,1.000013356696995,4.2805150420661666e-05
-0.1508054810023168,-0.1508054810023168,0.9999957634993082,4.280990971530116e-05
-0.14978238149778916,-0.14978238149778916,1.0000107708902797,4.2940589207282965e-05
-0.1479922004349646,-0.1479922004349646,1.000041635425156,4.297860391252992e-05
-0.14669640767388045,-0.14669640767388045,1.000092083371739,4.281468390857242e-05
-0.1449730045715114,-0.1449730045715114,0.9999285855689874,4.3061264258629695e-05
-0.1434480671028723,-0.1434480671028723,0.9999908091966627,4.278897876162243e-05
-0.14201330284995492,-0.14201330284995492,1.0000249658947413,4.281651231683715e-05
-0.14024463596724673,-0.14024463596724673,0.9999890066846824,4.27930397188397e-05
-0.13844480667466996,-0.13844480667466996,1.0000506974244217,4.28234079069367e-05
-0.1367826192479697,-0.1367826192479697,1.0000145893687606,4.279071501036092e-05
-0.13520068435318536,-0.13520068435318536,0.9999983741279233,4.284677538937653e-05
-0.13378387498523808,-0.13378387498523808,0.9999649740412127,4.279090753365485e-05
-0.13224707628396573,-0.13224707628396573,0.9999755665827728,4.2802312900765825e-05
-0.130750825672294,-0.130750825672294,0.999967414856377,4.2864796349501046e-05
-0.12928743304801174,-0.12928743304801174,1.000014840592319,4.278920997637694e-05
-0.12737731168163008,-0.12737731168163008,0.999929455589052,4.291454123380478e-05
-0.12598469927179395,-0.12598469927179395,0.9999676444743109,4.2786341342549054e-05
-0.12438889641052811,-0.12438889641052811,0.9999971583856666,4.293316939246535e-05
-0.12257839218655135,-0.12257839218655135,1.0000420786635558,4.279638752487377e-05
