time,time,flux,flux_err
-0.49897479459771904,-0.49897479459771904,1.0001583022002294,0.00022927368633870776
-0.49743096631330747,-0.49743096631330747,1.0002039062866084,0.00022949741341828073
-0.4960594827577249,-0.4960594827577249,0.9998268626445018,0.0002290835039996142
-0.4943210406254366,-0.4943210406254366,0.9998935731283692,0.00023197144888335757
-0.49282061963749585,-0.49282061963749585,1.0001032922505915,0.00020935479224265668
-0.49162278596340914,-0.49162278596340914,1.000025691218338,0.00020926597861022474
-0.49012331292251476,-0.49012331292251476,1.0004817742650758,0.00020922234273352408
-0.48863994892453777,-0.48863994892453777,0.9999927052096776,0.00020931914069221858
-0.4874999164210749,-0.4874999164210749,0.999953558527827,0.00020945386818187333
-0.4862551691927365,-0.4862551691927365,0.9996941569783034,0.00021012379838490815
-0.48465383000657314,-0.48465383000657314,0.9999975281560699,0.00020968777203723724
-0.48319600193499357,-0.48319600193499357,0.9997251686571273,0.00020933371887799822
-0.48202068485552446,-0.48202068485552446,0.9998138141076056,0.00020999718970154315
-0.480806941503397,-0.480806941503397,1.0004057586404413,0.0002091856000964638
-0.47941076835923013,-0.47941076835923013,1.0001536601087897,0.0002367819888835563
-0.4780472656202619,-0.4780472656202619,1.0000251223481165,0.00020931230955146055
-0.4764642971167632,-0.4764642971167632,1.00001073684668,0.00022547100194889483
-0.4750426764927397,-0.4750426764927397,0.9997555543885517,0.00020917874096161096
-0.4738398189489089,-0.4738398189489089,1.0001188371413572,0.0002094527223140222
-0.4726241998250771,-0.4726241998250771,0.9999555916355785,0.0002094840879671784
-0.47150246924720707,-0.47150246924720707,0.9997687896453475,0.0002090379036620659
-0.4701992806250928,-0.4701992806250928,0.9991669801317128,0.0003932914377084118
-0.46848198522566237,-0.46848198522566237,0.9997155808112085,0.0002093354280347595
-0.467174271242402,-0.467174271242402,0.9998733256361335,0.00020907331173398853
-0.4657560687250225,-0.4657560687250225,1.0001982223850177,0.00020936671380479462
-0.4642427870319807,-0.4642427870319807,1.0005677351416142,0.00020932215755501112
-0.46303097094714757,-0.46303097094714757,0.9999176650403111,0.00020934676388301596
-0.4617600681631302,-0.4617600681631302,1.000207095984542,0.00020936824283266492
-0.45978227040614,-0.45978227040614,0.9999965641614834,0.00021005924289810686
-0.4582860703754704,-0.4582860703754704,1.0000305636776834,0.00020928240715970388
-0.45698025839737966,-0.45698025839737966,0.9997705793533609,0.00020930158613697544
-0.4555467409438279,-0.4555467409438279,0.9994875367255762,0.00020918298080884715
-0.4539039888317348,-0.4539039888317348,1.0000379278588831,0.00020929116705393035
-0.45226559104048647,-0.45226559104048647,1.0000233562018461,0.00021834563173112523
-0.4506933250821021,-0.4506933250821021,0.999838438911581,0.0002093421507177159
-0.4491551360792073,-0.4491551360792073,1.0001169257689377,0.00020932402919987452
-0.44793805552399135,-0.44793805552399135,0.999792955131032,0.00020944167466895876
-0.4468245331161597,-0.4468245331161597,0.9997895860476742,0.00020904809791010736
-0.4455038548672746,-0.4455038548672746,1.0002473576418942,0.00033539354052251186
-0.44379244098890924,-0.44379244098890924,0.9999714535729259,0.00020935161491371831
-0.44229807641968366,-0.44229807641968366,0.9998815209227871,0.00020930191096852407
-0.44074358337020386,-0.44074358337020386,0.9997026335039119,0.00020921934357568382
-0.4392657163429249,-0.4392657163429249,0.9996155904719496,0.00020927600455589537
-0.43812433238126686,-0.43812433238126686,1.000304188039848,0.00020949319463379996
-0.43716795010550413,-0.43716795010550413,1.0001503586516414,0.00020905934096628965
-0.43556444602290867,-0.43556444602290867,0.9998869020857093,0.00021048737423625015
-0.4344498247060983,-0.4344498247060983,0.999673558016171,0.00021168387896767469
-0.4333689551713178,-0.4333689551713178,1.0000737902463603,0.00020927220711178018
-0.4319516261391982,-0.4319516261391982,0.9999582299861067,0.00020925825779599897
-0.43048468033739484,-0.43048468033739484,0.9997987372607561,0.00020930101742744765
-0.42895160261832643,-0.42895160261832643,1.0000774361393527,0.00020934244957751725
-0.42743876116001045,-0.42743876116001045,0.9997423947443324,0.00021443037393474937
-0.4256640921761573,-0.4256640921761573,0.9998751791888619,0.0002092412790879327
-0.4242003586005012,-0.4242003586005012,1.000044912297757,0.0002093483387488291
-0.42302313779655376,-0.42302313779655376,0.9998999448065382,0.00020950545832924806
-0.421806536449003,-0.421806536449003,0.9997159381853349,0.00020911718916031565
-0.42010663941327947,-0.42010663941327947,0.9995027925261064,0.0002902428626121799
-0.41850234863013613,-0.41850234863013613,0.9998344939773517,0.00020928118270665072
-0.4169208159917616,-0.4169208159917616,1.0001711736386596,0.00020923239948984927
-0.41548441565319083,-0.41548441565319083,0.9998639011835276,0.00020929373273898894
-0.4141380436376494,-0.4141380436376494,1.0002336427341043,0.00020928698421511554
-0.41289195422141345,-0.41289195422141345,1.0000456504207202,0.0002094269801789838
-0.4116061641325359,-0.4116061641325359,1.0001099761222076,0.00021111337695908206
-0.4099318673113885,-0.4099318673113885,0.9996971195265048,0.00020928365043241577
-0.40890442339223226,-0.40890442339223226,1.000301101056335,0.0002106117501463712
-0.40760684767592464,-0.40760684767592464,0.9999022684600204,0.00020928196995524478
-0.40616733156421103,-0.40616733156421103,1.00003657360558,0.00020922867613504433
-0.40473658788469036,-0.40473658788469036,0.9998297740499623,0.00020929019223326446
-0.40361670876809513,-0.40361670876809513,1.0002083436769884,0.00020948256603925676
-0.40194992086835557,-0.40194992086835557,0.999951525663683,0.00021169927904331545
-0.40039748379203954,-0.40039748379203954,1.0002324087398968,0.00020929159790168228
-0.3990644281540881,-0.3990644281540881,0.9998505402214756,0.00020930204733436526
-0.39784212758240756,-0.39784212758240756,0.9997319535401175,0.00020966019674120397
-0.39646780059847514,-0.39646780059847514,0.999905604343079,0.00025847319138657375
-0.39491504931793314,-0.39491504931793314,0.9999623575336647,0.00020929349740448567
-0.3931960169698868,-0.3931960169698868,1.0000122938540597,0.00020926167456884956
-0.39169713602022965,-0.39169713602022965,0.9998420821471408,0.00020938865420073606
-0.39016923854433117,-0.39016923854433117,1.0003000056933504,0.00020935818260995527
-0.3889422678767005,-0.3889422678767005,0.9997487183162187,0.00020944972485615053
-0.38781143198357315,-0.38781143198357315,1.0003227339312137,0.0002090601013964515
-0.3861902122211177,-0.3861902122211177,0.9999054851382567,0.00021221350510811378
-0.3846904481863021,-0.3846904481863021,0.9999141543884337,0.00020935606277912197
-0.38348909659325725,-0.38348909659325725,1.000122592529481,0.0002093260237337333
-0.3820723689488659,-0.3820723689488659,0.9997502383760587,0.00020913839247388828
-0.38056657862616705,-0.38056657862616705,0.9999750065051881,0.0002093010886948659
-0.37934958850382827,-0.37934958850382827,1.0000295308526226,0.00020932447253652533
-0.3781448314424779,-0.3781448314424779,0.999885630501792,0.0002102742439145329
-0.3766361254885851,-0.3766361254885851,1.0001108280208488,0.00020978855973890977
-0.37508336081082233,-0.37508336081082233,1.0001911264933994,0.0002093587169778595
-0.3739381980463804,-0.3739381980463804,1.00017456856279,0.00020980195418139106
-0.37294354425830534,-0.37294354425830534,1.0000220572520366,0.00020927768410445154
-0.37166897375209373,-0.37166897375209373,0.9997367607915624,0.00024114351169006757
-0.3704924290264898,-0.3704924290264898,1.0002725309922473,0.0002093184754987174
-0.36897506475434055,-0.36897506475434055,1.0001308398746016,0.00022650058873725974
-0.36756180278098327,-0.36756180278098327,0.9999927103557195,0.0002092500869086971
-0.3661022292326379,-0.3661022292326379,1.0002050680955517,0.0002092598054381731
-0.36476104491594014,-0.36476104491594014,0.9997505177023754,0.00020926969418118003
-0.3635242818701954,-0.3635242818701954,1.0002974347022,0.0002094715541091184
-0.36242210691198123,-0.36242210691198123,0.9997453463089956,0.00039917760865262555
-0.3608201645343797,-0.3608201645343797,1.0000124515710942,0.0002092852904031163
-0.3593065584434953,-0.3593065584434953,1.000186288454359,0.0002092748298860764
-0.3579114154985291,-0.3579114154985291,1.000146066663167,0.000209310295343637
-0.3564994167274563,-0.3564994167274563,1.0001419712196948,0.00020929090457740544
-0.3551476058739354,-0.3551476058739354,0.99964479333374,0.00020924361650793201
-0.35391585259276326,-0.35391585259276326,1.0000333349662172,0.00020944206399423448
-0.35222811034691404,-0.35222811034691404,0.9996927398205953,0.00021003202446943283
-0.3503930064798624,-0.3503930064798624,0.9997440460159893,0.00020934885465077437
-0.3491755142691545,-0.3491755142691545,1.0001099106920057,0.00020935634019849425
-0.34775464372796705,-0.34775464372796705,1.0001324328965435,0.00020919092477497347
-0.3461297565911082,-0.3461297565911082,0.9998588530688926,0.00020932354441873
-0.34465306288839204,-0.34465306288839204,1.0002522780210328,0.00020925026209873883
-0.34295019365890766,-0.34295019365890766,1.000067292338672,0.00021898652709543683
-0.3414113009763241,-0.3414113009763241,1.00035219270935,0.00020928274238799318
-0.3400727223503054,-0.3400727223503054,0.9997442957728608,0.0002092596278446949
-0.33884061522694536,-0.33884061522694536,1.0001494684889762,0.00020945997938252658
-0.33773592003271913,-0.33773592003271913,0.9991794989207582,0.00034148598936757467
-0.33612878530839224,-0.33612878530839224,1.0000321756381862,0.0002092906204031857
-0.33443501294168526,-0.33443501294168526,0.9998114815879763,0.00020929221685328717
-0.33297073070061745,-0.33297073070061745,1.0000779071717445,0.00020933994162969645
-0.331491949694464,-0.331491949694464,1.0002644776923382,0.00020924694916507315
-0.3302228993066819,-0.3302228993066819,0.9995154703580404,0.00020924195567185045
-0.32920752369464024,-0.32920752369464024,0.9998911483099591,0.00020939430232306075
-0.3279148242843803,-0.3279148242843803,0.999844726662317,0.0002104144017269373
-0.3261127774261695,-0.3261127774261695,0.9998758844707403,0.0002118097754083426
-0.32500091700349004,-0.32500091700349004,0.9996517212868564,0.00020923507365943356
-0.3235827656739275,-0.3235827656739275,1.0002702812621136,0.000209307286224787
-0.3223278769728495,-0.3223278769728495,0.9998684455989215,0.00020931336126592164
-0.32084685434456334,-0.32084685434456334,1.0000297282537776,0.00020932627307467701
-0.31933769958341146,-0.31933769958341146,0.9998663773656494,0.00021486598062569494
-0.3176392382469203,-0.3176392382469203,0.9997834230912666,0.00020933338478071952
-0.3160967213480035,-0.3160967213480035,0.9997221543796874,0.00020932019538356925
-0.3148837983586418,-0.3148837983586418,1.0000256823593126,0.00020947621983534432
-0.31377758449743853,-0.31377758449743853,1.0000074231750353,0.0002090790457332375
-0.31244123940050483,-0.31244123940050483,0.9999860945573623,0.0002945026402401005
-0.31082393590695573,-0.31082393590695573,0.999635704151412,0.00020920722310938336
-0.3094894814239524,-0.3094894814239524,1.0000215430908526,0.00020915915473648724
-0.3080151375135756,-0.3080151375135756,0.999726229149539,0.0002093190400871984
-0.306492656483897,-0.306492656483897,1.0000541141784773,0.00020931490588714302
-0.3052604760348913,-0.3052604760348913,0.9999970413594133,0.00020942597105139523
-0.30412054877597255,-0.30412054877597255,0.9998724861519694,0.00020907018482783243
-0.3025082253348955,-0.3025082253348955,0.9999281011861922,0.0002111545849502453
-0.301137839731382,-0.301137839731382,1.000264605768814,0.00021074954272090135
-0.3000553999510885,-0.3000553999510885,0.9997930403145261,0.0002091841511440721
-0.2986452261917293,-0.2986452261917293,0.9997648945747276,0.0002092859344877861
-0.29720590116339735,-0.29720590116339735,1.0000784632769713,0.00020925848251357422
-0.29591714727066576,-0.29591714727066576,1.0000457580988666,0.000209304394353119
-0.2946519081553561,-0.2946519081553561,0.9998127237495066,0.00021182148909838915
-0.292953494485846,-0.292953494485846,0.9999714429336827,0.0002095550734311957
-0.29140611689726936,-0.29140611689726936,1.000515023920192,0.00020935658043584374
-0.2901978605761542,-0.2901978605761542,1.0003075541783368,0.00020969157751177017
-0.28900667139387226,-0.28900667139387226,0.9999743366168138,0.00020908176814834114
-0.28742083365650617,-0.28742083365650617,1.0002614657285467,0.00026155685971321384
-0.28599651230324524,-0.28599651230324524,0.9996618683969449,0.0002092770694047922
-0.2841753307642648,-0.2841753307642648,1.000196010010453,0.0002093136624624292
-0.2827207635862578,-0.2827207635862578,1.000133877022988,0.0002092466203862909
-0.28129001889465144,-0.28129001889465144,1.0002499244095566,0.000209312989209467
-0.2801381046738243,-0.2801381046738243,0.9996916432567515,0.0002093482406779964
-0.2788417270028731,-0.2788417270028731,0.9997650408351607,0.0002118823853728341
-0.2771555813509622,-0.2771555813509622,0.999997931311167,0.00020933779894710016
-0.2758688672634889,-0.2758688672634889,0.9999645335068426,0.00020924938956401034
-0.2745521450589877,-0.2745521450589877,0.999802346837342,0.00020931124181483893
-0.2731099572760286,-0.2731099572760286,1.000215720645571,0.00020923896166641568
-0.2716792089457158,-0.2716792089457158,1.0000583791612991,0.00020928460968776863
-0.27056450154123013,-0.27056450154123013,1.0000133075807731,0.00020947004455033725
-0.2691307743269135,-0.2691307743269135,1.0000711846493424,0.00021070589876513363
-0.2676338984092581,-0.2676338984092581,0.9999139806879909,0.00020931080158001454
-0.26623211026453647,-0.26623211026453647,0.9999738686077029,0.00020924829099856304
-0.2650903318535711,-0.2650903318535711,0.9999516237822809,0.00020991182139740473
-0.26378089988065767,-0.26378089988065767,1.0000218613359177,0.00020917330010844647
-0.26236426966570436,-0.26236426966570436,1.0002894200158512,0.000240144900967888
-0.26097403674721137,-0.26097403674721137,1.0001674003993148,0.00020927575442027127
-0.25944154480093856,-0.25944154480093856,0.9999422045306382,0.00022756946176047928
-0.25803179108916086,-0.25803179108916086,0.9999823561080117,0.000209266604691673
-0.2566768589138519,-0.2566768589138519,0.9998035652741102,0.00020929226072788034
-0.2556578192561574,-0.2556578192561574,0.9999482652541133,0.0002094566360250903
-0.2545151294048992,-0.2545151294048992,1.000003721704046,0.00020914280008890441
-0.2527655804427923,-0.2527655804427923,1.0004140124758683,0.00040507545593656164
-0.2511862215891597,-0.2511862215891597,0.9997465192580052,0.00020926584992918994
-0.2498657122720033,-0.2498657122720033,0.9996928700992533,0.00020930211233404256
-0.2484205170927453,-0.2484205170927453,0.9997641575573756,0.00020921565955543605
-0.24698976702202344,-0.24698976702202344,1.0001232273838379,0.00020929712112824147
-0.24588087166484912,-0.24588087166484912,1.00031433990579,0.00020954366591811147
-0.24445027581168688,-0.24445027581168688,0.9998232516718721,0.00021018005801389205
-0.24273887163799374,-0.24273887163799374,0.9999590745710976,0.00020929285545767245
-0.24132061134368996,-0.24132061134368996,1.0001402433293838,0.0002092846044237366
-0.23989424937244622,-0.23989424937244622,1.000095318595044,0.0002093190332809264
-0.23844571970621473,-0.23844571970621473,0.9999918925531975,0.00020924381756644387
-0.2369021141406847,-0.2369021141406847,0.9996565150627763,0.00020936971356199903
-0.23526307396532503,-0.23526307396532503,1.0000541512946453,0.00021961477352257317
-0.23361761996056885,-0.23361761996056885,1.0000196130643004,0.00020921345249261925
-0.23215049079808522,-0.23215049079808522,0.9998310530975794,0.00020934374391362197
-0.23097214511435596,-0.23097214511435596,1.0004261822200529,0.0002094866876106119
-0.22984752074480638,-0.22984752074480638,1.0000193215171325,0.00020901338540939046
-0.22843965715146625,-0.22843965715146625,0.9995663894588871,0.0003480982052273413
-0.22677447594614933,-0.22677447594614933,0.999938719496196,0.0002092479142207606
-0.22517939662502612,-0.22517939662502612,0.999661416323898,0.00020927879850829293
-0.22373118983741733,-0.22373118983741733,0.9997313061355483,0.0002091967717001673
-0.22230043961826595,-0.22230043961826595,1.0002121617953417,0.00020927505604420547
-0.22119735079177189,-0.22119735079177189,0.9998441634082014,0.00020946937310843076
-0.22018424812267767,-0.22018424812267767,0.9999399861125099,0.00020914523059322918
-0.21835673499881522,-0.21835673499881522,0.9998548053525381,0.000210425043427841
-0.21705783381330548,-0.21705783381330548,0.9997016228287532,0.0002119907525981258
-0.21588265394166228,-0.21588265394166228,1.000092509649733,0.00020928207977251523
-0.21440022479000617,-0.21440022479000617,1.0000308331037766,0.00020921077469085656
-0.21274025275633904,-0.21274025275633904,0.9997701921272357,0.00020934167756894717
-0.2113566691252345,-0.2113566691252345,1.0002480874155828,0.00021540800744248396
-0.2095677694378537,-0.2095677694378537,1.0002452469999887,0.00020931060236851966
-0.20802840236065095,-0.20802840236065095,1.0000268551323122,0.00020935284941285217
-0.20677318567541078,-0.20677318567541078,0.9998576272273265,0.00020928886721434669
-0.20561240786773852,-0.20561240786773852,0.9998080832435461,0.0002092889476369853
-0.204422054765746,-0.204422054765746,1.0001650320307978,0.0002988986183308332
-0.2027294955936668,-0.2027294955936668,1.0000602003332044,0.0002092013961519169
-0.20137890625774163,-0.20137890625774163,1.0001693093339985,0.00020931887229648562
-0.19992109413215076,-0.19992109413215076,1.0000216918254268,0.00020930521284925327
-0.19843100774960476,-0.19843100774960476,1.000074855664518,0.0002092927182818695
-0.19716761332383612,-0.19716761332383612,0.9999511748443067,0.00020930747628084082
-0.1961550568972598,-0.1961550568972598,1.0001263009058714,0.00020942724513834814
-0.19486788627909846,-0.19486788627909846,1.0001315253949157,0.00021096413480497863
-0.19319656851221226,-0.19319656851221226,0.9999096009921915,0.00020926618557809358
-0.1921677946433192,-0.1921677946433192,0.9995538137343922,0.00021076208874217474
-0.1908705376459693,-0.1908705376459693,1.0003150313951519,0.0002093393658284391
-0.1894316881800478,-0.1894316881800478,1.0004704715176267,0.00020926443460230244
-0.18800094682665075,-0.18800094682665075,0.9997241417560776,0.00020922882104261044
-0.18687977438385134,-0.18687977438385134,0.9998744546428224,0.00020947965110117663
-0.18521309170755557,-0.18521309170755557,0.9999987932835042,0.000212073478017416
-0.18366207294093329,-0.18366207294093329,0.9998703007252269,0.0002092593984173913
-0.18232843320656683,-0.18232843320656683,0.999745139478987,0.00020929599486055312
-0.18110510294281995,-0.18110510294281995,1.0001743141768866,0.00020963581707662037
-0.17973220837302506,-0.17973220837302506,1.0001657990454986,0.00026452735070825597
-0.17817940186941997,-0.17817940186941997,1.0000223758335576,0.0002092955702775276
-0.1764589512073144,-0.1764589512073144,0.9999771688411553,0.00020921108346145305
-0.17496072556459694,-0.17496072556459694,0.999996460959645,0.00020932749283080558
-0.17343391097092536,-0.17343391097092536,1.000021596439507,0.00020931150639009755
-0.17220589957141783,-0.17220589957141783,0.9998092390403619,0.00020945625366981368
-0.17107324307580712,-0.17107324307580712,0.9999564217318524,0.0002090755951490293
-0.16945380670949817,-0.16945380670949817,1.0000607182284749,0.0002120164163846964
-0.16795487848648918,-0.16795487848648918,1.0000368671183426,0.00020935633392396834
-0.1667523765747319,-0.1667523765747319,0.9998059876058811,0.00020931325402137146
-0.16533534881891682,-0.16533534881891682,0.9999748678033427,0.00020916105667915055
-0.16383135365758789,-0.16383135365758789,0.9999764198065083,0.00020926509376233805
-0.16261333021175234,-0.16261333021175234,1.0001003079741817,0.000209297490399736
-0.16140788281845744,-0.16140788281845744,0.9999058304491497,0.0002105124209026786
