time,time,flux,flux_err
-0.49959291504637804,-0.49959291504637804,1.0000129525850052,0.0002933455927725033
-0.49792317677687,-0.49792317677687,1.0000865609225273,0.0002887967198226735
-0.49640839598335634,-0.49640839598335634,1.0000010445827512,0.00028884607100352293
-0.4948132168210577,-0.4948132168210577,1.000169905134194,0.00029246923275283763
-0.49250263867143074,-0.49250263867143074,1.0003380340937913,0.00026669923313196503
-0.4909733594453428,-0.4909733594453428,1.0002493895636257,0.0002700510014222783
-0.4889962452580221,-0.4889962452580221,1.0001881560708477,0.0002629272832703199
-0.4871536293416284,-0.4871536293416284,0.9995938808468307,0.00026584292609653065
-0.4853402493841713,-0.4853402493841713,1.0000350291940219,0.00026280426517337946
-0.48396370973205194,-0.48396370973205194,1.0000417956597867,0.000265205029121649
-0.48239864450588354,-0.48239864450588354,1.0001626452886996,0.0002629856199584781
-0.48085481964517385,-0.48085481964517385,1.000018011815814,0.0002643798541480303
-0.4790208540303865,-0.4790208540303865,0.9998453620337526,0.00026283107491925476
-0.47736570572014897,-0.47736570572014897,1.0001820809503783,0.000264644503081531
-0.4764826068858383,-0.4764826068858383,0.9999346011543068,0.00026328428707249487
-0.4754533682222245,-0.4754533682222245,0.9999287346900033,0.0002689891488182066
-0.47414512988762,-0.47414512988762,0.9999805766282769,0.00026334097276769976
-0.4726357526582433,-0.4726357526582433,1.0000173068342622,0.00027645072390451486
-0.4710229788499419,-0.4710229788499419,0.9997043314353016,0.00026310898953720333
-0.46905918623670007,-0.46905918623670007,0.9997781810456232,0.0002627871396773827
-0.4674903612380149,-0.4674903612380149,0.9999970152775687,0.00026697584715557775
-0.46554340421571394,-0.46554340421571394,1.000007959331148,0.00026476643706832277
-0.4640314129006583,-0.4640314129006583,0.9998542809723372,0.00026363018338151635
-0.4625179189548362,-0.4625179189548362,0.9999588812943092,0.0002627323191642054
-0.46091176382033155,-0.46091176382033155,1.0001526452480185,0.00026474227301264997
-0.45884711756662,-0.45884711756662,1.0005176228041033,0.00026296035764097664
-0.4574357252160553,-0.4574357252160553,1.0003121326886935,0.0002644781506955612
-0.45645669908262787,-0.45645669908262787,1.0001401062883641,0.0002702090763602963
-0.45543869397370146,-0.45543869397370146,0.9999504316230811,0.00026276372417472784
-0.45384303605824244,-0.45384303605824244,1.000113585760827,0.0002629659432161613
-0.45226331415760795,-0.45226331415760795,1.0000266941782308,0.0002683073563579243
-0.45056261647550855,-0.45056261647550855,0.9999887366914318,0.0002639936370470675
-0.44946682871959637,-0.44946682871959637,0.9999966215014426,0.0002687574658218247
-0.4477911954571027,-0.4477911954571027,1.0002121389739753,0.00026289949962614095
-0.44566301330050917,-0.44566301330050917,0.9997139270249749,0.00026610962463765307
-0.44366900657478253,-0.44366900657478253,1.0001912848330248,0.00026318406386672936
-0.44206874337978663,-0.44206874337978663,1.0000980367774848,0.0002629959817401459
-0.4403056332783308,-0.4403056332783308,0.9996759199873335,0.0002653342808389594
-0.4386739845591364,-0.4386739845591364,1.00007533388278,0.0002642113174928861
-0.4376484183245338,-0.4376484183245338,0.9997121846572554,0.00026360531068768975
-0.4361088466772344,-0.4361088466772344,1.0001511063168527,0.00027222494764652825
-0.4346385591255967,-0.4346385591255967,0.9996652254719706,0.000262816298314035
-0.43333483628812247,-0.43333483628812247,1.0000124356730535,0.00028131743808846525
-0.43188281073526014,-0.43188281073526014,1.0002665947253178,0.00026314855527753987
-0.43059691458474847,-0.43059691458474847,0.99979018533876,0.00026421970553824263
-0.42933289718057494,-0.42933289718057494,1.0001262036032463,0.00026825830430992514
-0.4278365844365908,-0.4278365844365908,0.9998885875696695,0.00026272596685747885
-0.42605566326819827,-0.42605566326819827,0.9998207413058063,0.00026671005015703925
-0.42441445675794964,-0.42441445675794964,0.9997098219725776,0.0002704648312276057
-0.42247689502255525,-0.42247689502255525,1.0002128519122429,0.0002629818045940693
-0.42051274272671435,-0.42051274272671435,1.0000881535150346,0.00026602526480956894
-0.4189647405932192,-0.4189647405932192,0.9997571935528254,0.00026452377515551927
-0.41743262764648537,-0.41743262764648537,1.0000483954003578,0.00026351440294199716
-0.4160666476120241,-0.4160666476120241,0.9998556965929625,0.0002629531256071027
-0.4143117854720913,-0.4143117854720913,0.999811245218004,0.00026430350982631703
-0.4122197038552258,-0.4122197038552258,1.0000988427642485,0.0002636627351489238
-0.41083087580627764,-0.41083087580627764,0.9999375961017993,0.0002640808837117695
-0.40988596285169476,-0.40988596285169476,0.9999413271541215,0.0002695235289771083
-0.40887369855190625,-0.40887369855190625,0.9997791627348164,0.00026274168817958193
-0.40762796432536563,-0.40762796432536563,0.9999362366369036,0.0002633790823177263
-0.40621314728050495,-0.40621314728050495,0.9999006010489403,0.00027708548955306166
-0.4044086608890211,-0.4044086608890211,0.9998961669625434,0.0002630847436190113
-0.40259527329471895,-0.40259527329471895,0.9999975235484235,0.00026737547820501013
-0.4008394154836424,-0.4008394154836424,1.0000917207124576,0.00026284868454517883
-0.3990834597178036,-0.3990834597178036,0.9998318573355129,0.00026563891998620365
-0.3970709718967555,-0.3970709718967555,1.0002265185081949,0.000263308372697875
-0.39548779382021165,-0.39548779382021165,0.999857636179167,0.0002629115837885593
-0.3936053916986566,-0.3936053916986566,0.9996670910645001,0.00026481252057087635
-0.3916414596082177,-0.3916414596082177,1.0003945458100127,0.00026406643370273814
-0.39069424078043086,-0.39069424078043086,0.9998339244050728,0.000271065178349957
-0.38945255578146315,-0.38945255578146315,1.000044200023411,0.00026294625528221606
-0.38806837896991053,-0.38806837896991053,1.000160895351871,0.00026299676121369086
-0.3868170194036793,-0.3868170194036793,1.000184596000498,0.0002681939326451359
-0.385293801597436,-0.385293801597436,1.000141891071911,0.0002635434183449916
-0.3840187605674146,-0.3840187605674146,0.9999710557074051,0.00026360700849701994
-0.3827293797716266,-0.3827293797716266,0.9996751153739718,0.00026897535838425946
-0.38069702925859017,-0.38069702925859017,1.0001540903350918,0.00026286471461557664
-0.37864372369367627,-0.37864372369367627,0.9998352450883997,0.00026640423858285717
-0.3766886049241293,-0.3766886049241293,1.0001346026148883,0.00026300968475380523
-0.37476434976852036,-0.37476434976852036,1.0000592240839317,0.00026563379530304936
-0.37308170163305476,-0.37308170163305476,0.999899838031973,0.00026289284022624137
-0.3718965018691961,-0.3718965018691961,1.000192054629721,0.00026447041105160356
-0.3706004441395635,-0.3706004441395635,0.9995491537199225,0.000273492536601347
-0.3691556861391291,-0.3691556861391291,1.0004250977511735,0.0002629277101367757
-0.36751955429208466,-0.36751955429208466,1.0000542647235835,0.0002641566663862742
-0.36606533989543094,-0.36606533989543094,0.9999790998632705,0.000263122171316011
-0.36466855627077166,-0.36466855627077166,1.0001584239721713,0.00026440465051554793
-0.36380044858378824,-0.36380044858378824,0.9997849250679949,0.0002629350850295553
-0.36257259064295794,-0.36257259064295794,1.0000344297401758,0.0002684336508726276
-0.36061692211660556,-0.36061692211660556,1.0000745562334419,0.00026374775840853914
-0.3589814120961819,-0.3589814120961819,0.9998201939986057,0.00027395165594201797
-0.35710958825366107,-0.35710958825366107,0.9997527885461723,0.0002629040714963764
-0.35554513468232474,-0.35554513468232474,0.9999014200661591,0.000266234083883414
-0.3535346383694559,-0.3535346383694559,0.9998253410962645,0.00026294650320409814
-0.35232420397223907,-0.35232420397223907,0.9998448029976021,0.000265337054395132
-0.3504826111660805,-0.3504826111660805,0.9995689315948839,0.0002629167877059552
-0.34889847025915516,-0.34889847025915516,0.9999190829277691,0.0002629003007963943
-0.3470138734235661,-0.3470138734235661,1.0002206115138985,0.0002644436639649643
-0.34502290264354085,-0.34502290264354085,1.000088484401853,0.00026461996364708846
-0.34414375118212776,-0.34414375118212776,0.9995275254240858,0.000263233243038704
-0.34309732787078245,-0.34309732787078245,0.9996919678868353,0.00026939417091074406
-0.3420034697657684,-0.3420034697657684,1.0001416967448873,0.00026330894651016465
-0.3405760265653953,-0.3405760265653953,0.9999528904483848,0.0002677305817734132
-0.3386839077342302,-0.3386839077342302,1.0000135849724763,0.0002630214989385429
-0.3367171657009749,-0.3367171657009749,1.0000481180014398,0.00026753941470886514
-0.3351424791675527,-0.3351424791675527,1.0001780782108791,0.0002628147382212067
-0.3331552678369917,-0.3331552678369917,1.0001915081049348,0.0002657589449917885
-0.33132679961854594,-0.33132679961854594,0.999865446903416,0.0002629407743419943
-0.32965232089336494,-0.32965232089336494,0.9999436820808952,0.0002629055947402753
-0.32789976910862606,-0.32789976910862606,1.0001831712303582,0.0002649555095685624
-0.3256999177363468,-0.3256999177363468,1.00010413386896,0.0002640135431941309
-0.3247662421141285,-0.3247662421141285,1.000080548515167,0.0002634613330440685
-0.3234819293807959,-0.3234819293807959,0.9998827250676016,0.00027095623422467604
-0.3222384204447735,-0.3222384204447735,0.9997680482123416,0.00026293468203368966
-0.3206428305711597,-0.3206428305711597,0.9995947357128647,0.0002683521657813613
-0.3191212708654348,-0.3191212708654348,0.9999253093818841,0.0002635703152027139
-0.317845147792832,-0.317845147792832,0.9999608016172319,0.00026359750709339344
-0.31656380034983156,-0.31656380034983156,1.0000740340191856,0.00026923997050019367
-0.3145214344433043,-0.3145214344433043,0.9998223691542097,0.00026288700492995673
-0.31247356909152585,-0.31247356909152585,0.9999325333777636,0.0002663572022636281
-0.31051745382719675,-0.31051745382719675,1.0001031752427267,0.00026296710115325257
-0.30859107013966425,-0.30859107013966425,0.9999314200183911,0.00026563728764850326
-0.30696449159295297,-0.30696449159295297,1.0002295178818923,0.0002627906024890943
-0.3057474793371512,-0.3057474793371512,0.9999469619731851,0.00026462209443088266
-0.30433276229305195,-0.30433276229305195,1.0001908286613006,0.00026353453869020676
-0.3029860036389437,-0.3029860036389437,1.0000773961574658,0.00026284141254242024
-0.301220777494018,-0.301220777494018,0.9997485232613265,0.0002642179370816369
-0.29963645892567004,-0.29963645892567004,1.000050616987875,0.00026310151182071825
-0.2984988004958723,-0.2984988004958723,0.9998878653460725,0.0002644537917474044
-0.2977779363951413,-0.2977779363951413,1.0001003300963214,0.00026319258493006243
-0.2966129061445827,-0.2966129061445827,0.9997695914740199,0.00026852422088859086
-0.2950169959513005,-0.2950169959513005,1.0000856597719168,0.0002628162346786155
-0.29345275067316834,-0.29345275067316834,1.0001530544547728,0.00027496093043194556
-0.2916416801075684,-0.2916416801075684,1.0002576615471326,0.0002630579779196509
-0.2898225675628055,-0.2898225675628055,0.9999837702574998,0.00026656568329766044
-0.28810677003057206,-0.28810677003057206,1.000011746840314,0.0002629019697620493
-0.2866163194965338,-0.2866163194965338,0.9999167418037981,0.00026466131724166617
-0.2850935247988673,-0.2850935247988673,0.9998146368513463,0.0002636255459242581
-0.2834852194297127,-0.2834852194297127,0.9998422306446001,0.0002628421620561923
-0.2816008142399369,-0.2816008142399369,1.0001011037566052,0.0002644055393366459
-0.2794638906867476,-0.2794638906867476,0.9999644993493149,0.00026459927818142046
-0.2783964537869906,-0.2783964537869906,1.0000053379126996,0.00026338196955181354
-0.2772870540356962,-0.2772870540356962,1.0000514712466804,0.00026949223400255624
-0.27632634791661986,-0.27632634791661986,1.000047990649562,0.00026271430198926323
-0.2749735747143859,-0.2749735747143859,0.9999502194540477,0.00026323859313935545
-0.27332646275463046,-0.27332646275463046,0.9999967640563913,0.0002680963955577197
-0.2715650030848337,-0.2715650030848337,1.0001319978270835,0.00026320546606121715
-0.26994824639114084,-0.26994824639114084,0.9996689327817373,0.00026799280751241836
-0.26807925959001294,-0.26807925959001294,0.9997683728037744,0.0002629057460498901
-0.26635386293637564,-0.26635386293637564,0.9996996963184024,0.00026583949896204256
-0.26443355878000147,-0.26443355878000147,0.9999709067162803,0.00026310624569560566
-0.26278328234038784,-0.26278328234038784,0.9997446008401832,0.00026513466279592864
-0.26077917161746883,-0.26077917161746883,0.9999035974451876,0.0002629394807649937
-0.25912727604445535,-0.25912727604445535,1.0001673842614813,0.0002642113088173768
-0.25808873600617516,-0.25808873600617516,0.9998322198329246,0.00027147186945014466
-0.25690731170179787,-0.25690731170179787,0.9999992561327768,0.00026285439669094564
-0.25533176852623,-0.25533176852623,1.0002227713556975,0.0002630266906772728
-0.2540224836207926,-0.2540224836207926,1.0000326331710458,0.0002685160204459735
-0.2522548163571628,-0.2522548163571628,0.9997286051715271,0.0002645159272818831
-0.2512226589373313,-0.2512226589373313,1.0001191724848826,0.0002629330985419665
-0.24977030967420433,-0.24977030967420433,0.9996531560788482,0.00026929864550530265
-0.24739858907123563,-0.24739858907123563,1.000019480832606,0.00026653250331209707
-0.24586551247921307,-0.24586551247921307,0.9997270982936355,0.00026964591162543605
-0.24389233338297345,-0.24389233338297345,0.9999856832731279,0.0002629936968722462
-0.2420475974708097,-0.2420475974708097,0.9999534539260704,0.0002658526378179799
-0.24023749948246403,-0.24023749948246403,1.0003036652008765,0.0002628998443511109
-0.2388576071127318,-0.2388576071127318,0.999856037329397,0.0002650068415841078
-0.23729297580139247,-0.23729297580139247,0.9999649372370645,0.00026281934562665205
-0.2357471345254453,-0.2357471345254453,0.9999626404402198,0.00026291683815901954
-0.23412296822352802,-0.23412296822352802,0.9996204006234534,0.000264601743633324
-0.23246698617003858,-0.23246698617003858,1.0000554848843495,0.000264476211333303
-0.2316049013810698,-0.2316049013810698,1.0002576736863769,0.00026320492295930665
-0.2305603905930184,-0.2305603905930184,1.0000004017634048,0.0002686508260627637
-0.2291750471078558,-0.2291750471078558,1.0001851804564197,0.0002629750444239164
-0.2275309616699815,-0.2275309616699815,0.9999819409537141,0.0002755348753055047
-0.2259157655906165,-0.2259157655906165,1.0000395806322901,0.0002630576889182376
-0.22395687991229352,-0.22395687991229352,0.999984799659751,0.0002628506279482134
-0.2226577717170585,-0.2226577717170585,1.0000021346932497,0.0002667258885105492
-0.2209304916730616,-0.2209304916730616,0.9997866283771192,0.000262744452113887
-0.21960908345354255,-0.21960908345354255,1.0004234492286224,0.0002653693654139909
-0.21785257084702608,-0.21785257084702608,1.0000077289759717,0.00026294345481802175
-0.21618024658528157,-0.21618024658528157,0.9999920198634091,0.0002647187827936654
-0.21418965210032184,-0.21418965210032184,0.9999653713641521,0.00026281547276333777
-0.21250375398376492,-0.21250375398376492,1.0000655518402606,0.00026487586307932716
-0.21158133689605166,-0.21158133689605166,0.9999829648554254,0.0002700526127070861
-0.2105277804133948,-0.2105277804133948,0.9999778872140883,0.00026306904757212793
-0.2092277004790958,-0.2092277004790958,1.000033172343743,0.0002628637648611573
-0.20758242564916146,-0.20758242564916146,0.9999438158913326,0.00026785035664587297
-0.20566244284564164,-0.20566244284564164,1.0002372369650065,0.0002643809231953961
-0.20463036085129716,-0.20463036085129716,0.9997250303478644,0.00026287417394984733
-0.2031786219216883,-0.2031786219216883,0.9998847149957169,0.0002681939839463402
-0.20111473272554575,-0.20111473272554575,1.0001187959438624,0.0002652957534705232
-0.1993539435788989,-0.1993539435788989,1.0000062333346527,0.0002638940304129582
-0.19772207012865692,-0.19772207012865692,1.0000509303826912,0.0002628646467989398
-0.19599773652444127,-0.19599773652444127,0.9999867257826592,0.00026517575790811087
-0.19425105056725442,-0.19425105056725442,0.9995641674479261,0.00026279913704533653
-0.19295801098342052,-0.19295801098342052,0.9997505015305101,0.00026434649454435744
-0.1919175018410897,-0.1919175018410897,1.0002401278828037,0.00027197381718445114
-0.1907302758307196,-0.1907302758307196,0.9997939566269196,0.00026277420214597906
-0.1891614289721474,-0.1891614289721474,1.000043582747264,0.00026281452433390675
-0.1880724493646994,-0.1880724493646994,1.0002914750439076,0.00026887445582823296
-0.18644275860278867,-0.18644275860278867,1.0000490920675336,0.00026360057408314215
-0.1853178196150111,-0.1853178196150111,0.9998116626079195,0.00026375947825609756
-0.18366840305679943,-0.18366840305679943,1.0000311339835377,0.0002629222562488222
-0.18167838779627346,-0.18167838779627346,1.0000156862900225,0.00026387322617721685
-0.18004490635357798,-0.18004490635357798,1.0000838102745906,0.00027274846221197763
-0.17817527186416554,-0.17817527186416554,1.0004296938114599,0.0002630150381382092
-0.17624918535584583,-0.17624918535584583,1.0001113994179245,0.00026584329630556893
-0.17435745864349883,-0.17435745864349883,0.9997358952534625,0.00026269137841592713
-0.17300473526120186,-0.17300473526120186,1.0001385435900059,0.0002649450001719665
-0.17131536098895594,-0.17131536098895594,0.9996866741991244,0.0002629486596520805
-0.1699604619294405,-0.1699604619294405,0.9996490349776455,0.000262871451693608
-0.16808769475319424,-0.16808769475319424,0.9999546453451951,0.0002645686055504716
-0.16629807177523617,-0.16629807177523617,0.9995210765098635,0.00026432521264548183
-0.16543189810181502,-0.16543189810181502,0.9999112779088847,0.00026327343389026417
-0.16438615916122218,-0.16438615916122218,1.0004806966946114,0.000268846866700068
-0.16315388626535424,-0.16315388626535424,1.0002944794379187,0.0002631660351461205
-0.16164338557573502,-0.16164338557573502,0.9999689486990008,0.00026734196668463646
-0.1601282038463978,-0.1601282038463978,1.0001619513447069,0.00027223748973614936
-0.15814689177204855,-0.15814689177204855,1.0000229879725275,0.0002628161479920685
-0.1565877840621397,-0.1565877840621397,1.0000632177913067,0.00026695597838471936
-0.15475517906306777,-0.15475517906306777,1.0001273476963064,0.00026288430172161776
-0.15344091879960614,-0.15344091879960614,0.9999594543867267,0.0002654051195020122
-0.15167888876458163,-0.15167888876458163,0.9999484288344584,0.00026291230129536574
-0.15030432248022407,-0.15030432248022407,0.9999994695047233,0.0002628601592447676
-0.1485002272791462,-0.1485002272791462,0.9999044559167208,0.0002646522635678831
-0.1465088929835474,-0.1465088929835474,1.0000537005831625,0.00026445285864369194
-0.14563569134334103,-0.14563569134334103,0.9993793073991618,0.0002632832229494961
-0.14456354246358388,-0.14456354246358388,0.9999049996030991,0.0002700960262257933
-0.14329911552777047,-0.14329911552777047,1.0000451446795515,0.00026283409506797317
-0.14168300390883815,-0.14168300390883815,1.0001412126479503,0.0002680629800093557
-0.13983918518933933,-0.13983918518933933,0.9999824940077795,0.0002636548497813176
-0.13873504579241852,-0.13873504579241852,1.0003612873563958,0.0002637941612377116
-0.13726124684908428,-0.13726124684908428,1.0004110705218867,0.00026847753822922273
-0.13508669700531756,-0.13508669700531756,0.9996233657326214,0.0002653752906898331
-0.13318466183263808,-0.13318466183263808,0.9999817374739983,0.0002638061148064873
-0.13154905430856162,-0.13154905430856162,1.0001653047871397,0.00026286095910894067
-0.12966210604063236,-0.12966210604063236,1.000015021107944,0.00026546777907991253
-0.1277974911412457,-0.1277974911412457,1.0001061961557276,0.00026303892348668437
-0.1265997184906155,-0.1265997184906155,1.0001517499923835,0.0002649387209269085
-0.12508113964286166,-0.12508113964286166,0.99960652447912,0.00027220881105948435
-0.12372731593786739,-0.12372731593786739,1.000170735915504,0.0002628553327949338
