time,time,flux,flux_err
-0.49942313406500033,-0.49942313406500033,1.000052309695811,3.22967417552132e-05
-0.4976321837573778,-0.4976321837573778,0.9999890219108275,3.232962156632454e-05
-0.4963705989175651,-0.4963705989175651,0.9999878950982584,3.2368136490058905e-05
-0.49528329926470177,-0.49528329926470177,0.9999912337333552,3.230768830822568e-05
-0.49416624813093224,-0.49416624813093224,1.000023557087876,3.2275898076103716e-05
-0.4929724383313442,-0.4929724383313442,0.9999830234565401,3.233142478815557e-05
-0.49160797589138383,-0.49160797589138383,0.9999868598167236,3.2290088991426205e-05
-0.4893608062986459,-0.4893608062986459,1.0000354579761617,3.227404410053571e-05
-0.488147763939196,-0.488147763939196,1.0000003956695092,3.2331427121503706e-05
-0.4868053216545377,-0.4868053216545377,1.0000127216925092,3.2287106139041164e-05
-0.4840968440184952,-0.4840968440184952,1.000029109568994,3.228082344540076e-05
-0.48266229263972493,-0.48266229263972493,1.0000266938555138,3.232001761611231e-05
-0.4808003986807307,-0.4808003986807307,1.0000082241965744,3.236650551681035e-05
-0.47922849543247137,-0.47922849543247137,1.0000703711618688,3.22553327662604e-05
-0.4776297940537916,-0.4776297940537916,1.000047307745999,3.2293465084310837e-05
-0.47658078965323514,-0.47658078965323514,0.99998285510295,3.2273418045167264e-05
-0.4754948195150064,-0.4754948195150064,1.0000091100857194,3.232955840714177e-05
-0.4734937023917155,-0.4734937023917155,1.000017409072766,3.230799162865216e-05
-0.47156092178775,-0.47156092178775,1.0000073080473342,3.230180958174522e-05
-0.4696667904448987,-0.4696667904448987,1.000055566416781,3.235120615747489e-05
-0.46762067586605555,-0.46762067586605555,1.0000085327490076,3.230503150941586e-05
-0.46677039379283086,-0.46677039379283086,0.9999900785719366,3.2322601476548966e-05
-0.46591485113749515,-0.46591485113749515,1.0000649827151284,3.234523232032236e-05
-0.46473987071585726,-0.46473987071585726,0.9999504677158324,3.2317716943817826e-05
-0.4637435402990377,-0.4637435402990377,0.9999589865356985,3.230231143175353e-05
-0.46248604071151933,-0.46248604071151933,0.9999906701288509,3.231656166011557e-05
-0.4610951301212481,-0.4610951301212481,1.0000102167961407,3.2282083496523694e-05
-0.46013789062853905,-0.46013789062853905,1.0000035974248358,3.2270265978639213e-05
-0.45936730055691444,-0.45936730055691444,1.0000463782384583,3.234689749221073e-05
-0.4582987619251071,-0.4582987619251071,1.0000545282522475,3.2322726588408844e-05
-0.4569818643692997,-0.4569818643692997,0.9999933242481205,3.225496183333681e-05
-0.4555420434458938,-0.4555420434458938,0.9999556211149718,3.2357173500914206e-05
-0.45439478243351916,-0.45439478243351916,1.0000223239818395,3.226085685043132e-05
-0.45337076627329226,-0.45337076627329226,1.0000575182594935,3.228549449820579e-05
-0.45218609098083107,-0.45218609098083107,1.0000525847987802,3.237458834956011e-05
-0.4513297992722073,-0.4513297992722073,1.0000699672822755,3.2356313564515485e-05
-0.4504303569556214,-0.4504303569556214,1.0000108720881187,3.227641449373479e-05
-0.4492363645025762,-0.4492363645025762,1.0000646114276308,3.2311262422475985e-05
-0.4483609005903418,-0.4483609005903418,1.0000208397649633,3.227643731727682e-05
-0.4476322460264782,-0.4476322460264782,1.0000658742737931,3.237144677802381e-05
-0.4462397159892134,-0.4462397159892134,1.0000714606240726,3.22870561133444e-05
-0.4439495183738472,-0.4439495183738472,1.000141464748102,3.230341039408825e-05
-0.44240050564840205,-0.44240050564840205,0.9999758212322369,3.2341070286776386e-05
-0.4399316015456861,-0.4399316015456861,1.0000632580179367,3.234791293382916e-05
-0.43837693577370374,-0.43837693577370374,0.999983346723717,3.225361412432868e-05
-0.4376074170359061,-0.4376074170359061,0.9999633677537678,3.234783841960762e-05
-0.43628625851342806,-0.43628625851342806,1.0000302369387744,3.2343830929387686e-05
-0.43510698981117457,-0.43510698981117457,1.0000300845360797,3.226616623578399e-05
-0.4340631289232988,-0.4340631289232988,1.0000087675912437,3.2323805719313434e-05
-0.4322352173207037,-0.4322352173207037,0.9999662230408279,3.22725496092942e-05
-0.4311247917517903,-0.4311247917517903,0.999998871375228,3.2283250852311405e-05
-0.4299656028379104,-0.4299656028379104,0.9999864467235995,3.229700489961262e-05
-0.42884518329883575,-0.42884518329883575,1.0000341819362064,3.227525352924176e-05
-0.4275324380862003,-0.4275324380862003,1.0000484630422037,3.2301722061184845e-05
-0.4261099180766905,-0.4261099180766905,1.000077967850185,3.232307657271596e-05
-0.4245280531526078,-0.4245280531526078,1.0000109155380472,3.2283531725902724e-05
-0.42243817713460885,-0.42243817713460885,1.0000045643753617,3.231178533570705e-05
-0.42148146710896983,-0.42148146710896983,0.9999728558348732,3.23150203748937e-05
-0.42046572631952583,-0.42046572631952583,1.0000172747205462,3.231667011267503e-05
-0.4192717117090069,-0.4192717117090069,1.0000064618625415,3.2307219055119056e-05
-0.4179181533778319,-0.4179181533778319,1.0000643365411932,3.2320347900137425e-05
-0.4166048714454519,-0.4166048714454519,0.9999993900219348,3.2284461489828405e-05
-0.4148423986553098,-0.4148423986553098,1.0000744027241009,3.228443464532549e-05
-0.4139270743020461,-0.4139270743020461,0.9999875078819338,3.2308454462877165e-05
-0.41219900832584244,-0.41219900832584244,0.9999696113490952,3.2270924592388465e-05
-0.4103454444841191,-0.4103454444841191,0.9999937063412956,3.2323406882583326e-05
-0.40890942496334903,-0.40890942496334903,0.9999805212849389,3.2330175754638894e-05
-0.4079776458878769,-0.4079776458878769,0.9999930989592654,3.2346982242984545e-05
-0.40700579567928796,-0.40700579567928796,1.0000243352985112,3.2334453114262405e-05
-0.40610225296913993,-0.40610225296913993,1.0000766944123292,3.2347239582981235e-05
-0.4050836369904573,-0.4050836369904573,1.0000068705522211,3.226195818242424e-05
-0.40355618681642225,-0.40355618681642225,0.9999853297228632,3.2273348958031356e-05
-0.4028610932451556,-0.4028610932451556,0.9999908139826801,3.2337481850793856e-05
-0.4006978445671848,-0.4006978445671848,1.000060928903105,3.228992154591947e-05
-0.39947774179963746,-0.39947774179963746,1.0000152207752366,3.2339033583946364e-05
-0.3978706469308236,-0.3978706469308236,1.0000796562288277,3.231118406302789e-05
-0.3967750806143158,-0.3967750806143158,0.999999676050084,3.228970209765633e-05
-0.3955447163687495,-0.3955447163687495,0.9999379970441588,3.2289314289639766e-05
-0.3935338305993355,-0.3935338305993355,0.999986374586662,3.233138746318514e-05
-0.3927644963194325,-0.3927644963194325,1.0000262444501484,3.235097432657715e-05
-0.39151620833872586,-0.39151620833872586,1.0000339411920551,3.2309531500691344e-05
-0.3901337965973653,-0.3901337965973653,0.9999958364022159,3.2309143937953115e-05
-0.38896396427953733,-0.38896396427953733,1.0000133675126803,3.2347596630092343e-05
-0.3875485457603645,-0.3875485457603645,1.0000626630829283,3.228481561373119e-05
-0.3864018766915251,-0.3864018766915251,1.0000596277716551,3.2254370159946436e-05
-0.3851130009978078,-0.3851130009978078,0.9999631596319709,3.233030055740706e-05
-0.38296293126040837,-0.38296293126040837,1.0000675277406792,3.227263278114771e-05
-0.38099843521922594,-0.38099843521922594,1.000023914967663,3.22820800415935e-05
-0.3796736609823711,-0.3796736609823711,1.0000780104886957,3.225802527521423e-05
-0.37767381350131474,-0.37767381350131474,0.9999688929408554,3.240024139466317e-05
-0.37636424958836867,-0.37636424958836867,1.0000918138046857,3.2305398377560496e-05
-0.3750824334754725,-0.3750824334754725,0.9999569008762983,3.2247751028674795e-05
-0.37389404245914193,-0.37389404245914193,0.9999966688982704,3.232810066147333e-05
-0.3726210491018719,-0.3726210491018719,1.0000162674138569,3.231605700147717e-05
-0.3713391290119034,-0.3713391290119034,0.9999704901922932,3.228467790174698e-05
-0.3694961691529898,-0.3694961691529898,0.999970284875927,3.224710216275248e-05
-0.3683390050122398,-0.3683390050122398,1.0000056808330604,3.2312477852227526e-05
-0.3663934168558626,-0.3663934168558626,1.0000062421838383,3.227728102772637e-05
-0.36427736464465854,-0.36427736464465854,0.9999646455368522,3.229499737959453e-05
-0.3625526007999724,-0.3625526007999724,1.0000658455468385,3.2298874760453047e-05
-0.3612166900697048,-0.3612166900697048,1.0000637497418592,3.235289882167737e-05
-0.35956257533471214,-0.35956257533471214,0.9999660470803236,3.225243008414221e-05
-0.35799073662783487,-0.35799073662783487,0.9999545794053297,3.231656631837538e-05
-0.35704551857343175,-0.35704551857343175,0.9999935370806583,3.232801053135045e-05
-0.35554459137201777,-0.35554459137201777,0.9999971789357576,3.2292326821359826e-05
-0.3530155890475726,-0.3530155890475726,1.0000306453665622,3.231062916028431e-05
-0.3506976009135542,-0.3506976009135542,0.999990997353905,3.226278000654977e-05
-0.34815051332116126,-0.34815051332116126,1.0000039264862266,3.236266616884192e-05
-0.34726060995963054,-0.34726060995963054,0.9999678843666778,3.232148063288535e-05
-0.3464507005613996,-0.3464507005613996,0.9999726005701722,3.2312415559035084e-05
-0.34515238897365635,-0.34515238897365635,0.9999961479602444,3.232202235402997e-05
-0.3443167466983141,-0.3443167466983141,1.0000087617163493,3.2297516936680743e-05
-0.3434678674886527,-0.3434678674886527,1.0000183082930132,3.234737104786917e-05
-0.342062621468358,-0.342062621468358,0.999986740588229,3.224830186024983e-05
-0.3408471253387688,-0.3408471253387688,1.0000115156773162,3.2267329277766005e-05
-0.34003116300154945,-0.34003116300154945,1.0000273644269728,3.234744022739067e-05
-0.3389121380583674,-0.3389121380583674,0.9999731078633062,3.2305914000610857e-05
-0.3369250626739813,-0.3369250626739813,1.0000117771944157,3.232169517583877e-05
-0.335795158946712,-0.335795158946712,0.9999945686921755,3.2322776719978137e-05
-0.3345149475753715,-0.3345149475753715,0.9999760002686993,3.227796082869203e-05
-0.3329866079482599,-0.3329866079482599,0.9999905899984733,3.299020328445888e-05
-0.3321488504676381,-0.3321488504676381,1.0000092260979865,3.238372134387382e-05
-0.33183012903609777,-0.33183012903609777,1.0000682772818261,3.234709988662593e-05
-0.33109528835266244,-0.33109528835266244,0.9999138935872388,3.227432038834195e-05
-0.32988496555772145,-0.32988496555772145,1.0000866757839544,3.228663200282283e-05
-0.32867757649946727,-0.32867757649946727,0.9999975980241291,3.234046733024692e-05
-0.3276158922635659,-0.3276158922635659,1.000026093773443,3.2286122067150166e-05
-0.3259279323807277,-0.3259279323807277,0.9999660303033793,3.230705940685163e-05
-0.3239603924252151,-0.3239603924252151,1.000036067108547,3.2287437050923905e-05
-0.32270742266409796,-0.32270742266409796,0.999973862522521,3.230898825477741e-05
-0.31987131963323917,-0.31987131963323917,0.999962145915419,3.2316433041287996e-05
-0.31869032541289927,-0.31869032541289927,1.0000425441883398,3.2281206710073305e-05
-0.3175502579375461,-0.3175502579375461,1.0000061012898462,3.2326864379725994e-05
-0.3160876847570762,-0.3160876847570762,1.0000100779459384,3.231112609045062e-05
-0.31484685987452393,-0.31484685987452393,1.0000007248028617,3.2302689900572065e-05
-0.31325391177160783,-0.31325391177160783,0.9999719178340701,3.227185384103622e-05
-0.31181926137942356,-0.31181926137942356,0.9999518607157418,3.228600956019013e-05
-0.3104670488566626,-0.3104670488566626,1.0000648364145512,3.2336864813192036e-05
-0.3087335886550136,-0.3087335886550136,0.9999796162541859,3.2292408494987045e-05
-0.3067972072618431,-0.3067972072618431,0.9999666755741824,3.229026289870918e-05
-0.30576897445353096,-0.30576897445353096,0.9999777632629987,3.2305821372665964e-05
-0.30372981453328973,-0.30372981453328973,0.9999876493203883,3.2323438201772965e-05
-0.3026059597315907,-0.3026059597315907,1.0000223798391557,3.229344149673325e-05
-0.30156761110556546,-0.30156761110556546,1.000028233575862,3.2313770341399e-05
-0.3001439508800104,-0.3001439508800104,0.9999412592741999,3.227140947054337e-05
-0.2993105273337278,-0.2993105273337278,0.9999762161186763,3.230924799891194e-05
-0.2978728041620343,-0.2978728041620343,1.000055670648919,3.230485092584951e-05
-0.2963947130789165,-0.2963947130789165,1.0000131611564007,3.2266494352657584e-05
-0.2954404408723349,-0.2954404408723349,0.9999662838487747,3.229103989507219e-05
-0.2948632445994008,-0.2948632445994008,1.000006795154784,3.233182005439999e-05
-0.29351232350454665,-0.29351232350454665,1.0000250687349577,3.23702729356302e-05
-0.2920973161766597,-0.2920973161766597,1.00011674248212,3.230329620641444e-05
-0.29079823746724287,-0.29079823746724287,1.0000407080706215,3.2285872602245445e-05
-0.2894960865545727,-0.2894960865545727,1.0000245824536242,3.2329636358536254e-05
-0.2885731402951933,-0.2885731402951933,1.0000502750758284,3.2364570211318406e-05
-0.28767046083157766,-0.28767046083157766,1.0000288084345894,3.233697311394791e-05
-0.2866915038182924,-0.2866915038182924,1.0000150385734117,3.233556314687074e-05
-0.2853555817309825,-0.2853555817309825,0.9999819405875743,3.2263020787702376e-05
-0.2840074649269809,-0.2840074649269809,1.000017685237992,3.22549896414026e-05
-0.2828737165109487,-0.2828737165109487,0.9999613424999984,3.2314448528634165e-05
-0.2810088934878877,-0.2810088934878877,1.000011385051552,3.227617640680157e-05
-0.279809067415772,-0.279809067415772,1.0000754267521101,3.236288630659299e-05
-0.27807358732898135,-0.27807358732898135,0.9999964429345896,3.232220659784327e-05
-0.277166355009831,-0.277166355009831,0.9999752925757202,3.2278876988725975e-05
-0.27542113454110223,-0.27542113454110223,1.0000167624290683,3.233388022219509e-05
-0.2738130960300623,-0.2738130960300623,0.9999473705943611,3.2282241832703704e-05
-0.2724475172253733,-0.2724475172253733,0.999975670344158,3.234129623793247e-05
-0.2710854967874184,-0.2710854967874184,1.0000040500125669,3.2328530961135206e-05
-0.2694848534432822,-0.2694848534432822,1.000070715224639,3.2273825885745834e-05
-0.2682125852792524,-0.2682125852792524,0.9999500725948514,3.226970233815211e-05
-0.2668307178188115,-0.2668307178188115,0.999994368279372,3.2267201249713266e-05
-0.26543588650238237,-0.26543588650238237,0.9999819258564427,3.2303797824866616e-05
-0.2632590570836328,-0.2632590570836328,0.9999524669887029,3.2284847178952564e-05
-0.26147024643141775,-0.26147024643141775,0.9999825640710505,3.230926940064965e-05
-0.26010908818861933,-0.26010908818861933,0.9999546949644461,3.2250482109759014e-05
-0.2584539768678951,-0.2584539768678951,1.000009821751069,3.23999459216204e-05
-0.25770840040568144,-0.25770840040568144,1.0000761483574396,3.2343238891256046e-05
-0.2563811646163231,-0.2563811646163231,1.0000122310167663,3.229681230382784e-05
-0.25487442394514803,-0.25487442394514803,0.9999704540391278,3.2350330289354766e-05
-0.2540712834925216,-0.2540712834925216,0.999985518279223,3.227335654245568e-05
-0.2524909700929129,-0.2524909700929129,1.0000085070886229,3.232542487916294e-05
-0.25067876020257246,-0.25067876020257246,0.9999912530183407,3.22603185264357e-05
-0.2495464450075815,-0.2495464450075815,1.0000015957981845,3.231955657595183e-05
-0.2481007221787877,-0.2481007221787877,1.0000040273660533,3.226737667865678e-05
-0.2459810075277346,-0.2459810075277346,1.000069728314702,3.2304998303649275e-05
-0.24494209666081587,-0.24494209666081587,1.000042854163522,3.229723203746532e-05
-0.2432174213747203,-0.2432174213747203,0.9999960921993614,3.2298299928162006e-05
-0.2419586518757569,-0.2419586518757569,1.0000031451110416,3.237397512422462e-05
-0.2405592645984143,-0.2405592645984143,1.0000120285218788,3.2254428574274654e-05
-0.2389576980014681,-0.2389576980014681,1.0000070592415686,3.2293037909862096e-05
-0.23799666497434374,-0.23799666497434374,1.0000103022022384,3.2312651073013826e-05
-0.236665176157112,-0.236665176157112,1.000052303126239,3.22916311425866e-05
-0.23438675383731605,-0.23438675383731605,1.0000093979236682,3.2295372587702805e-05
-0.23224496592592914,-0.23224496592592914,0.9999407194745084,3.227706860912313e-05
-0.22939658658069675,-0.22939658658069675,1.0000238467280007,3.2336914073820965e-05
-0.2285789311878034,-0.2285789311878034,1.0000151155754198,3.228477296375012e-05
-0.22781966921756974,-0.22781966921756974,0.9999842872533822,3.231546601488849e-05
-0.22686716928874376,-0.22686716928874376,0.99995211054999,3.2336866217968085e-05
-0.22557040457759286,-0.22557040457759286,1.0000020251432953,3.231958352787396e-05
-0.22482959510889486,-0.22482959510889486,1.0000008652287184,3.235428791784152e-05
-0.22319736719146022,-0.22319736719146022,0.9999618549911296,3.226849168191401e-05
-0.22192412766817143,-0.22192412766817143,0.9999278288627125,3.2283723276526354e-05
-0.2209065720635408,-0.2209065720635408,1.0000106741985908,3.233496247164517e-05
-0.2196444022883952,-0.2196444022883952,0.9999619274107335,3.228041402873384e-05
-0.21757172326106228,-0.21757172326106228,0.9999725044612493,3.232014916514152e-05
-0.21632361189622315,-0.21632361189622315,1.0000165471138487,3.228632298689088e-05
-0.2151886971303611,-0.2151886971303611,1.0000141055669467,3.230356087597206e-05
-0.21368585589516442,-0.21368585589516442,0.9999915775887116,3.241979403004456e-05
-0.2124936856489512,-0.2124936856489512,0.9999461278950165,3.238224156302013e-05
-0.21154814802794136,-0.21154814802794136,0.9999497516691831,3.2314695457029424e-05
-0.21043253781463137,-0.21043253781463137,0.9999578903484189,3.2247126800343044e-05
-0.20934174123467528,-0.20934174123467528,0.9999921431903829,3.2339659585091484e-05
-0.20830837048124523,-0.20830837048124523,0.9999730284838264,3.229150702029092e-05
-0.20739140989899169,-0.20739140989899169,0.9999583160622272,3.230847896100258e-05
-0.20570768723628136,-0.20570768723628136,1.0001407609886885,3.2335296346763475e-05
-0.20403556022574776,-0.20403556022574776,0.9999726111948857,3.232185622512344e-05
-0.20235428306041287,-0.20235428306041287,1.0000148860930413,3.2306433221243654e-05
-0.19988490645264392,-0.19988490645264392,0.9999929373635024,3.2271877437892895e-05
-0.1989870944089489,-0.1989870944089489,0.9999418226796744,3.231911438867641e-05
-0.19767226227922946,-0.19767226227922946,0.9999286647206833,3.232270612930586e-05
-0.1962682399956975,-0.1962682399956975,1.0000199865705552,3.22687363368307e-05
-0.19519057491925196,-0.19519057491925196,1.0000276438973066,3.232322812744649e-05
-0.19364724684346585,-0.19364724684346585,0.9999641782931686,3.2266925560692636e-05
-0.1924835170262668,-0.1924835170262668,1.000085177940337,3.228710489327232e-05
-0.19136911816967767,-0.19136911816967767,1.0000203431831713,3.235402211241556e-05
-0.18988866067738855,-0.18988866067738855,1.0000766601797302,3.2935759574748574e-05
-0.1886172094971698,-0.1886172094971698,1.0000167424751951,3.2310939099296e-05
-0.18728394577628932,-0.18728394577628932,0.9999712951904856,3.228899913161448e-05
-0.18610387920489302,-0.18610387920489302,0.999974081884061,3.228209731305191e-05
-0.18436868235949078,-0.18436868235949078,0.9999721723377991,3.231773832046265e-05
-0.1832705463981256,-0.1832705463981256,1.0000126207330688,3.229293287102038e-05
-0.182295597949269,-0.182295597949269,1.0000069242270022,3.234320070605281e-05
-0.18094158024250645,-0.18094158024250645,0.9999446436123309,3.233075576566282e-05
-0.17971146852360106,-0.17971146852360106,0.9999677682837792,3.22998358797811e-05
-0.17828020626329816,-0.17828020626329816,0.9999661382601808,3.228352344568073e-05
-0.17664330055049504,-0.17664330055049504,0.9999526779156541,3.225870573484257e-05
-0.17574544729286573,-0.17574544729286573,0.9999761291454405,3.233426648664052e-05
-0.17452294410104513,-0.17452294410104513,0.9999724389948069,3.23689048006148e-05
-0.17284689601874562,-0.17284689601874562,0.9999275225504547,3.23260406270581e-05
-0.17102662393881474,-0.17102662393881474,0.9999438952351933,3.227488185086117e-05
-0.169972967630747,-0.169972967630747,1.0000057198290824,3.235724822021106e-05
-0.16905401962067118,-0.16905401962067118,0.9999298522150951,3.2291518212091124e-05
-0.16787389583114418,-0.16787389583114418,1.0000208349715431,3.24030095432611e-05
