time,time,flux,flux_err
-0.4994919767814281,-0.4994919767814281,0.9995846777448739,0.000886410712952595
-0.4982208988991867,-0.4982208988991867,1.0001886548914525,0.0008361028197454509
-0.4967844827612377,-0.4967844827612377,1.0001516850387224,0.0007868356740914264
-0.49582558650035935,-0.49582558650035935,1.0002070715531224,0.0007867663582240666
-0.4949084627627599,-0.4949084627627599,0.9998332246907319,0.000732465009990322
-0.49395340921219033,-0.49395340921219033,1.0002361864441702,0.00076314356212626
-0.49331279189427735,-0.49331279189427735,1.0000484960576694,0.0006579041571899766
-0.4928510452813498,-0.4928510452813498,1.0050673546416502,0.0005856840545049056
-0.4924310504968162,-0.4924310504968162,0.999765688068129,0.0007110555744287646
-0.49193518844840584,-0.49193518844840584,1.0001463953346847,0.0006502910446616126
-0.49147753392753657,-0.49147753392753657,0.9993376107755907,0.0006497792731134205
-0.4909757940815325,-0.4909757940815325,1.0005372493563498,0.0006504259282295636
-0.49059721290832387,-0.49059721290832387,1.0008173267884706,0.0006537860292035396
-0.4901450223438587,-0.4901450223438587,0.9998966223316155,0.0006496456824635307
-0.48977461449685505,-0.48977461449685505,1.000203411203516,0.0005861494152062125
-0.48933326644655606,-0.48933326644655606,0.9998825741553116,0.0005857593613724495
-0.4888282274128869,-0.4888282274128869,1.001559151144957,0.0006502971519425338
-0.48828815051783747,-0.48828815051783747,1.0000082350873876,0.0006503289188738797
-0.4878111847847322,-0.4878111847847322,1.0003423676223935,0.0005852572843859711
-0.4871471528142138,-0.4871471528142138,1.0003862956346268,0.0005852260172899534
-0.48674705599987644,-0.48674705599987644,0.9995985988122333,0.0004282149900964387
-0.48623196098487825,-0.48623196098487825,0.9995201064377286,0.0005993992663378857
-0.48582874635867485,-0.48582874635867485,0.9998731835198829,0.0005904006346707893
-0.48531838160706686,-0.48531838160706686,1.0000617543343235,0.000428208566309847
-0.48467113011101903,-0.48467113011101903,0.9997067445577835,0.0006146025771380104
-0.4841471272280614,-0.4841471272280614,0.9996772355721424,0.00051220238604384
-0.48375131072207295,-0.48375131072207295,1.001980128936183,0.0005619243316569637
-0.483215796172226,-0.483215796172226,1.0005104559621079,0.0005127190804284047
-0.4828938958034996,-0.4828938958034996,0.9991674289294414,0.0006949720726297865
-0.4823088790966722,-0.4823088790966722,1.000106515825393,0.0005132036761007644
-0.4817747853045148,-0.4817747853045148,0.9996958969222162,0.0005127140176698889
-0.48139092684577917,-0.48139092684577917,0.9997925319801947,0.000609035102262316
-0.4807667458197102,-0.4807667458197102,0.9994921783529092,0.0005253642345560223
-0.4803302504500607,-0.4803302504500607,1.0004980156517256,0.0005854056810104169
-0.4798570908467809,-0.4798570908467809,1.0000918270954215,0.0005908133864996931
-0.47934847515753065,-0.47934847515753065,0.9999338595874597,0.0005147531742912805
-0.4786480573438894,-0.4786480573438894,1.0000757635422661,0.0005859668855065759
-0.4778643832396483,-0.4778643832396483,0.999771243214586,0.0005850395341747241
-0.47708117357688024,-0.47708117357688024,0.9991336770316097,0.0005854221861300012
-0.4762984311317268,-0.4762984311317268,1.0005064089994666,0.0005851561333586892
-0.47562657157177457,-0.47562657157177457,1.0002299003470274,0.0006594697936789472
-0.47452724139984637,-0.47452724139984637,1.0000901100933515,0.0007088788632332439
-0.4732937718654284,-0.4732937718654284,0.9997071505246152,0.00058597546712812
-0.4722900363369263,-0.4722900363369263,0.9999044799556828,0.0007090783075672735
-0.4712824125046609,-0.4712824125046609,1.000647521924439,0.0007086095892866269
-0.46923723690961194,-0.46923723690961194,0.9998504071097212,0.0006872437949767
-0.46713603253847397,-0.46713603253847397,0.9996474057654587,0.0007077317227932318
-0.46569400136650074,-0.46569400136650074,0.9988910642861704,0.0007695711434050528
-0.46410422081789876,-0.46410422081789876,1.00597199087457,0.0007634417793355937
-0.4628069534588576,-0.4628069534588576,1.0004962313050667,0.0008562637464108149
-0.4618838122474699,-0.4618838122474699,0.9984845860441036,0.0007956456374548024
-0.4609325875942886,-0.4609325875942886,1.0003960039915636,0.0006504488544549659
-0.4599491213717556,-0.4599491213717556,1.0003361344254222,0.0007615667749861779
-0.4592059721839178,-0.4592059721839178,1.0007062600953842,0.0007089461318379134
-0.45860055023586027,-0.45860055023586027,1.0004397239076375,0.0006500856734023404
-0.4577201515839988,-0.4577201515839988,0.9989522562993877,0.0007626680199325103
-0.4569066457926965,-0.4569066457926965,0.9993228734699947,0.000708552400212965
-0.4563193748275808,-0.4563193748275808,0.9995835749615157,0.000650383358474359
-0.45588879466231447,-0.45588879466231447,1.0011391505248008,0.0006545245776047232
-0.455441606739987,-0.455441606739987,0.9997802330702408,0.0005858882383833093
-0.45501054567139365,-0.45501054567139365,0.9988333980026116,0.0007102992631780673
-0.4545232021024276,-0.4545232021024276,1.0005685389925945,0.0006497739041585739
-0.4541460840464424,-0.4541460840464424,1.0004000398858517,0.0006587028257121297
-0.45364387767549486,-0.45364387767549486,1.0007453130583952,0.0006501647247014395
-0.4533177251763846,-0.4533177251763846,1.0008498244528916,0.0005856549815126484
-0.4528655042628088,-0.4528655042628088,1.0000179761854766,0.0006498873216098644
-0.4524062914042588,-0.4524062914042588,0.9999538865982508,0.0005852731989412527
-0.4518997638817382,-0.4518997638817382,0.9993700319824986,0.0006503004220168646
-0.4513188035085477,-0.4513188035085477,1.0009382234486277,0.0006503641216053976
-0.45090127600669805,-0.45090127600669805,0.9996443334396752,0.0005131087865484944
-0.4503359872964211,-0.4503359872964211,1.000154444980644,0.0005132242879507034
-0.4497472943952744,-0.4497472943952744,0.9999062473407415,0.0006065704751479028
-0.44943652195943284,-0.44943652195943284,0.9987277697341785,0.00042805203083138627
-0.4488801263836649,-0.4488801263836649,0.9991085888429965,0.0005865567133571347
-0.4484218960704311,-0.4484218960704311,1.0002632780783287,0.0005983068893692652
-0.4479153037878859,-0.4479153037878859,1.001099608467408,0.00042867376776127
-0.4472522854703129,-0.4472522854703129,1.0007327816289238,0.0005131609751608442
-0.4467228788864304,-0.4467228788864304,1.0002048350830361,0.000585199866113324
-0.4461365961768024,-0.4461365961768024,1.000195368779638,0.0006321756304408016
-0.4456196510069276,-0.4456196510069276,0.9994675079132167,0.0005859814421764148
-0.44500749525068384,-0.44500749525068384,0.9995321380212465,0.00042814277965965466
-0.4445079611599795,-0.4445079611599795,0.9997394144942777,0.0005848428792812788
-0.444026552712603,-0.444026552712603,0.9996217893304526,0.0005321045683421824
-0.443491183322476,-0.443491183322476,0.9998404871923523,0.0005211768022174493
-0.44303113455025595,-0.44303113455025595,1.0000289487503498,0.0006496601266099321
-0.4424782262649387,-0.4424782262649387,0.9998854752985787,0.0005884190961315626
-0.44169404641252186,-0.44169404641252186,0.9995752888913092,0.0005862226054463749
-0.4410520200202882,-0.4410520200202882,1.0005464430657116,0.0005130685842411704
-0.44028972847299885,-0.44028972847299885,0.998885331495346,0.0005851121576767907
-0.43952633449698625,-0.43952633449698625,0.9996197738772115,0.000610179731606729
-0.4388358235712076,-0.4388358235712076,1.0020698849397647,0.0006535181082290241
-0.4381798813294154,-0.4381798813294154,1.0001686063160622,0.0005858359678351559
-0.4373649609831773,-0.4373649609831773,0.9997146103249912,0.000681828237341089
-0.4361017763385462,-0.4361017763385462,1.0004890352072087,0.0006499258825092239
-0.43487138648379187,-0.43487138648379187,1.0010632965683333,0.0007092041287647966
-0.4335970301355701,-0.4335970301355701,1.0001216933934425,0.0006501254868372715
-0.4315727843873901,-0.4315727843873901,1.0001683164016837,0.0007089495975745577
-0.4293825877655763,-0.4293825877655763,1.0008978656907654,0.0007631605990562027
-0.4273675849486608,-0.4273675849486608,0.9996516661339051,0.000762606141569423
-0.42602423814169016,-0.42602423814169016,1.0010811286618764,0.0009292167277736508
-0.4252168340000935,-0.4252168340000935,1.0001782797747265,0.0008196122393117264
-0.4240364280572976,-0.4240364280572976,1.0001862452686159,0.0007625966081649627
-0.422942204609717,-0.422942204609717,1.0007872642922826,0.0006501016423425247
-0.4221685179716587,-0.4221685179716587,1.0051332004154263,0.0007091984028489409
-0.42126864105739514,-0.42126864105739514,1.0001294351364938,0.0007623103153735236
-0.420299437038193,-0.420299437038193,0.9999979022090081,0.0007633723421487181
-0.41949121682118856,-0.41949121682118856,1.0002851032383409,0.0007086185471283226
-0.4189965197827405,-0.4189965197827405,0.9996284710368819,0.0006585896123744263
-0.41854802459929485,-0.41854802459929485,1.0043997797591366,0.0005890311900143741
-0.41810532768613484,-0.41810532768613484,0.9993646320332349,0.0006498785291827259
-0.41761689671147906,-0.41761689671147906,0.9999357204982344,0.0007090966870844534
-0.4171113247903122,-0.4171113247903122,0.9998410455083888,0.0006506331586270369
-0.41673091851916977,-0.41673091851916977,1.0004035932354511,0.0006538576387567897
-0.41623360628655065,-0.41623360628655065,1.0002765378777627,0.0006499837034583219
-0.41590752816155147,-0.41590752816155147,1.0002703429596422,0.000585691562941013
-0.41545593484515847,-0.41545593484515847,0.9991638215403643,0.0006504361843381758
-0.4150847113225609,-0.4150847113225609,1.0003756539022821,0.000545881543603059
-0.41460596431170416,-0.41460596431170416,1.0001189312474286,0.0006503205626077597
-0.4140048732817377,-0.4140048732817377,1.0039460821177935,0.0006503904854011295
-0.41351486062412735,-0.41351486062412735,0.9995067718148138,0.0005852339530305048
-0.4129492885003856,-0.4129492885003856,0.9993200823466992,0.0005125468003333508
-0.4124621567352733,-0.4124621567352733,1.0004778658979259,0.0005854187350772575
-0.41210254767356674,-0.41210254767356674,1.0002111689866529,0.0004478207096048647
-0.4114961375726125,-0.4114961375726125,1.00048077083918,0.0005900197091915686
-0.4110139450855058,-0.4110139450855058,0.9993934787257954,0.0006129543945503992
-0.4105123375858966,-0.4105123375858966,0.9995351181498029,0.0004278912109203491
-0.40984570326472747,-0.40984570326472747,1.0018963042259146,0.0005124827002849911
-0.4095219618295232,-0.4095219618295232,0.9994284229864678,0.0006280801862106199
-0.4090386670148291,-0.4090386670148291,0.999628897663191,0.0005127849092423807
-0.408587947918204,-0.408587947918204,0.9998116736311733,0.0006351151043284504
-0.4081315379589796,-0.4081315379589796,0.9990392540598749,0.0005857337089559152
-0.40750310104376697,-0.40750310104376697,0.9994106633434946,0.00045957991925146287
-0.40709759035744353,-0.40709759035744353,0.9993264148118597,0.0005854412058611011
-0.4065728114106605,-0.4065728114106605,0.9998958474793721,0.0005970569511568335
-0.40607339227826744,-0.40607339227826744,1.000312079624552,0.0005186700195710922
-0.4056361895662121,-0.4056361895662121,0.999970372738542,0.0006499727171517572
-0.4050635649920878,-0.4050635649920878,0.9991884791038098,0.0005877558882364119
-0.4042796029134479,-0.4042796029134479,0.999835065654634,0.0005851717661007079
-0.40349609980949025,-0.40349609980949025,0.9994942547519372,0.0005854716370220878
-0.4027130598526128,-0.4027130598526128,1.000102288222544,0.0005851947314021623
-0.40199004166897795,-0.40199004166897795,0.999881557022212,0.0005975580887879814
-0.4011996403191006,-0.4011996403191006,1.0003688345530957,0.0006502615065007405
-0.39998957148454795,-0.39998957148454795,1.0002567067775743,0.0006503210300771079
-0.39878287091705716,-0.39878287091705716,1.0000048906315018,0.000585762134665183
-0.39787901451491053,-0.39787901451491053,0.9996281740289058,0.0007090085087469502
-0.3964772667382931,-0.3964772667382931,0.9996816706941457,0.0007085017027757018
-0.3939243165688822,-0.3939243165688822,0.9990576646763698,0.0007627371025805332
-0.39195947187545244,-0.39195947187545244,1.000294638460447,0.0007624960389061128
-0.3900599803921068,-0.3900599803921068,1.0005895547342942,0.0007620894458838628
-0.38876278741081477,-0.38876278741081477,0.9999089522050438,0.0008603054079551764
-0.3878399098444788,-0.3878399098444788,1.0002174890493267,0.0007970701693558098
-0.38688758869066076,-0.38688758869066076,0.9996970703849628,0.0006499084763373772
-0.3862387510434928,-0.3862387510434928,0.9996278960626827,0.0006856742213839
-0.38537847242987483,-0.38537847242987483,1.000276491544427,0.0007088479387909645
-0.38469987408825546,-0.38469987408825546,1.0024271950768249,0.0006510277781626417
-0.3840278366318671,-0.3840278366318671,0.9993933499280084,0.0007088722596889733
-0.3831300269717758,-0.3831300269717758,0.9992713267398287,0.0007083804815064785
-0.3824962145456084,-0.3824962145456084,0.9996282655527665,0.0007089914034105302
-0.3819960173605068,-0.3819960173605068,1.0006984785927264,0.0006497898392853511
-0.3815777479834651,-0.3815777479834651,0.999820089066203,0.0006550863755049134
-0.38113874950831816,-0.38113874950831816,0.9996999475758326,0.000587175566204934
-0.3806889839368523,-0.3806889839368523,1.0002406739423468,0.0006506042470000137
-0.3801997037302499,-0.3801997037302499,0.9995167753193833,0.0007081016140637953
-0.37970194714253014,-0.37970194714253014,0.99964473730608,0.0005851074602687553
-0.37932935955177527,-0.37932935955177527,1.0008894460958093,0.0006506328354333945
-0.37892321326326056,-0.37892321326326056,0.9999400111584645,0.0005857464005668978
-0.37845682217193827,-0.37845682217193827,0.9994996637656903,0.0005853782917622281
-0.3779722078812483,-0.3779722078812483,0.9999512883984266,0.0006498223297222821
-0.3773712402813544,-0.3773712402813544,1.000300293945777,0.0006501397526498433
-0.37706811013049446,-0.37706811013049446,1.0006897896381415,0.0005951266698105982
-0.37650070516683626,-0.37650070516683626,1.0002245734576705,0.000650509414414477
-0.3760653268938768,-0.3760653268938768,0.9999299067882891,0.0004284436320171611
-0.37555624063970755,-0.37555624063970755,1.0001464506867634,0.0006071236003489641
-0.3751988907737541,-0.3751988907737541,1.000135838324389,0.0005127397258824894
-0.37470006611365536,-0.37470006611365536,0.9995475467194325,0.0005142569417547699
-0.3740877377389552,-0.3740877377389552,1.00195238187109,0.0005975614552165275
-0.3736082125105895,-0.3736082125105895,0.9999566265971044,0.0005134378090860737
-0.37298265891986376,-0.37298265891986376,0.9999333760274352,0.0005123320733089016
-0.3723608926502493,-0.3723608926502493,0.999891102652532,0.0005633696045621737
-0.3716709060248832,-0.3716709060248832,1.0010430346505657,0.0005148208112723369
-0.3712383459922421,-0.3712383459922421,0.9999071359790351,0.0005860540356182127
-0.370717473694458,-0.370717473694458,0.9992188427042924,0.0005850862293199544
-0.3700971738318913,-0.3700971738318913,1.000155018188304,0.00045122644746382125
-0.3696873255084938,-0.3696873255084938,1.000949901299392,0.0005861561695218438
-0.36916054263529074,-0.36916054263529074,0.999930826663894,0.0005930498815361655
-0.3686653364184167,-0.3686653364184167,0.9998289203845296,0.0005162994371644957
-0.3679725201236579,-0.3679725201236579,0.9996326857887124,0.0005856440345793568
-0.3671885896186723,-0.3671885896186723,0.9990749925559379,0.0005855435212501321
-0.3664051214713254,-0.3664051214713254,0.9993689306981866,0.0005852356527112654
-0.36562211934979133,-0.36562211934979133,1.0002730092711996,0.0005857231168968321
-0.3649560406927776,-0.3649560406927776,1.0003153631797932,0.0006732149869560814
-0.36422698954229416,-0.36422698954229416,1.0001640335893967,0.0006548941529504082
-0.36356286082627776,-0.36356286082627776,1.0003383529319614,0.0006207460019568066
-0.36226717101890243,-0.36226717101890243,1.0002113006269913,0.0006499830242933415
-0.36109604300181675,-0.36109604300181675,1.0007918108874423,0.0007089738938959775
-0.359874939477595,-0.359874939477595,1.0002807954264297,0.0007094874892640756
-0.3574310697982582,-0.3574310697982582,0.9998876951210507,0.0007087084258454955
-0.35526794298166353,-0.35526794298166353,0.9998520457043728,0.0007085089863006844
-0.35332344064445353,-0.35332344064445353,0.9996651302004917,0.0007623529150340685
-0.3521185780893575,-0.3521185780893575,0.9996523474323658,0.0009356462382505086
-0.35133695002950843,-0.35133695002950843,1.0082550871043279,0.0008223204486952086
-0.35029023449860686,-0.35029023449860686,1.0006216320063284,0.0007630677498991282
-0.3489773426230386,-0.3489773426230386,1.0002714866319833,0.0007090359510430043
-0.3481237928492192,-0.3481237928492192,1.0080447279209122,0.000708848900399656
-0.34722436944757645,-0.34722436944757645,1.0005616125565955,0.0007623919589425465
-0.34625487258526844,-0.34625487258526844,0.9997828219190825,0.0007631786156900653
-0.34544624632326304,-0.34544624632326304,0.9997707443183229,0.0007084722915162313
-0.3449518138255371,-0.3449518138255371,0.9997357054645878,0.0006590362840156246
-0.34450258886499796,-0.34450258886499796,1.0002305835644694,0.0005887142395541668
-0.3440604355346295,-0.3440604355346295,0.9994474683528434,0.0006501261742931683
-0.3435720699992089,-0.3435720699992089,0.9989727881941619,0.0007087068980686114
-0.3430660808095126,-0.3430660808095126,0.9996991530528598,0.0006503380494330766
-0.3426859279577911,-0.3426859279577911,0.9991055599926693,0.0006540820890976472
-0.3421882386748621,-0.3421882386748621,1.0006555409632667,0.0006503629566235829
-0.3418621545923088,-0.3418621545923088,0.999853089663872,0.00058591424668783
-0.3414105128154915,-0.3414105128154915,0.9995743663370094,0.0006505107918009796
-0.34094865105689676,-0.34094865105689676,1.0004783187615105,0.0005852184754230894
-0.34044262064162467,-0.34044262064162467,1.0017790606430275,0.0006502438484420714
-0.3398642427371669,-0.3398642427371669,1.000741153846051,0.0006501552396652142
-0.33935820356527985,-0.33935820356527985,1.0014283497748633,0.0005131487763678156
-0.33882427136450133,-0.33882427136450133,1.0010050340919194,0.000512682877555315
-0.33829354561530633,-0.33829354561530633,1.0004195547908874,0.0006001725240942922
-0.33798719353035267,-0.33798719353035267,0.999939812617967,0.00042849640905969904
-0.3373561558466463,-0.3373561558466463,0.999965644621752,0.0005894309763811074
-0.33682352730174897,-0.33682352730174897,0.9990571320324116,0.0006115876099550874
-0.3363446273160662,-0.3363446273160662,0.999740468088785,0.0005124807688800967
-0.3357489162735874,-0.3357489162735874,1.0017665018264776,0.0004854738904187347
-0.3353504623442859,-0.3353504623442859,1.0009256675213307,0.0005852642595497728
-0.3349669343308051,-0.3349669343308051,1.0007685038538456,0.0005626004030968563
-0.33439500816784856,-0.33439500816784856,1.0004562121421305,0.0005914014752867148
-0.333961863067816,-0.333961863067816,1.0007747727797456,0.0005854487165736484
-0.33341031656054837,-0.33341031656054837,0.9996201457926055,0.0005399948303283594
-0.33291443772504864,-0.33291443772504864,0.9997507363266613,0.0005129736585743419
-0.33245958485822485,-0.33245958485822485,1.0001976718046022,0.0006267312243493934
-0.3319145594119618,-0.3319145594119618,0.9996085309247175,0.0004354582603896246
-0.33147364584765454,-0.33147364584765454,0.9995708831381513,0.0006499581380675358
-0.3308649696744396,-0.3308649696744396,0.9999911998740153,0.0005878623579266336
-0.3300810826647648,-0.3300810826647648,1.001099572778284,0.0005853897807299678
-0.3292976536416973,-0.3292976536416973,1.0023802156171544,0.0005858328664263409
-0.3285146887610608,-0.3285146887610608,0.9995808977265653,0.0005849226204459373
-0.32782157959481995,-0.32782157959481995,1.0000599554996303,0.0006610193037333458
-0.3269719895914022,-0.3269719895914022,0.9993314394836043,0.000585474158801394
-0.32564038817727126,-0.32564038817727126,0.9988937595750181,0.00070914741368468
-0.3244696623143682,-0.3244696623143682,0.9992319020375506,0.0006496469645985776
-0.32340811101094,-0.32340811101094,0.9998412807824563,0.0007086988840028427
