time,time,flux,flux_err
-0.4999000990404359,-0.4999000990404359,0.9998031551915648,0.00026227266405927244
-0.4997592298896052,-0.4997592298896052,0.9999101080124113,0.00025467471907572446
-0.4996014240605291,-0.4996014240605291,1.0000306741149638,0.0002480978029307559
-0.4994659750009305,-0.4994659750009305,1.0000365799127484,0.0002644244100331156
-0.49931643918389457,-0.49931643918389457,0.9997040195288169,0.0002267287490387359
-0.4991971001232741,-0.4991971001232741,1.0000646707252032,0.00022225794078184675
-0.499050150741823,-0.499050150741823,0.9998188725724226,0.00023646242512856937
-0.4989409931702539,-0.4989409931702539,1.0000350672738807,0.00023018767171724291
-0.49881836437270977,-0.49881836437270977,1.0002664389951912,0.00022126227137367983
-0.4986913637141697,-0.4986913637141697,0.9999422076230781,0.00024084239416184589
-0.49856081464677116,-0.49856081464677116,1.0005033284470004,0.00021936322761049169
-0.4984095444728155,-0.4984095444728155,0.9995121065200887,0.00022658295652278233
-0.4982923054805724,-0.4982923054805724,0.9998605091896448,0.0002282470795676393
-0.4981378555239644,-0.4981378555239644,0.9997871655693065,0.0002330631330651434
-0.4979861451778561,-0.4979861451778561,0.999795318636903,0.00022571443623286476
-0.49786977081676015,-0.49786977081676015,1.000254380425595,0.00023293717301904309
-0.4977057249256177,-0.4977057249256177,1.0004476369311324,0.00023557807033247708
-0.4975686222896911,-0.4975686222896911,0.9996400925635982,0.00022333584344838998
-0.49746048360248096,-0.49746048360248096,1.0001122545194867,0.00023170085391230333
-0.49734374310355633,-0.49734374310355633,0.9996758022217243,0.0002326369211051941
-0.49720195652043914,-0.49720195652043914,1.000084639295355,0.00023107766793179123
-0.4970675826189108,-0.4970675826189108,0.9999261893424588,0.00022589485970311943
-0.49696044871525374,-0.49696044871525374,1.0003021677781982,0.00023807458339919607
-0.49676631366310176,-0.49676631366310176,1.000083992168289,0.00022624680458850733
-0.4966448744642548,-0.4966448744642548,1.0001761626054482,0.00024066393660687694
-0.4965231228241464,-0.4965231228241464,1.0000290595157273,0.0002293209829469367
-0.49635406643501484,-0.49635406643501484,1.0000075701239735,0.00022608415344239414
-0.4962378613097826,-0.4962378613097826,1.0002855085553966,0.0002303349894756441
-0.49609979715314695,-0.49609979715314695,0.999963489823225,0.0002410109326711712
-0.49590291849162893,-0.49590291849162893,1.0000490086143183,0.000226591182919339
-0.4957988075911999,-0.4957988075911999,0.9999173169154331,0.00023575903690244813
-0.49567256519803776,-0.49567256519803776,0.9997362939243933,0.00023088978409250798
-0.49549114184337667,-0.49549114184337667,0.9999872953900658,0.00022644810246709134
-0.495369172169012,-0.495369172169012,1.0002019520448526,0.0002341075172672846
-0.49520315348054283,-0.49520315348054283,0.9995797881412086,0.0002346887761563984
-0.4950529394118348,-0.4950529394118348,1.0002748695694634,0.00022614672186959235
-0.49492045285296626,-0.49492045285296626,0.9998782962788176,0.00024345990756478018
-0.4947404804668622,-0.4947404804668622,1.000247269661163,0.00022426868436070053
-0.4946398853266146,-0.4946398853266146,1.0001058864256873,0.00022878822271791343
-0.4945575483463472,-0.4945575483463472,0.9998359600263702,0.00022909234252547827
-0.4944284897617763,-0.4944284897617763,1.0001032187420458,0.00023526992218912912
-0.4942607717413921,-0.4942607717413921,0.9999040825820685,0.00022430900847077027
-0.49411526079056783,-0.49411526079056783,1.0003265610557608,0.00023385283012829038
-0.4939473290374735,-0.4939473290374735,1.000072592116482,0.00023145221447806182
-0.4937830577895511,-0.4937830577895511,0.9998704989006495,0.00023313136879737486
-0.4935831070120912,-0.4935831070120912,1.0001507397574705,0.000237682708553263
-0.4934119699260918,-0.4934119699260918,0.9999058690103488,0.00022286065924449733
-0.49325509564077946,-0.49325509564077946,1.000026894784029,0.000241907195855053
-0.49304377273947464,-0.49304377273947464,1.0000817042792838,0.00022202186140672775
-0.4929280116106384,-0.4929280116106384,0.9999582385295934,0.00023705650855364012
-0.4927652367769042,-0.4927652367769042,0.9996348278576788,0.00024942106383225783
-0.4925881418370409,-0.4925881418370409,0.9999860792052088,0.00022223006978144816
-0.49243428524641786,-0.49243428524641786,1.0002255432060196,0.00023780662562091826
-0.49223823844804426,-0.49223823844804426,1.00013695146948,0.00022367796133658698
-0.4921049773111008,-0.4921049773111008,1.0001716667506533,0.00022293734474646636
-0.49193611041700935,-0.49193611041700935,1.0002228791833432,0.00023626592891631246
-0.4917296645464376,-0.4917296645464376,1.0003500551311322,0.00022531026890034545
-0.491571864389698,-0.491571864389698,1.0003288408326132,0.00024367262451517168
-0.49139453523093835,-0.49139453523093835,1.0000540233441841,0.00022813439437516619
-0.49119618839467877,-0.49119618839467877,0.9999010069664453,0.00022958817894106368
-0.4909859679057263,-0.4909859679057263,0.9999249204575074,0.00022941904304076875
-0.4908211216476047,-0.4908211216476047,1.000063219487979,0.0002283185177099052
-0.4906133001233684,-0.4906133001233684,1.0004205280947667,0.00022930553092926557
-0.490451087791007,-0.490451087791007,1.0003084639723567,0.00023057609969173476
-0.4902554879692616,-0.4902554879692616,1.0002135218545414,0.00022634300757803824
-0.4901266908593243,-0.4901266908593243,1.0001458588955348,0.00022589380804107704
-0.4898475448426325,-0.4898475448426325,0.9997456595548286,0.00023094594997157127
-0.4897214717930183,-0.4897214717930183,1.0002042856169617,0.00022589195625234492
-0.4894303422071971,-0.4894303422071971,1.000103115898109,0.00022894842829577583
-0.4893145336158341,-0.4893145336158341,0.9999197881634799,0.000227918876652513
-0.48905606096959675,-0.48905606096959675,1.0001075595036557,0.00022546139424133583
-0.4889275183581049,-0.4889275183581049,1.0000601390382815,0.00022793495075521076
-0.48880145914736206,-0.48880145914736206,0.9999945648088471,0.0002110345644329203
-0.48861320079595316,-0.48861320079595316,1.0001103120755528,0.0002376331636544523
-0.48853437036741526,-0.48853437036741526,1.0003401230983324,0.00021966394085966046
-0.48847600613662506,-0.48847600613662506,0.9999567545071552,0.00021467566834800135
-0.48826961462036705,-0.48826961462036705,0.9999255675831128,0.00023805943663477493
-0.4881256427906919,-0.4881256427906919,1.0001287150015952,0.00021930654436518477
-0.4880204804969253,-0.4880204804969253,1.0002678745630404,0.00021530609272344637
-0.4877935797441751,-0.4877935797441751,0.9999660640881991,0.00022403687101749353
-0.4876567147788592,-0.4876567147788592,1.0003358993681477,0.00022592864590694492
-0.48751254234230146,-0.48751254234230146,1.000155778327427,0.00021638837480605352
-0.4873283423075918,-0.4873283423075918,1.0000651606156097,0.00022767751747605872
-0.48719388608296865,-0.48719388608296865,0.9999017348877478,0.00022156072501961204
-0.4870344468508847,-0.4870344468508847,1.0000574429935667,0.00021132276051094963
-0.4868758573633386,-0.4868758573633386,1.0003094113116582,0.00022976409914876256
-0.4867120949085802,-0.4867120949085802,0.9998478241122711,0.0002215513024749606
-0.486568866338348,-0.486568866338348,1.0000254156593373,0.00022436384763625878
-0.4863701365335146,-0.4863701365335146,1.0003745381549882,0.00022024138782944465
-0.4862224383134162,-0.4862224383134162,0.9999976486467231,0.00022296143656728236
-0.4860690356028499,-0.4860690356028499,1.0000663297686827,0.00022261494420108184
-0.48587646216037683,-0.48587646216037683,1.0000089213205559,0.00022882726712609788
-0.4857272821391234,-0.4857272821391234,1.0000786223700195,0.0002237653958691581
-0.48556448006711433,-0.48556448006711433,1.000256032755043,0.00022971736875928905
-0.4854194869025378,-0.4854194869025378,1.0000542269005033,0.00022815560772357474
-0.48529742553655525,-0.48529742553655525,1.0000186749614248,0.0002329071506454665
-0.4851086921175011,-0.4851086921175011,0.9997469817588222,0.00023007079355942943
-0.48494980529940224,-0.48494980529940224,0.9999130995884784,0.00023250122468136737
-0.4847993155446602,-0.4847993155446602,0.9998114234052107,0.00022423488689754818
-0.4845996322779683,-0.4845996322779683,1.0001291529662761,0.00022329663962071417
-0.48447109772241675,-0.48447109772241675,1.0002820792935432,0.00023058140820478662
-0.4842953160230536,-0.4842953160230536,1.0000456288301427,0.00022531158085697974
-0.4841646988323191,-0.4841646988323191,1.0002922168226211,0.00022852376338630223
-0.4839659566176124,-0.4839659566176124,0.9996755954950073,0.0002175371282699828
-0.4838344482210232,-0.4838344482210232,1.0001548684428485,0.00023803454143366717
-0.4837259113613982,-0.4837259113613982,1.0004212023047916,0.00024085525056244901
-0.48348367761063854,-0.48348367761063854,1.0003233091384907,0.0002248313360422365
-0.4833611393201863,-0.4833611393201863,1.000026250581397,0.0002274015664262463
-0.48315682827087586,-0.48315682827087586,0.9997433769831778,0.00022094095315943352
-0.4830189717904432,-0.4830189717904432,1.0000030295127602,0.00023643802007657856
-0.4828868188895285,-0.4828868188895285,1.0003313989868723,0.00023753752130335363
-0.48267950740118976,-0.48267950740118976,1.0000096176006026,0.00023104852485325713
-0.4824970871239202,-0.4824970871239202,0.999734653257167,0.00022532367552933428
-0.4822520274203271,-0.4822520274203271,1.0000031634638058,0.00023130947508636079
-0.48199967037071473,-0.48199967037071473,0.9997454396758251,0.00023171315774084397
-0.48182208676298616,-0.48182208676298616,1.0000364851306702,0.00023444052726482442
-0.4817510749329813,-0.4817510749329813,1.0000127248036796,0.00023225339275554776
-0.4814665744517697,-0.4814665744517697,1.000088975718879,0.00023758587804709576
-0.4813607608928578,-0.4813607608928578,0.9998122916366607,0.00021746223841208443
-0.4811962722655153,-0.4811962722655153,1.0001527708731146,0.0002224489468137308
-0.4810268298257142,-0.4810268298257142,1.0000631518764072,0.00022437803546794397
-0.48093971626949494,-0.48093971626949494,1.0002272355200355,0.0002280860015182188
-0.48076620150532107,-0.48076620150532107,0.999887741573667,0.00022956865791785055
-0.48056414432940076,-0.48056414432940076,0.9998885077898544,0.00023554561107121726
-0.4804805418651085,-0.4804805418651085,1.0002563209301496,0.00022407577507199786
-0.4802609529433539,-0.4802609529433539,0.9999179751427096,0.00023466204724666482
-0.48007266049680763,-0.48007266049680763,0.999868020037518,0.00022380298537382385
-0.4798694786877604,-0.4798694786877604,0.9998119590802791,0.0002264660212182242
-0.4796397133177379,-0.4796397133177379,1.0003094624481583,0.00022395304615636214
-0.47947098014410583,-0.47947098014410583,0.9999093769738245,0.0002430061796537858
-0.4792295169638237,-0.4792295169638237,0.9999484716920172,0.00022319425198487263
-0.4791095101449173,-0.4791095101449173,1.000353471143003,0.0002379482949631928
-0.4788057996891439,-0.4788057996891439,0.9998740165285955,0.00022376603085043378
-0.4786608357972,-0.4786608357972,0.999770747592376,0.00022736033545017162
-0.47837135205045345,-0.47837135205045345,0.9999338034826039,0.0002205415500290551
-0.47828347799659243,-0.47828347799659243,1.000019850240054,0.00023201631942478644
-0.4780707146273926,-0.4780707146273926,0.9996795698614239,0.00022670935708337406
-0.4779118302394636,-0.4779118302394636,0.9997735073054775,0.0002319540793336141
-0.4777274098712951,-0.4777274098712951,0.9999297066838672,0.00023680617075306294
-0.477523065826972,-0.477523065826972,0.9999352728120542,0.0002249680438040406
-0.47731603411666584,-0.47731603411666584,1.0000811131631842,0.00022376620870269334
-0.4771346825233195,-0.4771346825233195,0.9995658509134211,0.00022511427662648374
-0.47696246980049184,-0.47696246980049184,0.9997809579070328,0.00021855070298830009
-0.476760621642461,-0.476760621642461,1.0000398613915635,0.00022154605434574222
-0.4765843147499254,-0.4765843147499254,0.9998056726818925,0.00022073747925820388
-0.4764110639807768,-0.4764110639807768,0.9997372431849714,0.0002309466697567005
-0.4762794791109627,-0.4762794791109627,0.9997605821624773,0.00022502685902551153
-0.47607715683989227,-0.47607715683989227,1.0000982203687525,0.0002314576843602854
-0.4759477225743467,-0.4759477225743467,1.0000557887446235,0.00022061809179900813
-0.4758049684460275,-0.4758049684460275,0.9999443245715073,0.0002215775043303867
-0.4755890495231142,-0.4755890495231142,1.0000347774187648,0.0002320340008398275
-0.47544287152704784,-0.47544287152704784,0.9998984169838145,0.00021264335953968976
-0.47517308316892015,-0.47517308316892015,0.9998770358874884,0.0002284426130151135
-0.47500857201812324,-0.47500857201812324,1.0000335567087726,0.00021675056181359313
-0.47487163288751616,-0.47487163288751616,1.0001672187755353,0.00022849286304643858
-0.47468132503854576,-0.47468132503854576,1.000064017124029,0.00022145196993826583
-0.47452862171048765,-0.47452862171048765,1.0000387598451808,0.00023786037152802842
-0.4743462643091334,-0.4743462643091334,0.9999193199564369,0.00023463458283839002
-0.47417271038284525,-0.47417271038284525,1.0001341924531322,0.00021903949418463877
-0.47400423905055505,-0.47400423905055505,0.999818486545081,0.00023406033428190068
-0.47376809001143555,-0.47376809001143555,0.9997416237212617,0.00022123456185093094
-0.47362853123631793,-0.47362853123631793,1.0003448520118243,0.00022337188229465838
-0.47342412258440164,-0.47342412258440164,1.0002152576738386,0.00023205727795543073
-0.4732332145678811,-0.4732332145678811,0.9999325043529399,0.00022406840739333146
-0.4731018692196812,-0.4731018692196812,1.0001147962186436,0.00023161908795482216
-0.4729194590472616,-0.4729194590472616,0.9998849091356574,0.0002239043743113663
-0.47279846253222785,-0.47279846253222785,0.9997201431502998,0.00024034282645382654
-0.47272063564159905,-0.47272063564159905,0.9997901758911574,0.0002170991354433005
-0.47253247078333516,-0.47253247078333516,0.9996540278176917,0.00023633786221094257
-0.47239514855027664,-0.47239514855027664,0.9997619116399662,0.00023864391961807302
-0.4722921136941295,-0.4722921136941295,1.0002077116389285,0.00022746616687260496
-0.47207247257174456,-0.47207247257174456,0.9999363675812358,0.0002447071909543476
-0.4719364685326582,-0.4719364685326582,1.0001399692555974,0.00023342010802660174
-0.47177892943727784,-0.47177892943727784,0.9998441057767078,0.0002256275787872953
-0.4716085943102371,-0.4716085943102371,1.0001787338094883,0.0002430380137440861
-0.47148359201964923,-0.47148359201964923,0.9999899116144857,0.00022557990043928575
-0.47131005476985594,-0.47131005476985594,0.9998626299337436,0.00023046050609934433
-0.47118073836609253,-0.47118073836609253,1.0000018910065827,0.0002471463587427812
-0.47107867676822934,-0.47107867676822934,0.9999816582856065,0.00022704065329379633
-0.47091804347874133,-0.47091804347874133,1.0000999181611934,0.0002249528521655148
-0.47079279517638495,-0.47079279517638495,0.9999411696762716,0.00024472419652548413
-0.47071267271530814,-0.47071267271530814,1.0001078190438237,0.00023826558428369956
-0.4705805529025383,-0.4705805529025383,1.0000130510937921,0.0002317347261087272
-0.47042954769858625,-0.47042954769858625,1.0000668896487537,0.0002328568492472656
-0.47030423206742855,-0.47030423206742855,1.0000506888278857,0.0002330969397846932
-0.4701960826496361,-0.4701960826496361,0.9998086912480882,0.00023863639797108395
-0.470062779833097,-0.470062779833097,0.9998348549323353,0.00022207347307799354
-0.4699305792164523,-0.4699305792164523,0.9996512266638383,0.00024054851051348849
-0.46976470954250543,-0.46976470954250543,1.0001899837637578,0.0002348436225228584
-0.46961324085714296,-0.46961324085714296,0.9998840964268503,0.0002323566126025201
-0.4694924823823385,-0.4694924823823385,0.9993974043613644,0.00022962635952083647
-0.46938813680608293,-0.46938813680608293,0.9996235470124306,0.0002372299597828904
-0.46925773709954227,-0.46925773709954227,1.000186200719411,0.00022968090198895825
-0.4690983912732918,-0.4690983912732918,1.0004293809809228,0.00022701166236684082
-0.46894112215959466,-0.46894112215959466,0.9998781051687903,0.00024183523698217643
-0.4686963680840563,-0.4686963680840563,0.9998493067020874,0.00022595205675730369
-0.4685819132515462,-0.4685819132515462,1.0000731419436826,0.00024435518016126696
-0.46844406476302536,-0.46844406476302536,1.0001426621136398,0.00024396583094559243
-0.46819911092170513,-0.46819911092170513,0.9999773337407192,0.00022806060188795252
-0.46810827624576634,-0.46810827624576634,1.000071251138305,0.00024088376920622248
-0.46787865410733503,-0.46787865410733503,1.0001595614590504,0.00022869340331774465
-0.46774900366435757,-0.46774900366435757,0.9998733852485604,0.00023688095782198074
-0.4676874647760997,-0.4676874647760997,1.0001600495676555,0.00023219255321078194
-0.46746176952729,-0.46746176952729,0.9998530768449772,0.00023682379104631785
-0.46732120153319556,-0.46732120153319556,1.0001669677188814,0.00021199595319103829
-0.4672724686533911,-0.4672724686533911,0.9999395228032786,0.0002337158267526126
-0.4671037094783969,-0.4671037094783969,1.0002639201524246,0.00022837931411500244
-0.46694510147790425,-0.46694510147790425,0.9997767651058815,0.0002212724004929099
-0.4668616315408144,-0.4668616315408144,0.999795781309432,0.0002241487922865344
-0.4667951724608429,-0.4667951724608429,0.9997790401847236,0.0002313123848643585
-0.4665223474003142,-0.4665223474003142,1.000045747210771,0.00024000576077627014
-0.4664266130886972,-0.4664266130886972,1.0000910856235392,0.00022919933054891262
-0.46620696139871143,-0.46620696139871143,0.9998902176016266,0.0002348959747087476
-0.4660136198246619,-0.4660136198246619,0.9997919000339444,0.00023402159640709559
-0.46586330587451813,-0.46586330587451813,0.999997715055368,0.000230683286484634
-0.46565780303790233,-0.46565780303790233,0.9996647755154617,0.0002257495526462524
-0.46553190726262983,-0.46553190726262983,0.9995848410907214,0.00022188083915026065
-0.46540606134803963,-0.46540606134803963,0.9996846189427284,0.00024784005626570904
-0.46517211594618857,-0.46517211594618857,1.0003739637905666,0.00023354983903909983
-0.46505969966528937,-0.46505969966528937,1.0001687892076252,0.00022815944286626492
-0.4649131871323334,-0.4649131871323334,1.0001486492579772,0.00023160670666025088
-0.46465132805460596,-0.46465132805460596,0.9996880769766889,0.00023545177585245495
-0.46450211145274806,-0.46450211145274806,0.9996888882911854,0.00023174098054861873
-0.4642516176245408,-0.4642516176245408,1.000069102816862,0.00023915024787700515
-0.46413809404475614,-0.46413809404475614,0.999862476666503,0.00021347284743743664
-0.4640216756699374,-0.4640216756699374,0.9998316153475179,0.00024222063776470427
-0.4637775344715919,-0.4637775344715919,1.0000585937707414,0.00023925605177532112
-0.46367281044658737,-0.46367281044658737,1.0000436022328358,0.0002321604256696089
-0.46349874162697235,-0.46349874162697235,0.9997735582090712,0.00022870186984608708
-0.4633166414743755,-0.4633166414743755,1.0002241161825904,0.0002280665755830029
-0.46320639807672703,-0.46320639807672703,0.9998389223040727,0.00021533315152679464
-0.4629844897572184,-0.4629844897572184,1.0001841261384088,0.00023187097357377722
-0.46283710112038534,-0.46283710112038534,0.9999347370351673,0.00022492210179746812
-0.4626569443702465,-0.4626569443702465,1.000050515132649,0.00022407308807999648
-0.46249825911363585,-0.46249825911363585,1.0000315095652421,0.00022801285673692352
-0.462332183343824,-0.462332183343824,1.000031687986542,0.00021905211364993833
-0.46210987840022427,-0.46210987840022427,0.9998623677230754,0.000235516579936214
-0.46189910664979833,-0.46189910664979833,0.9997703575032023,0.0002190383825332296
-0.46169771905406376,-0.46169771905406376,0.9997910261494034,0.00023545801924577844
-0.4614689517475199,-0.4614689517475199,1.0000724036005593,0.0002240748031574837
-0.4612978647986893,-0.4612978647986893,1.0001260132822498,0.0002252545438305909
-0.4611199474427849,-0.4611199474427849,1.0003565412681659,0.00022639619620939158
