time,time,flux,flux_err
-0.498697645327411,-0.498697645327411,0.9999501818837649,0.00013868992624582348
-0.49727828362059273,-0.49727828362059273,0.9998561060393119,0.00013876051337707182
-0.4960643645834352,-0.4960643645834352,0.9998774345419864,0.0001266931155379657
-0.494215463178989,-0.494215463178989,0.9999195191434896,0.00012671476067006407
-0.4921952069744293,-0.4921952069744293,0.9999731822573633,0.00012657896349411584
-0.490874872222048,-0.490874872222048,0.9999997845612952,0.00012669113969468457
-0.4897741463035345,-0.4897741463035345,0.9998563970048531,0.00012710069844338234
-0.4882937490074255,-0.4882937490074255,0.9999491893921361,0.00012669525558013875
-0.48627380118268776,-0.48627380118268776,0.9999853744525868,0.00012704056584032238
-0.48509483144953264,-0.48509483144953264,1.0001377220346412,0.0001265777585129489
-0.4837667433639581,-0.4837667433639581,1.0000172325388519,0.00012668455534607277
-0.48265652921181756,-0.48265652921181756,0.9999526250135077,0.00012676842471718653
-0.4813297061889898,-0.4813297061889898,1.0001579840726869,0.00012682086874872173
-0.47953734005714066,-0.47953734005714066,0.9998287437033231,0.00012661514773488672
-0.4781391255863127,-0.4781391255863127,1.000281578920825,0.00012663476391300607
-0.4767787567972846,-0.4767787567972846,0.9999392219885127,0.00012667467431800046
-0.475506278656394,-0.475506278656394,0.9996358588214187,0.0001267279171426902
-0.4735527429569629,-0.4735527429569629,0.999795234469769,0.0001265940266575541
-0.4714753543063125,-0.4714753543063125,1.0000376830993172,0.0001266286514655664
-0.4701213930136873,-0.4701213930136873,0.999971744452594,0.00012670631403332336
-0.46881289774319157,-0.46881289774319157,0.9999721772621344,0.000126719682879301
-0.4670798789105902,-0.4670798789105902,0.999969800130766,0.00012667179211194542
-0.46487973896146284,-0.46487973896146284,0.9999849556661873,0.0001266024247000164
-0.46372433137657937,-0.46372433137657937,1.0001291695008308,0.00012673647814841652
-0.46240838865196565,-0.46240838865196565,1.0001706646621755,0.00012671384245471144
-0.46067701024585406,-0.46067701024585406,0.999843353888842,0.00012663908275414873
-0.4585236040693417,-0.4585236040693417,1.0002581731754105,0.00012662276384257522
-0.45721546682980263,-0.45721546682980263,1.0001054476000983,0.00012669823851100322
-0.45612007576200997,-0.45612007576200997,0.9997943136818993,0.00012723146399072039
-0.4546391669849982,-0.4546391669849982,1.0001051929845715,0.00012672507800119391
-0.4523996334246476,-0.4523996334246476,1.000017371246725,0.00012665269306993453
-0.4514279511080531,-0.4514279511080531,1.0001408201961879,0.00012658267257702064
-0.4501064866599336,-0.4501064866599336,1.0000021250909044,0.00012669221887240395
-0.4490029767752276,-0.4490029767752276,0.9999423965546204,0.00012685322745591848
-0.44732197775156235,-0.44732197775156235,1.0000958301245162,0.0001268264122203902
-0.44555366600543495,-0.44555366600543495,0.9999146138981821,0.0001265885024777524
-0.444181637231668,-0.444181637231668,1.0000245102057947,0.0001266180598259236
-0.4428743077609397,-0.4428743077609397,0.9997288859672759,0.00012671108599172747
-0.441563748990302,-0.441563748990302,0.9998903128979333,0.00012671563913866407
-0.4394148983039486,-0.4394148983039486,1.0001974343723528,0.0001266547808861178
-0.43749337477638617,-0.43749337477638617,0.999890473747295,0.00012668148594942958
-0.43621233178273544,-0.43621233178273544,1.0000940040262156,0.00012671918803469281
-0.43489315046390403,-0.43489315046390403,1.0000675600736053,0.00012672457733875852
-0.43288839134038426,-0.43288839134038426,0.9999542066477562,0.00012665121511719072
-0.4309302497022145,-0.4309302497022145,1.0000899770094906,0.000126693487575554
-0.429950411048776,-0.429950411048776,1.0001468907140239,0.00012669453645031164
-0.4287525506792008,-0.4287525506792008,0.9997262446188163,0.0001267006375439388
-0.42702064062978023,-0.42702064062978023,1.000051047202602,0.00012668060288273462
-0.4248521788562357,-0.4248521788562357,1.0001531978536802,0.00012661842501410296
-0.42366803929398883,-0.42366803929398883,0.9998022938257531,0.00012668421500224052
-0.4226076724502491,-0.4226076724502491,1.0000176756119799,0.00012671931807497404
-0.42098472348516225,-0.42098472348516225,1.0000080696514113,0.00012672210221979292
-0.4187302959006047,-0.4187302959006047,1.000166000489084,0.0001266289902965983
-0.4174722501622455,-0.4174722501622455,0.9998802689199666,0.00012658933451081348
-0.4162916253328149,-0.4162916253328149,0.9999476285858616,0.00012696980797001776
-0.4150277838773036,-0.4150277838773036,1.000086287732331,0.00012669562034399096
-0.4132972371080541,-0.4132972371080541,1.0002011997626776,0.00012693344685171153
-0.41163077608216553,-0.41163077608216553,0.9999704030670038,0.00012658868030518305
-0.4102644006292394,-0.4102644006292394,0.9999134619773061,0.0001266695591267128
-0.4092199659287871,-0.4092199659287871,0.9998331391774992,0.00012673284503199038
-0.4076135900206282,-0.4076135900206282,0.9998666067602114,0.0001267508997177384
-0.4058319255047536,-0.4058319255047536,1.0000538062432793,0.00012661912736065492
-0.404435390629078,-0.404435390629078,1.0000489371667232,0.00012663563938707345
-0.4030658963849419,-0.4030658963849419,1.0001579932147835,0.00012670128617835966
-0.40178692737536037,-0.40178692737536037,1.0000725927557568,0.00012676927491421923
-0.39984382349211955,-0.39984382349211955,0.9997835129804582,0.0001265917291975957
-0.3977714128574007,-0.3977714128574007,0.9997482844774664,0.0001266053920403512
-0.3964878418599255,-0.3964878418599255,1.0001451379212696,0.00012672013796331843
-0.395373658000608,-0.395373658000608,0.9999669081055588,0.00012675383995320845
-0.39384724621413625,-0.39384724621413625,0.9997957866397444,0.0001266685049486958
-0.39142487954013633,-0.39142487954013633,1.000314707291956,0.00012663003680361397
-0.3902882345595572,-0.3902882345595572,0.999947557055077,0.0001266531086265829
-0.3891785356623586,-0.3891785356623586,0.9999908517415201,0.00012668790410727253
-0.3877334038261324,-0.3877334038261324,0.9998916070859847,0.00012676359029097772
-0.3853926613213844,-0.3853926613213844,1.000008149330015,0.00012662016305158122
-0.38410935349820646,-0.38410935349820646,0.9998732417445801,0.0001266472995827102
-0.3827864061000582,-0.3827864061000582,1.0001166701859758,0.0001267204350125269
-0.38169627480674534,-0.38169627480674534,0.9999370505716302,0.00012709091827602423
-0.3796421093320532,-0.3796421093320532,1.0001364751248834,0.00012704429976399763
-0.37811226759149574,-0.37811226759149574,1.0000074334885283,0.0001265865955678157
-0.3768718043276749,-0.3768718043276749,0.999924851925939,0.00012667894519093834
-0.3758043243222346,-0.3758043243222346,0.9998240571001105,0.0001267180426287998
-0.3743039860666613,-0.3743039860666613,0.9999065512901828,0.00012670284300084672
-0.3724775876107742,-0.3724775876107742,1.0000068012173184,0.00012675878776634368
-0.371072031033691,-0.371072031033691,0.9999926536810133,0.00012658330084487345
-0.3696528406770085,-0.3696528406770085,1.0000795302087653,0.00012672959385342088
-0.3684322438486561,-0.3684322438486561,1.0001484432031618,0.00012669083383464697
-0.3666893477595295,-0.3666893477595295,0.9999439826860511,0.00012665608724753244
-0.3643988447431184,-0.3643988447431184,0.9997208146257257,0.00012661088038723724
-0.3630119350644236,-0.3630119350644236,0.9998935227089678,0.0001266733932981168
-0.3617206337483367,-0.3617206337483367,1.0000318509627946,0.0001267471355394281
-0.36018986198614583,-0.36018986198614583,1.0000533507523168,0.00012663973754399311
-0.3577564425802848,-0.3577564425802848,0.9999289669832934,0.00012663932937481023
-0.35662695661812904,-0.35662695661812904,0.9999090874321721,0.00012666694600932843
-0.35530827559487077,-0.35530827559487077,0.9999497140940473,0.00012677073175654062
-0.3539018673225655,-0.3539018673225655,1.000141815335507,0.0001267087807646197
-0.351726973575569,-0.351726973575569,1.0000554473299217,0.00012661973611591306
-0.3504452733483049,-0.3504452733483049,0.9998635589731938,0.00012663863666505644
-0.34912658225075577,-0.34912658225075577,0.999935074063288,0.00012669723157799126
-0.34804312124470016,-0.34804312124470016,1.0001474294974237,0.0001272196649126188
-0.34577474549150794,-0.34577474549150794,1.0000195435688322,0.0001266516439339569
-0.3444411770280567,-0.3444411770280567,0.999976954500464,0.00012658789657270768
-0.3432106700958684,-0.3432106700958684,1.0000036609650627,0.00012667745214259437
-0.3421464528029901,-0.3421464528029901,1.0001009571144919,0.0001267926840264056
-0.34064857691628275,-0.34064857691628275,0.9999198396816938,0.00012669872886676318
-0.3388178213594074,-0.3388178213594074,1.0000900159637365,0.00012681574167189806
-0.3374039851718408,-0.3374039851718408,1.0002804629283397,0.00012659133221981636
-0.3359970565579715,-0.3359970565579715,1.000043519928857,0.0001267366611334857
-0.3347753299152828,-0.3347753299152828,0.999866676779533,0.0001266951198117171
-0.3330335639271652,-0.3330335639271652,1.0001223524727993,0.00012667561115524195
-0.3307318558319821,-0.3307318558319821,1.0000375785573918,0.0001266246640822304
-0.32935320732722173,-0.32935320732722173,0.9999906893812593,0.00012668108843573615
-0.32806774744822176,-0.32806774744822176,0.9999813546105113,0.00012673709123879647
-0.3265326162800193,-0.3265326162800193,0.9998334251374136,0.0001266520426834959
-0.3240676698325842,-0.3240676698325842,0.9999526058777277,0.00012662715904857282
-0.3227724418917205,-0.3227724418917205,0.9999556691336006,0.0001267050933141662
-0.32165495874214683,-0.32165495874214683,0.9998511958009774,0.00012675305641812604
-0.3201333922137565,-0.3201333922137565,1.000021511088097,0.00012664992684128116
-0.317723346601997,-0.317723346601997,1.000114406051492,0.0001266284520338485
-0.31657871432762474,-0.31657871432762474,0.9999809003954621,0.00012665092143860916
-0.3154669012474187,-0.3154669012474187,0.9999607993802357,0.00012669420658247555
-0.3140119861673156,-0.3140119861673156,1.0001019673025275,0.00012676529495459738
-0.31168806352288814,-0.31168806352288814,0.9998715517707012,0.00012659341240613657
-0.3104191812162753,-0.3104191812162753,1.0000197597131955,0.0001265850011032275
-0.3090752676151169,-0.3090752676151169,0.9999875247159487,0.000126688016441954
-0.307977710335399,-0.307977710335399,1.0002169887939765,0.00012694997359874774
-0.306294000971684,-0.306294000971684,0.9998024654277027,0.0001268853773631746
-0.3045157383734477,-0.3045157383734477,0.9998228388637462,0.00012659123091734412
-0.30316213347105075,-0.30316213347105075,0.9999701953719968,0.00012666075790014736
-0.3020910077204462,-0.3020910077204462,0.9999781440491601,0.000126693707593581
-0.30058793522402993,-0.30058793522402993,1.0000450578790088,0.00012669480350199828
-0.2987377225261298,-0.2987377225261298,0.9999367594030308,0.00012665410922703638
-0.2970650290561025,-0.2970650290561025,0.9997928966872065,0.0001266026192386238
-0.29569461955761656,-0.29569461955761656,1.000083512521038,0.00012668159599710468
-0.2944150022696704,-0.2944150022696704,0.9998148190900601,0.00012675961928777942
-0.29287550910157734,-0.29287550910157734,0.9999830742093312,0.00012665002757097406
-0.2904010296850174,-0.2904010296850174,1.000109482237735,0.0001266274766476812
-0.28911629316498877,-0.28911629316498877,0.9998120589056565,0.00012669658583831447
-0.2880017804141971,-0.2880017804141971,0.9998277314716351,0.00012673855298884882
-0.2864758524665376,-0.2864758524665376,1.0001700606429798,0.00012667585392524375
-0.28405471495643725,-0.28405471495643725,1.0000552229576536,0.00012663394506210395
-0.28291727366522534,-0.28291727366522534,0.999979867188739,0.00012665911037601632
-0.28180736453286953,-0.28180736453286953,1.0001980318446322,0.00012669767673369734
-0.28036125466023804,-0.28036125466023804,1.0000657419022834,0.00012676967042895825
-0.278022192613571,-0.278022192613571,0.9998186298685046,0.000126621615709992
-0.2767387062354828,-0.2767387062354828,0.9997939347170937,0.00012663510928674903
-0.2754152842164331,-0.2754152842164331,1.0002109188432509,0.00012670250351984016
-0.2743244104713085,-0.2743244104713085,1.000017952904927,0.00012708297727827817
-0.27227045004547107,-0.27227045004547107,1.0001989105595914,0.0001270541592365638
-0.27074239791472793,-0.27074239791472793,1.0000300608036794,0.00012657445728290274
-0.269500829034223,-0.269500829034223,1.0000099471326729,0.0001266771344634963
-0.268457526768907,-0.268457526768907,0.999951983289999,0.00012676577326811174
-0.26729807995725424,-0.26729807995725424,0.9997671165549263,0.00012669252431134296
-0.26545474206795916,-0.26545474206795916,0.9999169372865501,0.00012674790921031362
-0.26398552678438136,-0.26398552678438136,1.0000100877395421,0.00012660070575763185
-0.26255425917115643,-0.26255425917115643,1.0000367742903118,0.00012667656996554746
-0.2612726863808348,-0.2612726863808348,1.0000461623028272,0.0001267360185652923
-0.2598348785395501,-0.2598348785395501,0.9999781702240247,0.0001266926153856571
-0.2573368079945794,-0.2573368079945794,1.0002501623335536,0.00012659729604873557
-0.2558884059151751,-0.2558884059151751,1.0000017044845368,0.00012665997074210657
-0.25465061412614887,-0.25465061412614887,1.0000038777002818,0.00012674212595266038
-0.25323579059477197,-0.25323579059477197,0.999792159040515,0.00012670948242601756
-0.25073088549397654,-0.25073088549397654,0.9999391801341826,0.00012662249832397018
-0.2494674548106559,-0.2494674548106559,0.9999533622877165,0.00012662397301121438
-0.24824911244722897,-0.24824911244722897,0.9998081069870974,0.00012672399695263067
-0.2468258812732529,-0.2468258812732529,0.9999024050051306,0.00012670464545429288
-0.24478469150853926,-0.24478469150853926,0.999956544545072,0.00012664775790765503
-0.24331619752192638,-0.24331619752192638,0.9997349889903775,0.0001266495679944367
-0.24194613653671695,-0.24194613653671695,1.000183037541134,0.0001266645183797156
-0.24095026984578,-0.24095026984578,0.9998021253129856,0.0001272049737152334
-0.23888602881488624,-0.23888602881488624,1.0000121358412108,0.00012672037012389757
-0.23728754779658628,-0.23728754779658628,1.0002942749705717,0.00012658310700763874
-0.23610373756600894,-0.23610373756600894,1.0000897054715496,0.00012660973380478294
-0.23496748405741527,-0.23496748405741527,1.00001352254749,0.00012683232440931675
-0.2336422238360683,-0.2336422238360683,0.9999289978601912,0.0001266931025898377
-0.23179675793726345,-0.23179675793726345,1.0000241159521461,0.00012681296523014786
-0.23031814043060878,-0.23031814043060878,0.9998241313231084,0.0001265693250187698
-0.22889248414576285,-0.22889248414576285,1.000083015489082,0.00012668440274229113
-0.22762014826876112,-0.22762014826876112,0.999950544522628,0.00012674130059164447
-0.22617782896049904,-0.22617782896049904,0.9999850745248086,0.00012666391411893843
-0.22366825151111697,-0.22366825151111697,1.0000833365092494,0.00012659198446961312
-0.22222815209024702,-0.22222815209024702,0.9999465342264433,0.00012666415161874872
-0.2209972661708889,-0.2209972661708889,1.0000195818034503,0.00012675951376937838
-0.2195821189248818,-0.2195821189248818,0.9998547765347816,0.00012669759506945416
-0.21706584603016382,-0.21706584603016382,1.0000197270451905,0.0001266304110489107
-0.21559483153541806,-0.21559483153541806,0.9997360825406136,0.000126654877411961
-0.21458591341215652,-0.21458591341215652,1.0001506749648141,0.00012674821634212164
-0.21317177617602284,-0.21317177617602284,0.9998354350062513,0.00012670627005715102
-0.21069094297490665,-0.21069094297490665,1.0000050541025782,0.00012661336464802152
-0.20942841228679754,-0.20942841228679754,1.0000167398874893,0.00012660857147794624
-0.2082846425997559,-0.2082846425997559,1.0001076062042318,0.00012674054825890014
-0.20706554242351558,-0.20706554242351558,0.9998251331604827,0.00012668026608219594
-0.20474050421398715,-0.20474050421398715,0.9999451926956091,0.00012664150922995034
-0.20328983582512591,-0.20328983582512591,0.9999471455793939,0.00012658864184219505
-0.2019022804328415,-0.2019022804328415,0.9999555982905814,0.0001266544303116978
-0.20103755528325565,-0.20103755528325565,1.0001553983929683,0.00012689535746873842
-0.19962166457480635,-0.19962166457480635,0.9998913303340142,0.00012670263105486848
-0.19778704554046272,-0.19778704554046272,0.9998358929415693,0.00012686963191530605
-0.19636585507687415,-0.19636585507687415,1.0000778904954029,0.00012658409671071694
-0.19514495944968074,-0.19514495944968074,0.9999490307859558,0.000126728543473085
-0.19388211273326306,-0.19388211273326306,0.9999909241368202,0.00012671703464463112
-0.19214870183641325,-0.19214870183641325,0.9999453167142394,0.00012672629659737412
-0.19028280038764933,-0.19028280038764933,1.0000650869981975,0.00012658951114098298
-0.1888452967919875,-0.1888452967919875,1.00020186594906,0.00012670311961302877
-0.18755344655219233,-0.18755344655219233,0.9998825615148756,0.0001267342565147559
-0.18621950540036777,-0.18621950540036777,1.000089503321404,0.00012671227582205743
-0.1839385453167779,-0.1839385453167779,1.0001709459225252,0.00012659750290686236
-0.1821777426288463,-0.1821777426288463,0.9997050799024993,0.00012665046456171116
-0.1811310999044508,-0.1811310999044508,0.9999260591873371,0.00012678122919171025
-0.1798138356869458,-0.1798138356869458,0.9999500774172428,0.00012671238190284349
-0.17756670712915365,-0.17756670712915365,1.0000794084578344,0.00012658075368135246
-0.17598940088282689,-0.17598940088282689,0.9997680552917355,0.00012665754161510635
-0.17482688941818197,-0.17482688941818197,0.9999958598001143,0.00012666787958394194
-0.17368751096655616,-0.17368751096655616,1.000066895188694,0.00012671033949714634
-0.1715755396959139,-0.1715755396959139,0.9998945379967656,0.00012669888600498733
-0.16983412459594546,-0.16983412459594546,1.0000504799665288,0.0001266079611475347
-0.16851570843646185,-0.16851570843646185,1.0000867407250555,0.0001267256265930136
-0.16745972207936574,-0.16745972207936574,1.0000118767906707,0.00012704140233332767
-0.16578291608748258,-0.16578291608748258,1.0000435303888242,0.00012708641118180794
-0.16383842640425428,-0.16383842640425428,0.9999803393418661,0.00012664151762545713
-0.16269810613957816,-0.16269810613957816,1.0000187098818958,0.00012658208928687328
-0.1614887994917808,-0.1614887994917808,0.9999863748321344,0.00012676338070516353
-0.16022565354651305,-0.16022565354651305,1.000028047148304,0.0001266856951771278
-0.15849309281766183,-0.15849309281766183,1.0000568627193822,0.0001267488124506726
-0.15685334664085532,-0.15685334664085532,0.9998737236124111,0.00012657283140780977
-0.15542612542267306,-0.15542612542267306,1.0000031664215538,0.00012666277030837035
-0.1541572770685889,-0.1541572770685889,0.9999620160874378,0.00012669328150271652
-0.15280315876952955,-0.15280315876952955,1.000125456360228,0.00012673866231393047
-0.15045866996588303,-0.15045866996588303,1.0001907913267305,0.00012658751469625935
-0.14879877528219368,-0.14879877528219368,1.000130654692083,0.0001266881220548898
-0.14748735855464473,-0.14748735855464473,0.9999774182267107,0.00012674935678973334
-0.14615836951270467,-0.14615836951270467,0.999832882711979,0.00012671852421225285
-0.14390034460375317,-0.14390034460375317,0.9999258467721942,0.00012659171715798586
-0.1423262377131323,-0.1423262377131323,0.9998662652425179,0.00012667249891803905
-0.14108493816529516,-0.14108493816529516,0.9998871678212587,0.00012671777149618618
-0.13975360842014198,-0.13975360842014198,1.0002709982406917,0.0001267168329372514
-0.13788499031652462,-0.13788499031652462,1.000031893077837,0.00012663114432533967
-0.1361639847025799,-0.1361639847025799,0.9999345120804783,0.00012665315448632562
-0.13485714457710857,-0.13485714457710857,0.999920067243281,0.0001266844769408591
-0.13380222898631472,-0.13380222898631472,0.9999771911880515,0.00012712830141604962
-0.13229389510815964,-0.13229389510815964,1.0001402905881194,0.00012695802987518803
-0.13028945042533452,-0.13028945042533452,0.9999576383200516,0.00012662720070284408
