time,time,flux,flux_err
-0.4998677281740432,-0.4998677281740432,0.9999265570449497,0.00013174921603685883
-0.4997092960887433,-0.4997092960887433,0.9999166266771375,0.00014004719227125547
-0.499622290742991,-0.499622290742991,0.9998974467756506,0.00013232031230592066
-0.4995064569047827,-0.4995064569047827,1.0000017043245872,0.00013058040849651704
-0.49938184973725586,-0.49938184973725586,0.9997525585477843,0.00013661791676470602
-0.49920438784902216,-0.49920438784902216,1.0001079729016726,0.0001270333765275852
-0.49907593597454253,-0.49907593597454253,1.0001192051469143,0.0001213229556407284
-0.4989003330672858,-0.4989003330672858,0.9999528972793048,0.0001314368741966452
-0.4987710924964631,-0.4987710924964631,1.0000707734220213,0.00011946433746693247
-0.498628123664821,-0.498628123664821,1.0001916941827982,0.00012036420296989445
-0.4984593973291339,-0.4984593973291339,0.9998866238298522,0.00012069533778679368
-0.49826994810719044,-0.49826994810719044,1.0001852535444418,0.00012220648770882653
-0.4982065119504114,-0.4982065119504114,1.0000105666802201,0.00011842814297871719
-0.49809604641777694,-0.49809604641777694,1.0000696341770525,0.00012574183800370754
-0.4979648178137722,-0.4979648178137722,1.0000921219488663,0.0001197161226317214
-0.49787105646100827,-0.49787105646100827,1.0000043839867978,0.00012827782422075094
-0.49771082839288283,-0.49771082839288283,1.0002520377050668,0.00011843017206172293
-0.4975834503376973,-0.4975834503376973,1.0000506628846857,0.00011809085105378731
-0.497416373109445,-0.497416373109445,1.0001119331985802,0.00011974440199103128
-0.49728795010450993,-0.49728795010450993,0.9999972394710328,0.00012766573498270583
-0.4971135492436588,-0.4971135492436588,1.0001003601065643,0.00012717660362659777
-0.49697590650030177,-0.49697590650030177,1.0001243617675362,0.00012110119726021797
-0.49687992214021504,-0.49687992214021504,1.0001462038949842,0.00011922908102982713
-0.49675918763823573,-0.49675918763823573,0.9999386517174595,0.00012033742745897881
-0.49662163209140997,-0.49662163209140997,1.000009599986933,0.00012955530075026855
-0.49648331579664956,-0.49648331579664956,1.0000738661449118,0.00012195410764701706
-0.4963697285580565,-0.4963697285580565,1.0002006485866288,0.0001281131311086138
-0.49624310251965653,-0.49624310251965653,1.000096243513734,0.0001311698258936685
-0.4961257911520079,-0.4961257911520079,0.9998124858970385,0.00012884119577015154
-0.4959824257719447,-0.4959824257719447,1.0000717149802603,0.00011902115605468633
-0.49582262177718806,-0.49582262177718806,0.9999097709983203,0.0001357180495112775
-0.4956309352477547,-0.4956309352477547,0.9999655970217877,0.0001199131316103916
-0.4954930408435757,-0.4954930408435757,0.9998646421520364,0.00012085716588625232
-0.49546569328085754,-0.49546569328085754,0.9999857655957488,0.00011932511410465315
-0.4954175614664564,-0.4954175614664564,0.9999106064913862,0.0001178682464373881
-0.4953014925515163,-0.4953014925515163,1.0001690563786778,0.0001247476373826
-0.49519530103862053,-0.49519530103862053,0.9999661698091626,0.0001295966164322737
-0.49509396491484947,-0.49509396491484947,0.9999227844551509,0.00011941009631985754
-0.4949750341969775,-0.4949750341969775,0.9999725739979972,0.0001268187906352687
-0.4949032414748217,-0.4949032414748217,1.0000146403207477,0.00012241249874198225
-0.49484509136527777,-0.49484509136527777,0.9996904991160773,0.00011786437340434864
-0.4948028153332416,-0.4948028153332416,1.0001171677805636,0.00012721800185545927
-0.4946830226617749,-0.4946830226617749,1.000088216634509,0.00011857307874868859
-0.4945107850289787,-0.4945107850289787,0.9999164227896259,0.0001191075123028825
-0.49437989649013614,-0.49437989649013614,0.9999041766176209,0.00012883848801196224
-0.4942342560418183,-0.4942342560418183,0.9999609914634153,0.00012165933058861694
-0.4941407226229785,-0.4941407226229785,1.0001411396808202,0.0001319145777696236
-0.4940228837178438,-0.4940228837178438,0.999901303805764,0.00011936987507544841
-0.493924607532972,-0.493924607532972,0.9998492436444645,0.00011919132071857574
-0.49379502571682676,-0.49379502571682676,1.0000097322707542,0.0001218036097668923
-0.4936911023964058,-0.4936911023964058,1.0000028282533353,0.00011935772070318245
-0.4935598721829592,-0.4935598721829592,1.0001042654396108,0.00012849545217671305
-0.49345115579199045,-0.49345115579199045,1.000288108887966,0.00011892036607339385
-0.4933866334176855,-0.4933866334176855,1.0000239674886608,0.00012224021153111478
-0.493283232813701,-0.493283232813701,0.999830550517054,0.0001269386261096489
-0.4931394725092105,-0.4931394725092105,0.9998783494535797,0.00012766677862194
-0.4929796487471322,-0.4929796487471322,1.0001164156634315,0.0001191303557842158
-0.49271758322138337,-0.49271758322138337,1.0000274533495892,0.0001352287091214659
-0.49250577364873604,-0.49250577364873604,1.000043210101241,0.00012126467061331317
-0.4923228742874926,-0.4923228742874926,0.9998706265098989,0.00012391584331711817
-0.4921773428708548,-0.4921773428708548,1.0000284780951256,0.00012827947560003946
-0.4920937652423163,-0.4920937652423163,1.0001161774710008,0.00013578115541070497
-0.4919839975380455,-0.4919839975380455,1.0000131194140802,0.00012084723174019397
-0.491876482423686,-0.491876482423686,0.9999003517207999,0.00011948844081747235
-0.49175275672314456,-0.49175275672314456,0.9999151137560197,0.0001203026366118709
-0.4916527965950081,-0.4916527965950081,1.000134608274351,0.0001212141327415615
-0.49154854813386917,-0.49154854813386917,1.0000189661964574,0.00012389273929623736
-0.49148262099915885,-0.49148262099915885,1.0001017106931944,0.00011929429686572677
-0.491362191765802,-0.491362191765802,1.0001969943314963,0.0001207996686100915
-0.49126423671259545,-0.49126423671259545,1.0000404644482768,0.00012875837812059818
-0.49120588232181034,-0.49120588232181034,0.999995053834996,0.00013065566495553668
-0.49111129880184307,-0.49111129880184307,0.9999816832266127,0.00011985805516101396
-0.4910549365071347,-0.4910549365071347,0.9999249782720467,0.00011881310199667093
-0.49095394149480853,-0.49095394149480853,0.9998879213529712,0.0001169256949878092
-0.4907379175085225,-0.4907379175085225,1.000151795588246,0.0001192808285491478
-0.4906342274378403,-0.4906342274378403,0.9999992169198049,0.00012835117763885463
-0.49052624235046094,-0.49052624235046094,1.0000217538729335,0.00011828472866483506
-0.49042486430262217,-0.49042486430262217,1.0000412123015947,0.00012315129801434164
-0.490316780138528,-0.490316780138528,1.0001105825130145,0.0001203875501646345
-0.49014632552716647,-0.49014632552716647,0.9999874036333292,0.00012806219791308723
-0.49002053956792224,-0.49002053956792224,1.0000776908784321,0.0001322288413125418
-0.48983422883757155,-0.48983422883757155,0.9999874695369574,0.00012085165407475047
-0.4897160136708408,-0.4897160136708408,1.0000022390315493,0.00012769779395939914
-0.4895224464853527,-0.4895224464853527,1.0000213897274572,0.00012466345457614282
-0.4893342117604334,-0.4893342117604334,1.0000395488780658,0.00011816427575543895
-0.48925284921569984,-0.48925284921569984,0.9999022658431069,0.0001234245839578212
-0.48917027959978443,-0.48917027959978443,1.0001866973424436,0.00012053906330868798
-0.48909802601701813,-0.48909802601701813,0.999912926492325,0.00011711433917603496
-0.48900589569821024,-0.48900589569821024,0.9999561771518076,0.0001431333139683169
-0.4888479644287145,-0.4888479644287145,1.0000283238152856,0.0001221162949384095
-0.4887377270337311,-0.4887377270337311,1.0000747724184467,0.00012068823184337734
-0.488581142910698,-0.488581142910698,1.0000221950815023,0.00012449325405774594
-0.4884476396167884,-0.4884476396167884,1.0001074186694598,0.00012166943310792835
-0.4883914784208173,-0.4883914784208173,1.0000780944433754,0.00011974417132950832
-0.4883387904032134,-0.4883387904032134,0.9998422064939932,0.0001233938727722574
-0.48827578271157107,-0.48827578271157107,0.9999895326959592,0.00014000641127502042
-0.48817777520016536,-0.48817777520016536,0.9998688720912575,0.00012142661150227944
-0.4880453998950543,-0.4880453998950543,1.0000060717875872,0.00012938602463920793
-0.48793742390553235,-0.48793742390553235,1.0001129743372754,0.0001207666108490252
-0.487746104451071,-0.487746104451071,1.000130055996301,0.00012741029291483242
-0.48763835451682097,-0.48763835451682097,1.0000500852828722,0.00011852883023937755
-0.4875678330296068,-0.4875678330296068,1.0000263774455551,0.00012833695936041262
-0.48744946234219244,-0.48744946234219244,0.999936825670688,0.00012182772174021684
-0.487315218920412,-0.487315218920412,1.0001099153690927,0.00012037193385638854
-0.48716070889640833,-0.48716070889640833,0.9999956883514859,0.0001276868152789968
-0.4870414900477044,-0.4870414900477044,1.0001255019527946,0.0001192621634457251
-0.4869758225613623,-0.4869758225613623,0.9999738129840281,0.00013749138111190202
-0.4868357374041807,-0.4868357374041807,0.9999525954554231,0.00015061956795996736
-0.48656129772716666,-0.48656129772716666,1.0001853103165685,0.00011954606340789648
-0.48643031722604063,-0.48643031722604063,1.0000313946634294,0.0001213375819907791
-0.48627436945826047,-0.48627436945826047,0.9999081160071348,0.00011936155884496105
-0.48611332683358344,-0.48611332683358344,1.0000591612288932,0.00012276009925739977
-0.4859493695868878,-0.4859493695868878,1.0000027447200155,0.00012754655270491883
-0.4858486742406967,-0.4858486742406967,1.0000044510454291,0.00012922284482472818
-0.4857019819013658,-0.4857019819013658,1.0000709531928706,0.00011925762028117187
-0.48563997098681283,-0.48563997098681283,0.9997876978764157,0.0001194303451314658
-0.48552446081885137,-0.48552446081885137,0.9998908763639767,0.00012137867823456744
-0.4853894556261366,-0.4853894556261366,0.9999578292352507,0.0001221226375075015
-0.4852905192936305,-0.4852905192936305,0.9997561265882224,0.00011975763199951846
-0.48521474748122273,-0.48521474748122273,0.9999221792814744,0.00013312001233941765
-0.4851689249320771,-0.4851689249320771,1.0000866370448864,0.00011902495720997259
-0.4851098595871008,-0.4851098595871008,1.0000132519150804,0.00012048443964228622
-0.48502091111731716,-0.48502091111731716,1.0001061634434045,0.000117477489917058
-0.48490307955944445,-0.48490307955944445,0.9999556482994685,0.0001397186508353655
-0.4847504189150641,-0.4847504189150641,1.0000032584512355,0.00012939612572153016
-0.48455661569169023,-0.48455661569169023,0.9998386451687912,0.000120723953145956
-0.48441659368254475,-0.48441659368254475,1.000059772987774,0.00013325417970734652
-0.48433498292579313,-0.48433498292579313,0.9998672003730411,0.00011996312248133735
-0.4842145395828993,-0.4842145395828993,1.0001452592080065,0.00012023802727900586
-0.48405334173876324,-0.48405334173876324,1.0000387676700622,0.00013006774378639222
-0.4839454188637319,-0.4839454188637319,0.9998129990819338,0.00012948411471111915
-0.4838167278459878,-0.4838167278459878,0.999825081396003,0.00011661558600855153
-0.4836545005717198,-0.4836545005717198,0.9998284480859694,0.00012091290611312329
-0.4835383698242367,-0.4835383698242367,1.0000510014426829,0.000126467025733781
-0.4834343605209142,-0.4834343605209142,1.00005000864028,0.00011964549760065484
-0.4833144930438721,-0.4833144930438721,1.0001388535465332,0.00012798869764579085
-0.48305297774641076,-0.48305297774641076,1.000127256864651,0.00011846527673585888
-0.48297580138751073,-0.48297580138751073,0.9999017965582858,0.0001301248781434441
-0.4829057875860599,-0.4829057875860599,0.9999159674298408,0.00011848703741159763
-0.4827987091150135,-0.4827987091150135,1.0000181573132185,0.00013614079148970552
-0.4826380681886803,-0.4826380681886803,0.9999167190059766,0.00012230062168377178
-0.48251538132171845,-0.48251538132171845,0.9999102239819873,0.00011732007755856162
-0.48239372835960237,-0.48239372835960237,0.9999910732714739,0.00012869838138847387
-0.48228310940612573,-0.48228310940612573,0.9998655291205785,0.00012113799451988337
-0.48216573814861474,-0.48216573814861474,1.0000032573034994,0.00012931575512951747
-0.4820717956448789,-0.4820717956448789,0.999978904445028,0.00012307632393728364
-0.48190025475778386,-0.48190025475778386,1.000053079856953,0.00012925249068088327
-0.48177887601777913,-0.48177887601777913,0.999868864868621,0.00012983079185496243
-0.48164208257949215,-0.48164208257949215,1.0000485416186515,0.00012723382019228551
-0.48156136481557044,-0.48156136481557044,1.000291663380789,0.00012877818373241545
-0.4813598319524317,-0.4813598319524317,0.9999983431443267,0.0001287796352882126
-0.4811874139631982,-0.4811874139631982,0.9998822116069397,0.00012006720645501626
-0.4810431019504904,-0.4810431019504904,0.9998142378756019,0.00012081469937455362
-0.48089233885111754,-0.48089233885111754,0.9999874490051779,0.00011916111621801575
-0.48082204728561917,-0.48082204728561917,0.9998580490028901,0.00012660006643259672
-0.4807820327376248,-0.4807820327376248,0.9999300367160469,0.00011945806036366001
-0.4807112386493827,-0.4807112386493827,0.9998918962702149,0.00012744697633419304
-0.4806275991169969,-0.4806275991169969,0.9999459521473323,0.00012121020615643317
-0.48046474227303404,-0.48046474227303404,1.0000188355421038,0.00012716966491005925
-0.48036623345687984,-0.48036623345687984,1.0001130553252044,0.0001193454393740952
-0.48029416434583255,-0.48029416434583255,0.9998428115693377,0.00012855967300855222
-0.4801552653370891,-0.4801552653370891,0.9999726255110213,0.00011787591769551531
-0.48000332612282365,-0.48000332612282365,0.999872592041587,0.00012176812509023737
-0.47984657041379253,-0.47984657041379253,1.000019929835442,0.00012653377705152264
-0.4797750018173247,-0.4797750018173247,0.9999262942276328,0.00012874673041136215
-0.47958488852600567,-0.47958488852600567,0.9998867614628244,0.00011940317501057059
-0.4794636704347795,-0.4794636704347795,0.9998157732013571,0.00012053734821373117
-0.4793782285298221,-0.4793782285298221,1.000002204559158,0.00012103139952168195
-0.47916262493672546,-0.47916262493672546,1.0001505497919905,0.000127640109326609
-0.47903224332840183,-0.47903224332840183,0.9999520400034687,0.0001226343318428087
-0.4788844817710924,-0.4788844817710924,1.0000725246975,0.00012087429631452559
-0.47876602134347196,-0.47876602134347196,1.0002158423409395,0.00012813306840167506
-0.4786622692830861,-0.4786622692830861,1.0000663796291998,0.00012951568034437775
-0.4785493163872161,-0.4785493163872161,1.0001823009901964,0.00011895434105246116
-0.47839752059953755,-0.47839752059953755,0.9999661419735935,0.00011884614524316722
-0.4782650950583047,-0.4782650950583047,1.0000648695017142,0.00013693198937461245
-0.4781350406148704,-0.4781350406148704,0.9999944171140145,0.00012005292575847474
-0.47802954239596146,-0.47802954239596146,0.9999806097290277,0.00011980327802725677
-0.47791296983486975,-0.47791296983486975,0.99990981745473,0.00012026667675515074
-0.4777252096144366,-0.4777252096144366,1.000013050239673,0.00013210554531390984
-0.477618502995756,-0.477618502995756,1.000086389534665,0.00013371768769446772
-0.47752433277782985,-0.47752433277782985,0.9998105409654979,0.00012074668855860141
-0.4774721446403419,-0.4774721446403419,0.9997482155447729,0.00012005507573947613
-0.47738935879024214,-0.47738935879024214,1.0002072390307677,0.0001283214039196246
-0.4772784466636949,-0.4772784466636949,1.0000595153847733,0.0001198836365506826
-0.47713459374790546,-0.47713459374790546,1.0000393266638992,0.00011887060133404479
-0.4770729503215989,-0.4770729503215989,1.0000358029946317,0.00012492072862419789
-0.47692069493059536,-0.47692069493059536,1.0001062196952293,0.00011911929271536694
-0.47675847117207015,-0.47675847117207015,0.9999298482023342,0.00012768810527579672
-0.47665507205383617,-0.47665507205383617,1.000082824244466,0.00012251857483331117
-0.4764734492797288,-0.4764734492797288,0.9998910437997666,0.00011789024251182163
-0.4762352288744296,-0.4762352288744296,0.999950780249061,0.0001306224263579819
-0.4761280012142379,-0.4761280012142379,1.0001094455410837,0.0001295792273019578
-0.4760432223352836,-0.4760432223352836,0.9998432155952042,0.00011957935933020901
-0.475946020410629,-0.475946020410629,1.0001441482176996,0.00012301442250759058
-0.4757570883870358,-0.4757570883870358,0.9999032827459743,0.0001294845532428959
-0.4755620512107271,-0.4755620512107271,1.000018923702111,0.00012695522270442822
-0.4754703583399532,-0.4754703583399532,1.0001607530864793,0.00011878246604251914
-0.47529105857101966,-0.47529105857101966,1.0000516701346225,0.00012827627270658464
-0.47510536996560404,-0.47510536996560404,1.000123134658667,0.00011923077888050586
-0.47487153404799753,-0.47487153404799753,1.000062619281583,0.00012331550890429748
-0.4747167834328138,-0.4747167834328138,0.9997795064110729,0.00011910633742314111
-0.47458948221319586,-0.47458948221319586,0.9999840919681144,0.00013026011895348415
-0.47453852629114407,-0.47453852629114407,1.000249086754985,0.0001380248305270163
-0.47447600467276063,-0.47447600467276063,0.9998642863537007,0.00011836709560020896
-0.47435518066922666,-0.47435518066922666,1.0000279939565413,0.00012243966235766238
-0.47422795020684133,-0.47422795020684133,0.999983457936737,0.00011754214720894183
-0.4741184357437305,-0.4741184357437305,1.0001564760317359,0.00012014317898112626
-0.47402547164820136,-0.47402547164820136,0.9999699417609073,0.0001217704627053464
-0.4739321526489221,-0.4739321526489221,0.9998824580965658,0.0001240129107832933
-0.4738532201372436,-0.4738532201372436,1.0000694418879637,0.00011935987463738677
-0.47376628320198505,-0.47376628320198505,1.000115996966041,0.00012777477371962509
-0.47371780663816027,-0.47371780663816027,0.9998610303228291,0.00011918434180222906
-0.4735648115398362,-0.4735648115398362,0.9999013793003064,0.0001297648725853425
-0.47346006195875817,-0.47346006195875817,0.9999247962365356,0.00011878630850633614
-0.4732180947830784,-0.4732180947830784,0.9999336028652033,0.00012638511255073852
-0.4730849918531021,-0.4730849918531021,1.0000357203239276,0.0001203738776530821
-0.47294699955236863,-0.47294699955236863,1.000060528569517,0.00012271241471389295
-0.47287570177577437,-0.47287570177577437,1.000075212259502,0.00012288908279964913
-0.47270887254271654,-0.47270887254271654,0.9999786285901224,0.00012907257103368994
-0.4725490134092979,-0.4725490134092979,1.0001726752019402,0.0001303140703120002
-0.47245695837336826,-0.47245695837336826,0.999918976673347,0.0001303446480140816
-0.472340702265501,-0.472340702265501,1.0001411455079998,0.00011872394909073094
-0.47211556725524134,-0.47211556725524134,1.000063280968724,0.0001294479284139426
-0.4719555216273875,-0.4719555216273875,0.9998952808598756,0.00012260360064852052
-0.47182937759644117,-0.47182937759644117,0.9998399432806606,0.00011904849027032185
-0.471730073717481,-0.471730073717481,0.9999510774385116,0.0001208498675841606
-0.4716337512654718,-0.4716337512654718,0.9999101306658215,0.00011957005367083324
-0.47148402487218843,-0.47148402487218843,0.99986316018555,0.00012803565640053126
-0.4713496376280091,-0.4713496376280091,1.0001533642353042,0.00012959829572358443
-0.47118770486849826,-0.47118770486849826,1.0001504024199164,0.00012012605067445069
-0.471048947480449,-0.471048947480449,1.0000393200089264,0.00011931891166899665
-0.4709301864655572,-0.4709301864655572,1.0001855582728445,0.00012133766653468134
-0.4708564252141514,-0.4708564252141514,0.999923318814983,0.00012335383714108118
-0.4707443191786297,-0.4707443191786297,1.0000842308300277,0.00012757392307164006
-0.47066708305792415,-0.47066708305792415,1.0001439154637688,0.00012030089838483608
-0.47057616411620984,-0.47057616411620984,1.0001531590070047,0.00012121598840739517
-0.470490953612898,-0.470490953612898,1.0001134638010336,0.00013541883504567675
-0.4703932840624475,-0.4703932840624475,1.0000534454021162,0.00011993259051071958
-0.47023187929298726,-0.47023187929298726,0.9998873126305359,0.0001273609474843342
-0.47007883170590503,-0.47007883170590503,0.9999288658605273,0.00012026609166711746
-0.4699747471109731,-0.4699747471109731,1.0001670086620158,0.00012261191257346843
