time,time,flux,flux_err
-0.4992646653598058,-0.4992646653598058,1.0002381350653793,0.00010555499886619101
-0.49762878950568845,-0.49762878950568845,1.0000320539821008,0.00010531412549358642
-0.4954841493192362,-0.4954841493192362,1.000096396097383,0.00010530064131665897
-0.493567133029137,-0.493567133029137,0.999919008192754,0.00010528085689230904
-0.49205885361297985,-0.49205885361297985,1.0001040046947323,0.00010533832859216133
-0.49037553712987575,-0.49037553712987575,1.0001978037510657,0.00010529000302235573
-0.48811137298325774,-0.48811137298325774,1.0001362930685604,0.00010532758735123348
-0.4868214757370879,-0.4868214757370879,1.0002451960103294,0.00010531153361975053
-0.4854632006288739,-0.4854632006288739,0.9999594759959225,0.00010534656213995067
-0.48401479063686564,-0.48401479063686564,1.0002433867381382,0.00010531484546262874
-0.4816455622574722,-0.4816455622574722,1.0000601734335182,0.0001053067228911533
-0.4804060250557086,-0.4804060250557086,0.9998138948073736,0.0001052895419700575
-0.4790798095666105,-0.4790798095666105,0.9999751394303426,0.00010531339177930847
-0.4773960446473211,-0.4773960446473211,1.0002505674997615,0.0001053703654340656
-0.4750727972153982,-0.4750727972153982,1.00002557306843,0.00010532012577766414
-0.4735480648829252,-0.4735480648829252,1.0001000784386658,0.00010581182428273273
-0.47204916513946954,-0.47204916513946954,0.9998935227826337,0.00010531600238047176
-0.47026216441590807,-0.47026216441590807,1.0001661752314566,0.00010532456130047994
-0.4684304255439201,-0.4684304255439201,1.0000319436353484,0.0001053196865551549
-0.4670359372583334,-0.4670359372583334,1.0000381548094561,0.00010532989023344093
-0.46545330633671256,-0.46545330633671256,0.9999069348958572,0.00010531592332042576
-0.4637938349493197,-0.4637938349493197,1.000085017415872,0.00010529325776663942
-0.46167524340198723,-0.46167524340198723,0.9999090226276863,0.00010529038802854528
-0.46052078474676816,-0.46052078474676816,1.0000845954316537,0.00010532612150805628
-0.45909610991366206,-0.45909610991366206,1.0000329391784515,0.00010532708722352535
-0.45703153235735955,-0.45703153235735955,0.9999331661411454,0.00010528905905117878
-0.4552311482424557,-0.4552311482424557,1.0000352981654321,0.0001053044345083867
-0.454163472361688,-0.454163472361688,0.9999320137335328,0.00010529262654369969
-0.4531323050148785,-0.4531323050148785,1.0001166795816419,0.00010545630582966033
-0.4516629982776067,-0.4516629982776067,0.9999037499339096,0.00010528935530742271
-0.44935692329599985,-0.44935692329599985,1.0000969456270827,0.0001053336265769737
-0.4477999093614926,-0.4477999093614926,1.0001128074993708,0.00010531432329101958
-0.44619049461616667,-0.44619049461616667,0.9998788962187849,0.0001053595137307272
-0.443883986241417,-0.443883986241417,1.0000044479271675,0.00010529195086628236
-0.4419559723290149,-0.4419559723290149,1.0000704387364778,0.00010531281612663888
-0.4403025448016706,-0.4403025448016706,0.9999672232734641,0.00010533307754815333
-0.43905434664484344,-0.43905434664484344,1.0001751847322038,0.00010531384703746625
-0.4367603857841459,-0.4367603857841459,1.000031749381677,0.00010532820015509984
-0.4351993687771028,-0.4351993687771028,1.0000601616699334,0.00010531360161904903
-0.4338673307080171,-0.4338673307080171,0.9998759994927248,0.00010533079215448461
-0.4321886516852828,-0.4321886516852828,1.0001151388749454,0.0001053061869118509
-0.42986368714482526,-0.42986368714482526,1.0001816636489016,0.0001053247134140082
-0.4286114364906098,-0.4286114364906098,1.0001305599075705,0.00010532929218163786
-0.42705996318691175,-0.42705996318691175,1.00002590071924,0.00010565079499521097
-0.4250394030386815,-0.4250394030386815,1.0001067922989717,0.00010528852449374507
-0.4229083912818169,-0.4229083912818169,0.9999491018733618,0.00010529487766580143
-0.4214945090316178,-0.4214945090316178,0.9999402167031051,0.00010534198331201812
-0.41979854235323727,-0.41979854235323727,0.99998362599828,0.00010529961063946119
-0.41762719608450427,-0.41762719608450427,0.9999578730505826,0.0001052937323125261
-0.41597081589425217,-0.41597081589425217,0.999948256992797,0.00010528603612258299
-0.41484121003813923,-0.41484121003813923,1.0000266732090901,0.00010533738178096884
-0.4133445253370155,-0.4133445253370155,0.9999866895931422,0.00010530139552320356
-0.41118019494097097,-0.41118019494097097,0.9998829121654925,0.000105301056603173
-0.4097295720457623,-0.4097295720457623,1.000000655733572,0.00010532248877109305
-0.40865629362233447,-0.40865629362233447,1.0000443377960537,0.00010533239637775043
-0.40683269138608014,-0.40683269138608014,1.0000154467870306,0.00010531653521609328
-0.4047561988707457,-0.4047561988707457,1.0002187503060758,0.00010529867118632777
-0.4031533723842585,-0.4031533723842585,1.0000597655673387,0.00010532180666348768
-0.40172371677763297,-0.40172371677763297,1.0000289414290002,0.0001061048495391554
-0.4002233815212094,-0.4002233815212094,0.9999495930328012,0.0001052898925869996
-0.3979261446671444,-0.3979261446671444,1.0001303027106068,0.00010532286466298292
-0.3964367688728089,-0.3964367688728089,1.0001888130475722,0.00010532653982233443
-0.3947915928009024,-0.3947915928009024,1.0000224498145018,0.00010531208353073674
-0.39316670707121376,-0.39316670707121376,1.000164910459087,0.00010530687985439575
-0.39074743932069395,-0.39074743932069395,0.9999532920817579,0.00010529910065771618
-0.3895941431539541,-0.3895941431539541,0.9999060524512133,0.00010532579910365546
-0.38817462056540536,-0.38817462056540536,0.9998510613115604,0.0001053170780694606
-0.38605692469282077,-0.38605692469282077,1.0000964684854279,0.00010529989871057289
-0.38393030905281195,-0.38393030905281195,1.00012757545182,0.00010532031437253563
-0.3828738623808022,-0.3828738623808022,0.9999721705083958,0.00010553706775189164
-0.381116306000331,-0.381116306000331,0.9999806566875599,0.0001053127276323185
-0.37882252946510564,-0.37882252946510564,0.99998679858979,0.00010531631725348658
-0.37719809303816876,-0.37719809303816876,1.000013741081244,0.00010529810451171087
-0.37559033082361565,-0.37559033082361565,1.000083193696511,0.00010532903543211921
-0.37354731226078003,-0.37354731226078003,1.0000473724587398,0.00010531332236085077
-0.3712630993999483,-0.3712630993999483,1.0000584990415702,0.00010530397532571597
-0.3699525407369947,-0.3699525407369947,0.9999490153113666,0.00010533879496992886
-0.3684430963912746,-0.3684430963912746,0.9999504240729763,0.00010529231346810071
-0.36638710472252567,-0.36638710472252567,1.0001914151319409,0.00010531365992199219
-0.36479087801853893,-0.36479087801853893,0.9998691706107629,0.0001052918269814652
-0.36360164569268816,-0.36360164569268816,1.000147806558651,0.0001053266433588309
-0.36190248694765614,-0.36190248694765614,0.9999288331759446,0.00010536932403384256
-0.35985793893632945,-0.35985793893632945,1.0001553881253031,0.00010533089215070766
-0.3579466491282801,-0.3579466491282801,1.0000305095980617,0.0001053068765292701
-0.3565104808396427,-0.3565104808396427,1.0000418839930525,0.00010583895781774112
-0.3550160932194558,-0.3550160932194558,1.0000058236074556,0.00010527959838893535
-0.352716520173999,-0.352716520173999,0.9999579688911624,0.00010529307235881592
-0.3511613560280239,-0.3511613560280239,0.9998848138456852,0.00010530819817444864
-0.349579556730896,-0.349579556730896,0.9999886180101603,0.00010531393384879705
-0.34813895162515107,-0.34813895162515107,1.0000721411139666,0.00010528981201337795
-0.3458151681559684,-0.3458151681559684,1.0000776883874274,0.00010529573148932361
-0.3446195366981556,-0.3446195366981556,0.9999084235150434,0.00010530440977293477
-0.3433673405517766,-0.3433673405517766,0.9999017715116796,0.00010531733963998779
-0.34184426645224447,-0.34184426645224447,1.0000315897404617,0.0001053285475201489
-0.3397068253507314,-0.3397068253507314,1.0001064022520512,0.00010532266698245599
-0.3385514952788071,-0.3385514952788071,1.0001524227821847,0.00010532519341006541
-0.33772043082281017,-0.33772043082281017,0.9999877347226345,0.00010545618961520578
-0.33628271950365163,-0.33628271950365163,1.0000918218543238,0.00010533583380131419
-0.33414101451053285,-0.33414101451053285,1.0002478340776038,0.00010531913283223452
-0.33222610359953253,-0.33222610359953253,1.0000450501261726,0.00010529082769677776
-0.33071228055341634,-0.33071228055341634,0.9998736586765073,0.00010542276981555896
-0.32890614304997146,-0.32890614304997146,1.0000451036732467,0.00010531020061166269
-0.32632826044646207,-0.32632826044646207,1.0000419380557086,0.0001053103229899856
-0.3248572754957422,-0.3248572754957422,1.0000716030614585,0.00010532870424758038
-0.32336202139413217,-0.32336202139413217,0.9999732023120013,0.00010532034273675133
-0.3211085338771227,-0.3211085338771227,1.0000802034597909,0.00010529442490273362
-0.31931856468290787,-0.31931856468290787,0.9998689365828293,0.00010528192272059471
-0.31820834129102876,-0.31820834129102876,0.9999481573531149,0.00010533057689113174
-0.316690097488754,-0.316690097488754,1.0000280809075062,0.0001053139306355443
-0.31464938208373494,-0.31464938208373494,0.9999994042880631,0.00010530855045049136
-0.3129934715172567,-0.3129934715172567,1.0000985115058019,0.00010530285560841157
-0.31166352184300194,-0.31166352184300194,0.999806756593699,0.0001056320437735428
-0.3098088972721598,-0.3098088972721598,1.0000828443304466,0.00010531373103797622
-0.3078018008018262,-0.3078018008018262,1.0002108485819095,0.00010533532906879123
-0.3062709183242987,-0.3062709183242987,0.9999176054913917,0.00010529920334257281
-0.30492008381115737,-0.30492008381115737,0.9999927367088366,0.00010533939443155308
-0.30331468265503647,-0.30331468265503647,1.0001366069394542,0.0001052919970498915
-0.3010524862045713,-0.3010524862045713,0.9999084642167706,0.00010533773689863274
-0.2995806079241447,-0.2995806079241447,0.9999843191350145,0.00010529927566750698
-0.2984077659602917,-0.2984077659602917,1.0000390631601745,0.00010535790288291934
-0.29695549237803787,-0.29695549237803787,0.9999552573304331,0.00010530492481340128
-0.2944491366353759,-0.2944491366353759,1.0001302985756333,0.00010531146081892116
-0.29318297037825686,-0.29318297037825686,0.9999493904912684,0.00010529859193607074
-0.2917818849426112,-0.2917818849426112,0.9999920013435686,0.00010530743541759953
-0.28992462101668937,-0.28992462101668937,1.0001552831125218,0.00010530748404187867
-0.2879492168765864,-0.2879492168765864,1.0001134399455567,0.0001053430398582549
-0.2864883526483027,-0.2864883526483027,1.0001867671450966,0.0001060648418166867
-0.28499219076911686,-0.28499219076911686,1.0000856136065432,0.00010533274406943774
-0.28318842973239955,-0.28318842973239955,0.9999453925901076,0.0001052944516080028
-0.28113737931489596,-0.28113737931489596,1.0000985060389742,0.00010531984570690059
-0.27997532200824937,-0.27997532200824937,0.9998656021759211,0.00010531774029461937
-0.27839698002790103,-0.27839698002790103,0.999877543253929,0.00010533159522578623
-0.27644226632401114,-0.27644226632401114,1.0000738800708533,0.00010529767397071452
-0.2743781432727701,-0.2743781432727701,1.000060526998055,0.00010530837485355174
-0.27322183794749433,-0.27322183794749433,1.0000820853540553,0.00010534946479701828
-0.2716875918660662,-0.2716875918660662,0.9999157447568562,0.00010530132825999152
-0.2694409157142218,-0.2694409157142218,0.9998256843739008,0.00010529027057102989
-0.26753352439409356,-0.26753352439409356,1.0000447315752858,0.0001053074710891945
-0.26641639220324576,-0.26641639220324576,1.0000864452084606,0.00010555116432465597
-0.2646017924394982,-0.2646017924394982,0.9999502086897172,0.00010530554976671773
-0.2622975396872789,-0.2622975396872789,1.0001525912670717,0.00010531398062775536
-0.26074103005448707,-0.26074103005448707,1.0000066787872433,0.00010531467269129717
-0.2591319593557273,-0.2591319593557273,1.0000538656675444,0.00010536525539592693
-0.25682429674779994,-0.25682429674779994,0.9999106637636601,0.00010530263895328949
-0.25489387888956117,-0.25489387888956117,0.9998795821010498,0.00010531263278917724
-0.2535378815220611,-0.2535378815220611,1.0001730479866424,0.00010531072616717907
-0.25199732788751134,-0.25199732788751134,1.0001356833495312,0.00010532918683950975
-0.24981099776487098,-0.24981099776487098,1.0000606475929268,0.00010530711850102777
-0.24839005973917666,-0.24839005973917666,1.0002115103222866,0.000105317741686954
-0.24714396730050794,-0.24714396730050794,1.0000986856760368,0.00010534068128875363
-0.24550213622715092,-0.24550213622715092,0.9999825694003748,0.00010536133323618834
-0.24319363759786938,-0.24319363759786938,0.9999098938720803,0.00010531244723381763
-0.24157800520188175,-0.24157800520188175,0.9999900923934462,0.00010530312893959043
-0.2400437122436415,-0.2400437122436415,1.0000428279665567,0.0001057743105310211
-0.23849007766621072,-0.23849007766621072,0.9998318815576507,0.00010530188380266782
-0.23616144017651094,-0.23616144017651094,1.0000734918642304,0.00010531064494904308
-0.23476755556766876,-0.23476755556766876,1.0001396813802121,0.00010532536850391488
-0.23318369331609573,-0.23318369331609573,1.0000283699413686,0.00010531703945060651
-0.23152507308186615,-0.23152507308186615,1.0000396465337265,0.00010530086724297479
-0.2294072071526898,-0.2294072071526898,0.9999548303609391,0.0001053028441421928
-0.22825246255160891,-0.22825246255160891,0.9998593207921976,0.00010532566505784256
-0.2268264897284098,-0.2268264897284098,0.9998381665122427,0.00010531103346530868
-0.22476281908529927,-0.22476281908529927,0.9999620534769262,0.00010529899270868531
-0.22296266375342383,-0.22296266375342383,1.0000887306254032,0.00010530886720462032
-0.2218945989756321,-0.2218945989756321,0.9998525220147115,0.00010531360295639744
-0.2207871867911308,-0.2207871867911308,0.9998888475191233,0.00010542074912473908
-0.21899888259431463,-0.21899888259431463,0.9998958682453987,0.00010527872582563028
-0.217024386144476,-0.217024386144476,0.999887559041853,0.00010531273810675856
-0.21553103021578862,-0.21553103021578862,1.000059594636768,0.00010532678193810023
-0.21401223623252008,-0.21401223623252008,0.9999443557130805,0.00010542165982930105
-0.21226304314550362,-0.21226304314550362,1.0000950946594045,0.00010529951031257185
-0.21019416686031037,-0.21019416686031037,0.999961803291223,0.00010531771752371093
-0.20872274847133668,-0.20872274847133668,0.9999342949913583,0.00010533115659592026
-0.20722737896066973,-0.20722737896066973,0.9999665441515345,0.00010532442715154849
-0.20497431974945357,-0.20497431974945357,0.9999956730114649,0.00010528840978721042
-0.20318463494404568,-0.20318463494404568,0.9999824325415843,0.00010530773682662197
-0.2020736440339533,-0.2020736440339533,1.0000875994070906,0.00010535608606003507
-0.20055539041932208,-0.20055539041932208,0.9999738314164608,0.00010531214325961006
-0.19851510316148052,-0.19851510316148052,1.0000374723098155,0.00010532526219649474
-0.19660597105976194,-0.19660597105976194,1.000027041641039,0.00010528262818498264
-0.19512316254695178,-0.19512316254695178,1.0000180103695206,0.00010563339596817774
-0.19328193340552388,-0.19328193340552388,1.0001379864227118,0.0001052934861227813
-0.19095106062304695,-0.19095106062304695,0.9998876083384214,0.00010531346763967152
-0.18963635829568376,-0.18963635829568376,1.0000142568403683,0.00010530936745945733
-0.1882079881914251,-0.1882079881914251,0.9999296661182416,0.00010532557235943473
-0.18631569855788258,-0.18631569855788258,1.0000750956015352,0.00010531134498567067
-0.18420110672814188,-0.18420110672814188,0.9999193768770265,0.00010529256239945201
-0.1828925285350124,-0.1828925285350124,0.99990311287517,0.00010533853840838514
-0.18138693236978726,-0.18138693236978726,0.9999939889455007,0.0001053293881796442
-0.17932868549469277,-0.17932868549469277,1.0001341539733541,0.00010529783491017781
-0.17746165665739683,-0.17746165665739683,1.0001708632053312,0.00010531057257462894
-0.17638677918512258,-0.17638677918512258,1.0000557936533254,0.00010533529347636493
-0.17456405099728728,-0.17456405099728728,1.0000767976602905,0.00010532816254798652
-0.17273484531251598,-0.17273484531251598,0.9999946120799692,0.00010529982816852356
-0.1708852021940402,-0.1708852021940402,1.000004512744179,0.00010527847580602584
-0.16964012563985306,-0.16964012563985306,1.0002566274747422,0.00010602424481689852
-0.16829704529154696,-0.16829704529154696,0.9997486018977526,0.00010530206310110284
-0.16604886631466798,-0.16604886631466798,0.9998062698602184,0.00010531226423830855
-0.16458475128238206,-0.16458475128238206,0.9999583600032027,0.00010531365226450536
-0.1631564724550117,-0.1631564724550117,0.9999861948429949,0.0001053624946700484
-0.1617067621780734,-0.1617067621780734,1.0000416102304197,0.00010529991064919888
-0.15928388721877126,-0.15928388721877126,1.000160663305699,0.00010530888250046217
-0.15772473620963864,-0.15772473620963864,0.9998560621491226,0.00010530893536965788
-0.15656358990527225,-0.15656358990527225,0.9999744954241285,0.00010532593476883566
-0.15479611166592805,-0.15479611166592805,1.0000193581260595,0.00010529960318651942
-0.15277481441880808,-0.15277481441880808,1.0000619167722866,0.00010533956606458693
-0.1512029484969389,-0.1512029484969389,1.0001450276586186,0.000105296703154088
-0.1499119005355169,-0.1499119005355169,0.9999649635708036,0.00010551066457995129
-0.14807321815824254,-0.14807321815824254,1.0001380670311726,0.00010530554309260806
-0.1457407690679247,-0.1457407690679247,0.9999678204298768,0.00010528863081271843
-0.144352415164758,-0.144352415164758,1.0000822715995374,0.00010533105866372607
-0.1426683241770661,-0.1426683241770661,1.0000840854864017,0.00010531461683241907
-0.14015025925182273,-0.14015025925182273,0.9998763169809317,0.00010529254295583617
-0.1384981373208575,-0.1384981373208575,0.9999819735715049,0.0001052890551384933
-0.13705840332841035,-0.13705840332841035,0.9998818363570414,0.00010532210885408546
-0.13561164721031674,-0.13561164721031674,0.9999222911476963,0.00010528613615242138
-0.13324209363709089,-0.13324209363709089,0.9999346363319882,0.0001053065997188995
-0.1320037927464,-0.1320037927464,1.0000032642260772,0.00010529818208237414
-0.13067563899166998,-0.13067563899166998,1.000063584649333,0.00010535446749020366
-0.12899357404239709,-0.12899357404239709,0.9999436110012786,0.00010533498285709429
-0.12666975034735514,-0.12666975034735514,1.0000123621861388,0.00010532975707092122
-0.1251450948009733,-0.1251450948009733,1.0000362061974208,0.00010575044302901279
-0.12364502634227392,-0.12364502634227392,1.0002251207167885,0.00010534171463687941
-0.1218452567634813,-0.1218452567634813,0.9999718549273853,0.00010529825325361973
-0.11971378446687594,-0.11971378446687594,1.0001454941801746,0.00010531893391328103
-0.11839067370019621,-0.11839067370019621,0.999953531457747,0.00010533643510361249
-0.1170488887524698,-0.1170488887524698,1.0001460118713594,0.00010535295692147457
-0.11539069417121936,-0.11539069417121936,0.9999146397391385,0.00010528311037596926
-0.11327319082047324,-0.11327319082047324,0.999867095818125,0.00010528539041711248
-0.11211830402462511,-0.11211830402462511,0.999977633186206,0.00010533935119317586
-0.11069168127287413,-0.11069168127287413,0.9999815804689067,0.00010532774786214902
-0.10862846322343103,-0.10862846322343103,0.999915684678683,0.00010530735651644626
-0.10682842314854497,-0.10682842314854497,1.000009254472109,0.00010531097450446967
-0.10567652583340532,-0.10567652583340532,1.0000219191732125,0.00010530208136617732
-0.1043671174942574,-0.1043671174942574,0.9999020530555498,0.0001054150559458563
-0.10240671040010056,-0.10240671040010056,0.9997742165415635,0.00010528247803469145
-0.10053056488395669,-0.10053056488395669,1.00005629252523,0.00010532318759778536
-0.09923461366852279,-0.09923461366852279,0.9999130463979948,0.00010641910228621778
-0.09787777010424178,-0.09787777010424178,1.0000416752832002,0.0001054770625112587
-0.09612871251811157,-0.09612871251811157,0.9999434113449901,0.00010529086139361185
-0.09406007514626254,-0.09406007514626254,0.9999260707737015,0.00010530334082178151
