time,time,flux,flux_err
-0.49914468324156286,-0.49914468324156286,1.0016008397848928,0.000497690068229338
-0.49700164334899455,-0.49700164334899455,1.0005417490720212,0.0004986181844100232
-0.49580146640801104,-0.49580146640801104,1.0012932228515126,0.0004551277989241841
-0.4937337638417375,-0.4937337638417375,0.9999198202391826,0.00045373289417596964
-0.492503135719744,-0.492503135719744,1.0009024441058039,0.000454935650649057
-0.4911860750791675,-0.4911860750791675,0.9994480786383632,0.00045436565265062016
-0.4893414683290757,-0.4893414683290757,0.9999957310057912,0.000455371767263405
-0.4881981058802921,-0.4881981058802921,0.9992133468599945,0.00045449298551446433
-0.48627888847986467,-0.48627888847986467,1.0004409771835487,0.00045401583501653356
-0.4842477980237163,-0.4842477980237163,1.0053689820238243,0.0004555031824156187
-0.4827170713528176,-0.4827170713528176,0.9991348898704961,0.00045494002437231117
-0.4812837063422194,-0.4812837063422194,1.0012584877149433,0.000454751866135036
-0.4797156742766674,-0.4797156742766674,0.9993205627321329,0.0004541198387582457
-0.4779253778418934,-0.4779253778418934,0.9987725724048009,0.0004583335796435572
-0.47676529356176617,-0.47676529356176617,0.9998593680559589,0.000454324671014227
-0.4747530318709323,-0.4747530318709323,0.9999969931615624,0.0004547360238712019
-0.47378368995632625,-0.47378368995632625,1.0001136310671181,0.0004544789399416751
-0.4721660920426075,-0.4721660920426075,0.9991194958289317,0.0004540067732682622
-0.47053882862019236,-0.47053882862019236,1.0007545083407399,0.0004550590774813814
-0.4694617503686459,-0.4694617503686459,0.9996072286518862,0.00045435188175434887
-0.46771319681502066,-0.46771319681502066,0.9997151538570488,0.0004552140053298641
-0.466653617182601,-0.466653617182601,1.0024020759657368,0.0004564450087554112
-0.4652067057097156,-0.4652067057097156,1.0003239887442152,0.000454106096381127
-0.4636894474489964,-0.4636894474489964,0.9993252867723312,0.0004549877660099305
-0.4618157197088294,-0.4618157197088294,0.9996568074156773,0.0004553108161304948
-0.4605299899361853,-0.4605299899361853,0.9998647278075332,0.00045427846175281124
-0.45889299051850685,-0.45889299051850685,1.0005497145971423,0.00045560407055690095
-0.4577303468118771,-0.4577303468118771,0.9993107634714216,0.0004540962048775611
-0.4557244934294431,-0.4557244934294431,1.0018106965880549,0.00045547186854811146
-0.4547543732027407,-0.4547543732027407,1.0001711375929698,0.00045461639826050007
-0.4526888715336099,-0.4526888715336099,0.9997254047632843,0.00045387828669615716
-0.4514578718910343,-0.4514578718910343,0.9998410097257912,0.00045470575397043255
-0.4501423045752745,-0.4501423045752745,0.9998211584268633,0.0004542655712088925
-0.44829725896270245,-0.44829725896270245,0.9992060385024877,0.0004550793001560435
-0.44715023018870853,-0.44715023018870853,0.9998257554560576,0.000454664060191951
-0.44532382946490545,-0.44532382946490545,1.0003374479438196,0.0004541155166206454
-0.4438683756176033,-0.4438683756176033,0.999692800898319,0.0004532497016146507
-0.4422484618138697,-0.4422484618138697,1.000114524316294,0.00045493507075273213
-0.44083932049979924,-0.44083932049979924,1.0004656744712175,0.0004545437748062469
-0.4392807286931202,-0.4392807286931202,0.9998719371278122,0.00045448853212745957
-0.43762011595099465,-0.43762011595099465,1.0001488299177486,0.00045780957594548173
-0.43615413148581866,-0.43615413148581866,0.9994742036874481,0.00045469580267945987
-0.4346246461944247,-0.4346246461944247,0.9996323553447393,0.0004549391872580814
-0.43302647926611826,-0.43302647926611826,1.0001459247794193,0.0004543953131037135
-0.4318455930057098,-0.4318455930057098,1.0006349420656169,0.00045379346696118345
-0.42990141561967904,-0.42990141561967904,1.0029536195298896,0.00045506961414167643
-0.4285969882432255,-0.4285969882432255,0.9999917262090964,0.0004538755053301429
-0.42700859087126447,-0.42700859087126447,0.9995400317521362,0.0004554440679703906
-0.4256090659531765,-0.4256090659531765,0.9998177854403018,0.00045540767064192146
-0.424158311294741,-0.424158311294741,1.0001740486819315,0.00045354252608030326
-0.4223261822669883,-0.4223261822669883,0.9992713101922537,0.00045486302643958935
-0.4204877980664605,-0.4204877980664605,0.9999201855952669,0.0004561070477250532
-0.41916542354301783,-0.41916542354301783,1.001238934737144,0.0004546753660064617
-0.41753302484503363,-0.41753302484503363,1.0006955215711428,0.00045418269724345234
-0.4159696400332905,-0.4159696400332905,1.0001857905081089,0.00045522581480548054
-0.4142149156527012,-0.4142149156527012,0.9996862317024661,0.00045464861113063876
-0.41299375828675694,-0.41299375828675694,0.9993732601220279,0.000454759570594729
-0.411164961878967,-0.411164961878967,0.999937812731592,0.00045433250654739095
-0.4098280569916824,-0.4098280569916824,1.0006669608904097,0.00045404713316064317
-0.4079708163604664,-0.4079708163604664,0.9996670516908701,0.0004559083951843726
-0.40658056844768,-0.40658056844768,0.9998321604449153,0.00045442209615909247
-0.4049994843888271,-0.4049994843888271,1.000538952895362,0.00045409409914152723
-0.40350360551383346,-0.40350360551383346,1.0016861512188044,0.00045407034223349355
-0.40172158017303444,-0.40172158017303444,1.000317090393556,0.00045444736324752773
-0.4004733935566037,-0.4004733935566037,1.0001384712025794,0.0004549061849748513
-0.3987607954084524,-0.3987607954084524,1.0000477596888626,0.00045502396265214955
-0.3974664865796512,-0.3974664865796512,0.9999084425831418,0.00045425404105180434
-0.39583397243040963,-0.39583397243040963,1.0002899494664894,0.0004565799726155016
-0.394672094372072,-0.394672094372072,0.9994999557348319,0.0004537701523344829
-0.3926618647565192,-0.3926618647565192,0.9996644664990105,0.00045549684511927096
-0.3916967501478211,-0.3916967501478211,1.0005905079052357,0.0004551498178465664
-0.3896292677571182,-0.3896292677571182,1.0003850899799256,0.00045382792280199765
-0.3883986027736682,-0.3883986027736682,1.0007067382704442,0.00045479071281107297
-0.3870816916620242,-0.3870816916620242,1.0000601314480204,0.0004544195409132834
-0.38523669580681597,-0.38523669580681597,0.9986634340292241,0.0004552908048301056
-0.38409365768384307,-0.38409365768384307,0.9995492317896076,0.000454573458065795
-0.3821743870925275,-0.3821743870925275,0.9993862067282133,0.0004539822476007772
-0.3804361033093301,-0.3804361033093301,1.0023422159687458,0.0004541680561646915
-0.37895019174757183,-0.37895019174757183,1.0007139921667858,0.00045497737838208865
-0.3774364167526073,-0.3774364167526073,1.0005063238878114,0.00045527368465600546
-0.3759544802072924,-0.3759544802072924,1.0006842882607156,0.0004535046680389755
-0.37420974043852767,-0.37420974043852767,0.9999135671562793,0.00045838873829142827
-0.3728711816977011,-0.3728711816977011,1.0005006187629604,0.0004545409717216141
-0.37104700319687256,-0.37104700319687256,0.9996439638005619,0.00045540476858605864
-0.3698792712864815,-0.3698792712864815,1.0004433572584284,0.0004534548448668658
-0.36842814120755063,-0.36842814120755063,0.9998796561598369,0.0004542188120087563
-0.366719819104037,-0.366719819104037,1.000516333893514,0.0004550164274373145
-0.3655365163409442,-0.3655365163409442,0.998996498259751,0.0004541214668082421
-0.36395158407249256,-0.36395158407249256,0.999710761733227,0.0004551231774627306
-0.36254915739773425,-0.36254915739773425,1.0006627117305946,0.00045605968834771203
-0.36110186044243164,-0.36110186044243164,0.999875208541359,0.0004538552212595231
-0.35958516329847046,-0.35958516329847046,1.0005488948243098,0.00045514555793396336
-0.35771071752024,-0.35771071752024,0.9995111152832307,0.00045527951794790256
-0.35642594285382073,-0.35642594285382073,1.0007726219191277,0.00045445414781201303
-0.354788443056168,-0.354788443056168,0.9999023759838271,0.000455443929186021
-0.35362571627701983,-0.35362571627701983,1.000370741271538,0.0004541475624970162
-0.351620349589939,-0.351620349589939,1.0002355284448696,0.0004552839560975728
-0.35064967118742063,-0.35064967118742063,0.9998475914116762,0.00045453719776057406
-0.3485843909424148,-0.3485843909424148,1.0002014593334287,0.0004539239599157272
-0.3473533530479472,-0.3473533530479472,0.9999609889355398,0.00045473989527810194
-0.34565739952158764,-0.34565739952158764,0.9997057094881457,0.00045488336119523225
-0.3439559277248918,-0.3439559277248918,1.0004204713101055,0.0004551395912955643
-0.34268695702121477,-0.34268695702121477,1.0012904247222276,0.00045436903737566077
-0.3409686425111431,-0.3409686425111431,0.9997212999390174,0.00045385656206991534
-0.3393880654708482,-0.3393880654708482,0.999629333972667,0.0004541964700558765
-0.33790804817472236,-0.33790804817472236,1.0001008740354793,0.00045465934954894204
-0.3363884561222221,-0.3363884561222221,1.0007719603604035,0.00045480481572433265
-0.3349116497316572,-0.3349116497316572,0.9998372055113585,0.00045388617998568935
-0.33341994786460416,-0.33341994786460416,0.999939044988308,0.0004585132086139772
-0.33204945976613087,-0.33204945976613087,0.9991047922449084,0.0004546685173166971
-0.33052005251374794,-0.33052005251374794,0.9994162993169773,0.0004549270537895671
-0.32892220251160326,-0.32892220251160326,0.9999535587282764,0.00045436819827086237
-0.3275422149054066,-0.3275422149054066,1.0004041052755848,0.0004543329264401782
-0.32562152494356267,-0.32562152494356267,1.0013060528619095,0.0004542759981611331
-0.32434019254287705,-0.32434019254287705,1.0001077610261748,0.0004547566829968037
-0.32247884373791746,-0.32247884373791746,0.9994902904779798,0.00045447595086675933
-0.32133788600403934,-0.32133788600403934,0.9999054420574524,0.0004555117923328302
-0.3196227864777029,-0.3196227864777029,0.9997998353323702,0.00045397376919960216
-0.31785319217306096,-0.31785319217306096,1.000198833178255,0.0004544893263700478
-0.3162606414487527,-0.3162606414487527,0.9997408896017669,0.0004561512216166003
-0.31506146999890916,-0.31506146999890916,0.9993282337670664,0.00045446773437089906
-0.31342788764450236,-0.31342788764450236,0.9998382884264384,0.0004540289595195104
-0.31190671331132763,-0.31190671331132763,1.0002160802263866,0.00045399561570195167
-0.3103445092092443,-0.3103445092092443,0.9992071136204632,0.0004551321361826751
-0.30923623677153955,-0.30923623677153955,0.9995921909149939,0.0004548727559963354
-0.3073213278395997,-0.3073213278395997,0.999986261615198,0.0004541219499525945
-0.3060474248508399,-0.3060474248508399,1.0004491079371598,0.000455184400844508
-0.30428659453609724,-0.30428659453609724,0.9997345721999709,0.0004546785364363861
-0.3026554904405202,-0.3026554904405202,0.9992590825473238,0.0004544682609109266
-0.301311911096127,-0.301311911096127,1.0002551368494093,0.0004541369152276383
-0.29962747442332327,-0.29962747442332327,0.9995732835223781,0.00045393240949711047
-0.2980455173776136,-0.2980455173776136,0.9995229249890555,0.0004544100475399659
-0.2965313786349725,-0.2965313786349725,1.0009531491136703,0.00045463665740211697
-0.29508013984232095,-0.29508013984232095,0.9993419322768732,0.00045502430501292046
-0.2935316007075016,-0.2935316007075016,0.99944211881176,0.0004538074005066417
-0.2921143617211783,-0.2921143617211783,1.0003535251011904,0.0004572676922369262
-0.2907824642941705,-0.2907824642941705,0.9990975843283405,0.000454078680638819
-0.28895376019791,-0.28895376019791,1.0002191942220844,0.0004551790276263303
-0.2877948798231955,-0.2877948798231955,0.9991713960015034,0.000454668390499837
-0.2859638519861619,-0.2859638519861619,0.9996802499777555,0.0004542861633561175
-0.28450306826853194,-0.28450306826853194,0.9998537118978869,0.00045463044979790186
-0.28329726489537277,-0.28329726489537277,0.9994470640643469,0.000454558486985067
-0.28143444636298226,-0.28143444636298226,1.0000138092986373,0.0004548304264616774
-0.280290109107591,-0.280290109107591,1.0002228691901478,0.0004549852889455773
-0.27838225545783646,-0.27838225545783646,0.9995298220587424,0.00045420453887929697
-0.2767018789883878,-0.2767018789883878,1.0011168912826514,0.0004531984611980163
-0.2750869590709044,-0.2750869590709044,0.9995739265236839,0.0004553330915485276
-0.2736728100491746,-0.2736728100491746,0.9991865258602916,0.0004548431466725576
-0.2721197379163641,-0.2721197379163641,0.999291748472429,0.0004538611895505202
-0.27045556792800196,-0.27045556792800196,1.0006518286679689,0.0004578281038853267
-0.26899155371283995,-0.26899155371283995,0.9993763834843339,0.0004550414757072195
-0.2674614514551649,-0.2674614514551649,0.999529972623483,0.0004545528984698211
-0.26586075204904774,-0.26586075204904774,0.9995279536772465,0.00045398343506382924
-0.2648252612729266,-0.2648252612729266,1.0000729308151557,0.00045435369616847595
-0.26329530777948096,-0.26329530777948096,0.9993002950276944,0.0004544390301568971
-0.26186836256310925,-0.26186836256310925,0.9996766935845512,0.00045439983351009035
-0.2605909793615865,-0.2605909793615865,0.9997654731554387,0.0004543318486794494
-0.2588795795563783,-0.2588795795563783,0.9997576179855564,0.00045498928435002756
-0.2576220574133913,-0.2576220574133913,1.0004463117206832,0.00045592230943208303
-0.25604781787478714,-0.25604781787478714,0.9998347582726834,0.0004542034811276818
-0.25440824626130054,-0.25440824626130054,0.9995258257936588,0.00045495612193437987
-0.25282641376616083,-0.25282641376616083,1.0005420301021108,0.00045472758913194514
-0.25132310626358956,-0.25132310626358956,0.9999717343627269,0.0004565321290360685
-0.2499563165671134,-0.2499563165671134,1.0007504096533222,0.00045406393981745877
-0.24842848961343406,-0.24842848961343406,1.0008906040757115,0.0004553336765301846
-0.24683700396490166,-0.24683700396490166,0.9987158614917341,0.0004544395533925727
-0.24544924063593498,-0.24544924063593498,1.0001021912419528,0.00045442079853654887
-0.2436445791485312,-0.2436445791485312,0.9997978270648723,0.0004540424674920432
-0.24231098837408355,-0.24231098837408355,0.9998186459635887,0.0004548537434437727
-0.2403901887446409,-0.2403901887446409,0.9989712485355963,0.0004553015640974256
-0.23924245772650465,-0.23924245772650465,1.0001703522561707,0.0004543765125303224
-0.2374053040650324,-0.2374053040650324,0.9989943811832065,0.00045394618886429437
-0.23602425793214935,-0.23602425793214935,0.999909368660987,0.00045337267009953555
-0.23428142223638132,-0.23428142223638132,0.9996545199953187,0.00045509152035849205
-0.23298274985645548,-0.23298274985645548,1.000055266912663,0.0004547942013385063
-0.23132538982390544,-0.23132538982390544,1.0003624141035552,0.000454600968968105
-0.22997279215269373,-0.22997279215269373,1.0003720243478698,0.0004544886700950321
-0.22842925992736127,-0.22842925992736127,1.0002586757293899,0.0004575321371462039
-0.2271492945648788,-0.2271492945648788,1.0002578323003373,0.0004547543350046779
-0.22527012681239283,-0.22527012681239283,1.0000944990508955,0.00045563776975187005
-0.2241589291697892,-0.2241589291697892,0.9990401675684415,0.000453764043666336
-0.222195668387576,-0.222195668387576,0.9996145274551868,0.0004542621220115403
-0.22074560100663804,-0.22074560100663804,0.9992035240277846,0.00045448148248928514
-0.2192176715048845,-0.2192176715048845,0.9996073399317069,0.0004547168904835899
-0.21758105624903692,-0.21758105624903692,1.0000972514788127,0.00045573494566165837
-0.21624469876551303,-0.21624469876551303,0.9998037110604463,0.0004535409519282428
-0.2146212677747826,-0.2146212677747826,0.9999923827974051,0.00045533030688667367
-0.2125557769111765,-0.2125557769111765,0.9996956405888874,0.00045507547753863417
-0.2112815356340434,-0.2112815356340434,0.9994615130041347,0.0004545414735789083
-0.20959661838132887,-0.20959661838132887,0.9993707629649066,0.00045489170313236843
-0.2081242768181255,-0.2081242768181255,0.999615993177235,0.0004542236589162815
-0.20618666055597715,-0.20618666055597715,1.000407303507771,0.0004557730430738957
-0.20478435313343651,-0.20478435313343651,1.0000615901403225,0.00045486192813638067
-0.20300690585718256,-0.20300690585718256,1.0007167514754804,0.00045366287411839466
-0.2019428325656918,-0.2019428325656918,0.9998803741991835,0.0004550348146145578
-0.20023644256871193,-0.20023644256871193,0.9995818225158649,0.00045422869617344814
-0.1988076882182213,-0.1988076882182213,0.9999812808283004,0.00045487741178143904
-0.1975341128774744,-0.1975341128774744,1.0006950651385804,0.0004540745175964565
-0.19581958192502497,-0.19581958192502497,1.001337542626366,0.00045471181043067933
-0.19423536694594076,-0.19423536694594076,0.9998971104673681,0.00045394795690597266
-0.19276185919297859,-0.19276185919297859,1.0003843725498316,0.00045449043915220353
-0.19123586830610292,-0.19123586830610292,0.9997545824952482,0.00045482645576873924
-0.1897646997087577,-0.1897646997087577,1.0003435630758917,0.0004542858400965878
-0.18826661925122606,-0.18826661925122606,1.0005121581044285,0.00045747622056486044
-0.18689816255428013,-0.18689816255428013,1.0005504216468892,0.0004539586237992573
-0.18536961811842048,-0.18536961811842048,0.9996130480412224,0.0004552878313365488
-0.18377526282420148,-0.18377526282420148,1.0002096140222185,0.00045469770407211387
-0.18239100774080724,-0.18239100774080724,1.0001839257392446,0.0004544166448810368
-0.1805843779598945,-0.1805843779598945,0.9999749563736348,0.00045431104415114806
-0.1794294642051682,-0.1794294642051682,0.9999759550571836,0.00045375569286924144
-0.1777514396708284,-0.1777514396708284,1.0002045237444748,0.0004561233524682992
-0.17635576436514383,-0.17635576436514383,0.9995984446032484,0.00045471855022259427
-0.17471448285650695,-0.17471448285650695,1.000832185701782,0.0004537490320328981
-0.1729595819451788,-0.1729595819451788,0.9998069408337283,0.0004530962277020579
-0.17122694274949027,-0.17122694274949027,1.0033952268801376,0.00045603526625933547
-0.16991809118553647,-0.16991809118553647,0.9987980035334616,0.0004545358720501969
-0.16827145455681602,-0.16827145455681602,0.999585692336711,0.0004541282315225368
-0.16669371009411407,-0.16669371009411407,1.0000410419480041,0.0004570396221430208
-0.1651381173149275,-0.1651381173149275,1.000740627600694,0.0004551260160599959
-0.16373741364659508,-0.16373741364659508,1.0000448651465257,0.0004547426575132598
-0.16196487369816168,-0.16196487369816168,1.0002313835745287,0.000454402227960352
-0.16104189690668136,-0.16104189690668136,0.9999571634652161,0.00045412465690460176
-0.15945784234572785,-0.15945784234572785,0.9997311657398031,0.00045453425520719255
-0.15799920050412766,-0.15799920050412766,0.9989371874712161,0.00045456277870773435
-0.15684122171296622,-0.15684122171296622,0.9998428557416116,0.0004542663148113898
-0.15501800979182007,-0.15501800979182007,1.0001061294583802,0.00045523351362662765
-0.1538694437527738,-0.1538694437527738,1.0012312709680065,0.0004553616410887384
-0.15218064237633372,-0.15218064237633372,0.9997472348483865,0.000453938662145208
-0.15068551914810085,-0.15068551914810085,0.9999228440166281,0.00045474765140425305
-0.14897389122925234,-0.14897389122925234,0.999562158892959,0.0004555027117546951
-0.14754852037731325,-0.14754852037731325,1.0007960314614424,0.0004561416885126458
-0.14609811860573246,-0.14609811860573246,0.9999556333211383,0.0004531952795584425
-0.14470211297884816,-0.14470211297884816,1.0005597766931047,0.00045533948162926026
-0.14294390590221157,-0.14294390590221157,0.9988594998123632,0.00045525485138662037
-0.14172672128188424,-0.14172672128188424,0.9997580276996114,0.0004545133982591068
-0.13980465607091902,-0.13980465607091902,0.9994345069862458,0.0004541773182128949
-0.1385344943169912,-0.1385344943169912,1.0005986330026588,0.00045395638157448017
-0.13670396546222036,-0.13670396546222036,0.9996914659726983,0.0004562397429756579
-0.13531148496331297,-0.13531148496331297,0.9993466394236934,0.00045455488931222686
-0.13373309519665783,-0.13373309519665783,0.9994920439731322,0.00045330093789044766
-0.13223326353909215,-0.13223326353909215,0.9995321609371602,0.00045413557614811033
-0.13045628137406312,-0.13045628137406312,1.0002840811543021,0.00045451252597782403
-0.1292013126789243,-0.1292013126789243,0.9994535780316735,0.0004546747906301069
