time,time,flux,flux_err
-0.4999131806442734,-0.4999131806442734,0.9995821959195679,0.00030359069085403767
-0.4997381376334135,-0.4997381376334135,1.0002123404807202,0.00030353715901243136
-0.4995785214668061,-0.4995785214668061,1.0004472487210023,0.00028758023868326733
-0.49943334281509805,-0.49943334281509805,0.9999304955911079,0.0002590221395012848
-0.49928357281569336,-0.49928357281569336,1.0002071572529567,0.0002834961345740024
-0.4991409147420477,-0.4991409147420477,0.9998227725653079,0.0002872090714637188
-0.4989957354983588,-0.4989957354983588,1.000238303069469,0.00025883857618765255
-0.4988459642904381,-0.4988459642904381,0.9996920530899267,0.0002831190350359687
-0.4987033080201243,-0.4987033080201243,1.000352314252718,0.0002870798474993375
-0.4985581281861172,-0.4985581281861172,0.9999882328480737,0.0002587987391284892
-0.49840835576874054,-0.49840835576874054,0.9997442262550933,0.0002833062904413024
-0.4982657013011014,-0.4982657013011014,1.0001571566561975,0.00028749149849608465
-0.49811631980802745,-0.49811631980802745,0.999874074469233,0.00025909164412360236
-0.49796462817995246,-0.49796462817995246,1.0002039779519802,0.0002878304276798581
-0.497823710979727,-0.497823710979727,0.9998722620966948,0.0002842435008732878
-0.4976759117914824,-0.4976759117914824,0.9999676957495705,0.00025953302551039197
-0.4975270214660362,-0.4975270214660362,0.9998247298567644,0.00028881880756529907
-0.49738610246615095,-0.49738610246615095,1.0003906550587804,0.0002854193513030115
-0.49723830449307016,-0.49723830449307016,1.0000857904312794,0.00026014613658539116
-0.49708941475521795,-0.49708941475521795,0.9999762646944635,0.00028976150736158263
-0.49694849395632656,-0.49694849395632656,0.9997966521305877,0.00028600749559261617
-0.4968006971993965,-0.4968006971993965,0.9996798690022647,0.0002603977579339951
-0.4966518080474415,-0.4966518080474415,1.0000343983630078,0.0002901221437734938
-0.4965108854501793,-0.4965108854501793,0.9998635783475827,0.0002862135845734245
-0.49636308991037054,-0.49636308991037054,1.000470661577999,0.00026040473875532546
-0.49621420134286465,-0.49621420134286465,1.0000898156156537,0.00028979121696773254
-0.4960718765912773,-0.4960718765912773,0.9996818013486848,0.00028552075987771836
-0.4959184808427473,-0.4959184808427473,1.0001369262810704,0.00025988432171430975
-0.4957730937498077,-0.4957730937498077,1.0001159082371331,0.00028875891345957877
-0.4956286666663111,-0.4956286666663111,0.9998164968248686,0.0002842972887000584
-0.4954808735632831,-0.4954808735632831,1.0002022557298735,0.00025917080924114575
-0.495335487051733,-0.495335487051733,1.0002264116417607,0.00028739449725051844
-0.4951910581719815,-0.4951910581719815,0.9997161041181911,0.0002828164191188761
-0.4950756994620562,-0.4950756994620562,0.9995084617043035,0.00026529691296799454
-0.49496540731027705,-0.49496540731027705,1.0000769569377899,0.00026387704775679286
-0.4948559858160877,-0.4948559858160877,0.9997953157025915,0.000259429864824051
-0.4947456082066516,-0.4947456082066516,0.9999515603120086,0.000286676637972514
-0.4946380929285802,-0.4946380929285802,1.0000957735673757,0.0002647290075166107
-0.494527801307752,-0.494527801307752,1.0002611163381137,0.0002632843401048265
-0.4944183780188546,-0.4944183780188546,0.9998265907004017,0.0002588387234887657
-0.49430800098704564,-0.49430800098704564,1.000291777692969,0.0002857910438580452
-0.4942004864005199,-0.4942004864005199,1.000217686778614,0.0002642435198985602
-0.49409019531010473,-0.49409019531010473,0.9998127612785623,0.00026282474659648525
-0.4939807702271132,-0.4939807702271132,1.0001384765462702,0.0002585088552989047
-0.49385569024032705,-0.49385569024032705,0.9998352381216253,0.00028524273445547073
-0.4937331088339391,-0.4937331088339391,1.0005792243011826,0.00026268928793811766
-0.4936236823161934,-0.4936236823161934,0.9996234125406183,0.00025827442365471473
-0.49351330632040347,-0.49351330632040347,1.0002467295162067,0.00028494751912598777
-0.4934005282456965,-0.4934005282456965,0.999931485352463,0.0002624656808553555
-0.49329376590029456,-0.49329376590029456,0.9997718317745239,0.0002637526030625265
-0.49318607453440605,-0.49318607453440605,0.9997548412919576,0.000258053508049825
-0.49307569911210364,-0.49307569911210364,1.0000944048814573,0.00028469766735948017
-0.49296292226022376,-0.49296292226022376,1.0001722808109659,0.00026235255966973014
-0.49285615938876715,-0.49285615938876715,0.9999890689569535,0.00026368824223571335
-0.4927484667580956,-0.4927484667580956,1.0003560942472571,0.0002580807527952561
-0.49263249048202196,-0.49263249048202196,0.9999763741502182,0.0002844690242998384
-0.4925148136061551,-0.4925148136061551,1.0001431219568162,0.00026216606825635476
-0.4924080502092337,-0.4924080502092337,0.9996086054710581,0.0002634830534689972
-0.4922922072259965,-0.4922922072259965,1.0002270521664154,0.0002842087967429649
-0.49217523152150944,-0.49217523152150944,0.9999575845513438,0.00026199940820023805
-0.49206929944377154,-0.49206929944377154,1.0000478430881858,0.00025767671734195475
-0.4919634419493363,-0.4919634419493363,0.9999359025119071,0.0002633271274555765
-0.49184689810517596,-0.49184689810517596,1.0001304511327462,0.0002834984996122892
-0.4917376255495903,-0.4917376255495903,0.9999346233999123,0.00026162809187426077
-0.4916316916815326,-0.4916316916815326,1.0001623849649668,0.0002572744313435355
-0.4915258354545422,-0.4915258354545422,1.0002719562715199,0.0002627382535802966
-0.49140929091255214,-0.49140929091255214,0.9995470475908382,0.00028233488832347866
-0.4913000195826143,-0.4913000195826143,0.9999673333191594,0.0002609594583781455
-0.4911940839248409,-0.4911940839248409,1.0002133039390142,0.00025649091105045313
-0.4910882289653699,-0.4910882289653699,0.9998758700651319,0.0002620812283346675
-0.4909716837242087,-0.4909716837242087,1.0001236452709752,0.00028116304297275005
-0.4908624136205241,-0.4908624136205241,1.0000041497812844,0.00026033661501388206
-0.4907564761737902,-0.4907564761737902,1.0002646999465332,0.0002558140262290301
-0.49065062248152885,-0.49065062248152885,0.9995360806340152,0.0002613684587652871
-0.49053407654003606,-0.49053407654003606,0.9997815610839627,0.00027973840997854804
-0.4904248076633472,-0.4904248076633472,1.0004765699992162,0.00025953900219358666
-0.49031886842837197,-0.49031886842837197,1.0000067419595737,0.00025499049690779846
-0.49021301600336786,-0.49021301600336786,0.9999340764306013,0.000260579176903754
-0.4900964693600969,-0.4900964693600969,1.000025218111088,0.00027829754095405493
-0.48998720171109084,-0.48998720171109084,1.0003046019429687,0.00025876670943289124
-0.48988126068857196,-0.48988126068857196,0.9997909869619501,0.0002541628220292152
-0.4897754095306432,-0.4897754095306432,0.9999102995271937,0.0002598652363893847
-0.4896588621844543,-0.4896588621844543,0.9998724352858195,0.000277110725769132
-0.48954959576377066,-0.48954959576377066,0.9999523192778135,0.00025811446046547135
-0.48944365295448977,-0.48944365295448977,1.0000912502420616,0.00025368556983587057
-0.4893378030636299,-0.4893378030636299,1.0004247589951836,0.0002594981381233928
-0.4892212550131546,-0.4892212550131546,1.0000554798367927,0.0002764058314335449
-0.4891105894651723,-0.4891105894651723,1.0002173710024118,0.00025783039289522906
-0.488998220566085,-0.488998220566085,0.9994685231909823,0.00025921227954793454
-0.48888701591805483,-0.48888701591805483,1.0000450479776846,0.0002534075262736623
-0.4887766460648642,-0.4887766460648642,1.0001727404853393,0.0002760803899370518
-0.488667382102755,-0.488667382102755,0.9998990958088548,0.0002577330573069737
-0.4885606141089305,-0.4885606141089305,0.9996621343402043,0.0002591944875025973
-0.4884494081970033,-0.4884494081970033,1.0003310315907683,0.00025344084044590413
-0.4883390389023006,-0.4883390389023006,0.9999769310787496,0.0002761078971925486
-0.4882297761705011,-0.4882297761705011,1.0000642656040508,0.0002577965541262563
-0.4881230076573388,-0.4881230076573388,0.9996799562634362,0.0002592182207740805
-0.4880118004817803,-0.4880118004817803,1.0000028730040433,0.0002534168096535839
-0.4879014317440962,-0.4879014317440962,1.0005580210237306,0.00027630358786292255
-0.4877921702433291,-0.4877921702433291,1.0000108272872272,0.0002578831719217908
-0.4876854012114002,-0.4876854012114002,0.9999492711657915,0.00025941214387962565
-0.48756789116937116,-0.48756789116937116,1.000018089252531,0.0002537143049409865
-0.48746032369985315,-0.48746032369985315,0.9998126130791476,0.0002767841123318546
-0.48735106343065626,-0.48735106343065626,0.9999083840573624,0.0002581927167255078
-0.4872442938806586,-0.4872442938806586,1.0000108331857442,0.0002597411665625664
-0.4871295832876726,-0.4871295832876726,0.9999840597898751,0.0002539461477315052
-0.4870227165504602,-0.4870227165504602,0.9999541893056831,0.0002771991509497645
-0.4869134575135142,-0.4869134575135142,1.000004218042277,0.0002584422196377811
-0.4868066874462286,-0.4868066874462286,1.0002670939409508,0.00025990998905793853
-0.48669197558991045,-0.48669197558991045,0.9997661302861441,0.0002541653381413915
-0.4865795080113976,-0.4865795080113976,0.9999898515758003,0.00027751189122357837
-0.48646884987133915,-0.48646884987133915,0.9998152289633339,0.0002586722895585164
-0.48635857844754116,-0.48635857844754116,1.0002353569412938,0.0002602059729740077
-0.48624552641428237,-0.48624552641428237,0.9999124288816438,0.00027795945071910563
-0.4861388393984164,-0.4861388393984164,1.0002820626824438,0.00025449750959623735
-0.4860312439643998,-0.4860312439643998,0.9996581329287493,0.0002588170251618104
-0.48592097202458506,-0.48592097202458506,1.0001794610346184,0.000260405041075723
-0.4858079192771392,-0.4858079192771392,1.0000515270618429,0.0002783993984172853
-0.4857012317136835,-0.4857012317136835,1.0000175142245513,0.0002547228883897152
-0.48559293788457436,-0.48559293788457436,0.9999269378297473,0.0002591476725891236
-0.48547986471714993,-0.48547986471714993,0.9998796275880355,0.0002607164538871242
-0.48536681125432396,-0.48536681125432396,0.9999253026929227,0.0002788247500424664
-0.4852575569053009,-0.4852575569053009,1.000261852740848,0.0002594529196704144
-0.4851515966247284,-0.4851515966247284,1.000011831646153,0.0002551141524400581
-0.4850422583055739,-0.4850422583055739,0.9997648713041564,0.00026105402479338353
-0.48492920412621954,-0.48492920412621954,1.0002518556697804,0.0002796301246433167
-0.48481995101233794,-0.48481995101233794,0.9999835853678137,0.000259823745950379
-0.48471398895308865,-0.48471398895308865,1.0001698073440326,0.00025563096740405207
-0.48460465189975255,-0.48460465189975255,0.9997654031098806,0.00026157745544310964
-0.4844915970025312,-0.4844915970025312,1.000063101480149,0.0002805910988813636
-0.4843823451244432,-0.4843823451244432,0.9998221575963504,0.0002603366379056141
-0.48427638128736844,-0.48427638128736844,1.0001675099527925,0.0002561321452801022
-0.48416704549975337,-0.48416704549975337,1.000075815031399,0.00026201200702533165
-0.48405398988346277,-0.48405398988346277,1.0003830823949855,0.00028132599772452926
-0.48394473924165593,-0.48394473924165593,0.9998525343417615,0.00026068113263884887
-0.4838373732715112,-0.4838373732715112,1.0003976442811051,0.00025645602137930004
-0.48372593821556154,-0.48372593821556154,1.0000206653229662,0.00026225012069178475
-0.48361288187892343,-0.48361288187892343,0.9996975186052385,0.0002816844882364184
-0.4835036324741367,-0.4835036324741367,0.9999297444711889,0.00026085241781888464
-0.48339416419380044,-0.48339416419380044,0.999845934646974,0.00025656018857405147
-0.4832855311152208,-0.4832855311152208,1.0002887288814288,0.0002623395147928201
-0.48316897316725405,-0.48316897316725405,0.9998960842043552,0.0002816757904989698
-0.48305902482208796,-0.48305902482208796,1.0000277907606514,0.0002607781053252199
-0.4829487493897936,-0.4829487493897936,0.9997631906100736,0.00026220643859950574
-0.4828375272617606,-0.4828375272617606,0.9998371917980109,0.00025643962175284394
-0.48272460906853853,-0.48272460906853853,1.000081524648791,0.00028532203441982904
-0.4826134722113643,-0.4826134722113643,1.0002995313824774,0.0002562909611524915
-0.482504141232068,-0.482504141232068,0.9999440445389975,0.00026191587856192486
-0.4823910828720706,-0.4823910828720706,1.0001712302864731,0.0002809346863753077
-0.48227903622222285,-0.48227903622222285,0.9997567254970307,0.0002603267191211943
-0.48216805969255105,-0.48216805969255105,1.0001305194294166,0.00026170776195220193
-0.482055434937125,-0.482055434937125,1.0000800359032467,0.00025581595943340274
-0.4819429731058754,-0.4819429731058754,1.0000231561879263,0.00028034228088752184
-0.481833728406977,-0.481833728406977,1.0000631455777853,0.0002600530610529485
-0.4817234515454025,-0.4817234515454025,1.000010107996621,0.00026145317126148647
-0.481612225884291,-0.481612225884291,0.9998436944367246,0.0002555598301089649
-0.48150256530173297,-0.48150256530173297,0.9996058259047317,0.00027992523214755713
-0.48139192148683563,-0.48139192148683563,1.0000618281504379,0.0002598088138006207
-0.4812788434042233,-0.4812788434042233,0.9995729877039043,0.0002611818915021104
-0.4811622821216247,-0.4811622821216247,1.0004002389586735,0.00027970016148577475
-0.4810530396548785,-0.4810530396548785,1.0002247184080368,0.00025969347185566193
-0.4809435614424203,-0.4809435614424203,0.9997043615326489,0.00025524981252858617
-0.48082513303342295,-0.48082513303342295,0.9999246219453226,0.000261007618001476
-0.48069428524907065,-0.48069428524907065,1.000368658930381,0.00023346025696233314
-0.48057167147984503,-0.48057167147984503,0.9998927812511719,0.00026088732613385247
-0.4804319893918475,-0.4804319893918475,0.9999035627235411,0.0002591897717770028
-0.48032144283058287,-0.48032144283058287,1.0000109773860495,0.00023503397435026694
-0.48019043109841564,-0.48019043109841564,1.0000391446078385,0.00025906405239583673
-0.48007884882404284,-0.48007884882404284,0.9999304353719151,0.00025460155097756644
-0.47996322363804184,-0.47996322363804184,1.0001582931395998,0.00026042516307243186
-0.4798340448688087,-0.4798340448688087,0.9998225620549815,0.0002588237403730542
-0.4797147592691481,-0.4797147592691481,0.9997736020171283,0.00025430866528556716
-0.47960753717778176,-0.47960753717778176,1.0002328502049147,0.0002601191118658807
-0.47948466037891746,-0.47948466037891746,1.0001691566260593,0.00025855148780349897
-0.47937307527423767,-0.47937307527423767,0.9998588188143922,0.00025400467004208015
-0.4792623533257448,-0.4792623533257448,0.9999826710484321,0.00025975399715336904
-0.47914928957180364,-0.47914928957180364,0.999911358363186,0.00027673662420920416
-0.4790400528179397,-0.4790400528179397,1.000085611901808,0.00025810451018873283
-0.47893056646620025,-0.47893056646620025,0.9997695283052778,0.0002535561550321391
-0.4788247469968397,-0.4788247469968397,1.0003388809825497,0.00025941193023349676
-0.4787109823350953,-0.4787109823350953,0.9997753956061025,0.0002758172999607058
-0.4785870431242891,-0.4785870431242891,1.0003098055408213,0.0002574863817873684
-0.47844411636902817,-0.47844411636902817,0.9999679237006612,0.0002629954449746621
-0.47829961945175936,-0.47829961945175936,0.9999955081657381,0.00025850753292456336
-0.4781820823727571,-0.4781820823727571,0.9999433422579027,0.00025248728946962527
-0.47807381909113716,-0.47807381909113716,0.9998223288038203,0.0002567708793846731
-0.47796353787078727,-0.47796353787078727,1.000357365168544,0.0002580805574766973
-0.47785747364697145,-0.47785747364697145,0.9998710251073956,0.000273298168452516
-0.47774027375515404,-0.47774027375515404,0.999992416996632,0.0002516660415738294
-0.47763271241540506,-0.47763271241540506,0.9999619631500686,0.000256008545752465
-0.4775217305177463,-0.4775217305177463,0.9999266330002785,0.0002572538731079972
-0.47740419117111516,-0.47740419117111516,1.0001420426986845,0.00025110073798495405
-0.47729032968282115,-0.47729032968282115,0.9999034554146309,0.0002554140431583714
-0.4771723456464386,-0.4771723456464386,1.0002278910225078,0.0002566582209509278
-0.4770627792256569,-0.4770627792256569,0.9999017830213338,0.00027065519666912127
-0.4769490792658203,-0.4769490792658203,0.9999427294732213,0.00025029254087342926
-0.4768415211068877,-0.4768415211068877,0.9999756945728432,0.00025469966760445603
-0.47673123847772486,-0.47673123847772486,1.000004186596205,0.00025612709629205694
-0.47661677010169046,-0.47661677010169046,1.00022190055444,0.00026967065341651833
-0.4765079708390367,-0.4765079708390367,1.000058522541258,0.0002498952085414219
-0.47639761375158757,-0.47639761375158757,0.9996417509222939,0.0002542049500121515
-0.47628593027323946,-0.47628593027323946,1.0001198019881858,0.0002556657376311843
-0.47616838740071116,-0.47616838740071116,1.0000237751625753,0.00024959286211326807
-0.4760594320724813,-0.4760594320724813,1.0001130251890673,0.00025401707321310863
-0.47594704801954746,-0.47594704801954746,1.000103040522213,0.0002554476878901998
-0.4758316046606751,-0.4758316046606751,0.9997761950107684,0.0002494492852656256
-0.47571424866070017,-0.47571424866070017,1.0001671778784198,0.00025383566035416577
-0.4756004638599848,-0.4756004638599848,1.000244837215431,0.00025527368707872435
-0.4754831928596836,-0.4754831928596836,1.0000773825603102,0.0002682866337397079
-0.47537369208357133,-0.47537369208357133,1.0000243820728585,0.00024925410944629493
-0.47526544010400046,-0.47526544010400046,1.000047784867172,0.0002536920256559495
-0.47515235497660624,-0.47515235497660624,0.9995691503565082,0.0002551730608466321
-0.4750362091706556,-0.4750362091706556,0.9997414881702198,0.0002492817905350773
-0.47492823311255705,-0.47492823311255705,1.0004210104804154,0.00027261342402034385
-0.4748205563052359,-0.4748205563052359,0.9996720483787529,0.000249365230735707
-0.4747112478150079,-0.4747112478150079,1.0002093166787553,0.00025534898237284894
-0.4745911773739529,-0.4745911773739529,1.000242754161502,0.0002538186130075375
-0.4744802727123016,-0.4744802727123016,1.0000884329033322,0.0002493558074615224
-0.4743681645368746,-0.4743681645368746,0.9997631978701707,0.0002553754170846763
-0.47425299197002035,-0.47425299197002035,0.999826238829917,0.0002688034089271356
-0.47414236883106115,-0.47414236883106115,0.9999915950723477,0.00025412650965619504
-0.4740363636264611,-0.4740363636264611,1.000087943713025,0.00024958238265049336
-0.4739270574065742,-0.4739270574065742,1.0000862423356172,0.0002555976535468427
-0.47381398461270197,-0.47381398461270197,1.0001500058875403,0.00026910478378582226
-0.47370476307115084,-0.47370476307115084,1.0001179110183664,0.0002542381259367484
-0.4735987561093076,-0.4735987561093076,0.9998560352245557,0.00024975705018122834
-0.47348945115035546,-0.47348945115035546,1.0000196939640893,0.0002557706296591615
-0.4733763776073502,-0.4733763776073502,0.9996916972545744,0.0002695003068568296
-0.4732643566060517,-0.4732643566060517,0.9999220669215555,0.0002543992779226596
-0.4731485454332308,-0.4731485454332308,1.0001805274217812,0.0002498931737244212
-0.4730413422760741,-0.4730413422760741,1.000021029933194,0.0002558470064153086
-0.47292407443260914,-0.47292407443260914,0.9998829121775609,0.0002544702323347064
-0.47281624075757944,-0.47281624075757944,1.0000917118527517,0.00026986149854381326
-0.47270953758167167,-0.47270953758167167,1.0001201978713754,0.00025008559324817025
-0.47260373603214845,-0.47260373603214845,0.9996746577327305,0.0002560506657108192
-0.4724864686879428,-0.4724864686879428,1.0002345077931125,0.00025468816696013976
-0.47237863376320205,-0.47237863376320205,0.9999494051928799,0.0002702154294971459
-0.4722694775402573,-0.4722694775402573,0.9999830370364247,0.00023508045490848746
-0.47215877990740723,-0.47215877990740723,0.9999589214470147,0.0002704601950919341
-0.47204186121278086,-0.47204186121278086,0.9999593980919774,0.0002549844504434869
-0.47193094634658833,-0.47193094634658833,1.0001280603568068,0.0002506338986960911
-0.4718230465441685,-0.4718230465441685,1.000060289724231,0.0002565718946680777
-0.4717057800970217,-0.4717057800970217,1.000331357145684,0.00025525911029084
