time,time,flux,flux_err
-0.49957086260716704,-0.49957086260716704,1.0000041420936276,7.355466781850887e-05
-0.49900179444315046,-0.49900179444315046,0.999880729504758,7.303558123274002e-05
-0.497930464842284,-0.497930464842284,0.999902048774444,7.431189762526214e-05
-0.49705481990240513,-0.49705481990240513,1.000084994879456,6.627227493618652e-05
-0.4965622991781856,-0.4965622991781856,1.0000329515513242,6.627809266854377e-05
-0.49585989070183134,-0.49585989070183134,1.0000513167824132,6.624701559027074e-05
-0.4946975212362304,-0.4946975212362304,1.0000758427178078,6.769508281027851e-05
-0.49383580241556047,-0.49383580241556047,0.9999493947673381,6.62633509722324e-05
-0.4930494865075161,-0.4930494865075161,1.0000346689105646,6.766658785363517e-05
-0.4923530683394347,-0.4923530683394347,0.9999975903662118,6.627201009693105e-05
-0.4917525569057034,-0.4917525569057034,0.9999204526062397,6.617340156584795e-05
-0.49088969287186046,-0.49088969287186046,1.0001254657089365,6.539684747624492e-05
-0.48986393869054157,-0.48986393869054157,1.000122419659694,6.77440045137252e-05
-0.48890760461290483,-0.48890760461290483,1.000111894789661,6.702864274726308e-05
-0.48820766038188596,-0.48820766038188596,1.0001022673794817,6.767026047118925e-05
-0.4875275251491985,-0.4875275251491985,1.0000640993371386,6.549330037179939e-05
-0.48695769502955955,-0.48695769502955955,1.0000483239196694,6.616289772964773e-05
-0.48588072970451324,-0.48588072970451324,0.9999861021498718,6.686563757172574e-05
-0.48500057370765715,-0.48500057370765715,0.99992005333214,6.697493208733018e-05
-0.4840357315224537,-0.4840357315224537,1.0001044852746381,6.781107218510756e-05
-0.48335861997838947,-0.48335861997838947,0.99999000892422,6.688235393786932e-05
-0.48269438541465204,-0.48269438541465204,1.000057189606413,6.54939721686129e-05
-0.48203901694796514,-0.48203901694796514,1.0000293143222256,6.688344003698306e-05
-0.4806819058328983,-0.4806819058328983,1.0000372930733679,6.767715242140109e-05
-0.47994897079843213,-0.47994897079843213,1.0000636368571392,6.625190276140468e-05
-0.4790384190579061,-0.4790384190579061,1.0000126174250543,6.773780250140144e-05
-0.47836613947729345,-0.47836613947729345,1.0000834348563878,6.619704364666428e-05
-0.47774310724926183,-0.47774310724926183,0.9999569969424955,6.618228216823604e-05
-0.47677192108676536,-0.47677192108676536,1.0000954606732884,6.693029841739427e-05
-0.4757405746866425,-0.4757405746866425,1.0000430669393892,6.7752651587927e-05
-0.4747739263453695,-0.4747739263453695,0.9999315542977655,6.702165063774081e-05
-0.4740804115746869,-0.4740804115746869,0.9999580446612244,6.765012420550515e-05
-0.4734300556265225,-0.4734300556265225,0.999875274115305,6.549691219219734e-05
-0.47275566140087905,-0.47275566140087905,0.9999192917799405,6.69133288018284e-05
-0.4716492989158724,-0.4716492989158724,0.9999927234405849,6.607144189433411e-05
-0.4708854442113079,-0.4708854442113079,0.9998920280365524,6.698364735303525e-05
-0.4699038187340193,-0.4699038187340193,1.0000339918033991,6.702208198354495e-05
-0.46923568755810263,-0.46923568755810263,1.0000476072558442,6.766599077741558e-05
-0.4685902155120857,-0.4685902155120857,1.0000159233795085,6.549918787164834e-05
-0.46790729030544753,-0.46790729030544753,0.9999358471584248,6.690144031630576e-05
-0.4663254631399468,-0.4663254631399468,1.0000898995296692,6.776585910342795e-05
-0.46535675008417454,-0.46535675008417454,1.0000113074038723,6.620847099008839e-05
-0.46465795976910157,-0.46465795976910157,0.9999200491587693,6.843431627170192e-05
-0.4640322698563978,-0.4640322698563978,1.0000347628967152,6.549777206185177e-05
-0.46332692890719046,-0.46332692890719046,1.0000670591606946,6.692190030568426e-05
-0.46187906808263507,-0.46187906808263507,1.0000706517079516,6.6978246961926e-05
-0.4605622373710503,-0.4605622373710503,0.9998990579389506,6.61651543840493e-05
-0.45981588650320193,-0.45981588650320193,1.0001228608529351,6.76573561925476e-05
-0.4591879695006355,-0.4591879695006355,0.9999517061226031,6.549338971121923e-05
-0.45848667007230687,-0.45848667007230687,1.0000826323103327,6.690278985082407e-05
-0.4570707586608478,-0.4570707586608478,1.0000548891897183,6.700750938704497e-05
-0.4560926766200282,-0.4560926766200282,1.0000887240662273,6.540264775654452e-05
-0.45523633550837983,-0.45523633550837983,1.0000223013523677,6.766032800181946e-05
-0.45463040855975123,-0.45463040855975123,1.0001102576891991,6.630567884985233e-05
-0.45390343496983404,-0.45390343496983404,1.000001080710297,6.613515030657504e-05
-0.4526579579272948,-0.4526579579272948,1.000018122412291,6.697241052471953e-05
-0.45178202918032184,-0.45178202918032184,1.000035030813414,6.620777012831564e-05
-0.4507803476859408,-0.4507803476859408,0.9999675735467509,6.76934113450394e-05
-0.45017015758785417,-0.45017015758785417,1.0000582920393513,6.622071126274743e-05
-0.44947190147358923,-0.44947190147358923,0.999975225649201,6.61805212901829e-05
-0.4485000013293757,-0.4485000013293757,0.9998992213179635,6.622642608070834e-05
-0.4473896879106178,-0.4473896879106178,1.0001529956199515,6.70036307915395e-05
-0.4462953889007622,-0.4462953889007622,1.0000381603919244,6.772663821886767e-05
-0.4455791923290235,-0.4455791923290235,1.0000796880626144,6.689002470911559e-05
-0.4449228089710232,-0.4449228089710232,0.9998880043527633,6.549657418901994e-05
-0.44431846189909263,-0.44431846189909263,0.9999396423172948,6.780967883539873e-05
-0.4430524531511765,-0.4430524531511765,0.9999837145423648,6.623528193409143e-05
-0.4423337466934754,-0.4423337466934754,1.0000043382070534,6.621586615420109e-05
-0.4413618038510322,-0.4413618038510322,0.9999720844989233,6.767802808515153e-05
-0.4407723407202866,-0.4407723407202866,0.9999387663564864,6.62284171570647e-05
-0.44004903383829513,-0.44004903383829513,1.0000417269589674,6.618629765531799e-05
-0.43912926885604975,-0.43912926885604975,1.0002123130804674,6.62546936504603e-05
-0.43812251748531705,-0.43812251748531705,0.9999871180263128,6.70555081906328e-05
-0.43716738638031527,-0.43716738638031527,0.9999694593847785,6.615911656069336e-05
-0.4362701558406116,-0.4362701558406116,1.0000387872437937,6.684642294560548e-05
-0.4356820542328933,-0.4356820542328933,0.9998934450518788,6.630428381628014e-05
-0.4349369370713248,-0.4349369370713248,0.9999633356785909,6.693026945622378e-05
-0.43365759438165696,-0.43365759438165696,1.0000076820103472,6.631311889795946e-05
-0.4328613855730509,-0.4328613855730509,0.9999339241153049,6.618784525588118e-05
-0.4316849477647338,-0.4316849477647338,0.9999319196318451,6.767727826017294e-05
-0.4311807044090529,-0.4311807044090529,1.0000252829314673,6.545094183702053e-05
-0.4304837865507579,-0.4304837865507579,0.9999340695396984,6.69983682725659e-05
-0.4296774410664511,-0.4296774410664511,1.0001322362830662,6.565469809020301e-05
-0.42871636169802513,-0.42871636169802513,0.9999884438462899,6.706321357231045e-05
-0.42762085759677576,-0.42762085759677576,1.0000598110088448,6.690666667760127e-05
-0.42682587644376324,-0.42682587644376324,1.0000334028016025,6.6925090043179e-05
-0.4264874844440783,-0.4264874844440783,1.0000164027279146,6.545361339639746e-05
-0.42583413087995725,-0.42583413087995725,0.999872426201043,6.617202454405435e-05
-0.4251959817695024,-0.4251959817695024,1.0000247563488955,6.70730722987978e-05
-0.4241140014237317,-0.4241140014237317,1.000132394066613,6.623670302327938e-05
-0.42319715467165225,-0.42319715467165225,1.0000434786952543,6.700636432848233e-05
-0.4222037768486189,-0.4222037768486189,1.0000690823177043,6.610620507980534e-05
-0.42189391607025756,-0.42189391607025756,1.0000430217991498,6.702466328134115e-05
-0.4212045621286961,-0.4212045621286961,1.000043688388542,6.619351034281341e-05
-0.4205227533770085,-0.4205227533770085,0.9999511179489863,6.692116317308575e-05
-0.41954414689244,-0.41954414689244,1.000012348350278,6.699838647285118e-05
-0.4187534156379115,-0.4187534156379115,1.0000433625635285,6.700832437435559e-05
-0.4177552875044057,-0.4177552875044057,0.9999136111834733,6.689343973429729e-05
-0.417320961310179,-0.417320961310179,1.0000204278083848,6.693729601969542e-05
-0.41669869797333375,-0.41669869797333375,0.9998971484355641,6.549429159565633e-05
-0.41592496094017406,-0.41592496094017406,0.9999117218356719,6.696585625352882e-05
-0.41501670907673543,-0.41501670907673543,1.0000637737950773,6.696153835228448e-05
-0.4142837803978182,-0.4142837803978182,1.0000613343027864,6.709730539464238e-05
-0.4131798881331633,-0.4131798881331633,0.9998288500433661,6.687418925208115e-05
-0.4126663488445047,-0.4126663488445047,0.9999997221193787,6.689549027579583e-05
-0.4122773534676526,-0.4122773534676526,1.000042826297997,6.549182090973278e-05
-0.4116460514756909,-0.4116460514756909,1.0000222037369564,6.61976830561861e-05
-0.41077751383345457,-0.41077751383345457,0.9998642909619075,6.771996684008974e-05
-0.40990511764539406,-0.40990511764539406,1.0000546983542637,6.716313780340474e-05
-0.4091276584600564,-0.4091276584600564,1.0000069190339598,6.606192904300978e-05
-0.4081974789674859,-0.4081974789674859,0.9999754042225737,6.694504403541463e-05
-0.4078546914708568,-0.4078546914708568,1.000058582056507,6.701947985205035e-05
-0.4073697082378203,-0.4073697082378203,1.000011796474419,6.542709478505025e-05
-0.4066805994560127,-0.4066805994560127,0.9998455111946812,6.697863603308714e-05
-0.4056213384334114,-0.4056213384334114,1.0000671018743292,6.618527849844116e-05
-0.4051077979413094,-0.4051077979413094,1.0000387413334766,6.719539344480675e-05
-0.40415965440624857,-0.40415965440624857,1.000117214938244,6.690217097014912e-05
-0.4034097308467608,-0.4034097308467608,0.9999969447792694,6.612498861865361e-05
-0.4030494102378725,-0.4030494102378725,1.000009282671621,6.704349256799562e-05
-0.40235449574611265,-0.40235449574611265,1.0000125869565504,6.621011010399666e-05
-0.40113399413239675,-0.40113399413239675,0.9998545294150805,6.692553883668319e-05
-0.4005178076135053,-0.4005178076135053,1.000072118833645,6.699639263329355e-05
-0.3995738874982635,-0.3995738874982635,0.9998982082943237,6.607939080380664e-05
-0.3987114470983215,-0.3987114470983215,1.0000929904432412,6.61349541541075e-05
-0.39838323796429903,-0.39838323796429903,0.9999359007990017,6.700985834011821e-05
-0.39783323359297357,-0.39783323359297357,0.9999739773357366,6.541865932787794e-05
-0.3966372413422505,-0.3966372413422505,0.9999318823719137,6.771906324320954e-05
-0.3958907793115941,-0.3958907793115941,0.9999538907059694,6.696164994110099e-05
-0.3951487452322908,-0.3951487452322908,0.9999726514678642,6.529024222634011e-05
-0.3940839368653542,-0.3940839368653542,1.000023119595612,6.695058909668929e-05
-0.39374801577505425,-0.39374801577505425,0.9999698309817449,6.701837674341845e-05
-0.3929408009040344,-0.3929408009040344,0.9999530861149244,6.624013414123235e-05
-0.39186861638590925,-0.39186861638590925,1.0000493531118697,6.770306677772773e-05
-0.39118457530639716,-0.39118457530639716,0.9999927328591387,6.697433423037391e-05
-0.3905698059090355,-0.3905698059090355,1.000037125688522,6.473833936186541e-05
-0.3896447453509609,-0.3896447453509609,1.0000092250269375,6.68848122577133e-05
-0.3891542456585739,-0.3891542456585739,1.0000665567398115,6.689965116306715e-05
-0.38864548444980757,-0.38864548444980757,0.9999447520495034,6.631538235044214e-05
-0.3876287196377234,-0.3876287196377234,0.9999444799122441,6.767268564904657e-05
-0.38674847870206575,-0.38674847870206575,1.0000095795034785,6.625351165019836e-05
-0.38630959231450107,-0.38630959231450107,1.0001221721640188,6.698011926076148e-05
-0.3856000013140147,-0.3856000013140147,0.99997087610605,6.618046276838216e-05
-0.3846799835431739,-0.3846799835431739,1.0000324299960919,6.619487074145553e-05
-0.38433947481680664,-0.38433947481680664,1.0000163253081575,6.77647403740674e-05
-0.3835532096985844,-0.3835532096985844,1.0001029361904028,6.627105328531017e-05
-0.3826693192764651,-0.3826693192764651,0.9998555146033091,6.845987044213752e-05
-0.38195013887961976,-0.38195013887961976,0.9999376340443412,6.6326168858513e-05
-0.381511527884868,-0.381511527884868,1.0000819064205033,6.697056291934252e-05
-0.3806487139219826,-0.3806487139219826,0.999923676932239,6.61545981536704e-05
-0.37981624071326225,-0.37981624071326225,1.0000546547731244,6.686570831438972e-05
-0.3793954312437563,-0.3793954312437563,1.0000073628728205,6.62535741849938e-05
-0.3784874537443102,-0.3784874537443102,0.9999215975437895,6.78156731337869e-05
-0.377760234411835,-0.377760234411835,0.9999079854191368,6.688246742675319e-05
-0.37714357078948524,-0.37714357078948524,0.999946570685893,6.638826308827587e-05
-0.37658155671597343,-0.37658155671597343,0.9999233135005385,6.622090365151401e-05
-0.37538817022650617,-0.37538817022650617,0.9999837172755445,6.606375977644837e-05
-0.37492506370181217,-0.37492506370181217,1.0001399059969223,6.77664300147779e-05
-0.37413394887989854,-0.37413394887989854,1.0000334227384875,6.62690263616683e-05
-0.37324151283319223,-0.37324151283319223,0.9999535428652759,6.846110541756721e-05
-0.37254827304859645,-0.37254827304859645,0.999941454297408,6.638901821602038e-05
-0.3719921687283204,-0.3719921687283204,1.0001548836343885,6.620232954803198e-05
-0.37088752347553966,-0.37088752347553966,1.0000426441774168,6.615961512907165e-05
-0.36999929877711113,-0.36999929877711113,0.9999944563913583,6.69677998472797e-05
-0.369056092282699,-0.369056092282699,0.9999681096925139,6.78149198942139e-05
-0.3682034592347918,-0.3682034592347918,0.9999816308892268,6.688627844830967e-05
-0.3675652763537073,-0.3675652763537073,1.000034955645615,6.625004790258608e-05
-0.3670176928870205,-0.3670176928870205,0.9999390980464524,6.542370076087427e-05
-0.3656836075264437,-0.3656836075264437,0.9998823923411801,6.768240740060112e-05
-0.3649535398042644,-0.3649535398042644,0.9998981624514975,6.623787415937348e-05
-0.3640473745850613,-0.3640473745850613,0.9999028421646082,6.775359492580968e-05
-0.3633531337916793,-0.3633531337916793,1.0001039102459446,6.618958087513189e-05
-0.36275678662932476,-0.36275678662932476,1.0000586989829874,6.618944198134978e-05
-0.362021343462402,-0.362021343462402,0.9999897398922915,6.696259885390703e-05
-0.3608732101405622,-0.3608732101405622,0.9998808656704773,6.769443525942778e-05
-0.360005858365912,-0.360005858365912,1.000000759169655,6.627021176894735e-05
-0.3592191382500459,-0.3592191382500459,0.9999396729388087,6.76511953851129e-05
-0.3585375716931594,-0.3585375716931594,0.9999588547481467,6.627414881420088e-05
-0.35791795354671196,-0.35791795354671196,1.000148692025079,6.617743558883074e-05
-0.3567660450040421,-0.3567660450040421,0.9999051667346925,6.686062438926962e-05
-0.35588357429005557,-0.35588357429005557,0.9999336173850526,6.69740348387116e-05
-0.35490983771233003,-0.35490983771233003,0.9999888464627983,6.780338595396436e-05
-0.35424333211267367,-0.35424333211267367,0.9999159326969626,6.687807836690927e-05
-0.35358056952318295,-0.35358056952318295,0.9999183156597024,6.548854421403308e-05
-0.3529171635149396,-0.3529171635149396,0.9998535319092381,6.688251091781431e-05
-0.3515636786425603,-0.3515636786425603,0.9999154792062244,6.767234728780539e-05
-0.3508295668238134,-0.3508295668238134,1.0000103709296804,6.624497896186562e-05
-0.34991722108970863,-0.34991722108970863,0.9999751699490391,6.773842835016778e-05
-0.34925398749182934,-0.34925398749182934,1.0001597850962134,6.619936393354967e-05
-0.348619974993926,-0.348619974993926,0.9999814113893635,6.618620244260099e-05
-0.34765574457123877,-0.34765574457123877,0.9999775193440114,6.691989517858936e-05
-0.34662141780281674,-0.34662141780281674,1.0000389935562004,6.776030015216101e-05
-0.34565178342891156,-0.34565178342891156,1.0000125056710119,6.701798192473229e-05
-0.3449601200998586,-0.3449601200998586,0.9999107424323048,6.764050472189152e-05
-0.34431847252344594,-0.34431847252344594,1.0000261378339501,6.549923871526976e-05
-0.34363053720007886,-0.34363053720007886,1.0000050225795671,6.692652150553705e-05
-0.3423194005372352,-0.3423194005372352,1.000115425628419,6.688079898737361e-05
-0.341414059473027,-0.341414059473027,1.0000443460286794,6.624939006826243e-05
-0.34049763393195465,-0.34049763393195465,0.9999605228537586,6.771743709855992e-05
-0.33985508859695984,-0.33985508859695984,1.000018767993028,6.620326898203039e-05
-0.3391959942986432,-0.3391959942986432,1.0000342179317356,6.617671426748427e-05
-0.3381142579732114,-0.3381142579732114,1.0001214403340424,6.77057199719693e-05
-0.3369006756205636,-0.3369006756205636,1.0000202283822859,6.539480755526455e-05
-0.33578799427486955,-0.33578799427486955,1.0000004942971643,6.772208917761671e-05
-0.3351557984125975,-0.3351557984125975,0.9999552484654307,6.621091103045248e-05
-0.33448416880273724,-0.33448416880273724,0.9999297736765007,6.617838887126114e-05
-0.3334852410494932,-0.3334852410494932,0.9999699099117159,6.692802639719908e-05
-0.3322043624284561,-0.3322043624284561,0.9999028645984772,6.620206119589242e-05
-0.33107845672857367,-0.33107845672857367,1.0001091071557113,6.771293559233118e-05
-0.33045661383948755,-0.33045661383948755,0.9999843805458208,6.620963382396638e-05
-0.32977245309011777,-0.32977245309011777,1.0000216075451647,6.618098868957972e-05
-0.3287860294505663,-0.3287860294505663,1.0001670830307254,6.62150648275152e-05
-0.32768298667360796,-0.32768298667360796,1.0000085310204128,6.699678366892348e-05
-0.3267402188997949,-0.3267402188997949,1.0000172983717057,6.696729692898983e-05
-0.32598516283833306,-0.32598516283833306,1.000009649671553,6.765768500684975e-05
-0.3253737463870493,-0.3253737463870493,1.000025936116829,6.549808075173485e-05
-0.3246552178883576,-0.3246552178883576,0.9999439088440543,6.690960450663661e-05
-0.32325843303406143,-0.32325843303406143,1.0001695466652758,6.703806715687573e-05
-0.3223144218616653,-0.3223144218616653,1.0000565182734142,6.62129407392899e-05
-0.32140523092311923,-0.32140523092311923,0.9999562507150852,6.764835242933424e-05
-0.32081520874344277,-0.32081520874344277,0.999848212778236,6.630124175491527e-05
-0.3200747791583126,-0.3200747791583126,1.000067908924326,6.614156715780862e-05
-0.31884396115492564,-0.31884396115492564,1.0000085537054202,6.70114995465591e-05
-0.31792185296071696,-0.31792185296071696,1.0001231346175967,6.621553698133963e-05
-0.316950450764125,-0.316950450764125,1.0001255300881895,6.768472024421937e-05
-0.3163596924910962,-0.3163596924910962,1.000184316454111,6.622780383546068e-05
-0.3156379508349346,-0.3156379508349346,0.9997969526793502,6.618276391394115e-05
-0.3147166379763803,-0.3147166379763803,0.9999753572535004,6.624253282469236e-05
-0.31371041446109305,-0.31371041446109305,1.000028952364262,6.705423752689831e-05
-0.312755324968748,-0.312755324968748,0.9999180471166561,6.615783295870651e-05
-0.31185839703321105,-0.31185839703321105,1.0000270980013457,6.68501882197111e-05
-0.311270044871344,-0.311270044871344,0.999981082181684,6.631777866957838e-05
-0.3105256496186485,-0.3105256496186485,1.0000100304525579,6.693807022419362e-05
-0.30924476612126456,-0.30924476612126456,1.0000652593158352,6.631459972998748e-05
-0.30844943361225885,-0.30844943361225885,1.0000597018146855,6.618680580549304e-05
-0.3072739614166494,-0.3072739614166494,0.9999577632316129,6.768342093541041e-05
-0.30676736430905294,-0.30676736430905294,1.0000273233680301,6.54590088269128e-05
-0.3060733862381312,-0.3060733862381312,0.999869383358196,6.699826628125545e-05
-0.3050635325329495,-0.3050635325329495,0.9999593984002979,6.557914242930684e-05
-0.3041580920871638,-0.3041580920871638,0.9999416222708565,6.701698334408061e-05
-0.302965139686421,-0.302965139686421,1.0000397761086657,6.695030980679014e-05
-0.3023662338695431,-0.3023662338695431,0.9999976459488853,6.688441516751296e-05
-0.30194196088268654,-0.30194196088268654,0.9999621447790352,6.631027925501024e-05
-0.30124154164586797,-0.30124154164586797,1.000097932139695,6.616938628689862e-05
-0.3002202665025834,-0.3002202665025834,0.9999272479491431,6.62694247235378e-05
-0.2993212250468787,-0.2993212250468787,0.9999654027908378,6.623328216801393e-05
