time,time,flux,flux_err
-0.4999711452237534,-0.4999711452237534,0.9996728745025033,0.0001865158594055728
-0.4997856726561925,-0.4997856726561925,1.0000763313775136,0.00017526182548490817
-0.4996211330277826,-0.4996211330277826,0.9997804063114479,0.00017567444894121042
-0.49947903569166857,-0.49947903569166857,0.9999008758124702,0.00017846041606701875
-0.4994043981110735,-0.4994043981110735,0.9999508012256604,0.00016234049983939068
-0.499321082001552,-0.499321082001552,0.9999737413654419,0.00015186428625881267
-0.4992258334779763,-0.4992258334779763,1.000123091104623,0.00016262899277385315
-0.4991214605710411,-0.4991214605710411,1.00006067621409,0.0001584063755833796
-0.49900507901766106,-0.49900507901766106,0.9999235258901967,0.00017235573709667592
-0.498899919235555,-0.498899919235555,1.0000214022918743,0.00016458549005831467
-0.4988176291299169,-0.4988176291299169,0.999874842328382,0.00016488479231034262
-0.4987057577513042,-0.4987057577513042,1.0000732393579717,0.0001707289169432827
-0.49851725634143806,-0.49851725634143806,1.000224949821222,0.00016595554805660525
-0.4984620524213824,-0.4984620524213824,1.0001171839636227,0.0001711548206933762
-0.49834333034887096,-0.49834333034887096,1.0002712371263267,0.00015099138275047607
-0.49811761499804563,-0.49811761499804563,1.0003229501531012,0.00016411245836740553
-0.49796734574556467,-0.49796734574556467,0.9999084136524357,0.00017107056547488884
-0.4979256261285627,-0.4979256261285627,1.000046341084338,0.00015399430685860508
-0.4978125251298479,-0.4978125251298479,1.0000785918763726,0.00016156893629643858
-0.49766737858517446,-0.49766737858517446,1.0000466810579702,0.00016759172142831225
-0.4974505060825322,-0.4974505060825322,1.0000775754331586,0.00016522116299271962
-0.4973338167343172,-0.4973338167343172,0.9997889963366259,0.00016837388693464024
-0.49720278457170936,-0.49720278457170936,0.9999386526387003,0.00015205545989870336
-0.49704539512094925,-0.49704539512094925,1.0001859815795524,0.0001521674558717965
-0.4969330853295105,-0.4969330853295105,0.9999042879152314,0.0001500523966993718
-0.4968427734966099,-0.4968427734966099,0.9998742013212473,0.0001709245068563781
-0.4967107989235956,-0.4967107989235956,1.0000344648926358,0.00016268764816245314
-0.4965613627820858,-0.4965613627820858,0.9997059060183637,0.00016228679190697994
-0.4964683722377231,-0.4964683722377231,0.9998209557788161,0.0001479358935513228
-0.49632092500032743,-0.49632092500032743,0.9998727316655449,0.0001743326915687908
-0.4962513070968271,-0.4962513070968271,0.9998497428700915,0.0001655854601336383
-0.4961709932220401,-0.4961709932220401,0.9999466446480415,0.0001527613973700307
-0.49608885168709094,-0.49608885168709094,0.999958623841762,0.00015311757604123953
-0.4959037356391491,-0.4959037356391491,1.0000864919026866,0.00016470815577080783
-0.4958066652739944,-0.4958066652739944,0.9998974315792765,0.00014929696650326204
-0.4957303363837127,-0.4957303363837127,0.9999144790044306,0.00018273913055365715
-0.49567286232922925,-0.49567286232922925,0.9998627474104242,0.00017307807145099948
-0.4955199978561723,-0.4955199978561723,0.9999238097251165,0.00016239907320029237
-0.49540898301565905,-0.49540898301565905,1.0001068924540895,0.00016084140214305665
-0.4953238109781523,-0.4953238109781523,1.000198568976909,0.00015329007323703492
-0.4952142931993876,-0.4952142931993876,1.000039596918378,0.00015053298110025444
-0.4951572802798182,-0.4951572802798182,0.9999331603568923,0.00016166676232114906
-0.4950723651672888,-0.4950723651672888,1.0000744889923419,0.0001638026546810377
-0.4949425550577871,-0.4949425550577871,0.9999337284631806,0.0001623450190089223
-0.49488208180846416,-0.49488208180846416,1.0000853896027482,0.00015312426344866775
-0.49474202243654875,-0.49474202243654875,0.9997219075937863,0.00016340903335399596
-0.4946732821284968,-0.4946732821284968,1.000055820032745,0.00017523703371058198
-0.4945844215195393,-0.4945844215195393,1.0001788712596418,0.00015253964404413734
-0.4943775244762946,-0.4943775244762946,0.9998872679590471,0.00016927375712804895
-0.4942212577472674,-0.4942212577472674,1.00011728296439,0.0001634265696330272
-0.49417122136219405,-0.49417122136219405,1.000220856537542,0.00017190273788125947
-0.4940316640735546,-0.4940316640735546,0.9998975762616752,0.0001491695554052561
-0.4939636042894563,-0.4939636042894563,0.9998892118712515,0.00016073585452274866
-0.4938022285205079,-0.4938022285205079,0.9999531326458271,0.00015210114148546454
-0.4937221155407315,-0.4937221155407315,1.0001003172405283,0.0001530452730648475
-0.4936678931320785,-0.4936678931320785,0.9999017746366275,0.00016922498997810635
-0.4935822438179457,-0.4935822438179457,1.000327700943066,0.00015023846772253168
-0.4935074757813709,-0.4935074757813709,1.0000298970492043,0.00016350751511669937
-0.4933703412774776,-0.4933703412774776,1.0001142992001526,0.0001638578432805688
-0.49315870788122995,-0.49315870788122995,1.0000757063788366,0.00017234586521832658
-0.4930283485002292,-0.4930283485002292,0.9999252351613437,0.0001667999304163933
-0.49286784598371014,-0.49286784598371014,0.9999852231716426,0.00015097632918212523
-0.49266579568138696,-0.49266579568138696,0.9999492299410223,0.00014893195740513647
-0.4925943154172273,-0.4925943154172273,0.9998440216335822,0.00017313894611073558
-0.49247520436983905,-0.49247520436983905,0.9998842416138725,0.00015371506067765798
-0.49234415631435696,-0.49234415631435696,1.0000002907274075,0.00017142610719322337
-0.49225363192745136,-0.49225363192745136,0.9998398577377312,0.00015394239972273122
-0.492136303307052,-0.492136303307052,0.9998493657782668,0.00014879191847090063
-0.49203107553039444,-0.49203107553039444,0.9999841069215905,0.0001803208911170205
-0.49192566176861874,-0.49192566176861874,0.9999528940214205,0.00015062763287306528
-0.49181047113161186,-0.49181047113161186,1.000301884109594,0.00015277411868350554
-0.4916091276863881,-0.4916091276863881,1.0005691070879892,0.00016450273969086915
-0.4914969683311938,-0.4914969683311938,1.0000761675218839,0.00015225236514355354
-0.49135802184682686,-0.49135802184682686,0.9998921097185809,0.0001862031359589826
-0.49119604846055154,-0.49119604846055154,1.000054242353432,0.0001510215899467756
-0.4910933043254772,-0.4910933043254772,1.000189616960442,0.0001605578155325051
-0.49100985195618707,-0.49100985195618707,0.9999943803593692,0.0001526214756706422
-0.4909051762639137,-0.4909051762639137,0.9999471551298331,0.00016136167872269982
-0.49077671622217167,-0.49077671622217167,1.0000580536627501,0.00015564435439417468
-0.49063248802995074,-0.49063248802995074,1.0001663604918405,0.00016142404645327194
-0.49053420316413393,-0.49053420316413393,0.9997589609205028,0.00015445904976712311
-0.4904075791957439,-0.4904075791957439,1.0002333421977398,0.00017444254452771013
-0.4902836973727972,-0.4902836973727972,0.9998478793441399,0.000150135946785903
-0.49009446349518837,-0.49009446349518837,0.9999086208895799,0.000163097367154401
-0.48996454392545274,-0.48996454392545274,1.0001492047545784,0.00016438456423260641
-0.4898793548272806,-0.4898793548272806,1.0001355794229112,0.00017423868193039833
-0.4897121323505417,-0.4897121323505417,0.9997796978091944,0.00016038340612176534
-0.4896005475609854,-0.4896005475609854,1.0000350339296402,0.00015376956979990179
-0.489529602193943,-0.489529602193943,1.0000441653394745,0.00015380934884573954
-0.4894345094835444,-0.4894345094835444,0.9997676349097737,0.00016015187908936297
-0.4893483025756723,-0.4893483025756723,1.000143133992375,0.00015212417026040604
-0.489246440113493,-0.489246440113493,0.9999741406397501,0.00015812288737351293
-0.48898795579953,-0.48898795579953,1.0001858905710872,0.00016656750292544823
-0.4888398990005953,-0.4888398990005953,1.0002037554581407,0.00017428724832702915
-0.4887353381192952,-0.4887353381192952,0.9999013066385615,0.00015979912175293284
-0.48857014237655677,-0.48857014237655677,0.9999720330440945,0.00014986992809775567
-0.48839797128093776,-0.48839797128093776,0.999897519555697,0.0001547893458921962
-0.4882766996808641,-0.4882766996808641,0.9999444864259004,0.0001704721428102863
-0.4881370412971592,-0.4881370412971592,1.0000845702609822,0.00016119748897653772
-0.4880175106591196,-0.4880175106591196,0.999987148292497,0.00016888528254091012
-0.4879277399151761,-0.4879277399151761,0.9999921585895322,0.000156164752774716
-0.4877970969930175,-0.4877970969930175,0.9998833154128673,0.00017053938203963437
-0.4877049082060694,-0.4877049082060694,0.9999957198242662,0.00016057970707320692
-0.4876081936337869,-0.4876081936337869,1.0000415183482692,0.0001517908097901986
-0.48748972521352696,-0.48748972521352696,1.0002074248809685,0.0001571180044174293
-0.4873144776043773,-0.4873144776043773,0.9997412450434094,0.00016953216009009853
-0.48719390630794807,-0.48719390630794807,0.9998783196224856,0.0001579182310074881
-0.48709726233864786,-0.48709726233864786,1.0000465399389336,0.0001709686624209394
-0.4869849716684257,-0.4869849716684257,1.0000422526316228,0.0001620741156860269
-0.4868843504678807,-0.4868843504678807,0.9998390851248498,0.0001475533833190608
-0.48679012959473766,-0.48679012959473766,0.999838778029452,0.00016131292337582447
-0.4867247188514739,-0.4867247188514739,1.0000705379132662,0.0001537350699797285
-0.48667348244343883,-0.48667348244343883,1.000034608346161,0.0001688276465725103
-0.4865456420578994,-0.4865456420578994,0.9998753563475565,0.00015003833485309687
-0.48642502399816295,-0.48642502399816295,1.0002119817979012,0.00014846824707293342
-0.48633682704603415,-0.48633682704603415,1.0000309455090808,0.0001609486856518335
-0.4862214528991899,-0.4862214528991899,0.9998896216013156,0.00016367207622149284
-0.4860804584590369,-0.4860804584590369,1.0000989094056614,0.00015918204708341535
-0.48601034391249415,-0.48601034391249415,1.0002637349164774,0.0001504525891375567
-0.4858983729391184,-0.4858983729391184,0.9999580791226963,0.00016640148084881324
-0.48582035926883693,-0.48582035926883693,0.9998608891930095,0.0001526105346192015
-0.48569268635110346,-0.48569268635110346,0.9999328840799336,0.0001488117938848418
-0.4855893558167736,-0.4855893558167736,1.0000656597055761,0.0001748517924973306
-0.48547273627627874,-0.48547273627627874,0.9999552684524339,0.000150873425360234
-0.48539831848174797,-0.48539831848174797,1.0000163431727997,0.00016343491145979453
-0.48532906630425715,-0.48532906630425715,1.0002954182766346,0.00015139257210366013
-0.48526665067329305,-0.48526665067329305,0.9999633740545727,0.00015184204278260134
-0.4851858826899843,-0.4851858826899843,1.0001255421885544,0.00015131955038113449
-0.48510088893308423,-0.48510088893308423,1.0001079971264457,0.00016005876406066866
-0.4850066046754364,-0.4850066046754364,1.0000091028028875,0.00015228431063558017
-0.48491429756031723,-0.48491429756031723,0.999735723219257,0.00015461726075232418
-0.4847646688664099,-0.4847646688664099,0.9998400057836936,0.00016608937937955898
-0.4845977705299447,-0.4845977705299447,0.9998787712652331,0.00017371706831492006
-0.48450414659746455,-0.48450414659746455,0.9999025024592949,0.00014668874133566916
-0.4843682063234155,-0.4843682063234155,0.9999300961631861,0.00014802735880823989
-0.484242488554446,-0.484242488554446,1.0001533617991505,0.00015339722816622094
-0.4840941652066249,-0.4840941652066249,0.9997957398047509,0.000158687817481844
-0.4839985182974488,-0.4839985182974488,0.9999622634053701,0.00017064527220063885
-0.48385020319401517,-0.48385020319401517,0.9999626519881846,0.00016699741055194699
-0.48375248372467466,-0.48375248372467466,0.9999675042179679,0.0001521872697717972
-0.4836905200543697,-0.4836905200543697,1.0002266092819703,0.00016370144461733794
-0.48354703855875414,-0.48354703855875414,1.0000591832599215,0.00016532871405341065
-0.48344338283422983,-0.48344338283422983,0.9999508972155324,0.00016991120258762972
-0.4833520347659942,-0.4833520347659942,1.0000255364747663,0.0001500273905283603
-0.48326163619422,-0.48326163619422,1.0001407387051617,0.00015176068238560513
-0.4830623528752767,-0.4830623528752767,0.9996955568147797,0.00016056686219628752
-0.48294764683523683,-0.48294764683523683,0.9998409570477825,0.0001599528480290679
-0.48283154438759085,-0.48283154438759085,1.0001492539158792,0.0001723607727269756
-0.48276597025833323,-0.48276597025833323,1.0001990959914835,0.00017295740632585656
-0.4827071363048162,-0.4827071363048162,1.0000445265189961,0.00015281180819560317
-0.48258065358677416,-0.48258065358677416,0.9999571366831945,0.00014785460210871981
-0.482522240281105,-0.482522240281105,0.9999294657451081,0.0001619728067814525
-0.4824512830105959,-0.4824512830105959,0.9998521401148533,0.00015407381950985653
-0.4823409189157246,-0.4823409189157246,1.0002197098453756,0.0001622843722799431
-0.4821796178446675,-0.4821796178446675,1.000369091317571,0.0001484839447394213
-0.48211965147493174,-0.48211965147493174,0.9999736079179904,0.0001547992526967663
-0.48196990344731605,-0.48196990344731605,0.9996444764789503,0.00016181217075832868
-0.48182693616108735,-0.48182693616108735,0.9999219937390157,0.00016154934869273038
-0.4817623387738422,-0.4817623387738422,0.9999560486026212,0.00015890726881298987
-0.4816793860503822,-0.4816793860503822,1.0002548287579753,0.00016242904647171494
-0.4815489744541992,-0.4815489744541992,0.9999650954389757,0.00016200126835263007
-0.48137145829678046,-0.48137145829678046,0.9999013890221032,0.00016352119612420742
-0.4812546948160161,-0.4812546948160161,1.0000878590304736,0.00016316296042021952
-0.4811369060247671,-0.4811369060247671,0.99999705040965,0.00014985381422028202
-0.48107681874316766,-0.48107681874316766,0.9999025978517571,0.0001617887015211351
-0.48098642687691606,-0.48098642687691606,1.0000894689007862,0.00015100360111039996
-0.48084095207741484,-0.48084095207741484,1.0000482919012168,0.00016324059786240928
-0.480709101400862,-0.480709101400862,1.0000957148089313,0.00015511811403129522
-0.4805644460589974,-0.4805644460589974,1.0001665336387782,0.0001537512413276579
-0.48042627219256245,-0.48042627219256245,0.9999458857556309,0.00017076390334082138
-0.4802414688216231,-0.4802414688216231,0.999850293234174,0.00016282901129219135
-0.48011297276680126,-0.48011297276680126,1.0000624346056237,0.0001485762309199659
-0.4799914871226065,-0.4799914871226065,0.9997347253138994,0.00015056385948921495
-0.47984732926779544,-0.47984732926779544,0.9998831567811948,0.00016019938495713946
-0.4796588878794864,-0.4796588878794864,1.0000719064773922,0.00017409794382233635
-0.47955084944405824,-0.47955084944405824,0.9999914054354819,0.00016394193664925799
-0.47944781210972,-0.47944781210972,0.9998569803159484,0.00016491366754941886
-0.4792916998063447,-0.4792916998063447,1.0002331811571923,0.0001623188577339522
-0.4791527067049174,-0.4791527067049174,0.9999603726120666,0.00016994942544187666
-0.47906062554975504,-0.47906062554975504,0.9998931791301162,0.00015834170576820264
-0.47892709852239934,-0.47892709852239934,0.9999858336713043,0.00015012513323147794
-0.47882854131239583,-0.47882854131239583,1.0002730391760712,0.00015451573612142126
-0.47871898457815404,-0.47871898457815404,0.9999408732857347,0.00016465590331451383
-0.4786188664751535,-0.4786188664751535,0.999939477065305,0.00014918124428884593
-0.47852522628236327,-0.47852522628236327,1.0000480537965142,0.00016027873800875743
-0.4784671177258133,-0.4784671177258133,1.0000569742586543,0.00016270601047367608
-0.47834710344322956,-0.47834710344322956,1.0001411122752581,0.0001489918016632066
-0.4782643797494529,-0.4782643797494529,1.0002102398345958,0.00015282448797712507
-0.47819425725538167,-0.47819425725538167,1.000188464720922,0.00016274668596108594
-0.4780479912355077,-0.4780479912355077,1.0001216143746365,0.00016351763935434986
-0.4779145029868232,-0.4779145029868232,1.0002765503971496,0.00015214871613397057
-0.4778180436893308,-0.4778180436893308,1.000241676448941,0.00015082396549247608
-0.477702540885366,-0.477702540885366,1.0000980980298642,0.0001621129784273272
-0.47758934319281254,-0.47758934319281254,1.0000478394005157,0.0001553136876109835
-0.477529931031313,-0.477529931031313,0.9999575540187273,0.0001633696170032347
-0.47745607240940446,-0.47745607240940446,1.0000911679773856,0.00016029206290074804
-0.4773243694282428,-0.4773243694282428,1.0001792282007793,0.00015827619020262492
-0.4772301659504592,-0.4772301659504592,1.0001797030028095,0.00016270948238759529
-0.4771268918055284,-0.4771268918055284,1.0000595196607633,0.00015069345854101384
-0.47700724250025817,-0.47700724250025817,0.9999737840301144,0.00017288609149552174
-0.4769210127276892,-0.4769210127276892,1.0001159282098129,0.00015463192134122837
-0.4768549678752606,-0.4768549678752606,1.0000849256777558,0.00014937107763353334
-0.4767927559943928,-0.4767927559943928,0.9999420334839388,0.0001602709600600595
-0.4766822714707814,-0.4766822714707814,0.999944543625112,0.0001613137635320811
-0.47655335170784385,-0.47655335170784385,0.9999843685983466,0.0001649295995299479
-0.47637874159627247,-0.47637874159627247,0.9999431466498869,0.00015371361907337008
-0.47623085510276725,-0.47623085510276725,0.9998442818382319,0.00017011091338371668
-0.4760525170146138,-0.4760525170146138,1.0001908498318643,0.0001771720564373387
-0.47598748422024073,-0.47598748422024073,1.000119381880649,0.00015912687993153797
-0.4759161684720311,-0.4759161684720311,0.9999831058601221,0.00015414445717993605
-0.47581496508646526,-0.47581496508646526,1.0002744457069475,0.0001485293388848572
-0.4755349276609195,-0.4755349276609195,1.000104250029309,0.0001714152524887409
-0.4754052015327034,-0.4754052015327034,1.0001875031016767,0.00015592373900392
-0.4753309427986096,-0.4753309427986096,1.0000418084907146,0.00015027282671513598
-0.4752204816912126,-0.4752204816912126,1.0000186277746663,0.00017438743962616611
-0.47496191256068415,-0.47496191256068415,1.0002297513329075,0.000172341582737912
-0.4748602381987439,-0.4748602381987439,1.0001289254888293,0.0001610795351084643
-0.47472603872738545,-0.47472603872738545,1.0000224430414124,0.0001539340376609009
-0.4745880312184454,-0.4745880312184454,1.0000345673451494,0.00015273483248384674
-0.47447208887606396,-0.47447208887606396,1.0002932251750354,0.00015225497158072773
-0.47436765883176124,-0.47436765883176124,1.0001422167228886,0.00016825164289874258
-0.4742567878507543,-0.4742567878507543,0.9998381571358259,0.00015105572758520753
-0.4741946782611194,-0.4741946782611194,0.9999056860132676,0.00016208036136496653
-0.474034528159973,-0.474034528159973,1.000273947114337,0.00015007927518412954
-0.4739624780100712,-0.4739624780100712,0.9998485077815709,0.00016181813530214182
-0.4738132807091461,-0.4738132807091461,1.0000958868616756,0.00017143137434287088
-0.4736972752260044,-0.4736972752260044,0.9997434750182729,0.00015076892905694522
-0.47363657505920853,-0.47363657505920853,0.9999714652045413,0.00015219654693254475
-0.4734803777129855,-0.4734803777129855,1.0001145716605138,0.00016423013274086373
-0.473368372470577,-0.473368372470577,1.0000110974995922,0.0001535972130876977
-0.4732760798673553,-0.4732760798673553,1.0002303562927382,0.000182169388982303
-0.4731939472410886,-0.4731939472410886,0.9999773929106845,0.00017039253823057453
-0.47300056287640474,-0.47300056287640474,0.9997880208364954,0.0001644022349322984
-0.4728790424574981,-0.4728790424574981,1.0000602412205961,0.00015084790985557702
-0.47274169552038076,-0.47274169552038076,0.9998568698129698,0.00015431477122851103
-0.47268002936107223,-0.47268002936107223,1.0000478052867832,0.00017281738945603683
-0.4726095838523179,-0.4726095838523179,1.0000153362804274,0.00015100640496180684
-0.47250119300661025,-0.47250119300661025,1.000279363564054,0.00015999255633038285
-0.47241948456066896,-0.47241948456066896,0.9998885660205366,0.00015309113767739246
-0.4723410821527068,-0.4723410821527068,0.9995717122196602,0.0001638578316357981
-0.4722118594349013,-0.4722118594349013,0.9998555718858624,0.00017583746189970168
-0.47214627103312523,-0.47214627103312523,1.000023630391103,0.00016424223203543583
-0.4720330926218594,-0.4720330926218594,0.9997437421423594,0.00015986452424172085
