time,time,flux,flux_err
-0.4999695585182053,-0.4999695585182053,0.9994081023804812,0.00043776639820491796
-0.4998896922261338,-0.4998896922261338,1.0004188138306014,0.0004192624940602085
-0.4998115464426519,-0.4998115464426519,1.0003037414627403,0.00047758566002200243
-0.4996854472898121,-0.4996854472898121,1.0002668290024248,0.0005151645614843076
-0.49957215528338567,-0.49957215528338567,1.0000421241226134,0.000428413351404823
-0.49944256987582775,-0.49944256987582775,1.0001066603333624,0.00045835801998113005
-0.4992763447713514,-0.4992763447713514,1.0003588811725677,0.0004969734102603594
-0.4991082017426379,-0.4991082017426379,0.9997858888222847,0.00042773860501809453
-0.498858660778933,-0.498858660778933,1.0000904869875895,0.000453912334160784
-0.49872545526595785,-0.49872545526595785,1.0003484002354137,0.0004339348202667853
-0.4985914609285828,-0.4985914609285828,1.0001017724474732,0.00044826830767362766
-0.4984327129648591,-0.4984327129648591,1.0002501688004664,0.0004630011519125354
-0.49831851892595297,-0.49831851892595297,0.9998381413557075,0.0004883523493808106
-0.49812344065649083,-0.49812344065649083,1.000123353599355,0.0004496640131177286
-0.49798904177805525,-0.49798904177805525,1.0000005262676372,0.00047127950652910724
-0.49787554227004877,-0.49787554227004877,1.0003442788565526,0.00047053018089511674
-0.49770129388416534,-0.49770129388416534,0.999493467969302,0.0005000099537242581
-0.4975715407563257,-0.4975715407563257,0.9997353522649947,0.00044749997506528884
-0.4974504557030741,-0.4974504557030741,1.0005360234936418,0.0004754732040700778
-0.49734187088979526,-0.49734187088979526,0.9998058001694984,0.0005122743224303404
-0.49724776389048203,-0.49724776389048203,1.0003755742028388,0.0004935127253535333
-0.4971507603950158,-0.4971507603950158,1.0000534226609012,0.0004808683135377952
-0.49700261275429514,-0.49700261275429514,1.0002800649787886,0.00047942326053289916
-0.4969064365825034,-0.4969064365825034,1.0000958421729447,0.0004857568379965153
-0.4967725334594434,-0.4967725334594434,0.999339094801822,0.00043307570759306796
-0.4966957671713317,-0.4966957671713317,1.0003640352396992,0.00047670535680990054
-0.4965300355441286,-0.4965300355441286,0.9999108455315238,0.00046133083230121463
-0.49644366922657357,-0.49644366922657357,1.000434684689632,0.00046783949728313536
-0.49632404777803457,-0.49632404777803457,1.000365490350968,0.00044436290403086613
-0.4962358485303412,-0.4962358485303412,1.0004713737598419,0.0004400691142206604
-0.4960935273622454,-0.4960935273622454,1.0004924414039251,0.00046267700623792813
-0.4959351050609257,-0.4959351050609257,0.9997425040928762,0.0004709907592775252
-0.4958241221771459,-0.4958241221771459,0.9998892815093156,0.00043833934841164165
-0.4957669508512481,-0.4957669508512481,0.9999935608236699,0.0004794071599148513
-0.49564980106297296,-0.49564980106297296,1.0000775759697749,0.00045184179313274
-0.49549184984207384,-0.49549184984207384,1.0000386488159694,0.00046492816807587107
-0.4953914194382378,-0.4953914194382378,1.0008376916364992,0.000490716053531301
-0.4953321776833036,-0.4953321776833036,1.0002221272691312,0.0004809196899365482
-0.4952639016941248,-0.4952639016941248,1.0003644869308765,0.000470225714385645
-0.49508501292730217,-0.49508501292730217,1.0006706161331895,0.0004611773163992735
-0.49496779584878825,-0.49496779584878825,0.9998066244066122,0.00048197458496295067
-0.49489913255674767,-0.49489913255674767,0.9993539433121679,0.0004686174756711602
-0.4948207214154536,-0.4948207214154536,0.9999620596741382,0.0005092918538212895
-0.4946773734140152,-0.4946773734140152,1.0006983685284392,0.0004623277760095553
-0.4945097372547025,-0.4945097372547025,0.9996833690694779,0.0004489202033249461
-0.49443206793876016,-0.49443206793876016,0.999730660220691,0.0004627313541824724
-0.494324951661838,-0.494324951661838,1.0003123717593552,0.00044551225244134855
-0.49416914969478964,-0.49416914969478964,0.9995642183168979,0.0004465285517445797
-0.49405612043265135,-0.49405612043265135,0.9997469849467983,0.0004558708140698288
-0.49388520018037524,-0.49388520018037524,1.0000898394367472,0.0004769093364150768
-0.49364371759074854,-0.49364371759074854,0.9998173979865548,0.00046457076149498115
-0.49349760526311004,-0.49349760526311004,0.9998541968942993,0.0004527944853395067
-0.4933888713138003,-0.4933888713138003,0.9995137721905507,0.0004694460400322415
-0.4932793166510237,-0.4932793166510237,0.9996809363562041,0.0004385630281272916
-0.49314247023066854,-0.49314247023066854,1.000171089799828,0.0004274533532024205
-0.4930397164869646,-0.4930397164869646,1.0000325449833114,0.00045358741313354233
-0.4928853195218835,-0.4928853195218835,0.9994707484081703,0.00048231055751377647
-0.49278237156031535,-0.49278237156031535,0.9998236379320502,0.0004444035914211067
-0.49263187508913686,-0.49263187508913686,0.9997903563699715,0.0004680910346900018
-0.49252717172057603,-0.49252717172057603,0.9997030448348477,0.0005368578526287095
-0.49243454845782253,-0.49243454845782253,1.0000992857857776,0.0004524978536246109
-0.4922953883346054,-0.4922953883346054,0.9996417631095642,0.00040890365999239907
-0.49211167126122746,-0.49211167126122746,1.0001428185781784,0.0004783828966323575
-0.49197961691752423,-0.49197961691752423,1.0000819467802275,0.0004698670549347061
-0.49190427983703555,-0.49190427983703555,1.0002981123362422,0.0004332630239229413
-0.4917863424518146,-0.4917863424518146,0.9997719977527609,0.000455327977584204
-0.49168589431283183,-0.49168589431283183,1.0000594942003562,0.00046969356666682347
-0.49160279131829154,-0.49160279131829154,0.9997019172137522,0.0005318101973381429
-0.4914599846022611,-0.4914599846022611,0.9993412107540504,0.00044081047469877375
-0.49135753521550213,-0.49135753521550213,1.000167547375154,0.0004378997895767697
-0.4912906940189714,-0.4912906940189714,1.000440614624957,0.000438967370872437
-0.49112954794763936,-0.49112954794763936,0.9997547731156882,0.00048010387890428264
-0.49096791171396037,-0.49096791171396037,0.9996007445385512,0.0004193399393632339
-0.4908530152402818,-0.4908530152402818,1.0000482236154578,0.0004352066667162215
-0.49069748000983965,-0.49069748000983965,0.9995625944040951,0.0004367737678907053
-0.49058565878949595,-0.49058565878949595,0.9999361729116814,0.00045998978128788546
-0.49049101490090835,-0.49049101490090835,0.9996962345026444,0.00044280486258803375
-0.49041366796664076,-0.49041366796664076,1.0002340680036592,0.00044137008969972704
-0.4901987714911229,-0.4901987714911229,1.000173798932027,0.0005016825294894635
-0.4900546204611601,-0.4900546204611601,1.0006584414499966,0.0004606095170408527
-0.4899438537315291,-0.4899438537315291,1.000473202999435,0.00046119627725629093
-0.48981566926522646,-0.48981566926522646,0.9995748155868988,0.0004483258890529967
-0.4896733091598435,-0.4896733091598435,1.0000822578475053,0.0004368837118722617
-0.4895447687646083,-0.4895447687646083,1.0002027755250595,0.0004809508422264176
-0.48940442129969597,-0.48940442129969597,1.000335636082774,0.0004689553386517978
-0.4892364391904266,-0.4892364391904266,1.0003293205204618,0.0004857840710974754
-0.48909150203035096,-0.48909150203035096,1.0003009763104305,0.00046126931271306073
-0.48892644964143983,-0.48892644964143983,0.9993914219503095,0.00045590436106227543
-0.4887724597814668,-0.4887724597814668,1.0000270055951728,0.00042345531568354
-0.4885789083105919,-0.4885789083105919,0.9995151460817541,0.00042194401160037913
-0.48843979353041506,-0.48843979353041506,0.9997219270971336,0.00044369421594307935
-0.48831761322071543,-0.48831761322071543,0.9996865038249897,0.00046410268299748
-0.48820351816539187,-0.48820351816539187,1.000021710615759,0.00047923921559069066
-0.4880570327761234,-0.4880570327761234,0.9991806085037235,0.0004381056780647123
-0.4879401320227771,-0.4879401320227771,0.999646882800582,0.0004617793861163193
-0.4878582511249988,-0.4878582511249988,0.9999195700435208,0.00047044095733124474
-0.4876927916353452,-0.4876927916353452,0.9998517915714217,0.0004371675243403236
-0.4875720082411135,-0.4875720082411135,0.999577884827592,0.00046181891268079
-0.4874249526961648,-0.4874249526961648,0.9995123211442856,0.0005028008417943882
-0.4873009384369652,-0.4873009384369652,1.0001598172190742,0.0004998365995569199
-0.4872052535451076,-0.4872052535451076,0.9999515873559701,0.00044050190175670977
-0.487097461054509,-0.487097461054509,1.000440085467889,0.0004662850314517496
-0.4869629844011797,-0.4869629844011797,1.0000719753610745,0.00043041571823343336
-0.48681194384771515,-0.48681194384771515,0.9999033835073134,0.0005361156863100101
-0.48669180950309965,-0.48669180950309965,1.0007784827121053,0.00041135407150817515
-0.4866515214613173,-0.4866515214613173,1.0005927227626468,0.00045256425006880526
-0.48658481833845146,-0.48658481833845146,0.9996052465787486,0.0004616608302978221
-0.48643465969289534,-0.48643465969289534,1.0001979157541565,0.000431794111881574
-0.4863678852445446,-0.4863678852445446,1.000436219199507,0.0004973359403340484
-0.4862478613671556,-0.4862478613671556,1.000210954176341,0.000445968120092531
-0.4861568446300225,-0.4861568446300225,0.9999248720549951,0.0004625028989225303
-0.4860221130235004,-0.4860221130235004,0.9994921377744644,0.0004647273464961778
-0.4858955936288112,-0.4858955936288112,1.0007340909180715,0.0004929712415891848
-0.4857306609446823,-0.4857306609446823,0.9999486503039146,0.00048402075434625803
-0.48566386787060767,-0.48566386787060767,1.0002251845495849,0.0004821636088167061
-0.4855676320119528,-0.4855676320119528,0.9996582014005405,0.0004049766394367973
-0.4854535430000396,-0.4854535430000396,0.9992757222216087,0.0004290275288356558
-0.4853361454705009,-0.4853361454705009,0.999961883790027,0.0004539954799317457
-0.48524473122379275,-0.48524473122379275,1.000655472099108,0.0005022070907878602
-0.48519785302414675,-0.48519785302414675,1.0002592082397759,0.0004505441882744414
-0.4850636987415783,-0.4850636987415783,0.9996591852352156,0.0004449313457662965
-0.484956124179007,-0.484956124179007,0.9998684256825138,0.00041270255483436024
-0.4848710949831002,-0.4848710949831002,1.000301028148207,0.0004281897818674316
-0.4848005406347511,-0.4848005406347511,1.0002493863371131,0.00045786414027044824
-0.4847498924224055,-0.4847498924224055,1.0004224469951413,0.0004685414164968503
-0.4846639168761612,-0.4846639168761612,1.0003443158657,0.0005174014001212973
-0.4845519814924046,-0.4845519814924046,1.000431813397912,0.00042254669531571434
-0.48442588043253637,-0.48442588043253637,0.9996516078251625,0.00043812219284356717
-0.48431867999679523,-0.48431867999679523,1.0001512863730462,0.0004729839637633567
-0.4842305634309014,-0.4842305634309014,1.0008295025362146,0.00043666621803018673
-0.48408449483758886,-0.48408449483758886,0.9998313819159733,0.00045168202537685976
-0.4839705965445319,-0.4839705965445319,0.9999579899027335,0.0004620208146084089
-0.4838778240708052,-0.4838778240708052,1.0001284495414975,0.0004239518200892507
-0.4836515622671868,-0.4836515622671868,0.9997097315626939,0.0004796405560790911
-0.4834504747595929,-0.4834504747595929,1.0000614201434024,0.00045581967087908297
-0.4833122768701287,-0.4833122768701287,0.9994476236084315,0.0004509467271035106
-0.4832332958969346,-0.4832332958969346,0.9997809253378621,0.00045591077997193493
-0.48311340124637353,-0.48311340124637353,0.999777653062026,0.00043983968253672075
-0.48302904994197887,-0.48302904994197887,0.999822521846642,0.0004290254674009056
-0.4829425138173974,-0.4829425138173974,0.9996465719913598,0.0004781600640982525
-0.48281297730281947,-0.48281297730281947,0.9999442367959419,0.0004265097176811704
-0.4827077733898477,-0.4827077733898477,0.9999698342781299,0.00048222830902333965
-0.48259775054830245,-0.48259775054830245,0.9993542674054421,0.0005168614797108385
-0.4824445886479225,-0.4824445886479225,1.0000132922227705,0.00046563864162365654
-0.4822632287759916,-0.4822632287759916,1.0005033884257497,0.0004720246473787374
-0.4820983016899845,-0.4820983016899845,0.9998274226528793,0.00044505991467377263
-0.4819849725179665,-0.4819849725179665,1.000350803208041,0.0004986962197117029
-0.48186038591447866,-0.48186038591447866,1.0002124681033728,0.0004705717258763292
-0.4816859255704912,-0.4816859255704912,1.0001227580884724,0.000472932350918688
-0.48152971877643724,-0.48152971877643724,1.0001892495611002,0.0004968161728269333
-0.4814062811441545,-0.4814062811441545,1.0001301838479495,0.0005177602869288285
-0.4813030011231604,-0.4813030011231604,1.0004055785337658,0.0004248192320358369
-0.4812145237912773,-0.4812145237912773,0.9999495089470605,0.0004372602887400613
-0.48103610026591925,-0.48103610026591925,1.000078130665893,0.0004822013222482873
-0.48083972072927283,-0.48083972072927283,1.0002484314106934,0.000428717938521194
-0.4807675818941789,-0.4807675818941789,1.0007080149887464,0.0004598332672914966
-0.48063664886140034,-0.48063664886140034,0.9991712780885778,0.0004633740772136574
-0.4804831147812365,-0.4804831147812365,1.0003600272727664,0.00045379860729784455
-0.48040267767646583,-0.48040267767646583,0.999707781994932,0.00044988476056603973
-0.4803361463746114,-0.4803361463746114,0.9998891513785619,0.0004347134624423588
-0.48015159348142333,-0.48015159348142333,1.0005199901913997,0.0004491034886895533
-0.4800144434411777,-0.4800144434411777,0.9998194013430968,0.0004393598397933059
-0.47990508354341727,-0.47990508354341727,1.0009867212911747,0.0004764502683371233
-0.4798223273995973,-0.4798223273995973,1.0001240562777562,0.0004496452803330568
-0.4796463676393614,-0.4796463676393614,0.9998194762974331,0.00045726881345135124
-0.4795684442986385,-0.4795684442986385,0.9998714726232556,0.0004332246154976271
-0.47946605116230784,-0.47946605116230784,1.000001199756754,0.0005066275618880682
-0.47937239939783466,-0.47937239939783466,1.0001288614728794,0.00045305688315225935
-0.4791964401716541,-0.4791964401716541,0.9996861875324488,0.0004807743078357078
-0.4790889046264056,-0.4790889046264056,0.9999559226473675,0.00045649393001611553
-0.4790068578760838,-0.4790068578760838,1.0003015695917035,0.00045657033970151524
-0.478783886601741,-0.478783886601741,1.0001825413328103,0.0004775383721926887
-0.47868310417907195,-0.47868310417907195,0.9995035183399213,0.00044299609126434984
-0.4785629538724606,-0.4785629538724606,1.0000487256968948,0.0004398889298024279
-0.4784309977796511,-0.4784309977796511,0.9991997476933685,0.0004980648121623678
-0.4782758691129857,-0.4782758691129857,1.000088949508917,0.0004833113086767987
-0.4781683291825175,-0.4781683291825175,0.9995937844122622,0.0004664862891142735
-0.47809273775856126,-0.47809273775856126,0.9996152048610909,0.0004545854228015805
-0.47797171761631035,-0.47797171761631035,0.9995372851847177,0.00044092889312673017
-0.4778527819646115,-0.4778527819646115,1.0000580576832432,0.0004379590550664749
-0.47777677366757415,-0.47777677366757415,0.9994771757523896,0.0004795369032123102
-0.47753125975941657,-0.47753125975941657,0.9997808448872971,0.00047960756031092234
-0.47742350031039676,-0.47742350031039676,0.9997721002023979,0.00044223241765856315
-0.4773100767561118,-0.4773100767561118,0.9996772251735176,0.0004989342471249942
-0.47721109095728026,-0.47721109095728026,0.9998525949584172,0.0005044332871689684
-0.4770767262976733,-0.4770767262976733,0.9998540308562198,0.0005074637190861807
-0.4769969102824689,-0.4769969102824689,1.0004266311325345,0.00047833619773940536
-0.4768534309703682,-0.4768534309703682,0.999701677056269,0.0004626439644432622
-0.4766757534882345,-0.4766757534882345,1.0001615808200708,0.0004923900643764747
-0.4765857144317124,-0.4765857144317124,0.999832512554217,0.00043705227760746756
-0.47650975824071795,-0.47650975824071795,1.0001792086941452,0.00045415828705579994
-0.4763902207596402,-0.4763902207596402,0.9994505059909095,0.0004471535299011029
-0.47628055999884966,-0.47628055999884966,0.9996361217268068,0.00048669487108712797
-0.4761888781678863,-0.4761888781678863,0.9996231555590567,0.0004144732521431523
-0.47604282088432226,-0.47604282088432226,0.9998161597735477,0.00046137071411008217
-0.47593366681830956,-0.47593366681830956,0.9994728723649665,0.0004172038065839119
-0.4758029638447624,-0.4758029638447624,0.9996318315552649,0.00047881765285020156
-0.4756321954257146,-0.4756321954257146,0.9998217069696558,0.00046180082149201623
-0.4755200821658946,-0.4755200821658946,1.000582024831499,0.0004364563673121061
-0.47538055172917665,-0.47538055172917665,1.00041807905354,0.0003993711103428288
-0.4752894365032262,-0.4752894365032262,0.9992694121575862,0.0006369153115715029
-0.47514482877450065,-0.47514482877450065,0.9999258312831625,0.00047978747623893416
-0.4750747288548155,-0.4750747288548155,0.9997261041443938,0.0004514776467095082
-0.47491756153394815,-0.47491756153394815,1.0004641884561127,0.0004292074711314571
-0.474798154040036,-0.474798154040036,0.9993348231093127,0.00045736220355291205
-0.47468952667913983,-0.47468952667913983,0.999778313541646,0.00046281297373956863
-0.4745746696360584,-0.4745746696360584,0.9996404834276348,0.0005181452501575636
-0.4744128041478689,-0.4744128041478689,1.0003379953401008,0.0005228418117432451
-0.4742913237481844,-0.4742913237481844,1.0004498118335001,0.0005148086685305978
-0.4742225651847548,-0.4742225651847548,1.0000606064456914,0.0004564375035020625
-0.4740969784164918,-0.4740969784164918,1.0009997820675007,0.0004389532930135229
-0.47398786919293345,-0.47398786919293345,1.0001935760566145,0.00045414146966057034
-0.47387909118551763,-0.47387909118551763,1.000059283134733,0.00048729144241817305
-0.4737452154229686,-0.4737452154229686,1.0001949263226644,0.0004986629576994693
-0.4735007366442005,-0.4735007366442005,0.9999529817575518,0.00044527435758729024
-0.4733906292349275,-0.4733906292349275,0.9999629307831397,0.00046136095229764245
-0.47328829531543304,-0.47328829531543304,1.0004232688318342,0.0004189662584805057
-0.47317842438424124,-0.47317842438424124,0.9994226091261595,0.0004424486414361884
-0.4730210469839221,-0.4730210469839221,1.0005255295076545,0.0004981154770915782
-0.4729028504800226,-0.4729028504800226,0.9999981868740558,0.0005002895872876361
-0.4727929109307297,-0.4727929109307297,0.9998763586613361,0.000423046859689188
-0.4726763006183319,-0.4726763006183319,1.0005209099099868,0.000436916455344562
-0.4725959134193545,-0.4725959134193545,1.0000732826482654,0.00048341350625207366
-0.4724417820973031,-0.4724417820973031,0.9994380435826973,0.00046480591346544634
-0.4722810313316586,-0.4722810313316586,1.000373755596886,0.0005000846453699421
-0.4721429778546735,-0.4721429778546735,0.9999163417173949,0.0004621213689083406
-0.47200981949063137,-0.47200981949063137,0.9995899882494481,0.0004818861985284186
-0.47194517936150077,-0.47194517936150077,0.9999446961616114,0.000501627017444727
-0.4718313798970485,-0.4718313798970485,1.0000571177199764,0.0005029585058065016
-0.4716236831722199,-0.4716236831722199,1.000264332900875,0.000467862127291098
-0.4715083523049543,-0.4715083523049543,0.9995346125930429,0.0004868921173030856
-0.4713725320165395,-0.4713725320165395,1.000506788557347,0.0004750534452951277
-0.4712543240915693,-0.4712543240915693,1.0000530331933493,0.00046952415139518586
-0.47112626409652875,-0.47112626409652875,1.0000424396271865,0.00045317576669862716
-0.4709724097061553,-0.4709724097061553,0.9999260918701898,0.00043497129192879
-0.47087452050400314,-0.47087452050400314,0.9999306144841238,0.000512482381746553
-0.470718428541295,-0.470718428541295,1.0002883385581272,0.0004387817081141528
-0.47061991578739254,-0.47061991578739254,0.9996445333074684,0.0004606306502088715
-0.4704489472533169,-0.4704489472533169,0.9998474141175866,0.00048131824988635754
-0.47036921791004715,-0.47036921791004715,1.0003712126475142,0.0004328547881478417
-0.47026715193278507,-0.47026715193278507,1.0004419668818993,0.00044778173131890806
-0.4700960701367876,-0.4700960701367876,1.0006301548746985,0.0005225881807674382
-0.469963972230471,-0.469963972230471,0.9995242073806754,0.000438578210277632
-0.46987190630825354,-0.46987190630825354,1.000826862421288,0.0004692009684973455
