time,time,flux,flux_err
-0.49943265841344936,-0.49943265841344936,1.0001697689871498,0.00021436925030054655
-0.49872138372181024,-0.49872138372181024,1.0000412084784172,0.00021736110560557887
-0.4977951288771389,-0.4977951288771389,1.0001223416879041,0.00021326482998272432
-0.49664408503304003,-0.49664408503304003,1.0000418530312571,0.0001963475190768197
-0.4957616992054682,-0.4957616992054682,0.9996540965448546,0.00019651255800784973
-0.4951710185247066,-0.4951710185247066,0.9999028469600489,0.00019927515387661848
-0.49434699937482945,-0.49434699937482945,1.0001126379886864,0.0001992073200215015
-0.49380913974600843,-0.49380913974600843,1.0003809649168152,0.0001951800093993451
-0.49294287659722613,-0.49294287659722613,0.9998842666430313,0.00019771555501823021
-0.49227051344132633,-0.49227051344132633,0.9999979415158462,0.00019592509122586308
-0.4916421678077313,-0.4916421678077313,1.0002431386801325,0.00019639624720493306
-0.49090730831740076,-0.49090730831740076,1.0000579467758692,0.00019548976253182474
-0.4903528426024423,-0.4903528426024423,1.0002174643859703,0.00019706110802459342
-0.4893395940744085,-0.4893395940744085,0.999903711529395,0.00019772887934409351
-0.4888657967101608,-0.4888657967101608,1.0000720681433868,0.00019828409199591014
-0.48836433790056616,-0.48836433790056616,1.000025673746815,0.00019650985558986278
-0.4873824132628215,-0.4873824132628215,1.0002907856314889,0.00019823790764761772
-0.4866247740632389,-0.4866247740632389,1.0000445805639022,0.00019697268650018305
-0.4861931411811383,-0.4861931411811383,0.9999692466913709,0.0002007134776997032
-0.48540946364591947,-0.48540946364591947,0.9999295372914544,0.00019716933431510882
-0.48451672739465723,-0.48451672739465723,1.0002042481429019,0.00019503792739806292
-0.4835501151064818,-0.4835501151064818,0.9998987639003467,0.0001969732317587286
-0.4823399002852966,-0.4823399002852966,0.9998784130447259,0.00019611048494615297
-0.48182885525820895,-0.48182885525820895,0.9998827373259853,0.00019715039566355584
-0.4809815023931151,-0.4809815023931151,0.9998803333745888,0.0001981593190224672
-0.4802024553173396,-0.4802024553173396,0.9996863736500681,0.00019500711760225923
-0.4796973542390333,-0.4796973542390333,1.0001769237696199,0.00019613519471226685
-0.4791422789960052,-0.4791422789960052,1.000205186480975,0.00019619141218841577
-0.4783655879276921,-0.4783655879276921,1.0001896037407527,0.00019617424423365042
-0.47750347938999765,-0.47750347938999765,1.0000611420318855,0.00020121788034000191
-0.4768316940571822,-0.4768316940571822,1.000006817115257,0.0001940801639416306
-0.4762492675421527,-0.4762492675421527,0.9999239978910236,0.0001960943780647587
-0.47570638443285135,-0.47570638443285135,1.000159308313191,0.00019506596848550993
-0.47493451209666093,-0.47493451209666093,1.0003407226477585,0.000194227989043826
-0.47446081000525736,-0.47446081000525736,0.9999026829782984,0.00019501709925706564
-0.473757802608452,-0.473757802608452,1.00003709127772,0.00019908235975514386
-0.47252936665463496,-0.47252936665463496,0.9997232270638753,0.00019643195735226474
-0.47155412037900535,-0.47155412037900535,0.999951382621771,0.00019600796611837272
-0.4708500941233069,-0.4708500941233069,1.0000409074482106,0.00019752687487443774
-0.46999907923527645,-0.46999907923527645,0.9999537545574574,0.00019655854795570647
-0.46929551179055123,-0.46929551179055123,0.9999418155252895,0.00019528535632256101
-0.46853677303079166,-0.46853677303079166,0.9998983350500913,0.00019696307187074807
-0.4676221269386588,-0.4676221269386588,1.0001509003920632,0.00019649291304829288
-0.4666809475253103,-0.4666809475253103,1.0002415851839919,0.00019846540235041518
-0.46598920622709555,-0.46598920622709555,1.0000426306651198,0.00019634985947349074
-0.46499032364299636,-0.46499032364299636,1.0003190573198535,0.00019802375333394183
-0.4645145595568465,-0.4645145595568465,0.9997881827245207,0.00019653223715917402
-0.4639290846374934,-0.4639290846374934,1.0001192202272133,0.00019768315640520577
-0.462916474994563,-0.462916474994563,1.0000450231671876,0.00019820201289713667
-0.461905543859757,-0.461905543859757,0.9999006752012095,0.00019612817564458688
-0.46108139001808013,-0.46108139001808013,1.000057841409143,0.00019707579863793427
-0.46022547608954484,-0.46022547608954484,0.9999524450716537,0.00019616161621444322
-0.45944929735778717,-0.45944929735778717,1.0000350123134532,0.00019716631812740477
-0.45824249898287234,-0.45824249898287234,1.0001626369165346,0.00019609330950069942
-0.4574584464127838,-0.4574584464127838,1.0004679406861803,0.000197158585559358
-0.4566704408171063,-0.4566704408171063,1.0001482355749505,0.0001972080714534461
-0.4556793086230755,-0.4556793086230755,0.999888176867066,0.00019714750766395235
-0.4548477475407708,-0.4548477475407708,0.999753262245008,0.00019607262739411123
-0.4540303902082087,-0.4540303902082087,1.0001756471269183,0.000194072422300042
-0.453406141907908,-0.453406141907908,0.999864943827984,0.00019721955354751202
-0.45261442317714684,-0.45261442317714684,0.9997241230499748,0.00019516695690848494
-0.4516605291973974,-0.4516605291973974,0.999833138161563,0.00019725929045830357
-0.4508433787646936,-0.4508433787646936,0.9999375811600798,0.0001972789428192601
-0.45012813991343137,-0.45012813991343137,0.9999954492247441,0.0001963966333348182
-0.44922305805885115,-0.44922305805885115,0.9998532399713216,0.0001940045575619049
-0.4484988510688709,-0.4484988510688709,0.9999260988536122,0.0001975757522871821
-0.44762613118218725,-0.44762613118218725,0.9999874047493978,0.00019731265061237278
-0.44703061895197604,-0.44703061895197604,0.9998552643953247,0.0001966294004160893
-0.44610050740884616,-0.44610050740884616,0.9999822856047855,0.00019667831789133396
-0.4453635397076141,-0.4453635397076141,1.0001267235021636,0.00019698573038906116
-0.4445838334984728,-0.4445838334984728,1.0000649678577633,0.00019965971638220278
-0.44396427682368084,-0.44396427682368084,1.0001484585933706,0.00019810737039723452
-0.44340860785523545,-0.44340860785523545,0.9997412689632705,0.00019610869115836618
-0.44270768428978047,-0.44270768428978047,1.0002418237943482,0.0001992218597748578
-0.4420399064249068,-0.4420399064249068,1.0000555737095806,0.00019851523902280252
-0.441119662510755,-0.441119662510755,1.0003815375152698,0.0001964862329401897
-0.44032046516003903,-0.44032046516003903,1.0001899865141524,0.00020081750765745302
-0.4396190298226429,-0.4396190298226429,0.9998213163080617,0.00019612598670306082
-0.43890921955899104,-0.43890921955899104,1.0001630095526572,0.0002025364038912565
-0.43830775286551216,-0.43830775286551216,1.0001270992035525,0.00020358436343542158
-0.4374251393499435,-0.4374251393499435,1.0002365365875339,0.0001961066910388149
-0.43625682807396515,-0.43625682807396515,1.0000633618498271,0.00019713694885328646
-0.43524368384460105,-0.43524368384460105,1.0001122280891124,0.00019616663362483723
-0.4342545719628106,-0.4342545719628106,1.0001464439369827,0.00019616117646564001
-0.4333983662858373,-0.4333983662858373,0.99969753373368,0.0001950407038001848
-0.43262790482476704,-0.43262790482476704,0.9999496376531853,0.0001950838572607179
-0.43205636212660464,-0.43205636212660464,1.0001492973027708,0.00019508413379925644
-0.4313587274227757,-0.4313587274227757,1.000116820835729,0.0001961383765890941
-0.43048727550558397,-0.43048727550558397,1.000060014854067,0.0001960917897577803
-0.42950501315426665,-0.42950501315426665,0.9998838872997698,0.00019505819065095443
-0.42879977162083377,-0.42879977162083377,1.0000593029094298,0.0001961213971131651
-0.4281222586665535,-0.4281222586665535,0.9998260144748651,0.00019573501744278004
-0.4274546927335905,-0.4274546927335905,0.9999014035991085,0.00019505033648431366
-0.42670828558839274,-0.42670828558839274,1.0001067937514698,0.00019531259934496645
-0.42580043255074995,-0.42580043255074995,0.9997658056988488,0.00019757024735090099
-0.4251571269494889,-0.4251571269494889,1.0000778278307019,0.00019699735665711888
-0.42443466315598927,-0.42443466315598927,1.0000538819188685,0.00019536563087780697
-0.4235047486698022,-0.4235047486698022,1.0000213959229556,0.0001988436869800189
-0.42284601738647326,-0.42284601738647326,1.0001984637352674,0.00019420036726991118
-0.42214830774464646,-0.42214830774464646,1.0002484775747564,0.00019641736726433383
-0.42160690791497474,-0.42160690791497474,0.999989815340444,0.00019540160061674028
-0.4208869147427322,-0.4208869147427322,0.9998767341942362,0.0001951236310907867
-0.41973043490434064,-0.41973043490434064,1.0000606165213646,0.0001960753970462035
-0.41911568084033207,-0.41911568084033207,0.9999565821545451,0.00019680631020547044
-0.41814188522475887,-0.41814188522475887,0.9995409664618397,0.00019815846614152686
-0.41760475106639205,-0.41760475106639205,0.9999020123259819,0.00019748161806072418
-0.41694314569904234,-0.41694314569904234,0.9998899924781091,0.00019802358378606986
-0.41590509001762255,-0.41590509001762255,0.999906634236386,0.000198603263195688
-0.4150781175754673,-0.4150781175754673,1.0002958448073649,0.00019618377447920562
-0.41452708176802844,-0.41452708176802844,1.0000263782435441,0.00019810110508452177
-0.413411439054471,-0.413411439054471,1.000202802017273,0.00019576850036555682
-0.41276294990311724,-0.41276294990311724,1.000316599449394,0.00019614454355297329
-0.4121320656609896,-0.4121320656609896,1.000282147165707,0.00019610151258222706
-0.4114044008383644,-0.4114044008383644,1.000050650292676,0.00019816235193553358
-0.4107378352615342,-0.4107378352615342,0.99999935062976,0.00019505182465387984
-0.410068800944282,-0.410068800944282,0.9999379791049939,0.0001961561643041716
-0.40919024914401236,-0.40919024914401236,1.000225324273026,0.00019612744161581538
-0.4083961774587806,-0.4083961774587806,0.9999233265288714,0.00019508087637496151
-0.4073823798229569,-0.4073823798229569,0.9999310954472904,0.00019401230224598036
-0.4066926167120982,-0.4066926167120982,0.9998190276919476,0.0001960681223147376
-0.40593427554122175,-0.40593427554122175,0.9999557591751878,0.00019515944302932092
-0.40503273443391663,-0.40503273443391663,0.999984348677551,0.00019625527230399798
-0.40438016236148544,-0.40438016236148544,0.9999902049188435,0.00019734224028387194
-0.40357796945900193,-0.40357796945900193,0.9999014632684805,0.00019610406658869583
-0.40273329571500655,-0.40273329571500655,0.9999406355837517,0.00019535569910338548
-0.40154834405111617,-0.40154834405111617,0.9997350399512367,0.00019758138589476732
-0.4001995938248001,-0.4001995938248001,0.9997959514455953,0.00019666735623348944
-0.3992949980180128,-0.3992949980180128,0.9999556449571075,0.00019803902129515382
-0.3984472731666756,-0.3984472731666756,0.9997730126630608,0.0001986442614388222
-0.39794345269183395,-0.39794345269183395,1.0001087060946832,0.00019558962671316037
-0.39710518544379736,-0.39710518544379736,1.0004071804081065,0.00019836645779040433
-0.39655245750618634,-0.39655245750618634,0.999823242238131,0.0001952556344919879
-0.39560659047201624,-0.39560659047201624,0.9998026460676295,0.00019785466940555108
-0.3951049092458561,-0.3951049092458561,1.0001771807359732,0.0001972434057473122
-0.3943030336798984,-0.3943030336798984,0.9999317489965772,0.0001964858995367926
-0.39350997709771035,-0.39350997709771035,0.9998932633986175,0.00019782354154491028
-0.39280026862688827,-0.39280026862688827,1.0002386291826613,0.0001994218316989948
-0.3921245430239651,-0.3921245430239651,0.9999945096889089,0.00019980352407730114
-0.39117954875400757,-0.39117954875400757,0.9998161708708656,0.00019394553468410136
-0.3906923258597089,-0.3906923258597089,1.0000983184656207,0.00019719525751675493
-0.38996444275107933,-0.38996444275107933,0.9999156475395446,0.0001960936977255609
-0.38904523669189073,-0.38904523669189073,1.0000071625012346,0.00019718037940468086
-0.3879778209455253,-0.3879778209455253,0.9998668562996791,0.0001971711984797066
-0.38716243637827574,-0.38716243637827574,0.9998458296478212,0.00019716285249486116
-0.3860072262817994,-0.3860072262817994,1.0001381637820694,0.00019617152169763803
-0.3850255294746603,-0.3850255294746603,0.9999310004902048,0.00019716250646931196
-0.3844203653185104,-0.3844203653185104,0.9999836562901866,0.0001950794534235131
-0.38373288978546044,-0.38373288978546044,1.0001901884920614,0.00019735470395313182
-0.3828621747008583,-0.3828621747008583,0.9998023650342616,0.0001951901961147992
-0.38226191512003427,-0.38226191512003427,0.9999773220726217,0.00019727443683790905
-0.381510236961185,-0.381510236961185,0.9999788639504932,0.00019622764240561993
-0.380580649337935,-0.380580649337935,0.9999513018363066,0.00019534873351202984
-0.3797581040213117,-0.3797581040213117,1.00024862199412,0.0001961292885351006
-0.3790474071429344,-0.3790474071429344,0.9996687377574303,0.0001986155840627437
-0.3779991569244885,-0.3779991569244885,1.0001087252268899,0.00019541562895450761
-0.37718827063945354,-0.37718827063945354,0.9999017096878731,0.00019783530657886908
-0.37630490870360517,-0.37630490870360517,0.9999271169049788,0.00019636791142675598
-0.3754262895199645,-0.3754262895199645,0.9999112995797015,0.00019701239108971426
-0.3747861175099388,-0.3747861175099388,0.9998889017562214,0.0001954309604638516
-0.3741000671856455,-0.3741000671856455,0.9999208248889758,0.00019658784934696306
-0.37326348990463887,-0.37326348990463887,1.000242894280715,0.00019831402490304824
-0.3726460861362284,-0.3726460861362284,0.9998383743899192,0.00019664451069915616
-0.37230760336242386,-0.37230760336242386,0.9996565273888779,0.00019678501724363203
-0.3714144966950698,-0.3714144966950698,1.0003809730142708,0.00019645808605277303
-0.3705701460756245,-0.3705701460756245,1.0001531386992615,0.00019722572438407864
-0.3700863712125283,-0.3700863712125283,1.0001765212049007,0.00019913364850753057
-0.3696425573376473,-0.3696425573376473,1.0002837835016614,0.00020065028102864477
-0.3688966493362386,-0.3688966493362386,1.0000886802862958,0.00019717021925756651
-0.368204838764359,-0.368204838764359,0.9999507304879234,0.00019878944399439013
-0.36738972272360115,-0.36738972272360115,0.9999880538182004,0.00019698318728405471
-0.3661634465053794,-0.3661634465053794,0.9999248315879827,0.00019506014523570196
-0.3656239772324625,-0.3656239772324625,0.999822868755442,0.00019712616482600332
-0.36468442380501076,-0.36468442380501076,1.0002598427556892,0.00019504056522463798
-0.3637404513960064,-0.3637404513960064,0.999873949281851,0.0001950557535344222
-0.3629559145141684,-0.3629559145141684,0.9999242227660972,0.00019512129041365995
-0.3622043672738073,-0.3622043672738073,0.9996998692672994,0.00019719575317841994
-0.36132985885196833,-0.36132985885196833,1.0001396706152486,0.00019610462525208611
-0.3606898851445294,-0.3606898851445294,1.000109212493533,0.00019514585358787392
-0.3600292934534082,-0.3600292934534082,1.0000797986637724,0.00019613193002767943
-0.35940409101822296,-0.35940409101822296,0.9999262343380776,0.00019505786438627333
-0.35859689661956506,-0.35859689661956506,0.9999567957514859,0.00019414928100939307
-0.35809156370160056,-0.35809156370160056,0.9998546539072294,0.00019504168447962225
-0.3572086328647856,-0.3572086328647856,1.0001612712198604,0.00019738478069551376
-0.35599856279368397,-0.35599856279368397,1.0000126087495627,0.00019648925471426633
-0.3549815948419564,-0.3549815948419564,1.0002172882901932,0.00019690991931564346
-0.35433760782470924,-0.35433760782470924,0.9999210733836051,0.0001961013536073193
-0.353582094774174,-0.353582094774174,1.00003767360815,0.00019679009757932365
-0.35256982088176303,-0.35256982088176303,1.000269387571076,0.00019536218567399073
-0.35188423790968953,-0.35188423790968953,1.000282555045993,0.00019810712315126996
-0.35125503573508465,-0.35125503573508465,1.0000187065448358,0.00019510100572439789
-0.35037792150469615,-0.35037792150469615,1.0001643993624725,0.00019847327749321835
-0.3498182133116643,-0.3498182133116643,1.0000185702079571,0.0001957199710697086
-0.3490788841925678,-0.3490788841925678,1.0000251868815635,0.00019707571982029168
-0.34840145205380396,-0.34840145205380396,0.9998533148175591,0.00019776539268410816
-0.34770344133430625,-0.34770344133430625,0.9999605625332144,0.00019731464786544424
-0.3464048055393505,-0.3464048055393505,1.0002295512876098,0.00019811900357605714
-0.3454925260077289,-0.3454925260077289,0.9998667944373965,0.0001961280902441493
-0.34458706343793893,-0.34458706343793893,0.9999287682310303,0.00019709453907271334
-0.343912147613446,-0.343912147613446,1.0001116512955002,0.00019616299480484223
-0.34324875865495413,-0.34324875865495413,1.0001274272871252,0.0001961224482458029
-0.34221344325778774,-0.34221344325778774,1.0002746776989215,0.00019717724047049138
-0.3411732976193889,-0.3411732976193889,1.000102109206066,0.00019611100235807566
-0.34038789264959635,-0.34038789264959635,0.9998121479414064,0.00019610305189977396
-0.33967949252328256,-0.33967949252328256,0.999744763353147,0.00019714232805307622
-0.33871885102198573,-0.33871885102198573,0.9998279318730099,0.00019613674870282686
-0.3380411095364252,-0.3380411095364252,0.999933594642674,0.00019698994798654756
-0.33736238617348135,-0.33736238617348135,0.9998422886176472,0.00019509036590641533
-0.33693845090674585,-0.33693845090674585,1.0002563138070832,0.00019841711830298364
-0.3362508435755444,-0.3362508435755444,1.0000724973913635,0.0001954547049772709
-0.3353571063853451,-0.3353571063853451,0.9999595366163062,0.00019728162037655652
-0.33454015778333995,-0.33454015778333995,0.9998423805565853,0.00019727103309781431
-0.33382502030653993,-0.33382502030653993,0.9997489117304035,0.00019638772608596107
-0.3329920029202185,-0.3329920029202185,0.9999513670799967,0.00019506566708086151
-0.3321955327570322,-0.3321955327570322,1.0001144330580654,0.00019757607838904803
-0.33128166190945196,-0.33128166190945196,1.0002350137777563,0.00019733284205688243
-0.3307279650900455,-0.3307279650900455,1.0001678649307562,0.00019665964893227208
-0.329797520385182,-0.329797520385182,0.9996538590579827,0.00019666217341854174
-0.32906056344290846,-0.32906056344290846,0.999941216315776,0.00019697122819490923
-0.3281457455159398,-0.3281457455159398,0.9997875606328632,0.0001986183099890163
-0.3275125214451691,-0.3275125214451691,0.99991707216116,0.00019521866215727838
-0.3267212919796293,-0.3267212919796293,0.9998873439946431,0.00019701375611719043
-0.3260386599227786,-0.3260386599227786,1.0000863245271812,0.00019853032450422382
-0.3255522015613678,-0.3255522015613678,0.9998339218252147,0.0001984957783415378
-0.3247650727244036,-0.3247650727244036,1.0000986990605678,0.00019646164492013665
-0.32394318192018545,-0.32394318192018545,0.9998388361524434,0.00019852311176994777
-0.32340181187319106,-0.32340181187319106,1.000093092583111,0.0001991880889760219
-0.3227283526510291,-0.3227283526510291,1.0001692870330667,0.00019984251230449759
-0.32202191311153,-0.32202191311153,0.999743390316717,0.00020606419051229447
-0.3211222724225081,-0.3211222724225081,0.9998034005943852,0.00019607859080133724
-0.3200736976104963,-0.3200736976104963,1.0001527155219143,0.00019719544871227152
-0.31911879369581586,-0.31911879369581586,1.000062083038549,0.0001961622733530584
-0.3179511156195076,-0.3179511156195076,1.0001742544563854,0.0001961766105133944
-0.31717935432534433,-0.31717935432534433,0.9999788720852909,0.00019608325250632534
-0.3164762218395481,-0.3164762218395481,0.9998456325935147,0.00019402128970448385
-0.31578464324265954,-0.31578464324265954,0.999907236257167,0.0001961373418454439
-0.3151387748119305,-0.3151387748119305,0.9999992910056748,0.0001951171248690638
-0.3144381455953408,-0.3144381455953408,1.0000296526341959,0.00019712279633002407
-0.3132803034830431,-0.3132803034830431,0.999923404114768,0.00019625385954382112
-0.3126076565116819,-0.3126076565116819,0.9999551761026162,0.00019507110335189172
-0.3119617705902783,-0.3119617705902783,1.0001387509408781,0.000195030026753956
-0.31121147242884034,-0.31121147242884034,0.9999905650544465,0.00019395921793515864
-0.3106134801681037,-0.3106134801681037,1.0000854307291327,0.00019636889126692028
