time,time,flux,flux_err
-0.49913968132750597,-0.49913968132750597,1.0002696182945068,0.00029539318998871944
-0.49719942082083435,-0.49719942082083435,0.999867893506447,0.0002955233142486882
-0.49534873147058534,-0.49534873147058534,0.9999178452291856,0.0002696873893988308
-0.4937335008289665,-0.4937335008289665,1.000192584582251,0.00026969849728564893
-0.4920602638652781,-0.4920602638652781,1.0001531411857614,0.000269815404740884
-0.4900674559728941,-0.4900674559728941,1.0004509093692253,0.0002697548390000305
-0.48863164410722676,-0.48863164410722676,1.0003636339837585,0.0002697343749407271
-0.4868261031777365,-0.4868261031777365,1.0000244525312905,0.0002697361911781135
-0.48520181169587884,-0.48520181169587884,0.999796462280352,0.00026964328832861366
-0.4837676712559187,-0.4837676712559187,0.9999976510802385,0.00026982316835261487
-0.4819094931401196,-0.4819094931401196,1.0000991942478699,0.0002697463839419788
-0.48038398638163926,-0.48038398638163926,0.9997072767496149,0.0002696336807347407
-0.47877716035291085,-0.47877716035291085,0.9999201046317966,0.0002697637042929082
-0.47696832186775284,-0.47696832186775284,1.0002729548395792,0.0002696808191314312
-0.4755303091587848,-0.4755303091587848,0.9999702957489335,0.00026980381251676133
-0.4737733300469699,-0.4737733300469699,0.9998567958716649,0.00026972581395345326
-0.4724259284193977,-0.4724259284193977,1.000556155515003,0.0002697168049147575
-0.4709757385819103,-0.4709757385819103,1.0002303198917986,0.0002697303516874463
-0.46923377349594375,-0.46923377349594375,0.9998752622625254,0.0002697671569473208
-0.46805542505462655,-0.46805542505462655,0.9997886987858138,0.0002696418892748306
-0.46671125899447363,-0.46671125899447363,1.0005570478280845,0.00026977972173529435
-0.46498047392087755,-0.46498047392087755,1.0001300678857938,0.0002697304280761995
-0.46379667140136005,-0.46379667140136005,1.0003748637860985,0.0002696433840394208
-0.4624161937026656,-0.4624161937026656,1.0001300492578664,0.00026971789085697537
-0.46040524831041696,-0.46040524831041696,1.000028154889506,0.00026969241006663747
-0.4592745531495893,-0.4592745531495893,0.9999054247827044,0.00026956448845721464
-0.457703896361636,-0.457703896361636,1.0001817337752406,0.00026982480332533366
-0.45593689015368,-0.45593689015368,1.0000637286508667,0.0002696225551124589
-0.4547591083945008,-0.4547591083945008,0.9997770905495654,0.0002697405129044856
-0.4524968800324132,-0.4524968800324132,0.9999985271843655,0.00026976768275165347
-0.45127578165411253,-0.45127578165411253,0.9998702541256087,0.00026967985456132664
-0.44967635786451865,-0.44967635786451865,1.000229353667915,0.00026989433063759024
-0.4477317358745495,-0.4477317358745495,0.9996434461421467,0.0002713098339596026
-0.44686931196920343,-0.44686931196920343,1.0000267476967983,0.00026965043043456263
-0.4450124678289285,-0.4450124678289285,1.0001637108242716,0.0002697729385269855
-0.44346911014436047,-0.44346911014436047,1.0006768181619532,0.00027103543053038666
-0.44260563873540376,-0.44260563873540376,0.9999830206153252,0.00026967956658586036
-0.4407519985368708,-0.4407519985368708,0.9998035837287421,0.0002699202725299457
-0.43921006368327653,-0.43921006368327653,0.9999836300248077,0.0002705026320388964
-0.4383388285830733,-0.4383388285830733,1.000022673903811,0.000269709037549872
-0.43649180647480534,-0.43649180647480534,1.0002126450889715,0.00026977961439261257
-0.4349574222462252,-0.4349574222462252,1.0001144293291626,0.00027028038386442204
-0.43431369586178337,-0.43431369586178337,1.0001957029874666,0.00026962837417535894
-0.43264364173810466,-0.43264364173810466,1.0001773081170602,0.00026983064092198365
-0.4308886709084618,-0.4308886709084618,0.9999387902690678,0.00027005117340678404
-0.430250225153577,-0.430250225153577,1.000004535550446,0.000269608859435316
-0.4288042468804633,-0.4288042468804633,1.0001267963004603,0.0002698719746926477
-0.42687833355303156,-0.42687833355303156,0.9995948419276836,0.0002696764412438069
-0.4261415210479754,-0.4261415210479754,0.9998437295038874,0.0002698605210942998
-0.4249510091904085,-0.4249510091904085,1.0006214398650264,0.0002697077418851084
-0.42312527400936234,-0.42312527400936234,1.000374766212158,0.00026981081577563465
-0.42209876790002454,-0.42209876790002454,0.9999159516145719,0.0002696885227151789
-0.42122401412489124,-0.42122401412489124,1.0001707918832836,0.0002696790068758148
-0.4192158190329792,-0.4192158190329792,1.0004074249767352,0.0002697794356698002
-0.41793023433856435,-0.41793023433856435,1.0000255024166291,0.0002696543565557501
-0.41661875740392135,-0.41661875740392135,0.9998561578116979,0.0002696889269701536
-0.4144348375077243,-0.4144348375077243,1.0002777122908812,0.00026964357633567983
-0.4131941195169929,-0.4131941195169929,0.9997660676702939,0.00026967794246677667
-0.4116063221066725,-0.4116063221066725,1.0004998924125488,0.00027224160671484405
-0.4099017555869068,-0.4099017555869068,1.0001918037321662,0.0002696799426101436
-0.40863849720626605,-0.40863849720626605,0.9999400863279966,0.0002696662941502226
-0.40693097660696365,-0.40693097660696365,1.0001316529157396,0.00027190410915953786
-0.40543416591826825,-0.40543416591826825,1.00033840714446,0.00026970650216112137
-0.40435637594928264,-0.40435637594928264,1.000026469711004,0.0002696290201370055
-0.40266344050760383,-0.40266344050760383,1.0001338719086008,0.00027141250376446575
-0.4011922706034966,-0.4011922706034966,0.9999966150294984,0.0002696705224548848
-0.4000801010071882,-0.4000801010071882,1.0001819093189361,0.0002697154438751801
-0.39839046741690254,-0.39839046741690254,1.0000370746778735,0.0002709496051154934
-0.39695068785076726,-0.39695068785076726,1.0000022509358215,0.00026969396593484935
-0.3958116387526388,-0.3958116387526388,1.0001722470839205,0.0002696499777435283
-0.39411008866300107,-0.39411008866300107,0.9999885549503486,0.00027054226281033244
-0.3927094161117566,-0.3927094161117566,1.0002789764943953,0.00026973138154383244
-0.3915434030524921,-0.3915434030524921,1.000501606408345,0.00026964480523420894
-0.3898341143722064,-0.3898341143722064,1.0001539852380783,0.0002703006299602389
-0.38832446908636487,-0.38832446908636487,1.0002476566701648,0.00026966867681242477
-0.3870329145487631,-0.3870329145487631,0.9999412402527131,0.0002696039743093277
-0.38517489404184746,-0.38517489404184746,1.000237614597527,0.0002700968681189123
-0.38355297215020984,-0.38355297215020984,0.9995713514507754,0.0002696839836598905
-0.38209290379745653,-0.38209290379745653,0.999913557546769,0.00026993013516467756
-0.3801491120204446,-0.3801491120204446,1.0001001318621745,0.00026970359111967647
-0.37864068861235867,-0.37864068861235867,1.0003380400841528,0.00026964162432566944
-0.37665896641265134,-0.37665896641265134,1.0005346972446492,0.00026990571548302756
-0.3750148396225995,-0.3750148396225995,1.000322132567178,0.0002697729868410018
-0.37318030728638407,-0.37318030728638407,0.9998389278812503,0.00026986832320975696
-0.3716132671615924,-0.3716132671615924,1.0001457667350102,0.00026970883314830774
-0.37008715994743396,-0.37008715994743396,0.9999924388283865,0.00026965122503681425
-0.36814407631463836,-0.36814407631463836,0.9997811200988101,0.00026975182802161236
-0.3664776094694389,-0.3664776094694389,0.9998844030382626,0.00026970997944737973
-0.36464347416331294,-0.36464347416331294,1.000343139768748,0.00026983676649451404
-0.36283800065575633,-0.36283800065575633,0.9999287458547164,0.0002697132544179551
-0.361227690395026,-0.361227690395026,0.9996234027632733,0.0002696194460294324
-0.3593188378858031,-0.3593188378858031,1.0000363256504134,0.00026985275717854995
-0.3575699240915128,-0.3575699240915128,0.9997889821451723,0.0002696380677486624
-0.35597721683298006,-0.35597721683298006,0.9999346646841543,0.0002697801610483148
-0.35431847736617783,-0.35431847736617783,0.9997028254386319,0.00026970663717389127
-0.3527042212619563,-0.3527042212619563,0.9999459537496465,0.00026962893417939524
-0.35122927338379667,-0.35122927338379667,1.0001413836567734,0.0002698120854008234
-0.34940115091594637,-0.34940115091594637,1.0001740208328225,0.00026970962515308975
-0.347868261912663,-0.347868261912663,0.9998849452332526,0.00026961359070627424
-0.346263932826696,-0.346263932826696,1.0000156836501244,0.0002698164570397991
-0.344458099376061,-0.344458099376061,0.9997368152992969,0.0002696297280987616
-0.3430393525763066,-0.3430393525763066,0.9999553138896531,0.0002698548521973525
-0.34123987121420213,-0.34123987121420213,1.0003206631982897,0.0002697925893125494
-0.33976411785697563,-0.33976411785697563,1.000239136326519,0.00026967645573098707
-0.33847610554948915,-0.33847610554948915,1.0000351137978716,0.0002697712586371754
-0.33662056677712826,-0.33662056677712826,1.0001284446865035,0.0002697183856418294
-0.3350907663392718,-0.3350907663392718,1.0001549283969575,0.00026968444333212856
-0.333486367065052,-0.333486367065052,1.0002653807659445,0.00026978004360651674
-0.33191370551503496,-0.33191370551503496,0.9999595942688625,0.000269636771696533
-0.3305772589577828,-0.3305772589577828,0.9999573268087378,0.0002697456295751077
-0.3287683092654333,-0.3287683092654333,1.0002724095037787,0.0002697171369387357
-0.3275195357244229,-0.3275195357244229,1.0001299079690018,0.0002696788990195337
-0.3263225624556071,-0.3263225624556071,1.0003631780114894,0.0002696131969968757
-0.3245181383725139,-0.3245181383725139,0.9998567279118596,0.0002696311801265498
-0.3232474555959925,-0.3232474555959925,1.0000601119052832,0.0002695062155771682
-0.32206809479976073,-0.32206809479976073,0.999942734229451,0.0002697477883422142
-0.31997413820645304,-0.31997413820645304,1.0002599694829584,0.0002696778350386184
-0.3187703213014174,-0.3187703213014174,1.000287700404185,0.0002695577894809544
-0.3174329295958159,-0.3174329295958159,1.0001494569653269,0.0002698199542640393
-0.31543834699259604,-0.31543834699259604,0.999947449909946,0.00026963234419068204
-0.3142476850829553,-0.3142476850829553,1.0002798715384809,0.00026966898550291287
-0.3128532304239343,-0.3128532304239343,1.000379259621078,0.0002698518067259263
-0.31087375849456295,-0.31087375849456295,0.9998031329272138,0.0002695919927137456
-0.3097108187779668,-0.3097108187779668,0.9999726376193996,0.00026966735043134396
-0.30768701471679377,-0.30768701471679377,1.0002182233376602,0.0002698004048065711
-0.30626221587881447,-0.30626221587881447,1.0001336232429465,0.00026968214022195214
-0.3048154583200812,-0.3048154583200812,0.9998008232195407,0.00026977576249856584
-0.30289030003914375,-0.30289030003914375,1.0003377451255338,0.000271043337916331
-0.3020011460408568,-0.3020011460408568,0.9997147123081411,0.0002696546139899534
-0.3005544092084165,-0.3005544092084165,0.9999759132048386,0.0002698453232738704
-0.29862545257783496,-0.29862545257783496,1.0003180842258577,0.0002706568736194352
-0.29774032041459575,-0.29774032041459575,1.0002546069684837,0.0002696246660821485
-0.2962936227471801,-0.2962936227471801,1.000015840902727,0.0002698331764249942
-0.29436082015890863,-0.29436082015890863,1.0001459476810175,0.00027043362425530326
-0.2936119810474338,-0.2936119810474338,1.0004287206837696,0.0002696665846169376
-0.29245505392900667,-0.29245505392900667,1.0002337452089978,0.00026973509177507555
-0.2903735292420606,-0.2903735292420606,1.0002465738342123,0.00026978570319843083
-0.28943087618827124,-0.28943087618827124,0.9998685985164139,0.00027009268072101633
-0.2884989028723794,-0.2884989028723794,1.000264259650506,0.00026971553659141216
-0.2864963272106252,-0.2864963272106252,1.0002202934735507,0.00026982913162400626
-0.2853064801980508,-0.2853064801980508,0.9999995065046685,0.00026989084695630436
-0.284495023470663,-0.284495023470663,0.9999509168717692,0.0002696342383051601
-0.2826811558959889,-0.2826811558959889,1.000088924667739,0.00026981326219229146
-0.28119338464457544,-0.28119338464457544,0.9998984582746637,0.0002696550038691554
-0.280464518230292,-0.280464518230292,1.0002274771149209,0.00026984405140804995
-0.2785796265932731,-0.2785796265932731,1.0001680933586101,0.0002697835885867731
-0.27714422097051283,-0.27714422097051283,0.9998441260922899,0.0002695896565474294
-0.2761816773854662,-0.2761816773854662,1.0000208159624406,0.00026964639768925237
-0.2743144350941293,-0.2743144350941293,1.0003466939388037,0.0002698020192483957
-0.27285805289429843,-0.27285805289429843,1.000196989259325,0.0002696025740186404
-0.2716598144324962,-0.2716598144324962,0.9999545088627695,0.00026964659881267004
-0.26949606764683265,-0.26949606764683265,0.9996131373365266,0.00026971216617330105
-0.2682041464271606,-0.2682041464271606,0.9999490561973463,0.0002696488375613652
-0.266669045072922,-0.266669045072922,1.0001353584140429,0.00027200402466143897
-0.26488256428856405,-0.26488256428856405,0.9999114876473172,0.00026968061413677535
-0.26379699304670795,-0.26379699304670795,0.9996666964396914,0.0002696328698942032
-0.26240111194056226,-0.26240111194056226,0.9992613190199693,0.0002715845999750906
-0.260622360711568,-0.260622360711568,1.0002143955647207,0.00026976072537798274
-0.2595334042795002,-0.2595334042795002,1.0001382613169705,0.000269648740990528
-0.2581333677313523,-0.2581333677313523,0.9999263137610568,0.00027119565213067255
-0.2563624213144067,-0.2563624213144067,1.0001741724684174,0.0002696763511681905
-0.25527007202326785,-0.25527007202326785,1.0001419148035002,0.00026968157943954097
-0.253865819357452,-0.253865819357452,1.0003517983676502,0.0002707577832591988
-0.2521027414899436,-0.2521027414899436,1.0000910889519807,0.00026961988608376563
-0.2510070108633954,-0.2510070108633954,0.9999090389395494,0.00026967589312296397
-0.24959846987912898,-0.24959846987912898,1.0004033707921398,0.0002704862539459112
-0.2478433289230452,-0.2478433289230452,0.9998928597818038,0.0002696357727108009
-0.24645182599051624,-0.24645182599051624,1.00011821978487,0.00026963476511547037
-0.24495971597352764,-0.24495971597352764,0.9995092418555753,0.00027004602730135423
-0.24304342606192222,-0.24304342606192222,1.0001585473318497,0.00026973812667506003
-0.2417313889673096,-0.2417313889673096,1.00045220924884,0.0002696714924542682
-0.23988452390476595,-0.23988452390476595,0.9999597699406287,0.0002699073313115627
-0.2382562693877844,-0.2382562693877844,0.9998179990605223,0.0002696528325659565
-0.23679765325650806,-0.23679765325650806,1.0002609964135218,0.00026989578059949317
-0.23486265928222566,-0.23486265928222566,1.000156449381935,0.0002697543878376799
-0.23333958772418556,-0.23333958772418556,1.0001131250742028,0.00026962177871280485
-0.23136889271409017,-0.23136889271409017,1.0000737936873754,0.0002699390981882245
-0.2297183949078317,-0.2297183949078317,1.0003437286476786,0.0002697513149855581
-0.22788398082193453,-0.22788398082193453,0.9999433884755689,0.0002698516466062947
-0.22604916265408975,-0.22604916265408975,0.999930275416012,0.00026966790577561555
-0.22447337697667535,-0.22447337697667535,1.000254075701195,0.00026977082211374276
-0.22253810343681835,-0.22253810343681835,0.9997625815150724,0.0002697007816668477
-0.22087123912351672,-0.22087123912351672,1.0001952779647587,0.00026973073908104163
-0.21934978878998662,-0.21934978878998662,1.0002907367148735,0.000269865609833437
-0.2175512951813289,-0.2175512951813289,0.9998577321316755,0.0002696467240765751
-0.21594027296669083,-0.21594027296669083,1.0002243940153872,0.00026958527643497585
-0.21434078975144075,-0.21434078975144075,0.9999209262965856,0.0002699379514098234
-0.21264536528324243,-0.21264536528324243,1.000014111736763,0.00026970486991376695
-0.21108306946698577,-0.21108306946698577,0.9998573621123878,0.0002697619170186649
-0.20902549308229937,-0.20902549308229937,0.999697370210861,0.0002697042104312853
-0.20740993758809054,-0.20740993758809054,0.999998725260092,0.00026963906203960594
-0.20573718751693376,-0.20573718751693376,1.000193111580546,0.00026987249619024324
-0.20374382592126494,-0.20374382592126494,1.0000149976671904,0.00026971904253294366
-0.20230941482295747,-0.20230941482295747,0.9998497558343156,0.0002697587665569447
-0.20050316583219682,-0.20050316583219682,0.999860544143434,0.00026970839956307437
-0.19887808719067834,-0.19887808719067834,1.0000548334887276,0.00026963398330694186
-0.1974452184877009,-0.1974452184877009,0.9998116596448068,0.0002697285786173167
-0.19590634882770247,-0.19590634882770247,0.9999721039902418,0.0002696936439512886
-0.194329033770191,-0.194329033770191,1.0000433717370678,0.0002696898105881384
-0.19287794733536429,-0.19287794733536429,1.0000058223883,0.00026976149737401706
-0.19094866919622291,-0.19094866919622291,1.0002970197265986,0.00026965159047208766
-0.18954362811346073,-0.18954362811346073,1.0003585515142062,0.00026980510102997716
-0.18773275390849448,-0.18773275390849448,1.0003683720180159,0.0002696756949698296
-0.1863853998191189,-0.1863853998191189,0.999974057257163,0.0002696669795700815
-0.18494792166020488,-0.18494792166020488,0.9996576923239037,0.0002697572055032399
-0.18319682734727394,-0.18319682734727394,1.0000508174842269,0.00026983108535302695
-0.18200306769140298,-0.18200306769140298,1.000042742103028,0.00026955072408700294
-0.1806903644959675,-0.1806903644959675,1.000116138663587,0.00026979584204587034
-0.17894088596949587,-0.17894088596949587,0.9995034330401076,0.00026964091692629306
-0.17774009407730773,-0.17774009407730773,1.00031104312757,0.0002696245341043998
-0.17640288432885426,-0.17640288432885426,1.0006048178333002,0.0002698185084340778
-0.17440561702242122,-0.17440561702242122,0.9998674038592087,0.0002696674365062149
-0.17321553256042535,-0.17321553256042535,0.9999008150434484,0.0002696077584517522
-0.17182488393882522,-0.17182488393882522,0.9997156630478873,0.00026975278924121486
-0.16983683002035832,-0.16983683002035832,0.9997495270104153,0.0002696291775044797
-0.16867926143313525,-0.16867926143313525,1.0003664481556602,0.00026963267330729534
-0.16665295765415067,-0.16665295765415067,1.0002008300214873,0.0002697525091686306
-0.16513482343871147,-0.16513482343871147,0.9997527938598703,0.0002696886715478363
-0.1637705664485111,-0.1637705664485111,1.0000475179598678,0.00026979728396422725
-0.1616800248491927,-0.1616800248491927,1.0001340907831031,0.0002711434178142315
-0.16079499236802802,-0.16079499236802802,1.0000106661599089,0.00026966488940683244
-0.15909515066887253,-0.15909515066887253,1.0005041081562422,0.00026979765565615573
-0.15734617226262343,-0.15734617226262343,0.999534558744881,0.0002709409111388926
-0.15652710377326,-0.15652710377326,1.0002731269292542,0.0002697284588120614
-0.1548368769857916,-0.1548368769857916,1.0001433345100583,0.00026976760354796483
-0.15308583121804986,-0.15308583121804986,0.9996129580049253,0.0002705646778252105
-0.1524278645927552,-0.1524278645927552,0.9997182673519109,0.0002695621545289573
-0.15100186336203478,-0.15100186336203478,1.0002196401649708,0.000269883992682008
-0.14906684520101407,-0.14906684520101407,1.0001549623224841,0.00027028116901743675
-0.14832852258696222,-0.14832852258696222,0.9997190282124642,0.00026963589225070773
-0.14715986558439909,-0.14715986558439909,1.000073800246503,0.000269722949684223
-0.14508596755331382,-0.14508596755331382,0.9998223742244342,0.0002698007657903383
-0.14414122178422986,-0.14414122178422986,1.0000467735981586,0.0002699083257931562
-0.14320487185177627,-0.14320487185177627,1.0000212367042407,0.0002696144204062831
-0.1412041170275188,-0.1412041170275188,1.0001359557997045,0.0002699972516622139
-0.14002332662785194,-0.14002332662785194,0.9997814960135031,0.00026979013263785134
-0.1391966012350167,-0.1391966012350167,1.0001280767157497,0.0002697095725843649
-0.13755049985338702,-0.13755049985338702,1.0003149765786146,0.00026981591575637017
-0.13610081164224538,-0.13610081164224538,1.0001864582913687,0.00026967927369295815
-0.13537705923372415,-0.13537705923372415,1.0002047692725777,0.0002697524269045962
-0.13369769789424027,-0.13369769789424027,0.9999183920746951,0.000269687043326881
-0.13206885549298022,-0.13206885549298022,1.0000744354657056,0.0002696999859695984
