time,time,flux,flux_err
-0.49984841116965983,-0.49984841116965983,0.999217276042564,8.064297150904199e-05
-0.49980935000494353,-0.49980935000494353,0.9987384160243934,8.344215407856476e-05
-0.49974075457648726,-0.49974075457648726,0.9986276834517872,7.879961262301395e-05
-0.4996339749071922,-0.4996339749071922,0.9983118675318788,7.874831579752113e-05
-0.4995196128395037,-0.4995196128395037,0.9969436082813894,8.329333682593293e-05
-0.4993872176237346,-0.4993872176237346,0.9990126315785115,8.04690184480669e-05
-0.49931880879958046,-0.49931880879958046,0.9992950763641624,8.015606205435659e-05
-0.49923074689359054,-0.49923074689359054,0.9984730609181767,7.867703227835454e-05
-0.4991092815660522,-0.4991092815660522,0.9985442479514963,8.400952346230684e-05
-0.49900096793062404,-0.49900096793062404,0.9980905525602293,8.262969763861558e-05
-0.4988837066543056,-0.4988837066543056,0.9980552669294973,8.000149221815635e-05
-0.4987802519302932,-0.4987802519302932,0.9983854692566352,8.402783967125684e-05
-0.49866750334185783,-0.49866750334185783,0.9980814491551799,8.248961655117478e-05
-0.49851068152638617,-0.49851068152638617,0.9980453046915227,8.018945437069579e-05
-0.49834593933192084,-0.49834593933192084,0.9978703067773449,8.33701982026307e-05
-0.4982201018741762,-0.4982201018741762,0.9985816952696887,8.389728933723311e-05
-0.4980605818062031,-0.4980605818062031,0.998753783404758,8.263685592346254e-05
-0.49796147258821294,-0.49796147258821294,0.9981362662758325,7.903122516202581e-05
-0.497883131159324,-0.497883131159324,0.9985333397737761,8.231135777399194e-05
-0.49779519660150984,-0.49779519660150984,0.9985796112210116,8.436461335441163e-05
-0.49761595519521507,-0.49761595519521507,0.9985277317613963,7.996347992103685e-05
-0.4975379748699197,-0.4975379748699197,0.9978271852471072,8.10557976068378e-05
-0.4974503171746619,-0.4974503171746619,0.9981373290480893,8.496747239555112e-05
-0.49739949793802224,-0.49739949793802224,0.9989779327335329,7.931941156679714e-05
-0.49733937288474406,-0.49733937288474406,0.9991151439619212,7.935417239030896e-05
-0.4972068035960547,-0.4972068035960547,0.9983181947159236,8.677361002630824e-05
-0.4970788029531832,-0.4970788029531832,0.9988547682602297,8.601313398704165e-05
-0.49690175865835046,-0.49690175865835046,0.9985697359015966,8.41228532875377e-05
-0.4967481027932081,-0.4967481027932081,0.9981508312710407,8.083770655840418e-05
-0.4966172055246716,-0.4966172055246716,0.9989393591933509,8.110854474688807e-05
-0.4965270649961894,-0.4965270649961894,0.9987135517862061,8.239449371515659e-05
-0.4964713275046961,-0.4964713275046961,0.9989398582958462,8.276973572981666e-05
-0.4963858095630712,-0.4963858095630712,0.9978521392509073,7.94321922848758e-05
-0.4962837810337078,-0.4962837810337078,0.997824278162572,8.026310405127065e-05
-0.49613371131781603,-0.49613371131781603,0.998086276065141,8.761682419047398e-05
-0.49599798002964235,-0.49599798002964235,0.9976327175177083,8.190207266088336e-05
-0.4958824855551939,-0.4958824855551939,0.9997360545077951,8.046506870324974e-05
-0.4957800823089201,-0.4957800823089201,0.9986870120431839,8.246932138805736e-05
-0.4957112857402535,-0.4957112857402535,0.998651824546433,8.471668454824698e-05
-0.4955538064459688,-0.4955538064459688,0.998903758018287,8.251183991373216e-05
-0.4954453028782154,-0.4954453028782154,0.9979942253261769,8.007952683744028e-05
-0.4953157026815461,-0.4953157026815461,0.999700549836736,8.321911695285309e-05
-0.495141994972073,-0.495141994972073,0.9977475049563976,8.183402684163959e-05
-0.49502721619501244,-0.49502721619501244,0.9979903490580296,8.059161768104077e-05
-0.4949158326497127,-0.4949158326497127,0.9987371197906139,8.390039580038518e-05
-0.4948535178271413,-0.4948535178271413,0.9983505810875825,7.789474037979958e-05
-0.49478442871040895,-0.49478442871040895,0.9989118402900793,8.228383375644119e-05
-0.49463692810677456,-0.49463692810677456,0.9989742232547758,7.731328007354801e-05
-0.4945116609473189,-0.4945116609473189,0.9984595269530263,7.977246931898703e-05
-0.4944498085918895,-0.4944498085918895,0.998407880153015,8.225761498486278e-05
-0.49438496640868834,-0.49438496640868834,0.9988897915596905,8.30551721204006e-05
-0.49427222165468265,-0.49427222165468265,0.9980809949224497,8.970641879676598e-05
-0.4941860435239505,-0.4941860435239505,0.9991423643034144,8.554733943180962e-05
-0.4941234588288353,-0.4941234588288353,0.9994047478905497,8.652458153200117e-05
-0.49399693271770956,-0.49399693271770956,0.9980849343553434,8.374148746684652e-05
-0.49382921488504505,-0.49382921488504505,0.9982219066825442,8.048879825671648e-05
-0.49374007499282013,-0.49374007499282013,0.9985356571357109,7.970937450987647e-05
-0.4936672997137066,-0.4936672997137066,0.9988064151488526,7.901325821944597e-05
-0.49354674040150714,-0.49354674040150714,0.9988190455458913,8.584999319213414e-05
-0.4933925707606249,-0.4933925707606249,0.9972684365088421,8.075345221351996e-05
-0.49332267693898757,-0.49332267693898757,0.9974275558838522,8.290574062446945e-05
-0.4932443299061561,-0.4932443299061561,0.9982614903390992,7.985275345200881e-05
-0.49316396672875273,-0.49316396672875273,0.9977219168906508,8.002157895146779e-05
-0.49309372838179116,-0.49309372838179116,0.9989120125318875,8.189792458605761e-05
-0.4929614951790427,-0.4929614951790427,0.9978647857469468,8.393795004084503e-05
-0.4928141284362937,-0.4928141284362937,0.9983831280691715,8.539100303675327e-05
-0.49273900362532,-0.49273900362532,0.9972362573167853,8.275413165357044e-05
-0.4926476825894497,-0.4926476825894497,0.9986844280528693,7.831850660068996e-05
-0.4925055708830769,-0.4925055708830769,0.9992335338803449,8.49756214476772e-05
-0.49238638365350196,-0.49238638365350196,0.9980192605082239,8.376817001288257e-05
-0.49228599226116787,-0.49228599226116787,0.9980713703678008,7.926913742741963e-05
-0.49217008197883844,-0.49217008197883844,0.9991206732444878,8.449643961375893e-05
-0.49203935156619993,-0.49203935156619993,0.9973789891007406,8.684403568619865e-05
-0.49186226939054906,-0.49186226939054906,0.9982087838392708,7.824049694748561e-05
-0.4917574495484587,-0.4917574495484587,0.9974050118700157,8.399221295887495e-05
-0.49153940065953067,-0.49153940065953067,0.9984994196580921,8.008201941491718e-05
-0.4914847716456279,-0.4914847716456279,0.9990014007493777,8.358065174363627e-05
-0.4914495319986599,-0.4914495319986599,0.9982305236826716,7.87650917656736e-05
-0.49135568938727375,-0.49135568938727375,0.998732652549223,8.291811544820823e-05
-0.4912460967723746,-0.4912460967723746,0.9978375985452811,8.633472610783234e-05
-0.49115922928758665,-0.49115922928758665,0.9988755674137308,8.662327232563862e-05
-0.4909904486485175,-0.4909904486485175,0.998318610656583,8.33234647587699e-05
-0.4908707466594933,-0.4908707466594933,0.9995547074927558,8.360575088872216e-05
-0.49078860586014345,-0.49078860586014345,0.9983677356424312,8.052087322603005e-05
-0.4906988598588214,-0.4906988598588214,0.9989539066848364,8.396369043091914e-05
-0.4905336666794028,-0.4905336666794028,0.9983519778752792,7.797867911513948e-05
-0.4904529735140386,-0.4904529735140386,0.9977778314264528,8.249008984433502e-05
-0.4903814938334108,-0.4903814938334108,0.9980480002090678,7.835062724838173e-05
-0.49027199923220904,-0.49027199923220904,0.9980441222355371,8.000328031339247e-05
-0.4902048055868363,-0.4902048055868363,0.9983515027585627,7.991449923945438e-05
-0.4900930844589311,-0.4900930844589311,0.9983430392562285,9.068820065606672e-05
-0.48992101410767647,-0.48992101410767647,0.9995631568075869,8.371755698812129e-05
-0.4898027816445392,-0.4898027816445392,0.9986567098852298,8.253557986281545e-05
-0.4896625609966577,-0.4896625609966577,0.9981311969482354,8.317665757768694e-05
-0.4895727271628857,-0.4895727271628857,0.9979109935455268,8.149841203773871e-05
-0.4894177588124876,-0.4894177588124876,0.9980820236473826,8.435051728177857e-05
-0.48932408206383116,-0.48932408206383116,0.9982567127950899,7.993529054988424e-05
-0.4891848963488883,-0.4891848963488883,0.9995887044894026,8.549935459997028e-05
-0.4890474797713978,-0.4890474797713978,0.9967517802272013,8.350715323087406e-05
-0.48893294511290153,-0.48893294511290153,0.9977530416159649,8.379693466365039e-05
-0.48881207244921826,-0.48881207244921826,0.9985853605825774,8.391449473117116e-05
-0.48873749568665514,-0.48873749568665514,0.9977409268234586,8.025903374627898e-05
-0.48865444672919695,-0.48865444672919695,0.9985096897947845,8.221266633726623e-05
-0.4885321984147595,-0.4885321984147595,0.9991460409856527,7.900409141696256e-05
-0.4884481669170782,-0.4884481669170782,0.9979360020997843,8.398109953042255e-05
-0.4883460953758913,-0.4883460953758913,0.9982611524179461,8.638137633998847e-05
-0.48826224934964557,-0.48826224934964557,0.998338050365805,8.653622890464608e-05
-0.4881936435798707,-0.4881936435798707,0.9985734808297997,8.735671957889336e-05
-0.48806245681043947,-0.48806245681043947,0.9986027027913774,8.008864688189984e-05
-0.4879452821201994,-0.4879452821201994,0.9986636681359908,8.235822894816655e-05
-0.4878680468136736,-0.4878680468136736,0.9992402464384238,7.993364756392632e-05
-0.4877634608936205,-0.4877634608936205,0.9983102364639773,8.335663929133675e-05
-0.4877022684268013,-0.4877022684268013,0.9979593827741088,8.07598138517829e-05
-0.4875847519571835,-0.4875847519571835,0.9990325641160324,8.368358159357083e-05
-0.4874548471081653,-0.4874548471081653,0.998749293407203,8.080520342643962e-05
-0.48738329951811465,-0.48738329951811465,0.9984425502715549,7.983927818249476e-05
-0.48724633163947145,-0.48724633163947145,0.9983855687619823,8.494956428401723e-05
-0.48712505674920975,-0.48712505674920975,0.9982822523769073,7.945565811890265e-05
-0.4869725151875173,-0.4869725151875173,0.9980803205552172,7.893021999695054e-05
-0.4868660168576753,-0.4868660168576753,0.997967584909385,8.464037343445595e-05
-0.4867188173113391,-0.4867188173113391,0.997863702094501,8.126221064456326e-05
-0.48659743840398734,-0.48659743840398734,0.9977197802509158,8.000132646456187e-05
-0.4865118319168687,-0.4865118319168687,0.9986403896195684,7.923816801101548e-05
-0.48641827638348334,-0.48641827638348334,0.9998995503486435,8.390057643664059e-05
-0.48630122454706,-0.48630122454706,0.9984394580337381,8.065224195981599e-05
-0.48619452263374113,-0.48619452263374113,0.9978173046427645,8.252898715605614e-05
-0.4861263012513518,-0.4861263012513518,0.9992775116838963,8.314297214524341e-05
-0.4860518136920291,-0.4860518136920291,0.9979855005397875,8.054649961944079e-05
-0.48595401351194595,-0.48595401351194595,0.9982501832792503,8.22189437047157e-05
-0.4857302174248616,-0.4857302174248616,0.998189435289321,8.255744106355802e-05
-0.4855779944708047,-0.4855779944708047,0.9991361775399132,7.959226400492513e-05
-0.48549756567008445,-0.48549756567008445,0.9988608560443865,8.728296681871353e-05
-0.48538134605332744,-0.48538134605332744,0.9975769180713406,8.775738287605158e-05
-0.4853003683427232,-0.4853003683427232,0.9983920335722578,8.674363975594427e-05
-0.48520961441172406,-0.48520961441172406,0.9981682522666484,8.896521650575115e-05
-0.4851063358510146,-0.4851063358510146,0.9992353449974154,7.861219771107731e-05
-0.4849892266334791,-0.4849892266334791,0.99850169395277,8.015408891418203e-05
-0.4849111100949813,-0.4849111100949813,0.9987161374929976,8.286855736025617e-05
-0.48482518465752944,-0.48482518465752944,0.9983282742167987,8.046938341478686e-05
-0.48470254387430034,-0.48470254387430034,0.9978902306857043,8.232288566803316e-05
-0.4845950314476795,-0.4845950314476795,0.9987076396878365,8.4655864885788e-05
-0.4844385646094452,-0.4844385646094452,0.9980194044615758,7.896759545906646e-05
-0.4843421951009077,-0.4843421951009077,0.9982882614811247,8.101190757887592e-05
-0.4841911984178296,-0.4841911984178296,0.9985664170635118,8.72616046815797e-05
-0.484131578769302,-0.484131578769302,0.9985674886181519,8.00319367357426e-05
-0.4840587534570659,-0.4840587534570659,0.9992212624864291,8.259059574832527e-05
-0.4839383642502071,-0.4839383642502071,0.9977385178106639,8.364746478236996e-05
-0.48377184443088483,-0.48377184443088483,0.9982900473745916,8.259564601495003e-05
-0.4835891044065647,-0.4835891044065647,0.9981787620263549,8.026011416426877e-05
-0.4834692640470166,-0.4834692640470166,0.9984327642197772,8.67531693491059e-05
-0.4833480830784538,-0.4833480830784538,0.9976529942932706,8.054917857031479e-05
-0.483209030557191,-0.483209030557191,0.9983566376468241,8.161927919242713e-05
-0.4831106024888868,-0.4831106024888868,0.9974398823637116,8.244171455174174e-05
-0.48296745609259234,-0.48296745609259234,0.9987380943019144,8.383087341494322e-05
-0.48282410509928014,-0.48282410509928014,0.9989127458329243,8.306336297777875e-05
-0.4827308606458246,-0.4827308606458246,0.9985529599650562,8.092184606931328e-05
-0.4826168181054527,-0.4826168181054527,0.998192387695519,7.88042629595177e-05
-0.48253424033973713,-0.48253424033973713,0.9993112582482961,8.306433744278098e-05
-0.48235322892214755,-0.48235322892214755,0.9987282720836465,8.675510439389497e-05
-0.4822357222175924,-0.4822357222175924,0.9978439373056242,8.615828320652984e-05
-0.4820876457626582,-0.4820876457626582,0.9980716692964549,8.357615767467235e-05
-0.48194491483154706,-0.48194491483154706,0.997823749446764,8.035900614833291e-05
-0.4818628143890237,-0.4818628143890237,0.9989134553222426,7.834506764166322e-05
-0.48175601766488396,-0.48175601766488396,0.9985571545956399,8.113192090735442e-05
-0.4816595925760339,-0.4816595925760339,0.9966295016669149,8.616124457009774e-05
-0.48159600540457176,-0.48159600540457176,0.9985137812885558,8.269043069924237e-05
-0.4814801671920577,-0.4814801671920577,0.9987592910081096,8.061220430132849e-05
-0.48135417088487886,-0.48135417088487886,0.9986569942153244,8.037643679005679e-05
-0.4811731976129522,-0.4811731976129522,0.9980099440234017,8.438487966567297e-05
-0.48106150695020916,-0.48106150695020916,0.9979903855258515,8.2866483990601e-05
-0.4809521876100916,-0.4809521876100916,0.9975871993100645,8.292985488435237e-05
-0.4808510282964562,-0.4808510282964562,0.9989250857244582,8.033032233805394e-05
-0.4807082664621703,-0.4807082664621703,0.9987840336938607,8.36600374739188e-05
-0.48060727058109476,-0.48060727058109476,0.9983885886770185,8.357224518378245e-05
-0.48048179440156674,-0.48048179440156674,0.9985813477664912,8.71656295539656e-05
-0.4802592643878597,-0.4802592643878597,0.9987883641765658,7.949753896748047e-05
-0.4801585481771326,-0.4801585481771326,0.999134781592932,8.288935056966538e-05
-0.48008174190326824,-0.48008174190326824,0.9978183606248429,8.22842747602091e-05
-0.4799660473174299,-0.4799660473174299,0.9977285566120466,8.22034874827831e-05
-0.4797476552812441,-0.4797476552812441,0.9982359956150322,7.973928311164826e-05
-0.4796183487611415,-0.4796183487611415,0.9986172959604135,7.945315308191382e-05
-0.479522868400818,-0.479522868400818,0.9978459027956517,8.690346328898548e-05
-0.4794322248395474,-0.4794322248395474,0.9981359602641229,9.088108047648129e-05
-0.47932899643783455,-0.47932899643783455,0.9981129316241629,8.73748488281312e-05
-0.47924188728939043,-0.47924188728939043,0.9987276451811988,8.537907131398787e-05
-0.4790311316697625,-0.4790311316697625,0.9980897606677555,7.966440404515529e-05
-0.4789535054384032,-0.4789535054384032,0.9988464169686354,8.340712589540892e-05
-0.4788522357972397,-0.4788522357972397,0.9996476299402058,7.896117065439784e-05
-0.47872452976662316,-0.47872452976662316,0.9988227310740125,8.306748899069448e-05
-0.4785828004482028,-0.4785828004482028,0.9982836683432124,8.028472011649529e-05
-0.4784902772284113,-0.4784902772284113,0.9991924293905482,8.078067679607399e-05
-0.47841379420642627,-0.47841379420642627,0.997986710406965,7.909932139118761e-05
-0.4783519902921398,-0.4783519902921398,0.99666765613485,7.970176870376674e-05
-0.47821317302223176,-0.47821317302223176,0.9990514899377013,8.325330490375979e-05
-0.47807006862640267,-0.47807006862640267,0.9987378694867874,7.907638638229355e-05
-0.4779541874428105,-0.4779541874428105,0.998333917753872,8.382409943267741e-05
-0.4778719016256218,-0.4778719016256218,0.9970903831321796,8.377736864815783e-05
-0.47767000619351163,-0.47767000619351163,0.9984205893176507,8.001559553095529e-05
-0.47749374703489594,-0.47749374703489594,0.9973216529530182,8.373116064516999e-05
-0.4773603439993167,-0.4773603439993167,0.9976394056361588,7.990847547121033e-05
-0.47718458796443886,-0.47718458796443886,0.9990874292416543,8.181534224101095e-05
-0.4770903506410832,-0.4770903506410832,0.998562941630458,8.202455658844628e-05
-0.4769510942489433,-0.4769510942489433,0.9979006553626901,8.725897421487894e-05
-0.4767649021792749,-0.4767649021792749,0.997180050611665,7.994610274305287e-05
-0.47668839195830515,-0.47668839195830515,0.9978872982239461,8.183093071602634e-05
-0.4766112674376927,-0.4766112674376927,0.9977949192482105,8.421684844520525e-05
-0.4765486609045183,-0.4765486609045183,0.9976147655838362,7.88567736815814e-05
-0.47648888484036434,-0.47648888484036434,0.9983630175234334,7.876497701137986e-05
-0.4763639741737279,-0.4763639741737279,0.9986679729171163,8.680162170644992e-05
-0.476271680228092,-0.476271680228092,0.9988225416348625,8.995897060901204e-05
-0.4761388179671485,-0.4761388179671485,0.9979947140837441,7.889226834787582e-05
-0.47605603814372444,-0.47605603814372444,0.9983960839663188,8.375500426992517e-05
-0.4759077506627364,-0.4759077506627364,0.99906437846377,8.087823568395306e-05
-0.47575895081536146,-0.47575895081536146,0.9982158470249551,8.094926960383513e-05
-0.4756678546051262,-0.4756678546051262,0.9980111092437032,8.235588469690976e-05
-0.47560010651141055,-0.47560010651141055,0.9975715477383609,8.197100418523841e-05
-0.47549143769720104,-0.47549143769720104,0.9980162486874761,8.023362178842826e-05
-0.4754192086184048,-0.4754192086184048,0.9984369054471735,7.913234789369042e-05
-0.4752692606707569,-0.4752692606707569,0.999792418924019,8.704590802701835e-05
-0.47513276033714646,-0.47513276033714646,0.998327706381826,8.234817315168295e-05
-0.4750371556940081,-0.4750371556940081,0.9978057636060601,7.956675862605915e-05
-0.47493329364660897,-0.47493329364660897,0.9982146148504929,8.430349430871502e-05
-0.4748434203247598,-0.4748434203247598,0.9975977849353674,8.275000033414868e-05
-0.47466811559716005,-0.47466811559716005,0.9990358101612735,8.00887135400252e-05
-0.474572983179678,-0.474572983179678,0.9987213499370042,8.190885950655061e-05
-0.4743234535730153,-0.4743234535730153,0.9982492625143543,8.674461772622271e-05
-0.47410760630882576,-0.47410760630882576,0.9973985479361147,8.349590259407926e-05
-0.47401886558145634,-0.47401886558145634,0.9976848987417044,7.94648747475394e-05
-0.47395715898601337,-0.47395715898601337,0.9992250552992473,8.115557401474747e-05
-0.4738004158978583,-0.4738004158978583,0.997651931414139,7.801260738535523e-05
-0.47365129979880294,-0.47365129979880294,0.9980219633997564,7.980119042688112e-05
-0.47356522908012266,-0.47356522908012266,0.9978766582523602,8.28535331590361e-05
-0.4734836971394543,-0.4734836971394543,0.9985689499879922,8.641741357962124e-05
-0.47336178983969146,-0.47336178983969146,0.9978644244126256,8.928046570534377e-05
-0.47329428109151195,-0.47329428109151195,0.9980326286568688,8.610151965635226e-05
-0.4731619787387899,-0.4731619787387899,0.9983061492276178,8.360284902996008e-05
-0.4729876847108244,-0.4729876847108244,0.9984186543365225,7.957577632487183e-05
-0.47289220360326,-0.47289220360326,0.9981573605473347,7.967852052214155e-05
-0.4727773017984873,-0.4727773017984873,0.9970576542940371,8.3110365410828e-05
-0.4726194919872796,-0.4726194919872796,0.9983583665730515,8.01616555914526e-05
-0.4725169613746402,-0.4725169613746402,0.9988647202622551,7.98155928738052e-05
-0.4724171132540505,-0.4724171132540505,0.9975770639206425,8.16728681590582e-05
-0.47234685133080345,-0.47234685133080345,0.998298817820254,8.198144516362082e-05
-0.47227717763671534,-0.47227717763671534,0.9969356017642846,8.185387009409357e-05
-0.472176397023577,-0.472176397023577,0.9983176498744676,8.661539177932244e-05
