time,time,flux,flux_err
-0.49898453885940625,-0.49898453885940625,0.9998720533799712,0.0007175350097450121
-0.49730472821769356,-0.49730472821769356,0.9998213457225237,0.00071825189251011
-0.4957234385870947,-0.4957234385870947,0.9995000986196289,0.0007185328534763421
-0.49391638311027464,-0.49391638311027464,1.0001460768884791,0.0007171961449044796
-0.4921497577106493,-0.4921497577106493,1.0000505099220705,0.0007178767773956151
-0.4905027888186623,-0.4905027888186623,0.9999397750429295,0.0007181934805081615
-0.4888879221693969,-0.4888879221693969,0.9997716879460459,0.0007177443595300578
-0.4870201304129296,-0.4870201304129296,0.9999490189636198,0.0007176522898613449
-0.48534031325358457,-0.48534031325358457,1.0009659654150387,0.0007191180655114312
-0.4837590324190728,-0.4837590324190728,1.0004502326512632,0.0007183406163046667
-0.48195199542318506,-0.48195199542318506,1.0001161189404435,0.0007175249949614727
-0.4801853580857937,-0.4801853580857937,0.9993632221485169,0.0007177424913243946
-0.47853837320312775,-0.47853837320312775,1.0002985692018256,0.0007181226157684474
-0.47692352606173927,-0.47692352606173927,0.9994236459516712,0.0007176091702898315
-0.475055722450918,-0.475055722450918,0.9999421376776414,0.0007180017079363377
-0.47337589881250325,-0.47337589881250325,0.9992262270373866,0.0007178615429851321
-0.47179462691528895,-0.47179462691528895,1.0003424990978411,0.0007178884573204377
-0.4699876083168647,-0.4699876083168647,1.0000336385775792,0.0007179839831887309
-0.4682209589359559,-0.4682209589359559,0.9995841755940249,0.0007181152046547378
-0.46657395821014236,-0.46657395821014236,0.9997925274194526,0.0007180720153870349
-0.4649591305477543,-0.4649591305477543,0.9997128023610499,0.0007177411634452849
-0.4630913149318417,-0.4630913149318417,1.0002575071541893,0.0007173030615190955
-0.4614114848816371,-0.4614114848816371,1.0001049923076866,0.0007180809070244088
-0.4598302220597475,-0.4598302220597475,1.0000897075774395,0.000717903232043125
-0.45802322178193433,-0.45802322178193433,1.0001300599045777,0.0007176976543892755
-0.45625656024178624,-0.45625656024178624,1.0006567621245799,0.000717783535097743
-0.4546095438429347,-0.4546095438429347,0.999938568614015,0.0007174809260800042
-0.4529947355921763,-0.4529947355921763,1.000319067093173,0.0007178716996315716
-0.4511269079101453,-0.4511269079101453,1.000266149528086,0.0007181723943188332
-0.44944707149965096,-0.44944707149965096,0.9999818455021297,0.0007183054349789956
-0.447865817836373,-0.447865817836373,0.9997025261318424,0.0007180671705703975
-0.4460588358213272,-0.4460588358213272,0.9989780238017796,0.0007174385571418151
-0.44429216201293686,-0.44429216201293686,0.9999027837530763,0.0007172885531650313
-0.44264513009178474,-0.44264513009178474,0.99944859098474,0.0007176819857024764
-0.4407246288406668,-0.4407246288406668,0.9998398189328894,0.0007185472970600074
-0.43882277586238844,-0.43882277586238844,1.0010874117043835,0.0007179805359596892
-0.4370490943955474,-0.4370490943955474,0.9996003319987693,0.0007182031633987484
-0.4353394821529605,-0.4353394821529605,0.9991672520984063,0.0007179606787298475
-0.43366027597787704,-0.43366027597787704,1.0000144360688064,0.000718179923160874
-0.4318744118436939,-0.4318744118436939,1.0007803973628875,0.0007183279550901785
-0.4302220281467385,-0.4302220281467385,1.0001701121862103,0.0007175631203507132
-0.42853134355983685,-0.42853134355983685,1.0008266725365325,0.0007178948233853386
-0.4267243906253725,-0.4267243906253725,1.0003682554231648,0.0007180415573446788
-0.4250846699197382,-0.4250846699197382,0.9993497315400417,0.000717760369145313
-0.4233750964491151,-0.4233750964491151,0.9994742986438283,0.0007179229301512443
-0.4216958825722713,-0.4216958825722713,1.000069084552938,0.000718153734142518
-0.419909991337488,-0.419909991337488,1.0000916486744003,0.0007179266184285194
-0.41825763097053825,-0.41825763097053825,0.999783367814959,0.000718183366271541
-0.4165669410630244,-0.4165669410630244,0.9997457504595154,0.0007177917955385478
-0.4147600062564834,-0.4147600062564834,1.0004451597352015,0.0007175862269365525
-0.41312024591885577,-0.41312024591885577,0.9997508621109417,0.0007180342346778596
-0.4114107113935347,-0.4114107113935347,0.9999423195966074,0.0007178047296236352
-0.40973148977635676,-0.40973148977635676,0.9998235657975088,0.0007183745894398842
-0.4079455714025926,-0.4079455714025926,0.9994080475108547,0.0007182677659106026
-0.406293234298073,-0.406293234298073,1.000399564079379,0.0007182904681880491
-0.4046025392303136,-0.4046025392303136,1.0001915877049457,0.0007181835386288843
-0.4027956224811987,-0.4027956224811987,1.0005414531616512,0.0007181901235418414
-0.4011558223833731,-0.4011558223833731,0.9999183900365644,0.0007182413952348557
-0.399446326995735,-0.399446326995735,0.999805142044466,0.0007173284871549487
-0.3977670975933165,-0.3977670975933165,1.0007936953186427,0.0007176464774600959
-0.395981152058107,-0.395981152058107,1.0005533300644145,0.0007186234773690161
-0.3943288381229422,-0.3943288381229422,0.9996298025814128,0.0007174752280926118
-0.3926381380588168,-0.3926381380588168,0.9997166517984614,0.000718082733467358
-0.3908312393605911,-0.3908312393605911,0.9991256404464728,0.0007177350755862833
-0.3891913993452363,-0.3891913993452363,0.9994327568045603,0.0007176969030227685
-0.3874819432590925,-0.3874819432590925,0.9994967338269058,0.000717514625846304
-0.3858027060361337,-0.3858027060361337,1.000247543861582,0.0007186791686193697
-0.38401673329442476,-0.38401673329442476,1.0001276384544084,0.0007179573339894626
-0.3823644424613349,-0.3823644424613349,1.0009198263773371,0.0007180609218439987
-0.3806737375707826,-0.3806737375707826,1.000317794982989,0.0007180492900277077
-0.37886685685300564,-0.37886685685300564,1.000102428141,0.0007175916154089337
-0.3772269767755688,-0.3772269767755688,1.0002027375187805,0.0007179173088151299
-0.3755175601866313,-0.3755175601866313,1.000472553022386,0.0007177083461748013
-0.3738383151143694,-0.3738383151143694,0.9993889516909045,0.0007183916985297135
-0.3720523151501993,-0.3720523151501993,0.9989518116883506,0.0007177387020203911
-0.3704000473035876,-0.3704000473035876,0.9997098891664372,0.0007177275280998326
-0.3687093377534666,-0.3687093377534666,0.9999203417000935,0.0007173573469886626
-0.36690247499674344,-0.36690247499674344,1.0002002991963996,0.0007176061729706333
-0.36526255470656677,-0.36526255470656677,0.9998529419096176,0.0007177934880086436
-0.36355317777520213,-0.36355317777520213,0.9995171718706434,0.0007178824023219813
-0.3618739248407451,-0.3618739248407451,1.0014364135596325,0.0007181259311207116
-0.36008789758346893,-0.36008789758346893,0.9999465271284425,0.000718153371957099
-0.358435652665662,-0.358435652665662,1.0001559709790961,0.0007178788103616002
-0.35674493861004064,-0.35674493861004064,1.0001235013700926,0.0007176841183936522
-0.3549380937824026,-0.3549380937824026,0.9996850508248528,0.0007185119386061364
-0.35329813313172737,-0.35329813313172737,0.9993914657880685,0.0007177969998385473
-0.3515887960441432,-0.3515887960441432,0.9996439845752334,0.0007176391240728064
-0.3499095351992992,-0.3499095351992992,0.9998050264670463,0.0007176474246149815
-0.3481234806456882,-0.3481234806456882,0.9997840448868436,0.0007177822182256653
-0.3464712585475695,-0.3464712585475695,1.0014842989988597,0.0007177452918287134
-0.3447805401565688,-0.3447805401565688,1.0002115945283125,0.0007180297238007312
-0.34297371323224296,-0.34297371323224296,0.9991716262036991,0.000717996351440786
-0.3413337120511642,-0.3413337120511642,0.999793559993891,0.0007184021067573521
-0.3396244149741733,-0.3396244149741733,0.9999247505679648,0.0007177951257775834
-0.33794514623187977,-0.33794514623187977,1.000302126500289,0.0007183369843510385
-0.3361590643242153,-0.3361590643242153,0.9992997815289026,0.0007181972352482142
-0.3345068649558243,-0.3345068649558243,1.0004226547090433,0.0007178525084030222
-0.3328161423866277,-0.3328161423866277,0.9997162303520307,0.0007178183711131712
-0.3310093333432064,-0.3310093333432064,1.0001816178983003,0.0007181129222766172
-0.3293692914711869,-0.3293692914711869,1.0013311954451602,0.0007176648473644928
-0.3276600345844486,-0.3276600345844486,1.0003533953835761,0.0007182119621804622
-0.3259807579125436,-0.3259807579125436,0.9994342516232566,0.000718141465541699
-0.32419464863168057,-0.32419464863168057,0.999705278420236,0.0007176584620997403
-0.32254247189032415,-0.32254247189032415,0.9998314833572636,0.0007171726099670552
-0.32085174530661786,-0.32085174530661786,0.999223727679898,0.0007178934008793852
-0.31904495413773476,-0.31904495413773476,1.000408905379547,0.0007178454583319025
-0.31740487139819606,-0.31740487139819606,0.9998492727888589,0.0007172373381259899
-0.3156956548976154,-0.3156956548976154,0.999861907078533,0.0007179662277499412
-0.31401637027038304,-0.31401637027038304,1.0000799429887601,0.0007180534771209544
-0.31223023356166096,-0.31223023356166096,0.9993628134116779,0.0007178821205579977
-0.3105780793639383,-0.3105780793639383,1.0005558614205996,0.0007179859488102568
-0.3088873489229854,-0.3088873489229854,1.0000711919466831,0.0007179436533880599
-0.3070805756029131,-0.3070805756029131,1.0004398593099963,0.0007178402537229351
-0.3054404518386832,-0.3054404518386832,0.9995417489103587,0.0007178662929200456
-0.3037312758750318,-0.3037312758750318,1.000215332728943,0.0007175665448299806
-0.3020519832957461,-0.3020519832957461,1.000203228675034,0.0007179820545487029
-0.30026581913666633,-0.30026581913666633,0.9998325200729237,0.0007181757488037264
-0.2986136873574992,-0.2986136873574992,1.0001129909674833,0.0007174876752108989
-0.296922953245371,-0.296922953245371,1.0004755219932377,0.0007179674058582544
-0.29511619774516473,-0.29511619774516473,1.0003372036274616,0.0007177504998954066
-0.29347603277977896,-0.29347603277977896,0.9993554135226533,0.0007171011290582519
-0.2917668975423567,-0.2917668975423567,1.0001501974983287,0.0007175951501059913
-0.29008759700457176,-0.29008759700457176,0.9993525340194781,0.0007177120571865447
-0.2883014053502279,-0.2883014053502279,1.0002335488591927,0.0007183479914150024
-0.2866492959029415,-0.2866492959029415,1.0001387132639747,0.000717037000664753
-0.2849585582577106,-0.2849585582577106,0.999748587802527,0.0007184506857874286
-0.2831518205870111,-0.2831518205870111,0.9990660941917939,0.0007182503759736362
-0.28151161424398197,-0.28151161424398197,1.000487459633927,0.0007180549696948634
-0.2798025199157337,-0.2798025199157337,1.0009214710085725,0.0007178840144723607
-0.2781232114002023,-0.2781232114002023,1.0006431883452218,0.0007182216949419026
-0.27633699221531743,-0.27633699221531743,0.99985339346814,0.0007187171926666634
-0.27468490498437176,-0.27468490498437176,1.0001393933816018,0.00071767123260517
-0.2729941639856747,-0.2729941639856747,0.999717869242633,0.000718559564330086
-0.2711874441156169,-0.2711874441156169,0.9989664753190006,0.0007177814305429089
-0.26954719621836604,-0.26954719621836604,1.0003159881610606,0.0007174234366132991
-0.2678381429821911,-0.2678381429821911,0.9993476853104479,0.0007179145341943328
-0.2661588264921534,-0.2661588264921534,1.0005749966478212,0.0007180263340703634
-0.26437257973497025,-0.26437257973497025,0.9969670625232666,0.0007176117603549578
-0.26272051461766066,-0.26272051461766066,0.9966107747406593,0.0007175791779073825
-0.2610297704227378,-0.2610297704227378,0.9962578645442418,0.0007182607241477638
-0.25922306835982456,-0.25922306835982456,1.0004917314157462,0.0007177312258718719
-0.2575827787062508,-0.2575827787062508,0.9963660162722381,0.0007177213032560283
-0.25587376674186546,-0.25587376674186546,0.9966111515024192,0.000718173879653552
-0.2541944422740812,-0.2541944422740812,0.9998231047495372,0.0007182784440896242
-0.2524081679029678,-0.2524081679029678,0.9944416796569471,0.0007176196892896955
-0.25075612478367476,-0.25075612478367476,0.9957422543228404,0.0007174420370340608
-0.24906537758192826,-0.24906537758192826,0.9931837705053523,0.0007183074360950271
-0.24725869330364958,-0.24725869330364958,0.9968944320884635,0.0007181860239826364
-0.24561836172360926,-0.24561836172360926,0.992508523707475,0.0007176014232631886
-0.24390939121071825,-0.24390939121071825,0.99721040815216,0.0007188248159892911
-0.24223005877161086,-0.24223005877161086,0.9971235302645983,0.000718105240473617
-0.2404437567287232,-0.2404437567287232,0.9932848480586385,0.0007185931940936693
-0.23879173551455324,-0.23879173551455324,0.9996424868486156,0.0007187151292230133
-0.23710098545677738,-0.23710098545677738,0.9955430225523807,0.0007190088205523083
-0.23529431896629377,-0.23529431896629377,0.9943050944763051,0.0007182152573615528
-0.23365394525436614,-0.23365394525436614,0.9964640638605594,0.0007182220189892332
-0.2319450163952183,-0.2319450163952183,0.9963427443162118,0.0007184466839616182
-0.2302656759687352,-0.2302656759687352,0.9935502474145391,0.0007185591198056636
-0.2284793462219568,-0.2284793462219568,0.9939762387916483,0.0007186867901124478
-0.22682734679093527,-0.22682734679093527,1.0006133100746186,0.0007181150488568355
-0.22513659404720557,-0.22513659404720557,0.9947434742986061,0.0007185906025489777
-0.22332994533489908,-0.22332994533489908,0.9946789659489574,0.0007187368429354792
-0.22168952932437377,-0.22168952932437377,0.9975221137300275,0.0007180219818208922
-0.2199806422889651,-0.2199806422889651,0.997253759629983,0.000718549032544409
-0.21830129387180933,-0.21830129387180933,0.9942644187817535,0.0007190774718041727
-0.21651493639236605,-0.21651493639236605,0.9945731953083904,0.0007184324984572335
-0.2148629586320908,-0.2148629586320908,0.9977598876053779,0.0007178308653956157
-0.21317220338528386,-0.21317220338528386,0.9966921995334825,0.0007183328677546939
-0.21136557245120002,-0.21136557245120002,0.9940772818376249,0.0007187678686351223
-0.20972511391091758,-0.20972511391091758,0.9964401612070816,0.0007183877022644438
-0.2080162688918108,-0.2080162688918108,0.9969498641049042,0.000718514242213334
-0.20633691251294978,-0.20633691251294978,0.9934971589376065,0.0007186289850033942
-0.2045505272366313,-0.2045505272366313,0.9972357676297239,0.0007192235837279191
-0.20289857102523,-0.20289857102523,0.9933952842924494,0.000718312046046406
-0.20120781342944838,-0.20120781342944838,0.9969569109642393,0.0007181197342129912
-0.19940120026393515,-0.19940120026393515,0.998600591928648,0.0007191744886356485
-0.19776069903027746,-0.19776069903027746,0.9932748218634682,0.0007181464565974705
-0.19605189620389182,-0.19605189620389182,0.9942412720344512,0.0007180550600396131
-0.1943725318666111,-0.1943725318666111,0.9950326272365867,0.000717977785735812
-0.19258611875480938,-0.19258611875480938,0.9979141887104437,0.0007179249255311372
-0.19093418397997083,-0.19093418397997083,0.9927244651767675,0.0007171905985165035
-0.1892434242084505,-0.1892434242084505,0.9962831775192811,0.000718469280158715
-0.1874368288307437,-0.1874368288307437,0.9971545405042679,0.0007185231489897955
-0.185796284672665,-0.185796284672665,0.9927113487162824,0.0007169651012257896
-0.18408752424766134,-0.18408752424766134,0.9927946359384086,0.0007179731675164148
-0.18240815193906884,-0.18240815193906884,0.9964310803885545,0.0007185141589327998
-0.18062171094045426,-0.18062171094045426,0.9961350339331174,0.0007189520781289377
-0.17896979751234313,-0.17896979751234313,0.9936424325962676,0.0007178439983637434
-0.1772790357415488,-0.1772790357415488,0.9975913336799321,0.000718363590941353
-0.17547245812274923,-0.17547245812274923,0.9922247173528307,0.0007182031791303945
-0.17383187086054477,-0.17383187086054477,0.9966815982009235,0.0007174743534886976
-0.17212315300703268,-0.17212315300703268,0.9943931018001008,0.0007183229590403452
-0.1704437727367349,-0.1704437727367349,0.9967158516799346,0.0007186262955812411
-0.16865730380974356,-0.16865730380974356,0.9953580364848371,0.000717862482876248
-0.16700541159344767,-0.16700541159344767,0.9937712707182105,0.0007179556382479635
-0.16531464798074466,-0.16531464798074466,0.9961698456074272,0.0007188027950674875
-0.1635080881466365,-0.1635080881466365,0.9957192520326423,0.0007184385175248686
-0.16186745758118376,-0.16186745758118376,1.0007013238289577,0.0007180274903703073
-0.16015878248208537,-0.16015878248208537,0.9965857469459685,0.0007184500660523004
-0.15847939425968888,-0.15847939425968888,0.9970050368990128,0.000718310091346633
-0.15669289736246128,-0.15669289736246128,1.000941640267984,0.0007184761783067979
-0.15504102625213817,-0.15504102625213817,0.9969534787680916,0.0007181937512152187
-0.15335026097073978,-0.15335026097073978,0.9975072036113934,0.0007183294272039175
-0.1515437189147974,-0.1515437189147974,0.9992657221814308,0.0007192942749490375
-0.1499030448248618,-0.1499030448248618,1.0004271060640615,0.0007177300297742466
-0.1481944126759231,-0.1481944126759231,1.0006654275214717,0.0007185022391981828
-0.14651501653037258,-0.14651501653037258,0.9995023709574721,0.0007190251522602866
-0.14472849157942846,-0.14472849157942846,0.9997990205518528,0.0007183708798998546
-0.1430766414853224,-0.1430766414853224,1.0004713024329899,0.0007175249720770505
-0.14138587469890354,-0.14138587469890354,1.0001358374728941,0.0007184134640228119
-0.13957935041796646,-0.13957935041796646,1.0007058524477375,0.0007183947093060784
-0.13793863262376363,-0.13793863262376363,0.9989554521624878,0.0007179946889934574
-0.13623004360458707,-0.13623004360458707,1.0002807653470405,0.0007177515476307812
-0.1345506395102234,-0.1345506395102234,1.0001531160477235,0.000718763403049318
-0.13276408648648613,-0.13276408648648613,1.0003239611896224,0.000718381997497385
-0.13111225729294346,-0.13111225729294346,0.9996876626906855,0.0007173637905651742
-0.12942148914270318,-0.12942148914270318,0.9994747682884828,0.0007185932008758965
-0.12761498264960663,-0.12761498264960663,0.9996023504432692,0.0007179211812212758
-0.1259742209489673,-0.1259742209489673,1.0004106049569224,0.000717687964190859
-0.12426567523611994,-0.12426567523611994,1.0002450326229866,0.0007190741898488132
-0.12258626322169448,-0.12258626322169448,1.0007296359963846,0.0007190459182048527
-0.12079968207054889,-0.12079968207054889,0.9994332129548559,0.0007181110627243164
-0.11914787366531528,-0.11914787366531528,1.0007483860736812,0.000717997416044523
-0.11745710433727936,-0.11745710433727936,0.999725595291773,0.0007182759445236409
-0.1156506156191881,-0.1156506156191881,0.9999160799881492,0.0007180756938743962
-0.11400980982600686,-0.11400980982600686,0.9993048415749207,0.0007175265265917067
-0.11230130758647192,-0.11230130758647192,0.9998773893626925,0.0007182221471298471
-0.1106218876584876,-0.1106218876584876,0.9998175613018164,0.0007183407465879055
-0.1088352783060941,-0.1088352783060941,0.9998408700931837,0.0007185318821608907
-0.10718349063134838,-0.10718349063134838,1.0000211292805345,0.0007178118403161426
-0.10549272025083382,-0.10549272025083382,0.9999431041424792,0.0007186105046729576
-0.10368624931413706,-0.10368624931413706,1.0004728499187112,0.0007181909169111877
-0.10204539923905713,-0.10204539923905713,1.000440138374712,0.0007175689151370335
-0.10033694064271685,-0.10033694064271685,1.0012413785709353,0.000718305968501236
-0.09865751280757422,-0.09865751280757422,0.9995447761390917,0.0007184765417496158
-0.09687087521543844,-0.09687087521543844,1.00001442057428,0.0007178471740132879
-0.09521910816855553,-0.09521910816855553,1.001090586842257,0.000717619999819672
-0.09352833688316195,-0.09352833688316195,0.9994774885729637,0.0007180687191824464
-0.09172188373426024,-0.09172188373426024,0.999612825905572,0.0007180450391827664
-0.09008098919442772,-0.09008098919442772,1.0005721143212682,0.0007176886135260845
-0.08837257438901816,-0.08837257438901816,0.9999512826210462,0.0007176638007848921
-0.08669313866278117,-0.08669313866278117,1.0004866217095587,0.0007180923967669388
-0.08490647277304789,-0.08490647277304789,0.9997946543224325,0.0007184017685196631
-0.08325472628672514,-0.08325472628672514,0.9992597354705536,0.000717507315151877
