time,time,flux,flux_err
-0.49984879749414785,-0.49984879749414785,1.0022621161225171,0.0018981315711418655
-0.4995777456984797,-0.4995777456984797,1.0002957609347092,0.0019528210204525296
-0.49933985346360715,-0.49933985346360715,0.99925684937034,0.0023986550979699347
-0.49895737803526574,-0.49895737803526574,0.9982414083686123,0.0025241728427625163
-0.49868154464566034,-0.49868154464566034,0.9987614419709605,0.002121384802298698
-0.49850782609937594,-0.49850782609937594,1.0021100136147123,0.002971493223297066
-0.4981809643824818,-0.4981809643824818,1.0014837581371863,0.0019460978511373832
-0.49787484598637094,-0.49787484598637094,1.0016013653479516,0.0025347467870297834
-0.49771024811561804,-0.49771024811561804,1.000519641060683,0.0019040838252369259
-0.4974281621653063,-0.4974281621653063,1.0008049826664749,0.001893492372105261
-0.4970045030793699,-0.4970045030793699,1.0002241024451823,0.004472003540968951
-0.49664252952497917,-0.49664252952497917,0.9964923490069374,0.003280340168395331
-0.4963350018399069,-0.4963350018399069,1.0010608613016538,0.0021677818105380947
-0.49608838812928296,-0.49608838812928296,0.9991312313621215,0.0017475302887172204
-0.49580919240397636,-0.49580919240397636,0.9997458545575746,0.0017479107509682733
-0.49555296963008005,-0.49555296963008005,0.9989746286825744,0.0019684365380709954
-0.4952635569439735,-0.4952635569439735,1.001068711155762,0.0019690039375601914
-0.4949575867423846,-0.4949575867423846,1.0020326624177562,0.0023402527586742178
-0.49464865975896827,-0.49464865975896827,1.0018704378029393,0.0021336274531183258
-0.4943608023357228,-0.4943608023357228,1.0022189984584267,0.0022981781300095896
-0.4939678231545258,-0.4939678231545258,0.9993806550158313,0.0022006506357743457
-0.4936027017647575,-0.4936027017647575,0.9994794263007396,0.0015248517542596153
-0.4934469975261891,-0.4934469975261891,0.9995948715191117,0.002729515511852275
-0.49315984440909233,-0.49315984440909233,1.0024589669034065,0.003278985971582847
-0.4927584606506571,-0.4927584606506571,0.9959496734505959,0.0036309194582009987
-0.49245176616605024,-0.49245176616605024,1.0018342161518032,0.001940722598091649
-0.4920776078739436,-0.4920776078739436,0.9986484667427886,0.0020891203178462978
-0.4916968058794737,-0.4916968058794737,0.9990929864794577,0.0017305840187039918
-0.49142157679234516,-0.49142157679234516,0.9969773604161283,0.0019923720019805967
-0.4911183759293635,-0.4911183759293635,0.999012469998785,0.001983533819425481
-0.49089728495528107,-0.49089728495528107,0.9995873665564808,0.001717850366231826
-0.4905875338852638,-0.4905875338852638,0.9989553732980724,0.0023096971541581796
-0.49013640853081597,-0.49013640853081597,0.9988363631562315,0.0021577113392767513
-0.4898182973411167,-0.4898182973411167,0.9993371501713113,0.002447951004788929
-0.48949416674586244,-0.48949416674586244,0.9998497372499184,0.0019085717528842447
-0.4892378018521413,-0.4892378018521413,1.0033791901865736,0.0026130770775705174
-0.4891006502577511,-0.4891006502577511,1.0009122178575216,0.002056006896506612
-0.4887591758466442,-0.4887591758466442,1.0003157387442232,0.0017675241382485714
-0.48847503734432396,-0.48847503734432396,0.9972502285569054,0.0036444173972357856
-0.4883260858790891,-0.4883260858790891,1.0009398255909416,0.0018929681882990598
-0.48798880536705835,-0.48798880536705835,1.0006592946734245,0.002233194835892382
-0.4875855088750541,-0.4875855088750541,1.0009764583747676,0.0019160479070966252
-0.48721185331087324,-0.48721185331087324,0.9990899922824916,0.001980166992534166
-0.48686262559640453,-0.48686262559640453,0.9991548897942828,0.0018035937256727635
-0.4866398861100606,-0.4866398861100606,1.000091939508639,0.0019012023365773372
-0.4863283645696356,-0.4863283645696356,0.9973062615130578,0.0021236949888461705
-0.48591130141139727,-0.48591130141139727,1.0000509063720981,0.002295845922532184
-0.48557456709168034,-0.48557456709168034,0.9971972000228446,0.002799429529658672
-0.48532923291350016,-0.48532923291350016,0.9993474104517777,0.0020620346751710037
-0.48494566459266936,-0.48494566459266936,0.9997437314783235,0.0018844656770027005
-0.484785247646505,-0.484785247646505,1.0011968729020515,0.00192254994946306
-0.4844341207477555,-0.4844341207477555,1.0001304167801814,0.0019228777006724753
-0.4841285604699806,-0.4841285604699806,0.9947607566614337,0.003622058479751463
-0.48371822713306756,-0.48371822713306756,1.0007994991585825,0.0018974716369347575
-0.48328596797437057,-0.48328596797437057,0.9999372037595112,0.001905599648045524
-0.4830998935365642,-0.4830998935365642,0.9999323446596883,0.0020498131066267675
-0.48281073271282365,-0.48281073271282365,0.9997360217806023,0.0019812080943116183
-0.4825673017912777,-0.4825673017912777,1.0023973329093059,0.0019757560783478004
-0.4822753068692691,-0.4822753068692691,1.0001937741176095,0.002126080424341213
-0.4819451487550396,-0.4819451487550396,1.0010401185245492,0.002065146281468297
-0.48161067063701923,-0.48161067063701923,1.0032591102367943,0.00284645041042661
-0.48126175063080157,-0.48126175063080157,0.9971122935075105,0.0026367107569942117
-0.48107870443491263,-0.48107870443491263,0.9996752580187309,0.0017584561120837492
-0.4807954386509664,-0.4807954386509664,1.001828348085904,0.0027053722197985675
-0.48058340404968475,-0.48058340404968475,1.0005178512205557,0.0018784092666321978
-0.48043570472073044,-0.48043570472073044,1.000465468657472,0.0017983480852444965
-0.4800477010649047,-0.4800477010649047,1.0021088692257585,0.0017359337179400944
-0.4797266166424379,-0.4797266166424379,1.000254307110573,0.0019124612693083548
-0.4793913419714954,-0.4793913419714954,0.9969439956156558,0.0019257745803579693
-0.47898867686162705,-0.47898867686162705,0.9988144374523789,0.0019143968270674441
-0.47865936991292984,-0.47865936991292984,0.9983637409500193,0.0022886482615339905
-0.4784101935787476,-0.4784101935787476,0.9990130101649077,0.001906516824851194
-0.4781479510595091,-0.4781479510595091,1.002860799875132,0.0020552852731600554
-0.4778977274276258,-0.4778977274276258,1.0007790795197493,0.002049679450520504
-0.4775154635011859,-0.4775154635011859,1.0033451556819466,0.001916583564945017
-0.47718141120058133,-0.47718141120058133,1.0015342184473095,0.0020680296959512327
-0.47694323282921686,-0.47694323282921686,1.002281119231751,0.002521676145728382
-0.47664728220624963,-0.47664728220624963,0.9967064915519357,0.002544347934597835
-0.47639620314876086,-0.47639620314876086,1.0012028050395678,0.0032645272370621253
-0.47628399524546694,-0.47628399524546694,1.0028637179851754,0.0017036049439537846
-0.47612974902731364,-0.47612974902731364,1.0008427898772345,0.0017936162274999352
-0.47568349710636537,-0.47568349710636537,1.0000840668103579,0.001739359733029335
-0.4753508312656777,-0.4753508312656777,0.9999688992244581,0.0019261401830459619
-0.47492523030668965,-0.47492523030668965,0.9999516631651335,0.0020761241526910125
-0.474551749425882,-0.474551749425882,1.0000724524299407,0.0020652125137307744
-0.4743370793366921,-0.4743370793366921,1.0021591576153852,0.001973325663714773
-0.4740423113144061,-0.4740423113144061,0.999845401706262,0.0019069317744768
-0.47360551132442197,-0.47360551132442197,0.9978196743715453,0.0021734746256896176
-0.47320573662218524,-0.47320573662218524,1.0009336381669678,0.0019019769277591994
-0.47299588209061766,-0.47299588209061766,0.9999371361654277,0.0021109605862066685
-0.4726516251161229,-0.4726516251161229,1.0002075670020631,0.0022452314526305228
-0.4724221823213156,-0.4724221823213156,0.9975545479335354,0.0017517758370491881
-0.4722878014203161,-0.4722878014203161,0.9987808155838025,0.0043882901387502105
-0.47205044309594085,-0.47205044309594085,0.9989921164052211,0.0017127248176057263
-0.47195907597488257,-0.47195907597488257,0.9986333975858107,0.0019400015703137225
-0.47175444552412954,-0.47175444552412954,1.0007829962383203,0.0014999378189708523
-0.4715844298385491,-0.4715844298385491,1.0000646598932759,0.002116893246758952
-0.4711808304498845,-0.4711808304498845,0.9999652533202207,0.0017273710140366788
-0.4708148843354138,-0.4708148843354138,0.9992976400678968,0.002191641206957989
-0.470354962933925,-0.470354962933925,0.9982333146199569,0.002095608212084044
-0.47007598619165947,-0.47007598619165947,0.9994527856555196,0.0021411498256787647
-0.4697850695178204,-0.4697850695178204,1.0009911976293906,0.001904250414011454
-0.46945456420362464,-0.46945456420362464,1.0002677852180157,0.0017433436424691671
-0.46923192435278904,-0.46923192435278904,1.0013143099577049,0.0019241982446670802
-0.46899459479463984,-0.46899459479463984,1.001822444965103,0.001957434816041443
-0.4685907738392416,-0.4685907738392416,0.9976929582746337,0.002139355734401402
-0.46827947092897376,-0.46827947092897376,1.0025860025703421,0.0023178335100322873
-0.4678504275616433,-0.4678504275616433,1.0003406986019097,0.0028822524747132354
-0.4676107730338117,-0.4676107730338117,0.9982189681965806,0.0017535267505968185
-0.4673496037685254,-0.4673496037685254,0.9997566138808536,0.0018870118667048525
-0.4670699775728281,-0.4670699775728281,0.9957331900192568,0.0021635011721026845
-0.46679245177292616,-0.46679245177292616,0.9984623082347476,0.0017151371243344811
-0.4665403345177765,-0.4665403345177765,0.9990485990478091,0.002317669488321382
-0.4663457606395241,-0.4663457606395241,0.9997881637290611,0.0020890791469718646
-0.46596778410385015,-0.46596778410385015,1.001557249251706,0.002049370360136991
-0.46568178151428585,-0.46568178151428585,1.0016785949101226,0.0019863133053530362
-0.4654058472464385,-0.4654058472464385,1.000054252677729,0.0019213540360862532
-0.4650440164958127,-0.4650440164958127,1.0002027814745573,0.00194132259951752
-0.4647725976727088,-0.4647725976727088,0.998513759982991,0.0017041115200387802
-0.46441648791733314,-0.46441648791733314,0.997231473984141,0.002469320428625867
-0.4641572851585806,-0.4641572851585806,1.0002771910422759,0.002273509576615739
-0.4639027163218998,-0.4639027163218998,0.998928670506934,0.0018920634289374054
-0.46357776150616703,-0.46357776150616703,0.9974869046873549,0.002853572675717472
-0.46326509786376846,-0.46326509786376846,0.9995917825285598,0.0019272662197352263
-0.46292472851928324,-0.46292472851928324,1.0010980431589274,0.0022086028028138
-0.4626299598043261,-0.4626299598043261,1.0013401082633113,0.0015437064529352457
-0.4623592885436665,-0.4623592885436665,0.9962921317435912,0.002261525614039236
-0.4621481316818972,-0.4621481316818972,1.0003937904037763,0.0023094976418603823
-0.4617644925187051,-0.4617644925187051,1.0004594094026085,0.0022232859043075414
-0.4613776102894917,-0.4613776102894917,1.0008636019620074,0.0019991722071230123
-0.46110368551453573,-0.46110368551453573,1.0008689067183583,0.0019180445715498919
-0.46074740589174323,-0.46074740589174323,0.9986067328617855,0.0017560050239863764
-0.46049310526141196,-0.46049310526141196,1.001229789103223,0.0018902448154079234
-0.46016993317389276,-0.46016993317389276,0.9980825182190749,0.002368103450639582
-0.4598389098973712,-0.4598389098973712,0.9992025522642172,0.001740511310672637
-0.45945343112762205,-0.45945343112762205,1.0036670662987368,0.003961033057384293
-0.4592614619723463,-0.4592614619723463,1.0017536520816903,0.0019238074688285403
-0.4589705425016291,-0.4589705425016291,0.9983563093782584,0.002080361269470245
-0.45871597634904904,-0.45871597634904904,0.9983654652398805,0.001733400833238314
-0.4585520415865176,-0.4585520415865176,1.0005735786133902,0.0020621802783468623
-0.4583124530734494,-0.4583124530734494,0.9993845864018898,0.0017319254130382547
-0.458000577193161,-0.458000577193161,0.9990200145622806,0.0020925978403872406
-0.45775999948236856,-0.45775999948236856,1.001476973226179,0.0022622293288488797
-0.45730732382726275,-0.45730732382726275,0.9985918689763041,0.0023238158602484128
-0.4570138951232366,-0.4570138951232366,1.0026438009243628,0.002050565431414201
-0.45665451276072416,-0.45665451276072416,1.002912423848553,0.002312262444428284
-0.45640489535435336,-0.45640489535435336,0.9976504720886593,0.00186922226953351
-0.45614686337503374,-0.45614686337503374,1.0003943989250983,0.001902216419357197
-0.45581328296466384,-0.45581328296466384,0.9998376656783599,0.0025264782113025032
-0.4554427387738542,-0.4554427387738542,1.0022100565810894,0.002718679312201042
-0.45510505428756004,-0.45510505428756004,0.9991992022903686,0.003052037968751215
-0.4549283444335742,-0.4549283444335742,1.0007051081198193,0.0020850645319072437
-0.45464529446544477,-0.45464529446544477,1.0004331987078003,0.001746256967783754
-0.4543171618803171,-0.4543171618803171,0.9897658477341256,0.0036084955981346713
-0.4541426102805417,-0.4541426102805417,0.9990112357544833,0.002075230619204467
-0.45387842212803664,-0.45387842212803664,1.0020362677049224,0.0017710878106859426
-0.45355108906660463,-0.45355108906660463,0.9980842078035421,0.0020880318059957412
-0.45320882264204554,-0.45320882264204554,1.0000246535688393,0.0022059192583740047
-0.45278453579667255,-0.45278453579667255,1.0006128487451147,0.0021753014470719794
-0.45259211179291015,-0.45259211179291015,0.9956319164606964,0.0028504270093925
-0.4522764849170926,-0.4522764849170926,1.0003414291555905,0.002065238986507761
-0.4519822306174319,-0.4519822306174319,1.0009899611238418,0.0015805876852386183
-0.45175953220314113,-0.45175953220314113,0.9981495747803212,0.0018919891202835257
-0.45149944109361967,-0.45149944109361967,0.9995129624964504,0.002648358271285528
-0.4509759652260982,-0.4509759652260982,1.0035435553702894,0.0043817765295572145
-0.4506445579652791,-0.4506445579652791,0.999899271047609,0.0020934614227733376
-0.45031884527415966,-0.45031884527415966,1.0000747320933412,0.002098815573977983
-0.4500475022869068,-0.4500475022869068,1.0009057149475098,0.002493908645457453
-0.4497281321309856,-0.4497281321309856,1.0013484658894094,0.0018966446815357114
-0.44955043481531903,-0.44955043481531903,1.003064823412877,0.0017730837491456894
-0.44930007693765217,-0.44930007693765217,0.9986224200644246,0.0021268973870415646
-0.44907715613153415,-0.44907715613153415,1.0023290147906276,0.0019057101094184683
-0.4487306866183644,-0.4487306866183644,0.998979081276725,0.002283156777242225
-0.44836739802994996,-0.44836739802994996,0.9991662712929752,0.0020465578943596957
-0.44818092703280854,-0.44818092703280854,1.0011765398359522,0.0033359759203010187
-0.44790367844034334,-0.44790367844034334,0.9974128439035042,0.0024289856037264107
-0.44753378417808565,-0.44753378417808565,1.0016518895586666,0.0015839905787931729
-0.4473973715692409,-0.4473973715692409,0.9965500560025656,0.0026948669965611346
-0.44700640106675565,-0.44700640106675565,1.000151039931391,0.0018861371031516788
-0.4464073236922559,-0.4464073236922559,0.9978810680978363,0.003473876621114308
-0.44608686729334296,-0.44608686729334296,0.9940652213959108,0.003743204426692755
-0.445805044505687,-0.445805044505687,1.0001931143557123,0.0017224323627180432
-0.44539168714982225,-0.44539168714982225,1.0029226509292208,0.0017459895176897232
-0.44520742251770573,-0.44520742251770573,1.0006740873429656,0.0021649365554916927
-0.4449528356730298,-0.4449528356730298,0.9967914635534953,0.0021581314287100473
-0.4447362372549833,-0.4447362372549833,0.9993118540812109,0.002155043791000769
-0.44447584383233335,-0.44447584383233335,1.0000033952586818,0.0023792945756856898
-0.44412521267367994,-0.44412521267367994,0.9994867790707801,0.002436016240639219
-0.4439465375369764,-0.4439465375369764,1.0011395432917713,0.002920529289134835
-0.4436946466295922,-0.4436946466295922,0.9997814125740373,0.0025356376889651764
-0.4433441018685699,-0.4433441018685699,0.9999832016708099,0.001592256164842408
-0.4430799881251005,-0.4430799881251005,1.0013742985252558,0.002701371312965532
-0.4427570442770957,-0.4427570442770957,0.9984694596216904,0.00189423417253966
-0.4422531231335597,-0.4422531231335597,0.9948849778608588,0.0036329557831254592
-0.44201500332637805,-0.44201500332637805,0.9988160135869653,0.0017636550779167592
-0.441708547752205,-0.441708547752205,0.9989795199326226,0.002249910107912034
-0.44140810598619284,-0.44140810598619284,1.0003821667959418,0.0018804347883308915
-0.44108515843763596,-0.44108515843763596,1.0009958055224943,0.001989501539487443
-0.44075178632483586,-0.44075178632483586,1.0028268484702274,0.0019769559223625456
-0.44048694988377973,-0.44048694988377973,1.0026667474032753,0.0017161849830150053
-0.44017825058544985,-0.44017825058544985,1.0001967621966996,0.0025421055717937766
-0.4397462109627668,-0.4397462109627668,0.9992310596976084,0.002472625122375382
-0.43945153545355425,-0.43945153545355425,1.000083431057655,0.0021996518397016233
-0.4391241867662757,-0.4391241867662757,1.0024818118939802,0.0017338843673000864
-0.4388678408606211,-0.4388678408606211,0.9965833374293215,0.0025107186387480175
-0.43867688944374095,-0.43867688944374095,0.9990759157532711,0.002205273790041776
-0.43820971376626405,-0.43820971376626405,0.9984666425339748,0.0015542745101485554
-0.4379014239260869,-0.4379014239260869,1.005799691793533,0.003750833221402696
-0.4375206432589039,-0.4375206432589039,0.9987834998215052,0.001929114506288885
-0.43716261528825273,-0.43716261528825273,0.9990422531566466,0.002044655944887154
-0.43684622428845615,-0.43684622428845615,0.9994769449603149,0.0015420171119724126
-0.43664928236612466,-0.43664928236612466,0.997421910385224,0.0019899498692856525
-0.4363730140867119,-0.4363730140867119,0.9983917157296766,0.001990060266352715
-0.4361787356036075,-0.4361787356036075,1.0013688078576741,0.0017175723681852751
-0.43588409155345287,-0.43588409155345287,1.0005179865601843,0.0020477047700001175
-0.4353628943477815,-0.4353628943477815,1.0039893023496171,0.0022206774420574283
-0.4350813668934279,-0.4350813668934279,0.9990450313761186,0.002460932769481077
-0.43475570272421465,-0.43475570272421465,0.9979210168724851,0.001763292008780408
-0.43454087488426013,-0.43454087488426013,1.0017244700264152,0.0017090510203843564
-0.4343808040357544,-0.4343808040357544,1.0002668845248341,0.0019312914970421753
-0.4339473706000717,-0.4339473706000717,0.9960883999747416,0.0019436367373833353
-0.43373659927601693,-0.43373659927601693,0.9966297661965653,0.003670865178784942
-0.4332899444081704,-0.4332899444081704,0.999049793056877,0.002098908104439448
-0.43277140324862556,-0.43277140324862556,0.9992780639096104,0.0020637581178379457
-0.43245669594834907,-0.43245669594834907,1.0010765365913037,0.0019678985834597133
-0.43222745004386526,-0.43222745004386526,0.9985207839958701,0.001707330014561019
-0.4320367285501561,-0.4320367285501561,0.9969426993111599,0.0019872690971331985
-0.43182506558514433,-0.43182506558514433,0.9990041388727844,0.0021709002283885966
-0.4315749868321291,-0.4315749868321291,1.0007028584850972,0.0020612094279430816
-0.43117778871455814,-0.43117778871455814,1.00062436375655,0.002423915698821598
-0.43087916348085853,-0.43087916348085853,0.9991078140991055,0.002477192131502249
-0.4305864714820927,-0.4305864714820927,0.9987259337717245,0.0019544383452636963
-0.43032091994246,-0.43032091994246,1.0010972632066826,0.0025389513096876564
-0.43015023301704786,-0.43015023301704786,1.0018766333706157,0.0017379426261440781
-0.4298518344628974,-0.4298518344628974,1.0009282697735364,0.001904135025788557
-0.42945691736385927,-0.42945691736385927,1.0032079354855372,0.0036598048073458477
-0.4291591868524847,-0.4291591868524847,0.9988618243211274,0.0028807480629630556
-0.4288151718836161,-0.4288151718836161,0.9990200038651246,0.0019326478623080128
-0.42846014137758176,-0.42846014137758176,1.0016661519972059,0.0020625774315540064
-0.42817659291031307,-0.42817659291031307,1.0020427051530583,0.0020209730981780643
-0.4279468612294295,-0.4279468612294295,1.0020720300495345,0.0021291498812771674
-0.4276588765547785,-0.4276588765547785,0.9994985179044222,0.0019804820096900383
-0.4274669324637216,-0.4274669324637216,0.9991024183318211,0.00219806874717881
-0.42708900475117845,-0.42708900475117845,1.0005359031003649,0.001905199701028248
-0.42691775914281604,-0.42691775914281604,1.0038619363941614,0.0027421956023224088
