time,time,flux,flux_err
-0.4999478919883889,-0.4999478919883889,0.9999024562419949,0.00013723888676163803
-0.4998291895881266,-0.4998291895881266,0.9998695608006813,0.00016529763292274794
-0.4996168144492306,-0.4996168144492306,1.0000136453638901,0.00015515262168178242
-0.49931397076215944,-0.49931397076215944,1.0000853016677511,0.00013907365220992452
-0.4991475853814336,-0.4991475853814336,0.9999237276371474,0.00014677527645438776
-0.49904764944440105,-0.49904764944440105,1.0001065933443525,0.00012609475511412419
-0.498989386708854,-0.498989386708854,1.00016051478431,0.00012568060964550577
-0.4988673249456042,-0.4988673249456042,1.0001247646695584,0.00013724515567695232
-0.49867819414066616,-0.49867819414066616,0.9999889381932553,0.00013508679795590537
-0.49846431507903616,-0.49846431507903616,0.9999928588443219,0.00012900096488264562
-0.49833799151310815,-0.49833799151310815,0.9999984881400918,0.00013589531481375457
-0.4981782304370427,-0.4981782304370427,1.0001283032167905,0.00013821112177255906
-0.49796303281764265,-0.49796303281764265,1.0002559361127108,0.00015260864754929713
-0.4976820131436398,-0.4976820131436398,0.9999328367639894,0.00013475000667166013
-0.49756158479576695,-0.49756158479576695,0.9999572686627266,0.00013253085510791065
-0.49746870434246376,-0.49746870434246376,0.9999316695670878,0.0001373406772832423
-0.49737199567389323,-0.49737199567389323,0.9999767481151174,0.00012490708373232845
-0.4971376872534165,-0.4971376872534165,0.9997969522464828,0.00013676093319913682
-0.49695051909948235,-0.49695051909948235,1.0001341518771742,0.00012885939572255015
-0.49677694123020044,-0.49677694123020044,0.9998653647857146,0.00014541326275138464
-0.4966312253192882,-0.4966312253192882,1.0000469486186463,0.00013822462027496304
-0.49633638945815617,-0.49633638945815617,1.0001054147522164,0.0001439369428368839
-0.4961445364817337,-0.4961445364817337,1.00016933541472,0.00013508491340823078
-0.49600353198475206,-0.49600353198475206,1.0000961330079634,0.0001263608867054663
-0.49591563800131555,-0.49591563800131555,0.9998757394313106,0.0001384534628464127
-0.49579294304930954,-0.49579294304930954,1.0001732068639473,0.0001319862484359682
-0.49565554993459954,-0.49565554993459954,1.0000873112356998,0.0001359059613428772
-0.4954629603686044,-0.4954629603686044,1.0000041861806124,0.00013109739241998466
-0.4953723802645982,-0.4953723802645982,0.9999117272126741,0.0001350532074173225
-0.49530026915090275,-0.49530026915090275,1.0000952623360047,0.00013665195427517895
-0.49522377851244526,-0.49522377851244526,1.0001235514847666,0.00012880398440440823
-0.49510872414321055,-0.49510872414321055,0.9998897377883639,0.00013461986304810222
-0.49497568023289207,-0.49497568023289207,0.9998996927119099,0.0001461704183834874
-0.4947634590731468,-0.4947634590731468,0.9999005253975255,0.0001279282748310858
-0.49462060221994764,-0.49462060221994764,1.0000345983319519,0.0001366182873616364
-0.4943863334097841,-0.4943863334097841,1.0000715634164805,0.0001370783408359304
-0.49423314872474294,-0.49423314872474294,1.0000381888647096,0.00014424659193227376
-0.4940630925353616,-0.4940630925353616,1.0003582804663886,0.00013719527882569948
-0.4938906547758961,-0.4938906547758961,1.00007777636986,0.00013398522880646887
-0.49374419635059896,-0.49374419635059896,1.0002525293823896,0.00013054037549659156
-0.49365407829754987,-0.49365407829754987,1.000078080731198,0.0001770750813946713
-0.4935427934520703,-0.4935427934520703,1.0002056966529593,0.00013552570446195728
-0.49346840580546997,-0.49346840580546997,0.9999957266187179,0.0001313581026467111
-0.49338250136206624,-0.49338250136206624,0.9999927497796179,0.00013581281718447796
-0.4932557871368772,-0.4932557871368772,1.000080720467374,0.00014584693086483195
-0.4930489966223831,-0.4930489966223831,0.999819106993048,0.0001259430309671419
-0.49289500292870797,-0.49289500292870797,1.0001329209440535,0.0001505048943478937
-0.4926953820810013,-0.4926953820810013,0.9998009727180026,0.00013682630032647126
-0.49256789663268136,-0.49256789663268136,1.00005965625003,0.00013343653964632468
-0.4922667824976088,-0.4922667824976088,0.9999287271872663,0.00013823366528061502
-0.4921100724008284,-0.4921100724008284,0.9998784890806615,0.0001359649125749402
-0.49206695932589356,-0.49206695932589356,0.9998470406188478,0.00012820435014933382
-0.4919617370920605,-0.4919617370920605,1.0000829238700444,0.00013380402464889106
-0.4918431542078906,-0.4918431542078906,1.0000047473905807,0.00012623976709531437
-0.49172619397140804,-0.49172619397140804,1.00009502772977,0.0001430018540110866
-0.4916051509419049,-0.4916051509419049,0.9999214299370193,0.00014693546358862729
-0.49141282461132507,-0.49141282461132507,1.0001151687802092,0.00013576851890703028
-0.4912092655438755,-0.4912092655438755,0.9998870972971474,0.00013387012622556176
-0.49099563835043225,-0.49099563835043225,0.9998041199601502,0.0001360066704410321
-0.49089706683516854,-0.49089706683516854,1.0001304482542426,0.00013347016883513083
-0.4907628827379085,-0.4907628827379085,0.9999740437971465,0.00014722571054967475
-0.4905975824898633,-0.4905975824898633,1.0000202526551323,0.00012414792667142066
-0.49053167960228167,-0.49053167960228167,1.0000394281744662,0.00013517284687194242
-0.49045010658446697,-0.49045010658446697,0.9998901932064509,0.00012443896146257637
-0.4903651198510488,-0.4903651198510488,1.0001650137741755,0.0001348053230894068
-0.4902445914049167,-0.4902445914049167,1.000240303872943,0.0001241568496610134
-0.4900717501943291,-0.4900717501943291,0.9999597098481001,0.00013705912312912883
-0.4899136558713508,-0.4899136558713508,1.0000498039765717,0.00014856854510073966
-0.489804008493229,-0.489804008493229,1.000050733905356,0.0001428513081419691
-0.4896791638369905,-0.4896791638369905,1.000197406743212,0.00013370935424877116
-0.4894341128310771,-0.4894341128310771,1.0000733947293399,0.00013527820831394765
-0.48934069533788715,-0.48934069533788715,0.9999852701654512,0.00014366054916074836
-0.4892414887268387,-0.4892414887268387,0.9999205529346178,0.00015016710523164036
-0.48916670329927003,-0.48916670329927003,0.9999391523053781,0.00012465091121906767
-0.4891013925029256,-0.4891013925029256,0.9998246777594355,0.00012620983046561046
-0.48895940156289724,-0.48895940156289724,1.00007889075633,0.0001373874323451543
-0.4888484315546521,-0.4888484315546521,0.9998041741383696,0.0001263733693712791
-0.48863482473170733,-0.48863482473170733,0.9998652346909369,0.00012256118616402986
-0.4885168091030209,-0.4885168091030209,0.9999169882423592,0.00013522756751430557
-0.48838114082609535,-0.48838114082609535,0.9999330482503431,0.00013887806755633763
-0.4882357007430983,-0.4882357007430983,0.9998282954868749,0.00013657921804641763
-0.4881029396012309,-0.4881029396012309,0.999957423336021,0.00015390254445535204
-0.48790479787858204,-0.48790479787858204,0.9999563191692016,0.00012739931269657143
-0.4877572184501332,-0.4877572184501332,0.9997405605195105,0.00013461094464382964
-0.48766429628012703,-0.48766429628012703,0.9998524179793048,0.00013214886660180007
-0.48753169043338856,-0.48753169043338856,0.9999945576970634,0.0001264298344290235
-0.48736033367094933,-0.48736033367094933,1.0000626623786668,0.0001258449196872119
-0.4871403821744025,-0.4871403821744025,0.9999398293338361,0.00013387414306904562
-0.4870470586189185,-0.4870470586189185,1.0001271213959568,0.00014504700208192966
-0.4868794848305697,-0.4868794848305697,0.9997976641318778,0.00013815842331262997
-0.4867043740538065,-0.4867043740538065,0.9998789334988176,0.00013591570274643344
-0.48650189337786287,-0.48650189337786287,1.0000325972333743,0.00013729085976922568
-0.48633689501875776,-0.48633689501875776,0.9997189582792748,0.00013783818125235592
-0.4861998771863,-0.4861998771863,0.9999026631892292,0.00012399777242826362
-0.48607164802451736,-0.48607164802451736,1.0000049021506154,0.0001369730845629436
-0.4859375740867108,-0.4859375740867108,1.0000843718032921,0.0001404225752816347
-0.4858048783622507,-0.4858048783622507,0.999687925345816,0.00013346210621109397
-0.48568983556688183,-0.48568983556688183,1.0000941573666209,0.00012795348073019915
-0.4855306922487216,-0.4855306922487216,0.9997751212662569,0.00013115478262010365
-0.48539527140092104,-0.48539527140092104,1.000246193998024,0.0001347880822772568
-0.48531375141246824,-0.48531375141246824,1.0000970797978153,0.0001382995071473363
-0.4851495457500278,-0.4851495457500278,1.000118773323139,0.00013546218173044044
-0.4850255859120807,-0.4850255859120807,0.9998331914097591,0.00013474038842851117
-0.48489371978357665,-0.48489371978357665,1.000052519809658,0.00012463522431737227
-0.4847421579754155,-0.4847421579754155,0.9999051820851141,0.00013685125564404053
-0.48456179579370656,-0.48456179579370656,0.9997813932322437,0.00014430164211624003
-0.4844064020784572,-0.4844064020784572,1.0000287472635996,0.0001270307555029479
-0.4841952244911226,-0.4841952244911226,1.000097451721341,0.00014556328235728762
-0.48404485237551853,-0.48404485237551853,1.000045624298239,0.00013528961038828497
-0.48395031007385114,-0.48395031007385114,1.000137631264583,0.00012587587346989403
-0.48381041786196877,-0.48381041786196877,1.0002413652319524,0.00013791319230256377
-0.4837125894831843,-0.4837125894831843,1.000134263946188,0.00013288131334375617
-0.4835950270287867,-0.4835950270287867,1.0000524581937695,0.00013521776637031733
-0.4835210149438353,-0.4835210149438353,0.9998565763477071,0.00013289218613680862
-0.4834290015300212,-0.4834290015300212,1.00018142512118,0.00013582107971491208
-0.4833793995130691,-0.4833793995130691,1.0000129826230206,0.0001351031860643248
-0.4832878461260407,-0.4832878461260407,0.9998034663187759,0.00014192392131929678
-0.4831122679868713,-0.4831122679868713,0.9999738861711094,0.00012871315287534983
-0.483010521842516,-0.483010521842516,1.0001013295413301,0.00014130908925363703
-0.4827522589926957,-0.4827522589926957,0.9999094271737358,0.00013614381773683194
-0.48258205573511076,-0.48258205573511076,1.0000191960086788,0.00013637660901412175
-0.4823353951207537,-0.4823353951207537,0.9997998799635285,0.00013620025967271958
-0.4821920558351849,-0.4821920558351849,1.000173008700242,0.0001268790556135584
-0.4821262510689849,-0.4821262510689849,0.9997559240558342,0.00013620823897759484
-0.48199885983340207,-0.48199885983340207,1.0001977356412843,0.00013539527365159066
-0.48189214189114865,-0.48189214189114865,0.9999781628337244,0.00012264702904788466
-0.481784845484799,-0.481784845484799,0.9999081776322567,0.0001344456309085382
-0.4816544974637509,-0.4816544974637509,0.9999267072059347,0.0001365110522191506
-0.4814888736284047,-0.4814888736284047,1.0000013502268352,0.00014462649953351475
-0.48139334830630104,-0.48139334830630104,1.0001300938577407,0.00013265246442664005
-0.481210545310023,-0.481210545310023,0.9999847688200958,0.00013334206621050523
-0.4809978459816193,-0.4809978459816193,0.9999621276067471,0.00013745523236129937
-0.48082586955715667,-0.48082586955715667,1.0000714134502384,0.0001398984887769627
-0.4807084360625595,-0.4807084360625595,0.9999802877593782,0.00013329750215488093
-0.48057223662326576,-0.48057223662326576,0.9998911935784811,0.0001257711324512862
-0.48036962223341106,-0.48036962223341106,1.0002607696855201,0.00016052137719103156
-0.480234024933452,-0.480234024933452,0.9999847034739855,0.00012716174164744315
-0.4801103122146742,-0.4801103122146742,1.0000341638997134,0.00013990112473535922
-0.4799735151063942,-0.4799735151063942,0.9999593083641001,0.00012415676169412528
-0.47991405116335956,-0.47991405116335956,1.0001821705496443,0.00014670682606019852
-0.4798155074749957,-0.4798155074749957,0.9999076837597197,0.00014417411923559872
-0.4795922864897875,-0.4795922864897875,1.0001238855568564,0.0001387832772016677
-0.4794226821919437,-0.4794226821919437,1.0000802541782483,0.0001250908476839396
-0.47929487645888,-0.47929487645888,0.9999926168533276,0.0001342908668866707
-0.4792107165725611,-0.4792107165725611,0.9999295992246662,0.00012759370420320807
-0.4790661056969839,-0.4790661056969839,0.9999489251954949,0.00012486315145497032
-0.47894129240812616,-0.47894129240812616,0.9999245951652757,0.0001345253736233381
-0.47882737563923,-0.47882737563923,0.9998962501296663,0.0001239832236853234
-0.4787096731648489,-0.4787096731648489,1.0001605163267395,0.00012256345618869217
-0.4785901027338696,-0.4785901027338696,1.0001027803040965,0.0001354133510660281
-0.478454307778884,-0.478454307778884,1.0001171308829817,0.00013089367310134572
-0.47833062847712426,-0.47833062847712426,0.9998862375163122,0.00013379208669246216
-0.47818706401376404,-0.47818706401376404,0.9998121048973511,0.0001541167486633145
-0.4779796316906868,-0.4779796316906868,1.0000873788542408,0.0001366384420269558
-0.4777808966522571,-0.4777808966522571,0.9998238496818299,0.00013407994055085712
-0.47768547102823505,-0.47768547102823505,0.9999876281232382,0.00013372248708981026
-0.4776461880057468,-0.4776461880057468,0.9999301250547459,0.00012653821414872803
-0.4775492904838757,-0.4775492904838757,0.9998825264342258,0.0001399511921423657
-0.4774312066503626,-0.4774312066503626,0.9998933473851078,0.00012602735289497577
-0.4773011902725557,-0.4773011902725557,1.000056454633822,0.0001506694412206705
-0.4771236818676698,-0.4771236818676698,1.0001493065479632,0.0001271338737014043
-0.47706076601025416,-0.47706076601025416,0.9998272431318528,0.00013384170639390414
-0.4769699768716237,-0.4769699768716237,0.9999263876556576,0.0001304384962028345
-0.47683538322380625,-0.47683538322380625,1.0002542118656734,0.00013314033094050432
-0.47666665766300864,-0.47666665766300864,1.0002169726216152,0.00013541518738366162
-0.47645219042242387,-0.47645219042242387,0.9999308851305315,0.00012899643321959248
-0.4763037560071098,-0.4763037560071098,0.999932329121172,0.00013458370250340226
-0.4761314153911371,-0.4761314153911371,1.0000485251739808,0.00013755702382465133
-0.4760216953793133,-0.4760216953793133,1.0001203469936528,0.0001418663622299487
-0.475895008182124,-0.475895008182124,0.9998331672145507,0.00014290778816548715
-0.47572695759590716,-0.47572695759590716,1.0000194691375106,0.00012660659267892363
-0.4755185901580262,-0.4755185901580262,1.0002053789096754,0.00013320543779696137
-0.4754263869021088,-0.4754263869021088,1.0000677302250862,0.00013802967674269025
-0.4753274287977547,-0.4753274287977547,0.9999918373174926,0.00015831532150971964
-0.47526007344567917,-0.47526007344567917,0.9996416301418363,0.00013546534947316683
-0.4751117202693422,-0.4751117202693422,0.9998449479085296,0.0001350243005630614
-0.4750219443136302,-0.4750219443136302,0.9998908229637788,0.00013411210832177376
-0.47490040475167916,-0.47490040475167916,1.0001035108346823,0.00012572863760033367
-0.47473829237278553,-0.47473829237278553,1.0001064895482081,0.000143159181160689
-0.47450302688303053,-0.47450302688303053,1.000047449517706,0.00014538373411415438
-0.47435617230512434,-0.47435617230512434,1.000073000376824,0.00012256664999894896
-0.4742202574794646,-0.4742202574794646,1.0001132544199407,0.0001581997841973115
-0.47408275197594774,-0.47408275197594774,1.0000317117981836,0.00012579172733856596
-0.47387559928756673,-0.47387559928756673,1.0000299790771856,0.0001358469254806362
-0.47384745961026054,-0.47384745961026054,1.0001749597658995,0.00013007841268344717
-0.47377553205296863,-0.47377553205296863,1.0000434258260444,0.00013302483179762793
-0.4736700076617126,-0.4736700076617126,0.9999428757577743,0.00012419732052744288
-0.4735727668485197,-0.4735727668485197,0.9998179809729647,0.0001247688904932409
-0.473454200411652,-0.473454200411652,0.9998854074214873,0.00014328534323732107
-0.4733312338037649,-0.4733312338037649,1.000070014975683,0.00014639201959811254
-0.4731400057062274,-0.4731400057062274,1.0002158883120342,0.0001298470332172821
-0.47297823650369536,-0.47297823650369536,1.0001794197120373,0.00013636272612398153
-0.4727729131074739,-0.4727729131074739,0.9999708853418575,0.0001355180886390942
-0.4726625939314545,-0.4726625939314545,1.000129070774944,0.00013535626460858374
-0.4725382736221945,-0.4725382736221945,0.9999045455983151,0.00014574533524102648
-0.47232369871708213,-0.47232369871708213,1.0001048535110477,0.00012980337902285312
-0.4722421752136142,-0.4722421752136142,1.000449520010112,0.0001237014717731629
-0.47216958952049026,-0.47216958952049026,1.0003222052186413,0.00013326329756456625
-0.4719818313133146,-0.4719818313133146,0.9998595131150696,0.00012411782097958459
-0.4718323318280454,-0.4718323318280454,1.0001185924652691,0.00013827538616864766
-0.47173077093975735,-0.47173077093975735,0.9999973984105,0.00013534620229754856
-0.47160406697221335,-0.47160406697221335,1.0000944937161447,0.000135658479756275
-0.47148234577689435,-0.47148234577689435,1.0001092368638,0.00014413013240889428
-0.4712202380520466,-0.4712202380520466,1.0002446747099127,0.00014275321320640226
-0.47107992947276217,-0.47107992947276217,0.9999936490974406,0.00013713194191243618
-0.47093601851083805,-0.47093601851083805,1.0000206253797095,0.0001365999598592303
-0.4708476900588721,-0.4708476900588721,0.9999861959500178,0.00012769492588583174
-0.4707856895736768,-0.4707856895736768,1.0000569162704616,0.00013568003138943123
-0.470632775186823,-0.470632775186823,0.999933080864986,0.00012720853027423074
-0.4704392601073778,-0.4704392601073778,1.0000268429473225,0.00012758162402216948
-0.47026542175444774,-0.47026542175444774,1.0000064197387504,0.00012749752334310013
-0.4701525788608706,-0.4701525788608706,1.000000497139389,0.00013585515630291152
-0.46998807939962717,-0.46998807939962717,0.9999106439126082,0.000138239797152846
-0.4697570439071569,-0.4697570439071569,1.000114759370196,0.00014443815495365672
-0.46951618441235043,-0.46951618441235043,0.9998948870686698,0.00013139667599055941
-0.46945256035542116,-0.46945256035542116,0.9999906147670676,0.0001259388056556552
-0.46935637331844193,-0.46935637331844193,0.999769440071206,0.00013414003130785224
-0.4692399604224192,-0.4692399604224192,0.9999434558563655,0.0001263494538270781
-0.4690966473041044,-0.4690966473041044,0.9999291029898025,0.00012600577994927988
-0.4689200793502096,-0.4689200793502096,0.9998607769096266,0.00013379406598509707
-0.4687178213236621,-0.4687178213236621,1.00004054471824,0.00013784832527853996
-0.46856520515066225,-0.46856520515066225,1.000184797605241,0.00013843229380084302
-0.4684236391389277,-0.4684236391389277,1.0000976033520135,0.00013684429316354358
-0.46825307764374885,-0.46825307764374885,1.0000550240209303,0.00013391234772374986
-0.4681090153833793,-0.4681090153833793,1.0000000157216968,0.00013629479985841094
-0.4679505424108356,-0.4679505424108356,1.0000736889208324,0.00013225407364039253
-0.4678219414970954,-0.4678219414970954,1.0002934462196902,0.00012637981448147383
-0.46773308812989856,-0.46773308812989856,1.0001770939980732,0.00013822965325120177
-0.4676092760957545,-0.4676092760957545,1.00009808188144,0.00013186921349711862
-0.4674992166881566,-0.4674992166881566,1.0001130690397826,0.00012620430600796765
-0.4672796913226193,-0.4672796913226193,1.0001008963704034,0.00013117615129173044
-0.4671641160770378,-0.4671641160770378,0.9999913866776773,0.00013443495518403143
-0.46708384448502327,-0.46708384448502327,0.9999043275468035,0.0001369255818179685
-0.4670160000794567,-0.4670160000794567,1.0000410919683562,0.00013505864030757705
-0.46687656741341926,-0.46687656741341926,1.0000067190047235,0.00013586379365364498
-0.4667185699327092,-0.4667185699327092,0.9998057742860998,0.0001365139713803715
-0.46655355134571436,-0.46655355134571436,1.0000917464364045,0.00012589897655385427
-0.4664388494238665,-0.4664388494238665,0.9999708594238458,0.00014771056216852664
-0.46627472293403116,-0.46627472293403116,0.9999944316607788,0.0001339288052446383
-0.4661187962956319,-0.4661187962956319,1.0000578785894616,0.00014290571535404317
-0.46593617069156607,-0.46593617069156607,1.0001324066631883,0.00014417628470339626
-0.46577445207731216,-0.46577445207731216,1.000029508937324,0.000121499302116488
