time,time,flux,flux_err
-0.4999674361710378,-0.4999674361710378,1.0001322918433047,0.00033455418556910146
-0.49990396596731435,-0.49990396596731435,0.9996124040749322,0.0003332257480386026
-0.4998404957635237,-0.4998404957635237,1.0001839434832325,0.00033165760913255734
-0.4997823147433505,-0.4997823147433505,0.999977346182428,0.00030179668970845756
-0.49972942290681777,-0.49972942290681777,1.0000947855911755,0.0003013549933197766
-0.49967653107029636,-0.49967653107029636,0.9998885903729459,0.00030140500296669756
-0.49962363923380104,-0.49962363923380104,1.0001799201673933,0.0003019674411078331
-0.4995707473973433,-0.4995707473973433,0.9998148506434603,0.00030240576552645484
-0.49951785556094164,-0.49951785556094164,1.0002112678474846,0.00030314391474540526
-0.4994649637245939,-0.4994649637245939,0.9995818547318139,0.00030363852244178163
-0.49941207188832937,-0.49941207188832937,1.0002394348392918,0.00030382889726537156
-0.49935918005215163,-0.49935918005215163,1.000104121932398,0.0003038324668526433
-0.49930628821606976,-0.49930628821606976,0.9997992156487043,0.00030379959781656323
-0.4992533963800943,-0.4992533963800943,1.0002620841636212,0.00030358523229299185
-0.4992005045442481,-0.4992005045442481,1.0000569239104593,0.0003035776844812749
-0.49914761270850316,-0.49914761270850316,0.9998677850282812,0.000303763509615704
-0.4990947208729034,-0.4990947208729034,1.0002018732278057,0.00030415220087609573
-0.4990418290374462,-0.4990418290374462,0.9997713950697242,0.00030415858884328637
-0.49898893720213194,-0.49898893720213194,1.0003539582439873,0.0003039421725519286
-0.49893604536697567,-0.49893604536697567,1.0000127410202302,0.00030320904779452754
-0.49888315353197904,-0.49888315353197904,0.9999942007843975,0.0003025138588141572
-0.49883026169715283,-0.49883026169715283,1.0002167377994882,0.0003018193582178264
-0.4987773698624913,-0.4987773698624913,0.9999108231666447,0.00030124821779121925
-0.4987244780280123,-0.4987244780280123,1.0001512146421327,0.0003009911891766049
-0.4986715861937164,-0.4986715861937164,0.9998076434389629,0.00030085610559265084
-0.4986186943596064,-0.4986186943596064,1.0000536339675548,0.00030079536278093845
-0.4985658025256877,-0.4985658025256877,0.9999948419678658,0.0003008701683558788
-0.4985129106919716,-0.4985129106919716,1.0000048627672542,0.0003009025669656499
-0.49846001885844354,-0.49846001885844354,1.000275887395233,0.00030092738523576623
-0.4984071270251279,-0.4984071270251279,0.9995094982621424,0.00030066750292538196
-0.49835423519201816,-0.49835423519201816,1.0003683115684123,0.00030030834040454
-0.49830134335911946,-0.49830134335911946,0.9998562953995858,0.00029979066618808026
-0.4982484515264357,-0.4982484515264357,0.9999347565599834,0.0002993186380970418
-0.4981955596939658,-0.4981955596939658,1.0002079760548397,0.0002992819746522166
-0.4981426678617179,-0.4981426678617179,0.9997370382919357,0.000299462226810574
-0.49808977602969345,-0.49808977602969345,1.000304882969962,0.0002997297643432703
-0.49803688419789244,-0.49803688419789244,0.9998826518828594,0.00029991522463937697
-0.4979839923663219,-0.4979839923663219,0.9999918259236609,0.0003002624391477597
-0.49793110053497847,-0.49793110053497847,1.0002176724566751,0.00030090923669439745
-0.4978782087038655,-0.4978782087038655,0.9999912404435569,0.00030182397991751985
-0.4978253168729867,-0.4978253168729867,1.0003118095474683,0.00030260042564136686
-0.49777242504234553,-0.49777242504234553,0.9999557638023333,0.00030301974868272125
-0.49771953321193835,-0.49771953321193835,1.0000509440458178,0.00030305698904502525
-0.49766664138177763,-0.49766664138177763,0.999825205329364,0.00030286814820449677
-0.49761374955184917,-0.49761374955184917,1.0000445749189457,0.00030282328054670324
-0.4975608577221691,-0.4975608577221691,0.9998239928208823,0.00030276943801049716
-0.49750796589273055,-0.49750796589273055,1.0002175037507706,0.00030264059405643866
-0.4974550740635416,-0.4974550740635416,0.9998146019349727,0.00030214433903369366
-0.4974021822345941,-0.4974021822345941,1.0002517153051425,0.0003016513483378326
-0.4973492904058963,-0.4973492904058963,0.999639869962269,0.0003009011174224342
-0.4972963985774487,-0.4972963985774487,1.000175167170351,0.00030020355843207887
-0.49724350674924783,-0.49724350674924783,0.9999361550119337,0.0002993681455859022
-0.4971906149213017,-0.4971906149213017,1.000066259137692,0.0002987864594259333
-0.49713772309360815,-0.49713772309360815,0.9998718451369542,0.00029845711476812476
-0.49708483126616587,-0.49708483126616587,1.0003196818903033,0.00029829723110265507
-0.49703193943898116,-0.49703193943898116,1.0001395209236381,0.00029815850215677696
-0.49697490089283525,-0.49697490089283525,0.9999800216960957,0.0002979689943033726
-0.49690398353171183,-0.49690398353171183,0.9998003032470413,0.000297403243855225
-0.49684576020931487,-0.49684576020931487,1.0001206404649652,0.0002969489380814494
-0.4967912604717772,-0.4967912604717772,1.0000722302915304,0.000296303744628219
-0.49673659148067684,-0.49673659148067684,0.9998534726947099,0.00029574499310041204
-0.4966807377129624,-0.4966807377129624,1.0000179697201639,0.00029524093810886327
-0.4966278458877459,-0.4966278458877459,0.9999557540044629,0.00029497824490472074
-0.4965749540627808,-0.4965749540627808,1.0000722100908113,0.00029505044518548536
-0.4965220622380876,-0.4965220622380876,1.0000948431040324,0.0002950122648334119
-0.49646917041365324,-0.49646917041365324,0.9997369770138681,0.0002949766170639634
-0.4964162785894811,-0.4964162785894811,1.000189963000895,0.0002951269714839491
-0.4963633867655733,-0.4963633867655733,0.9998375762289962,0.000295252435051388
-0.4963104949419227,-0.4963104949419227,1.0000193976085296,0.00029575248706317255
-0.49625760311854145,-0.49625760311854145,1.000055772061849,0.00029622991304621303
-0.49620471129542815,-0.49620471129542815,1.0001029688263767,0.00029660199932854305
-0.4961518194725757,-0.4961518194725757,1.0002256630551762,0.0002967189508055185
-0.49609892764999597,-0.49609892764999597,1.000035791386741,0.0002968333666960818
-0.49604603582766826,-0.49604603582766826,0.9997452427744922,0.00029685664842069584
-0.49599314400561384,-0.49599314400561384,1.0001041529569359,0.0002966355328602293
-0.49594025218382704,-0.49594025218382704,1.0000886430584237,0.00029606861159496003
-0.4958873603623112,-0.4958873603623112,1.0001548888328429,0.00029533468628460316
-0.4958344685410546,-0.4958344685410546,0.9998694110572884,0.0002945563605356575
-0.4957815767200695,-0.4957815767200695,1.0000463587474573,0.0002936866318121188
-0.49572868489935545,-0.49572868489935545,0.9999967766797205,0.00029268697536584604
-0.49567579307890747,-0.49567579307890747,1.0000670040096638,0.0002918796008616818
-0.4956229012587343,-0.4956229012587343,0.9999428452369135,0.0002912296167322004
-0.49557000943882745,-0.49557000943882745,1.0001982469043589,0.0002907402177162814
-0.49551711761918976,-0.49551711761918976,0.9997443360499745,0.0002902487512445795
-0.4954642257998237,-0.4954642257998237,1.0001249357815425,0.00028983524916614096
-0.4954113339807324,-0.4954113339807324,0.9999547573184865,0.000289521635744254
-0.49535844216191577,-0.49535844216191577,1.0001499049734126,0.00028919726095139156
-0.4953055503433618,-0.4953055503433618,0.9999900947611294,0.00028886830996725625
-0.49525265852508954,-0.49525265852508954,0.9998881695190507,0.000288348810782289
-0.4951997667070783,-0.4951997667070783,0.9999254566144508,0.00028756727585615646
-0.495146874889347,-0.495146874889347,1.0000190619818352,0.0002867783476750964
-0.49509398307188884,-0.49509398307188884,1.000247236231914,0.00028619926846987795
-0.49504109125470935,-0.49504109125470935,0.999761324107763,0.000285980992815538
-0.4949881994377976,-0.4949881994377976,1.000017202013596,0.0002859359657649566
-0.4949353076211656,-0.4949353076211656,1.000206285310477,0.0002859740931405985
-0.49488241580480546,-0.49488241580480546,1.0000662415543027,0.00028628021834925646
-0.4948295239887215,-0.4948295239887215,0.9999323663282869,0.0002867231470308542
-0.4947766321729198,-0.4947766321729198,0.9998134117315309,0.00028704577579542854
-0.494723740357393,-0.494723740357393,1.0002595584375436,0.00028733111150732897
-0.4946708485421392,-0.4946708485421392,1.00000365985268,0.00028754624018049595
-0.4946179567271619,-0.4946179567271619,1.0002135224255801,0.000287605852528263
-0.49456506491247226,-0.49456506491247226,0.9996934490487346,0.00028771813658549396
-0.4945121730980606,-0.4945121730980606,1.0002315294716495,0.00028761105287652435
-0.4944592812839188,-0.4944592812839188,1.0001073777363605,0.00028737490663038233
-0.49440638947006227,-0.49440638947006227,0.9997123720612464,0.00028705464671852765
-0.49435349765648606,-0.49435349765648606,1.0001946226865912,0.0002866154926426667
-0.49430060584319174,-0.49430060584319174,0.999905700993402,0.0002858665096530606
-0.4942477140301814,-0.4942477140301814,1.0001927202456558,0.00028494875544578425
-0.4941948222174476,-0.4941948222174476,1.0000585908053732,0.0002839946488479534
-0.4941419304050024,-0.4941419304050024,0.9998461904076379,0.000283003674980594
-0.49408903859284,-0.49408903859284,1.0001634302819669,0.00028220047832343
-0.4940361467809586,-0.4940361467809586,0.9997241478542286,0.0002815564749231717
-0.4939832549693583,-0.4939832549693583,1.000637558793096,0.0002812089874282864
-0.4939303631580517,-0.4939303631580517,0.9999749531086994,0.0002808552197624436
-0.4938774713470278,-0.4938774713470278,0.9999336857076502,0.00028073175113082073
-0.49382457953629044,-0.49382457953629044,1.0000813651563096,0.0002804158020479839
-0.4937716877258353,-0.4937716877258353,0.9998235285841123,0.0002798053050196799
-0.4937187959156744,-0.4937187959156744,1.000315861462973,0.00027923718618063303
-0.4936659041058011,-0.4936659041058011,0.9999981607687578,0.00027861730335000055
-0.4936130122962167,-0.4936130122962167,1.0001033463003277,0.00027798989230674853
-0.493560120486925,-0.493560120486925,1.0002432109762196,0.0002776890076307216
-0.4935072286779187,-0.4935072286779187,0.9996395767214551,0.00027744750789038833
-0.49345433686920315,-0.49345433686920315,1.0002717126338907,0.00027741604704730074
-0.49340144506078215,-0.49340144506078215,0.9999848201534233,0.00027744480788191974
-0.4933485532526536,-0.4933485532526536,0.9997799977240541,0.00027763585304284077
-0.4932956614448233,-0.4932956614448233,1.0003323029233018,0.0002779843702452809
-0.493242769637285,-0.493242769637285,0.9998352651326016,0.0002782570672348396
-0.4931898778300365,-0.4931898778300365,1.0002206712674764,0.0002784802354580297
-0.4931369860230942,-0.4931369860230942,0.9996064702801398,0.0002784232230433283
-0.4930840942164486,-0.4930840942164486,1.000141386609368,0.00027832732351116266
-0.49303120241009496,-0.49303120241009496,0.9998087454683953,0.0002782380132582543
-0.492978310604043,-0.492978310604043,1.0001080356036354,0.0002782405477811273
-0.49292541879828733,-0.49292541879828733,0.9995939050138901,0.00027795413167040187
-0.4928725269928367,-0.4928725269928367,1.000488674968623,0.00027787933467202834
-0.4928196351876856,-0.4928196351876856,0.9999210230121784,0.00027757005143911944
-0.4927667433828378,-0.4927667433828378,0.9998028970027756,0.0002773157076371821
-0.4927138515782934,-0.4927138515782934,1.000093580163017,0.00027684715970142677
-0.4926609597740558,-0.4926609597740558,0.9999974551415354,0.0002763393126213519
-0.49260806797012463,-0.49260806797012463,0.9998901858929108,0.0002759270102376904
-0.4925551761664986,-0.4925551761664986,1.0002825946760452,0.00027569129735359037
-0.4925022843631849,-0.4925022843631849,0.9999343452326347,0.000275529674440004
-0.49244939256017417,-0.49244939256017417,0.9998625249194866,0.0002754209228857315
-0.49239650075747754,-0.49239650075747754,1.000047896957812,0.00027515169956258766
-0.4923436089550859,-0.4923436089550859,1.000104883873092,0.00027475400318300404
-0.49229071715301165,-0.49229071715301165,0.9998179630271556,0.00027442197582880633
-0.49223782535125143,-0.49223782535125143,1.0000569906052228,0.0002742547778801767
-0.49217130862180297,-0.49217130862180297,1.0000375735729885,0.0002738708948499053
-0.49211723204441205,-0.49211723204441205,0.9999040486064029,0.0002732771367254177
-0.4920643402436909,-0.4920643402436909,1.0000396939304248,0.00027274532670194405
-0.4920114484432766,-0.4920114484432766,0.9999876421671623,0.0002724641990952307
-0.4919585566431971,-0.4919585566431971,1.0001770125487899,0.00027240900884288393
-0.49190566484343173,-0.49190566484343173,0.9998360404449145,0.0002726446402695453
-0.491852773044,-0.491852773044,0.9998506375679381,0.0002728987449663051
-0.49179988124487306,-0.49179988124487306,1.0001557367494418,0.00027307565520820487
-0.491746989446083,-0.491746989446083,1.0001222179891371,0.00027319010101698566
-0.4916940976476156,-0.4916940976476156,0.9998370454022936,0.0002732631330609755
-0.49164120584947807,-0.49164120584947807,1.000087523374551,0.00027323966129884483
-0.4915881447979221,-0.4915881447979221,0.9999729745766283,0.00027326334713687804
-0.4915333065823053,-0.4915333065823053,0.9999946293938955,0.00027310313283247366
-0.49148041478517335,-0.49148041478517335,1.000031898516,0.0002729909388212174
-0.4914275229883838,-0.4914275229883838,0.999866298242333,0.00027288182128249827
-0.49137463119192226,-0.49137463119192226,1.000250057178136,0.0002728574072448092
-0.49132173939580814,-0.49132173939580814,0.9997322380757879,0.00027287334550300856
-0.491268847600017,-0.491268847600017,1.0002941575461761,0.00027270405250570597
-0.49121595580457666,-0.49121595580457666,1.000086398813281,0.00027244305796091404
-0.49116306400948045,-0.49116306400948045,1.000088673519732,0.00027224612739539336
-0.4911101722147214,-0.4911101722147214,1.000046771379066,0.00027205340520919006
-0.4910572804203083,-0.4910572804203083,1.0000318948447062,0.00027176813348598304
-0.4910043886262458,-0.4910043886262458,0.999948791552225,0.00027168897821898554
-0.4909514968325327,-0.4909514968325327,1.000054834342076,0.00027163357443925524
-0.49089860503917276,-0.49089860503917276,0.9998935956995167,0.0002716591331842719
-0.49084571324616577,-0.49084571324616577,0.99996995131812,0.0002715833705800346
-0.4907928214535152,-0.4907928214535152,1.0000601246428933,0.00027151976681270644
-0.49073992966121205,-0.49073992966121205,0.9999433770817377,0.00027137798238227535
-0.49068703786927426,-0.49068703786927426,0.9999062278704238,0.00027117007256835903
-0.49063414607769296,-0.49063414607769296,1.0002275917272985,0.0002709861941705599
-0.49058125428648214,-0.49058125428648214,0.9998630500753263,0.0002707625881457126
-0.4905283624956295,-0.4905283624956295,0.9999772343387876,0.0002706271521214364
-0.49047547070515307,-0.49047547070515307,1.0001311132847708,0.00027042976799330804
-0.490422578915031,-0.490422578915031,0.9999568548214388,0.00027036019003675427
-0.49036968712528883,-0.49036968712528883,1.0000676353107387,0.0002704428984827728
-0.49031679533592226,-0.49031679533592226,0.9998711240936744,0.0002706973428363205
-0.49026390354691773,-0.49026390354691773,0.9999190815778629,0.00027086061836683456
-0.4902110117583014,-0.4902110117583014,1.0003438713553248,0.0002708365199122169
-0.4901581199700679,-0.4901581199700679,1.0000303925155376,0.000270665478197421
-0.4901052281822073,-0.4901052281822073,1.0001316703342975,0.0002706196137811561
-0.49005233639473483,-0.49005233639473483,0.9998914986681442,0.00027053714472526406
-0.4899994446076469,-0.4899994446076469,1.0000236664979476,0.0002705732311437892
-0.48994655282095645,-0.48994655282095645,1.00015884202469,0.00027055274193108256
-0.4898936610346493,-0.4898936610346493,0.9998973850922208,0.0002705538508332389
-0.48984076924874087,-0.48984076924874087,0.9999236445465544,0.00027049051681260976
-0.4897878774632279,-0.4897878774632279,1.0001653711195417,0.000270480589630824
-0.4897349856781121,-0.4897349856781121,1.0000311319972024,0.00027054032014347444
-0.48968209389340595,-0.48968209389340595,1.0000028213870167,0.00027062494226721284
-0.48962920210909705,-0.48962920210909705,0.9999970042817752,0.000270565051060973
-0.48957631032520704,-0.48957631032520704,1.0001029891901567,0.00027044121026509164
-0.4895234185417099,-0.4895234185417099,1.0001513983898664,0.000270300608588766
-0.4894705267586355,-0.4894705267586355,0.999982765061078,0.0002702990261489634
-0.489417634975974,-0.489417634975974,1.0000022483213329,0.0002703055346430841
-0.4893647431937347,-0.4893647431937347,1.0003934793183993,0.00027011870269134073
-0.48931185141192257,-0.48931185141192257,0.9999821281196951,0.0002700688376769116
-0.48925895963052224,-0.48925895963052224,0.999770403284385,0.00027003107130791227
-0.48920606784955767,-0.48920606784955767,1.0001547984589805,0.0002699893419972943
-0.4891531760690226,-0.4891531760690226,1.000315826677346,0.00027003700764760997
-0.4891002842889202,-0.4891002842889202,0.9999486653733503,0.00027006036017114104
-0.48904739250925544,-0.48904739250925544,1.0000321665799299,0.00027016831138207555
-0.48899450073003453,-0.48899450073003453,0.999942830274929,0.0002702909067378629
-0.48894160895125865,-0.48894160895125865,1.0000211845406681,0.00027036437572412937
-0.4888887171729241,-0.4888887171729241,0.9998385478239964,0.00027025563508436087
-0.4888358253950453,-0.4888358253950453,1.0001384042202268,0.00027019034989266265
-0.48878293361761493,-0.48878293361761493,0.9998885908392223,0.00027009837850722017
-0.4887300418406462,-0.4887300418406462,1.0000702144528897,0.00027013050287671465
-0.48867715006414025,-0.48867715006414025,1.000023419792696,0.0002701516802042828
-0.4886242582881035,-0.4886242582881035,0.9999391850036121,0.00027033757503611264
-0.48857136651252536,-0.48857136651252536,1.0001641267173025,0.0002704119844775797
-0.48851847473742166,-0.48851847473742166,0.9997363832260827,0.0002704421296542964
-0.48846558296279896,-0.48846558296279896,1.0001716081765986,0.0002705372657393822
-0.4884126911886546,-0.4884126911886546,0.9999138129342071,0.0002705816898093361
-0.48835979941500024,-0.48835979941500024,1.0002150656888669,0.00027059638388664134
-0.48830690764182805,-0.48830690764182805,0.9999300827386615,0.00027062970753154083
-0.4882540158691505,-0.4882540158691505,1.0000605992625724,0.00027047830814812496
-0.4882011240969658,-0.4882011240969658,0.9998179260514257,0.00027040663980091385
-0.488148232325287,-0.488148232325287,1.0001417353451552,0.000270540887127376
-0.48809534055411474,-0.48809534055411474,0.9997071422629109,0.00027056091915756894
-0.4880424487834518,-0.4880424487834518,1.0002102600132319,0.00027049626934932557
-0.48798955701329805,-0.48798955701329805,1.0000785331139368,0.00027040665219824045
-0.48793666524366863,-0.48793666524366863,0.999938143129856,0.00027044994763034157
-0.4878837734745608,-0.4878837734745608,1.0002230876256601,0.00027054202140003786
-0.4878308817059852,-0.4878308817059852,0.9996749199036129,0.00027053314619430313
-0.4877779899379397,-0.4877779899379397,1.0004440513329247,0.00027070371811085145
-0.48772509817043835,-0.48772509817043835,0.9996043417906468,0.000270655494512586
-0.4876722064034748,-0.4876722064034748,1.000262276914747,0.0002706409663526495
-0.48761931463706054,-0.48761931463706054,0.9999743171368667,0.00027059431010691815
-0.4875664228711981,-0.4875664228711981,1.0000412883646455,0.0002703861962831199
-0.48751353110589585,-0.48751353110589585,1.0000412306974984,0.0002702259012276368
-0.4874570850146096,-0.4874570850146096,1.0001117912704223,0.0002701282427778134
-0.4873929378831293,-0.4873929378831293,1.0004631116817708,0.0002701372747344119
-0.48734004611970166,-0.48734004611970166,0.9999328019354644,0.00027015896922915245
-0.4872871543568554,-0.4872871543568554,0.9998820249398307,0.00027020860338197565
-0.4872342625946029,-0.4872342625946029,1.0002977053109356,0.0002703187262089935
-0.4871813708329345,-0.4871813708329345,0.9997592232100747,0.00027052910159177203
-0.48712847907187956,-0.48712847907187956,1.0003181958020602,0.0002706754071551765
-0.4870755873114258,-0.4870755873114258,0.9999411341929468,0.00027066748497061774
