time,time,flux,flux_err
-0.49878556406895314,-0.49878556406895314,0.9999139339879489,0.00020372880141835388
-0.49646417799767545,-0.49646417799767545,1.0000479855669386,0.0002037387088441197
-0.4942693063502929,-0.4942693063502929,0.9999332908550616,0.00018604869907126585
-0.4922277251006449,-0.4922277251006449,1.0001171429920879,0.00018603833878153348
-0.4903216582489677,-0.4903216582489677,0.9998639919508129,0.00018598270110561774
-0.48831693863057807,-0.48831693863057807,1.0000360386460352,0.00018599240844259174
-0.4863431111656723,-0.4863431111656723,0.9998063830566446,0.00018601964640761775
-0.4843015115004846,-0.4843015115004846,0.9998968098899695,0.00018607583122055052
-0.48239542856758816,-0.48239542856758816,1.0002006676437636,0.0001860308216969781
-0.4800528824131334,-0.4800528824131334,1.0000907085941164,0.00018606017454892164
-0.4778337238782001,-0.4778337238782001,1.0001909633626733,0.00018603351905703
-0.4759276280532617,-0.4759276280532617,0.9998243113647589,0.00018601667450880965
-0.4738514261050796,-0.4738514261050796,1.0000876203610527,0.00018601780508151937
-0.47189390058894104,-0.47189390058894104,0.9998522883320584,0.00018609883976578108
-0.46990751154943383,-0.46990751154943383,0.9999273169668481,0.00018603570981658182
-0.4680013995666627,-0.4680013995666627,1.0001748811783073,0.00018597640541868693
-0.4659252325958164,-0.4659252325958164,1.000032967753711,0.00018604436271095227
-0.4639677230246548,-0.4639677230246548,0.9999671206424308,0.00018604299870488608
-0.46198129991366843,-0.46198129991366843,0.9997442159053721,0.00018606893224558195
-0.4600751717349681,-0.4600751717349681,0.999969987504629,0.00018601318016899903
-0.45799903975397455,-0.45799903975397455,1.000137828905497,0.00018604228344834033
-0.4560415461450248,-0.4560415461450248,1.0002558016870593,0.00018607686446495939
-0.4540550890220061,-0.4540550890220061,0.999887673288721,0.00018600410054767693
-0.4521489445666361,-0.4521489445666361,0.999969496361763,0.00018598736308441147
-0.4504031382941548,-0.4504031382941548,0.9998389940692979,0.0001921372843756708
-0.44875447944002644,-0.44875447944002644,1.0001411181721636,0.0001920358738789578
-0.44710582060716886,-0.44710582060716886,0.9998559227867124,0.00019192789889738426
-0.4454571617869874,-0.4454571617869874,1.0002625123614783,0.000191878115810626
-0.44384020855872,-0.44384020855872,0.9998415259141045,0.00018778605020890676
-0.442254960903756,-0.442254960903756,0.9998950197444797,0.00018771605719286125
-0.44066971327433746,-0.44066971327433746,1.000284003258996,0.0001876784714797786
-0.43908446566191517,-0.43908446566191517,1.0001339678025931,0.0001875680997984818
-0.4374992180877825,-0.4374992180877825,1.000009853042386,0.00018758883417326527
-0.43591397053062336,-0.43591397053062336,0.9998366778453261,0.00018750225684193122
-0.4343287229989983,-0.4343287229989983,0.9997715936581126,0.00018746857944575585
-0.4327434754759111,-0.4327434754759111,1.0000945181032235,0.00018743950498421194
-0.431158227978267,-0.431158227978267,1.000181186650526,0.00018740787877500183
-0.4295729805232327,-0.4295729805232327,1.0001127088672537,0.00018733520446871687
-0.42798773308084037,-0.42798773308084037,1.0000150840820012,0.00018734605547565257
-0.4264024856682795,-0.4264024856682795,0.9998047515710011,0.00018732102239231435
-0.4248172382726693,-0.4248172382726693,0.9997583031314244,0.0001872929692669463
-0.4232319908941918,-0.4232319908941918,1.0000100485881807,0.00018725571759467072
-0.42164674355810805,-0.42164674355810805,1.0002419223577317,0.00018724247597577104
-0.42006149621780653,-0.42006149621780653,0.9998920571107479,0.0001871798788872151
-0.4184762489243553,-0.4184762489243553,0.9997207416188804,0.00018715678107337051
-0.41689100166909154,-0.41689100166909154,1.0001682185600007,0.00018717172585340698
-0.4153057544138278,-0.4153057544138278,1.0001782681593407,0.00018718898193912227
-0.4137205071883727,-0.4137205071883727,0.9999439600883664,0.00018714531498705223
-0.4121352599926468,-0.4121352599926468,0.9999632262702915,0.0001871419321754683
-0.41055001281389425,-0.41055001281389425,0.9997217047693049,0.0001870729019276707
-0.4089647656607667,-0.4089647656607667,1.0003489941716517,0.000187111104980849
-0.4073795185330482,-0.4073795185330482,0.9999319451762549,0.00018705347737085531
-0.4057942714393903,-0.4057942714393903,1.0000638782702684,0.0001870328175272351
-0.4042090243456983,-0.4042090243456983,1.0002231054755348,0.00018703123305607595
-0.40262377729458193,-0.40262377729458193,0.9998699619109654,0.00018700833569010363
-0.40103853027740116,-0.40103853027740116,0.9997072744019743,0.00018695842561751121
-0.399453283268781,-0.399453283268781,0.9999420161386883,0.0001870077342969886
-0.3978680362814089,-0.3978680362814089,1.00012503707373,0.00018695766437214044
-0.39648525638273213,-0.39648525638273213,1.000290689388374,0.00018808194420213357
-0.3951515388632174,-0.3951515388632174,0.9998400885864334,0.00018897004009289854
-0.39387937385450866,-0.39387937385450866,0.9998924239328335,0.00018886871118272997
-0.39251404997432926,-0.39251404997432926,1.0001810299485743,0.0001888640618784089
-0.3911465915073563,-0.3911465915073563,1.0001391773364157,0.00018691261599823166
-0.3898718333692159,-0.3898718333692159,0.9999641810126663,0.0001888236882814773
-0.3885590575201263,-0.3885590575201263,0.9999032695439194,0.0001878768174577216
-0.38716191636134456,-0.38716191636134456,1.0000565352860844,0.00018872648875946726
-0.38588973456132863,-0.38588973456132863,0.9999740427238348,0.0001886662917580581
-0.384537058795695,-0.384537058795695,0.9999648972537791,0.00018858795284644193
-0.38322035749750966,-0.38322035749750966,0.9998442781917308,0.00018685571786666155
-0.381945587547159,-0.381945587547159,0.9999631888847974,0.0001885765995391717
-0.38063285926550633,-0.38063285926550633,0.9999942486115195,0.00018776920882562998
-0.3792357055505704,-0.3792357055505704,0.9998387881506489,0.00018847010133711032
-0.3779635068997663,-0.3779635068997663,1.0001735035822101,0.000188371955958268
-0.37661079701582595,-0.37661079701582595,0.9999831081342953,0.00018832381244325086
-0.37529412411688556,-0.37529412411688556,0.9998715539490597,0.00018679153705414815
-0.3740193423331789,-0.3740193423331789,1.0002077560644937,0.00018828728488099627
-0.3727066616316733,-0.3727066616316733,1.0000735481760885,0.00018761719273401777
-0.3713094952796382,-0.3713094952796382,1.000050792493807,0.0001882515307953544
-0.3700372797186787,-0.3700372797186787,0.9996618697828943,0.00018817456858108718
-0.36868453572486715,-0.36868453572486715,1.000313315813549,0.00018817966291939604
-0.36736789138262793,-0.36736789138262793,1.0002561675040185,0.00018675966057107084
-0.36609309766769227,-0.36609309766769227,0.9998151926786674,0.00018814411755793125
-0.36478046463139435,-0.36478046463139435,0.9999249938771062,0.0001874678814615388
-0.3633832855956598,-0.3633832855956598,0.999985578958426,0.00018812512772152767
-0.3621110530605051,-0.3621110530605051,0.999675369077828,0.00018802923401958766
-0.36075827496978263,-0.36075827496978263,0.9997447217135257,0.00018804187835900365
-0.3594416592818675,-0.3594416592818675,0.9999896974457713,0.00018673121439463847
-0.35816685358904576,-0.35816685358904576,1.0000470376104966,0.000188025842637381
-0.3568542682646466,-0.3568542682646466,1.0002301612428792,0.00018739707394476514
-0.3554570764898585,-0.3554570764898585,0.9999886592804668,0.0001880421854382897
-0.35418482692116415,-0.35418482692116415,1.0002833747512436,0.0001879597744757255
-0.35283201474188675,-0.35283201474188675,1.0004589738064864,0.00018794261756220295
-0.3515154278443447,-0.3515154278443447,0.999824705920639,0.00018670836332438553
-0.35024061011837376,-0.35024061011837376,0.9996176965649679,0.00018788156235996175
-0.3489280725315439,-0.3489280725315439,1.0000149715901299,0.00018733186705126195
-0.34753086796233673,-0.34753086796233673,0.9997183137105754,0.00018784808840061594
-0.346258601308989,-0.346258601308989,1.0000221878347895,0.00018785601157849093
-0.34490575504124765,-0.34490575504124765,1.0000594980694175,0.00018782493310789516
-0.3435891970319972,-0.3435891970319972,1.000108556020644,0.00018663118419151044
-0.3423143672301762,-0.3423143672301762,1.0002672335994682,0.00018784066121126287
-0.34100187744894583,-0.34100187744894583,0.9999032866672357,0.00018722808785932586
-0.33960466003860573,-0.33960466003860573,0.999837125879646,0.0001878095864634741
-0.33833237621557827,-0.33833237621557827,1.000088444003233,0.00018777122890866686
-0.3369794958763805,-0.3369794958763805,1.0001276153285859,0.00018769381520526138
-0.33566296690842135,-0.33566296690842135,0.999616718610999,0.0001865396196068292
-0.33438812493732256,-0.33438812493732256,1.0000773984472002,0.0001876420797488138
-0.3330756830041537,-0.3330756830041537,0.9999952409598134,0.00018711575821448413
-0.3316784527143909,-0.3316784527143909,0.9998474343908557,0.000187688663392044
-0.33040615167499254,-0.33040615167499254,1.0001470888527675,0.00018765140257471228
-0.3290532372515031,-0.3290532372515031,1.0002079409971047,0.00018754894949500684
-0.3277367374185133,-0.3277367374185133,1.0002985884141082,0.000186535536599581
-0.326461883273771,-0.326461883273771,0.9998937674087213,0.00018753715266357397
-0.32514948923114845,-0.32514948923114845,0.9997844898479731,0.00018706766811907855
-0.323752246011054,-0.323752246011054,1.000141918801301,0.00018755704578961543
-0.3224799276701219,-0.3224799276701219,0.9997562189147434,0.00018741065182878295
-0.32112697918786354,-0.32112697918786354,0.9996715135945161,0.00018741350602984996
-0.3198105086130454,-0.3198105086130454,1.000113557258859,0.00018640419865266182
-0.3185356422310292,-0.3185356422310292,1.0000836614277175,0.00018742229337186534
-0.3172232961044642,-0.3172232961044642,1.000266281298992,0.0001869826307477527
-0.31582603992417263,-0.31582603992417263,0.9999650656587067,0.00018735248360171892
-0.31455370420522966,-0.31455370420522966,0.9999377828410447,0.00018728003270086525
-0.31320072166004137,-0.31320072166004137,1.0001266588460704,0.00018722987531020642
-0.3118842804667111,-0.3118842804667111,1.000011567789749,0.00018636654940189153
-0.3106094018133376,-0.3106094018133376,1.0000848425550295,0.00018724739664180223
-0.30929710367084906,-0.30929710367084906,0.9999160043607919,0.0001868973163573841
-0.30789983444540214,-0.30789983444540214,1.0001515511242107,0.00018725418592280648
-0.3066274812931738,-0.3066274812931738,1.0000552863813177,0.00018713012286688036
-0.30527446469344566,-0.30527446469344566,0.9996671048660538,0.00018715824135541876
-0.30395805302187,-0.30395805302187,1.0000222976698547,0.00018633843585327825
-0.3026831620249141,-0.3026831620249141,1.0000150637756742,0.00018719396917714782
-0.30137091188357773,-0.30137091188357773,0.9999980198083632,0.00018686920827825973
-0.299973629617125,-0.299973629617125,0.9998362736867078,0.00018717054583425267
-0.29870125895079125,-0.29870125895079125,1.0001324629257444,0.00018707974448934958
-0.29734820829665976,-0.29734820829665976,0.9997912254514121,0.00018704665488294321
-0.29603182624039165,-0.29603182624039165,1.0001359709540236,0.00018632796874828593
-0.29475692287430777,-0.29475692287430777,1.0000023451424727,0.00018707656630175651
-0.29344472077663114,-0.29344472077663114,0.999921663771131,0.0001868208910827824
-0.29204742541818407,-0.29204742541818407,1.0002616003965854,0.00018712033493947599
-0.29077503716555386,-0.29077503716555386,1.00019920815235,0.0001870353222049978
-0.28942195246534086,-0.28942195246534086,1.0001583170698292,0.0001870299969161224
-0.2881056001605202,-0.2881056001605202,0.9998175854177482,0.000186295147619253
-0.28683068437001114,-0.28683068437001114,1.000100424487995,0.00018705542995201663
-0.28551853037122327,-0.28551853037122327,1.0000242463414009,0.00018678893985601662
-0.2841212218697592,-0.2841212218697592,0.9997357987612414,0.00018704951610739484
-0.2828488159542871,-0.2828488159542871,1.0000646248491858,0.00018700988393017084
-0.28149569721229,-0.28149569721229,0.9998684322788234,0.00018699518728838746
-0.27999959139320935,-0.27999959139320935,0.9997129997460815,0.0001870166789058689
-0.278467308728591,-0.278467308728591,0.9998543290679379,0.00018626705311105223
-0.2771923779837152,-0.2771923779837152,1.0002217095040198,0.00018701737571376583
-0.2758802817232436,-0.2758802817232436,0.9999530262870436,0.00018678338406452675
-0.27460977846036483,-0.27460977846036483,0.9999066394898077,0.00018697341809784245
-0.2732105302158061,-0.2732105302158061,1.0002549750705227,0.00018693818344422058
-0.2718573706119173,-0.2718573706119173,1.0001499822484954,0.00018688297648664873
-0.27054108418371925,-0.27054108418371925,0.9999527480999604,0.0001861936325811021
-0.2692661409463312,-0.2692661409463312,1.000189319527692,0.00018693473922189885
-0.2679540928358165,-0.2679540928358165,0.9999296971968281,0.0001867185732619949
-0.2666835763449626,-0.2666835763449626,0.9998476016251507,0.00018694471161490774
-0.26528431025035387,-0.26528431025035387,1.0002085132408183,0.00018683878653853102
-0.26393111665147445,-0.26393111665147445,0.9999024150005175,0.0001868124188257741
-0.26261486038290516,-0.26261486038290516,1.000050766002277,0.00018618806230776165
-0.26133990456806944,-0.26133990456806944,0.9998048634376733,0.00018682386440939896
-0.2600279046669584,-0.2600279046669584,1.0000142744089795,0.00018671565745328442
-0.2587573749268131,-0.2587573749268131,0.9999696862703367,0.00018685636778466096
-0.2573580908844633,-0.2573580908844633,0.9999310223471495,0.00018679832751747653
-0.256004863277883,-0.256004863277883,1.0002252945590162,0.0001867977994773169
-0.2546886372794802,-0.2546886372794802,0.999829724338831,0.00018613740378210227
-0.2534136688785907,-0.2534136688785907,0.9998989394589817,0.00018678634246895224
-0.25210171721253116,-0.25210171721253116,0.9998158515057687,0.0001866626459904892
-0.2508311741635453,-0.2508311741635453,0.999918501487086,0.00018679019128368393
-0.24943187212656995,-0.24943187212656995,1.0001608748377835,0.00018671416417326118
-0.24807861049101804,-0.24807861049101804,1.0000862901619503,0.00018668679984442266
-0.2467624148988648,-0.2467624148988648,1.0001318910169927,0.00018612526171081864
-0.24548743387369995,-0.24548743387369995,1.000125195735165,0.00018673642118015004
-0.2441755304595631,-0.2441755304595631,1.0000436011570357,0.00018659556503191935
-0.242904974089015,-0.242904974089015,0.9998251883941573,0.00018670267918974643
-0.24150565395123066,-0.24150565395123066,1.000217660027663,0.00018669028024465297
-0.24015235831221843,-0.24015235831221843,0.9998688765975852,0.00018663588373576457
-0.23883619325382596,-0.23883619325382596,1.00010008644418,0.00018614203355347798
-0.23756119955766053,-0.23756119955766053,0.9997732587191269,0.0001866498666783441
-0.23624934444229667,-0.23624934444229667,0.9998166262493895,0.00018654707732581818
-0.23497877470763343,-0.23497877470763343,1.0002656082587433,0.00018666135935342
-0.23357943637967082,-0.23357943637967082,0.9996607264182158,0.00018663442510392648
-0.23222610672446536,-0.23222610672446536,0.999918876904313,0.00018661361466863188
-0.23090997232737892,-0.23090997232737892,1.0002782956023601,0.00018614093553598896
-0.22963496595172045,-0.22963496595172045,1.0000197275424632,0.00018656642263767512
-0.22832315914355378,-0.22832315914355378,1.0001550732374829,0.00018656347245099174
-0.2270525760150804,-0.2270525760150804,0.9998096800093712,0.00018655878815987458
-0.2256532194118904,-0.2256532194118904,1.000300021250366,0.0001865549861741239
-0.22429985576600303,-0.22429985576600303,0.9999196683073148,0.00018650702517393556
-0.22298375215781335,-0.22298375215781335,0.9998576736581853,0.00018605388911481624
-0.22170873303446115,-0.22170873303446115,0.9997903026271278,0.00018652625483241476
-0.2203969745932568,-0.2203969745932568,0.9997817200976398,0.00018655424377851286
-0.21912637802835205,-0.21912637802835205,1.000142578642809,0.00018651528387105218
-0.21772700304366027,-0.21772700304366027,1.0001261954597116,0.00018649831374896662
-0.21637360541559475,-0.21637360541559475,1.0003931941633795,0.0001865359990211613
-0.21505753273232814,-0.21505753273232814,1.0002144006367626,0.00018608281336523826
-0.213782500844502,-0.213782500844502,0.9998212139329345,0.00018647893054784097
-0.21247079077851366,-0.21247079077851366,0.9998329064093072,0.00018649597970284842
-0.2112001807559068,-0.2112001807559068,0.9998072025519005,0.00018654759176788054
-0.20980078727924364,-0.20980078727924364,1.000096240323383,0.00018648476379843325
-0.20844735570289002,-0.20844735570289002,1.0000916137752678,0.00018643770636014845
-0.20713131405946114,-0.20713131405946114,0.9996676837181002,0.0001860290601121018
-0.20585626937726148,-0.20585626937726148,1.0000156494310317,0.00018653511332872104
-0.2045446077291217,-0.2045446077291217,0.999835245205111,0.00018651854116374862
-0.20327398421487713,-0.20327398421487713,1.0002215539123198,0.00018649411147799935
-0.20187457218235066,-0.20187457218235066,1.0001465278157617,0.00018649151618875897
-0.20052110658133415,-0.20052110658133415,1.0000668162224629,0.00018643638119603833
-0.19920509615197943,-0.19920509615197943,0.9998737671267254,0.00018600590091710282
-0.19793003863717332,-0.19793003863717332,0.9998673891940614,0.00018641997860161059
-0.19661842541108854,-0.19661842541108854,1.0001023557398638,0.00018645081088791362
-0.19534778839232558,-0.19534778839232558,0.999996629621371,0.00018649371909980084
-0.19380840805847582,-0.19380840805847582,0.9997834908197097,0.00018643133718461107
-0.1922362966614969,-0.1922362966614969,0.9999956937598249,0.0001863973358888076
-0.19095496472364176,-0.19095496472364176,0.999914632455258,0.00018643832041713904
-0.1896145861676814,-0.1896145861676814,1.000282681307739,0.00018641511559570602
-0.18829861965319877,-0.18829861965319877,1.0001263113437031,0.00018607731730759514
-0.18698018948936124,-0.18698018948936124,1.0000837248275052,0.00018646482857573342
-0.1857095362109135,-0.1857095362109135,1.0000462799316987,0.00018646373479463182
-0.18431008292956222,-0.18431008292956222,1.0000363247009318,0.00018638718843810384
-0.183028735386722,-0.183028735386722,0.9997857247174622,0.00018639868303275725
-0.1816883385597862,-0.1816883385597862,1.000018953102027,0.00018631896240013025
-0.1803724035953337,-0.1803724035953337,0.9998860490446579,0.00018599539553259203
-0.17905400889761722,-0.17905400889761722,0.9997137643680547,0.00018644041236380498
-0.17778334202978385,-0.17778334202978385,0.9998446544659834,0.00018638669726771657
-0.17638386982264365,-0.17638386982264365,1.000130140796518,0.00018634725493178557
-0.17510250680662692,-0.17510250680662692,1.0000028651220232,0.00018637792376768878
-0.1737620916024639,-0.1737620916024639,1.0003589507921407,0.0001864029797044588
-0.17244618832410197,-0.17244618832410197,1.0001295061059658,0.0001860073562259703
-0.17112782905855967,-0.17112782905855967,0.9999355058695325,0.00018643035151375784
-0.1698571486223841,-0.1698571486223841,0.9999845296838897,0.00018639948113319884
-0.16845765735347412,-0.16845765735347412,1.0001475516293576,0.00018629134925695576
-0.16717627898768797,-0.16717627898768797,0.9999403160056041,0.0001863942187521346
-0.16583584528718803,-0.16583584528718803,0.9998984494696396,0.00018627511127917065
-0.16451997386074027,-0.16451997386074027,0.9996867168991657,0.0001860245632143203
-0.16320165005281523,-0.16320165005281523,1.000190578786862,0.00018643262491136077
-0.16193095595915566,-0.16193095595915566,1.0000525541029435,0.00018636663110496292
-0.16053144554348364,-0.16053144554348364,1.0001109527338437,0.00018632086179105615
-0.1592500519340092,-0.1592500519340092,0.9998650621848129,0.0001862682367200594
-0.15790959964376725,-0.15790959964376725,1.0001904735463838,0.0001863259016420856
-0.1565937601967562,-0.1565937601967562,0.9998107781974868,0.00018598724600227436
-0.15527547182100535,-0.15527547182100535,1.0001029615152885,0.00018640258984805395
-0.15400476406136931,-0.15400476406136931,0.9998621059734741,0.0001864031376784792
