time,time,flux,flux_err
-0.4999532037327299,-0.4999532037327299,0.9999752012323126,0.00014194238097677675
-0.4998805358904065,-0.4998805358904065,0.9999804946806918,0.00012705406548337692
-0.49974187910484036,-0.49974187910484036,0.9999040224099552,0.00012800907291873526
-0.4996903366751212,-0.4996903366751212,1.0000270259370918,0.00012892307468747978
-0.49951449158834293,-0.49951449158834293,0.9999948990014079,0.0001279920904013494
-0.49937092832769847,-0.49937092832769847,1.0001733187360338,0.00012996601396852097
-0.499291898222873,-0.499291898222873,1.0000965657986007,0.00012888702674917202
-0.49918012057678424,-0.49918012057678424,0.9999461080227657,0.00012532591001152067
-0.49911072284012337,-0.49911072284012337,1.0000891026807888,0.00013132786503267658
-0.4990362684409774,-0.4990362684409774,1.0001458189617811,0.00012857489711234137
-0.49894294245386844,-0.49894294245386844,0.9999321090871192,0.00012379936580939041
-0.4988554765295703,-0.4988554765295703,0.9999471292532196,0.00012929919430216971
-0.498744161369541,-0.498744161369541,0.9999960018636441,0.0001302505099855309
-0.4986013091169298,-0.4986013091169298,1.0000347583663614,0.0001293437580256243
-0.49846762867236977,-0.49846762867236977,1.0000681494938881,0.00013014590485369175
-0.49828746848288574,-0.49828746848288574,1.000120986230516,0.00012994809546023153
-0.49818092945715764,-0.49818092945715764,0.999895411540424,0.00012705731864944334
-0.49806401081805235,-0.49806401081805235,0.999871726688659,0.0001290050306466834
-0.4979843908200564,-0.4979843908200564,1.0001660141361093,0.00012211558668329936
-0.49789979571141885,-0.49789979571141885,0.9998577070212811,0.00013205514889988896
-0.49768398111918943,-0.49768398111918943,1.0000282149389106,0.00012854253620344549
-0.4975536273450416,-0.4975536273450416,1.0000720281220024,0.0001299898954569987
-0.4974458939155738,-0.4974458939155738,1.0000695089442269,0.00012423038869473514
-0.497304489450471,-0.497304489450471,0.999943898143392,0.00012485274582309925
-0.4970770267951593,-0.4970770267951593,1.0001055172528055,0.0001284274316484891
-0.4969481275707949,-0.4969481275707949,0.9998639443123818,0.00012506725674096272
-0.496761408331804,-0.496761408331804,0.999974468015958,0.00012832417576639067
-0.4965756720695936,-0.4965756720695936,0.9999513062792944,0.0001249674635370918
-0.49645410132288814,-0.49645410132288814,0.9999991910338462,0.00012545233438441622
-0.4963565756988828,-0.4963565756988828,1.0000451068944307,0.0001286867238077971
-0.4963035453394696,-0.4963035453394696,1.0000781965888341,0.000125105192519558
-0.49620180644633366,-0.49620180644633366,0.9998281011330901,0.00012879304607841226
-0.4961244415695546,-0.4961244415695546,0.9999412105128179,0.00012998822347538977
-0.49599583789386087,-0.49599583789386087,1.0000514288425708,0.00012811454505062063
-0.4958250814728672,-0.4958250814728672,0.9999085457621302,0.00012990512777142076
-0.4957249942548515,-0.4957249942548515,0.9998571895065247,0.0001301084699656499
-0.4956217621627729,-0.4956217621627729,1.0001019125521353,0.0001267375587391295
-0.4954976327513577,-0.4954976327513577,0.9999687129944143,0.00012902425234750294
-0.4953721805541136,-0.4953721805541136,0.9998245735947868,0.000125234662879791
-0.49526592036199873,-0.49526592036199873,1.0001424079482,0.00012809221708995808
-0.49517617795208935,-0.49517617795208935,0.9999137140840084,0.00012755686916749744
-0.4950764378940221,-0.4950764378940221,0.999759628307563,0.00013198542361557252
-0.49494060408542284,-0.49494060408542284,0.9999887007906288,0.0001280148528370324
-0.49476207200350475,-0.49476207200350475,1.000020514098099,0.00012986650722551175
-0.49460297988553065,-0.49460297988553065,0.9999845571418019,0.00012946292221821656
-0.494496380831697,-0.494496380831697,0.9998582297941224,0.00012499742679939163
-0.49438104099826885,-0.49438104099826885,0.9999827618536423,0.00012577049239123427
-0.49427780085170525,-0.49427780085170525,1.0001672104319632,0.00013021077270670484
-0.4940578701774939,-0.4940578701774939,1.0000448180124069,0.0001448296680746634
-0.4939430578953761,-0.4939430578953761,1.0003031337463648,0.00012779862278464806
-0.49384108573722185,-0.49384108573722185,0.9998463474009929,0.00012692606893479458
-0.4937700009148102,-0.4937700009148102,1.0001215738201161,0.00012502680199102617
-0.49360665572748985,-0.49360665572748985,1.0000303331947422,0.00012737400026687184
-0.4934310452423233,-0.4934310452423233,1.000054193159609,0.00012790267056323167
-0.49321693535966915,-0.49321693535966915,1.0001185023038324,0.00012775056549127513
-0.4930316663965641,-0.4930316663965641,1.0000571032438552,0.00012673325485008637
-0.4928826980947633,-0.4928826980947633,0.9999633527947329,0.00012447297545817052
-0.4927661352972791,-0.4927661352972791,1.0001009292795953,0.00013046769327709496
-0.4926794622806483,-0.4926794622806483,0.9999617938331404,0.00013006463103258577
-0.4926010555944231,-0.4926010555944231,0.9998980367274262,0.00012754741289623065
-0.49249623538125886,-0.49249623538125886,0.9998436083104549,0.00012707212877146836
-0.4923586632925435,-0.4923586632925435,1.000292517813181,0.00013712223420378884
-0.49213904857533636,-0.49213904857533636,1.0001750109423142,0.0001303294117977627
-0.49207139613135953,-0.49207139613135953,0.9999479638799851,0.00012987394405437457
-0.4919614851882216,-0.4919614851882216,1.000087505579602,0.00013149382028586608
-0.49189646164522854,-0.49189646164522854,0.9999977660399395,0.0001281227810385215
-0.4917289657096262,-0.4917289657096262,0.9998845423075053,0.00012745080919972246
-0.4915900577172579,-0.4915900577172579,0.9999772361958709,0.00012867833435759618
-0.4914911096355354,-0.4914911096355354,1.0001838588845207,0.00013165598425530616
-0.4913707975676516,-0.4913707975676516,0.9998468629742311,0.0001328774106357386
-0.49118858222427664,-0.49118858222427664,1.0001840110924418,0.0001291993652960721
-0.49100144658150385,-0.49100144658150385,1.000055075108942,0.00012768212467046387
-0.49087370279230524,-0.49087370279230524,0.9999406040997363,0.00012839431756366424
-0.49077999577420994,-0.49077999577420994,0.999976980388937,0.00012535860656472578
-0.4906917553678795,-0.4906917553678795,1.0001564819848097,0.00013022434265330164
-0.49051627148583066,-0.49051627148583066,1.0001536927977979,0.00012865786445990062
-0.49036840905973805,-0.49036840905973805,1.000213778575943,0.00012746916408829602
-0.4902637400693493,-0.4902637400693493,0.999994621167898,0.00012674540320038564
-0.4901824317923456,-0.4901824317923456,0.999899748563025,0.00012965182505890495
-0.48996202221460405,-0.48996202221460405,0.9999727133650638,0.00012781899370613206
-0.48975172015780116,-0.48975172015780116,0.9999372057508313,0.00012835144786095366
-0.48953318279600355,-0.48953318279600355,0.9999342012436605,0.00012341126574573258
-0.4893744558699836,-0.4893744558699836,0.9998202211825037,0.0001251223134346565
-0.489267740669311,-0.489267740669311,1.000034133507263,0.00012751292527218158
-0.48913160918455106,-0.48913160918455106,1.000037075919953,0.00012812842117054893
-0.48907640934921803,-0.48907640934921803,0.9998933187865686,0.00012707925129308375
-0.4890152328574914,-0.4890152328574914,1.0000146345017749,0.00012670319463723372
-0.4889126586473139,-0.4889126586473139,0.9999733048414534,0.00012532737191364306
-0.4888288810594531,-0.4888288810594531,1.0000539593617659,0.0001255805397744902
-0.4887196772593597,-0.4887196772593597,0.9998835372398039,0.0001311017803982796
-0.48860727660066916,-0.48860727660066916,0.9999642326325558,0.00012892563304443532
-0.4885126971101272,-0.4885126971101272,0.9999478765501744,0.00012967282050257889
-0.488457788949745,-0.488457788949745,0.9999114896958918,0.0001299630275367351
-0.4884126882068813,-0.4884126882068813,0.9999335423060108,0.0001263243066869685
-0.48834207259715184,-0.48834207259715184,1.0000316017747743,0.00013456592864939497
-0.4882564303014078,-0.4882564303014078,1.0002088036542491,0.0001290100998006736
-0.4880570713459747,-0.4880570713459747,1.0001156972820824,0.00012637734702388036
-0.4879375192518637,-0.4879375192518637,1.0000454527052494,0.0001318120801831874
-0.487822161771328,-0.487822161771328,0.9998577538664104,0.00013413987367601288
-0.487655939621618,-0.487655939621618,0.999991405198166,0.00013024419566105098
-0.4875327591085806,-0.4875327591085806,1.000053222102602,0.00012563627105727774
-0.48738587108891807,-0.48738587108891807,1.000164278773656,0.00012823349136064076
-0.4872849115228746,-0.4872849115228746,0.9997715572034102,0.00012685200152780699
-0.4871723442032817,-0.4871723442032817,1.0000956837668173,0.0001266536138497762
-0.4871054967006785,-0.4871054967006785,0.9999745987698482,0.00012623008742852895
-0.4869435974600492,-0.4869435974600492,0.9999843130305944,0.00013108372866376617
-0.48670856308817745,-0.48670856308817745,1.0000985502881554,0.0001268966827378493
-0.486578112339339,-0.486578112339339,1.0000492732706334,0.0001330389403518893
-0.48630101266899145,-0.48630101266899145,1.0000227701304627,0.00012676185715597334
-0.48612446121042013,-0.48612446121042013,1.0000443917954933,0.0001300608789291533
-0.4859983953399933,-0.4859983953399933,1.0001693634776512,0.0001242650782314286
-0.48580195322138026,-0.48580195322138026,0.9999330697595992,0.0001230382253355969
-0.48568393881214433,-0.48568393881214433,1.000343951382703,0.00012641275456415146
-0.4855019084534433,-0.4855019084534433,1.0002331527344395,0.0001296096216451252
-0.48545571127688164,-0.48545571127688164,1.0001254471378147,0.0001279033262604703
-0.48539729271869875,-0.48539729271869875,1.0000803477512696,0.00012986693133149675
-0.4853486061532749,-0.4853486061532749,1.0000718188585214,0.00012718090322337688
-0.4852708886821347,-0.4852708886821347,0.9998496141480679,0.0001252105352957061
-0.4851726848297403,-0.4851726848297403,1.0000414531707733,0.0001337114712855747
-0.4850285273765621,-0.4850285273765621,0.9999045233941425,0.00013020572765523388
-0.48487315382662927,-0.48487315382662927,1.0000011562654127,0.00012852949480761163
-0.4848097533547843,-0.4848097533547843,1.0000631877952244,0.00013040449531155493
-0.484732806080865,-0.484732806080865,1.0000323890387581,0.00013067945433692317
-0.48465739593884793,-0.48465739593884793,0.999882501816862,0.00012899903419376393
-0.4844790466799168,-0.4844790466799168,1.0001629925525337,0.00012651267055375695
-0.4843660713864665,-0.4843660713864665,0.9999238833818117,0.00013187711767880184
-0.48428507642674956,-0.48428507642674956,1.0000282869532335,0.00012861785275605292
-0.4841992397552531,-0.4841992397552531,1.0001820598891034,0.00012903186050592665
-0.48403984690448854,-0.48403984690448854,1.0000178984668608,0.0001304895296528829
-0.48384301948317443,-0.48384301948317443,1.000165888450351,0.00013083228650901654
-0.4836946235533105,-0.4836946235533105,1.0000303439120322,0.00012704361020203015
-0.4835579971171683,-0.4835579971171683,1.0000921523555308,0.00012556098404165929
-0.4834785010003543,-0.4834785010003543,1.0000909512808198,0.0001255020578426849
-0.4833875322736276,-0.4833875322736276,1.0000243744420312,0.00013378076195567253
-0.4832518360519316,-0.4832518360519316,1.0000414892632608,0.00012746695249422657
-0.48310781988620877,-0.48310781988620877,0.9999218015100008,0.00012662704557696156
-0.4829553551084246,-0.4829553551084246,1.0001747075865817,0.00012974972502816776
-0.4827512012656371,-0.4827512012656371,0.9999535723627548,0.00012789350917835718
-0.4825212376650597,-0.4825212376650597,0.9998981958183449,0.0001338181445592512
-0.4823085920739686,-0.4823085920739686,0.9998605482579574,0.00012340827122191231
-0.4821331073217152,-0.4821331073217152,1.0001108873887081,0.00012841536714679771
-0.4819777977223566,-0.4819777977223566,0.9996890478865126,0.00012432939749040185
-0.4818663663012558,-0.4818663663012558,0.9998770984410486,0.00012949965536362908
-0.48180491566090494,-0.48180491566090494,0.99998334647589,0.00012933209645921235
-0.481726859016635,-0.481726859016635,0.9999869721032025,0.00012699292540459657
-0.4816204650349391,-0.4816204650349391,1.0001853319283878,0.00012669646720598447
-0.481501728080184,-0.481501728080184,0.9999518362039126,0.00013212749868859284
-0.4813601571993786,-0.4813601571993786,1.0000069000170764,0.00013004976288453045
-0.48125508904340675,-0.48125508904340675,0.9998156775461737,0.00012755994360313773
-0.4812036825664109,-0.4812036825664109,0.9999946968002081,0.00013051676514222097
-0.4811394980875775,-0.4811394980875775,0.9999379392634784,0.00012945781824648086
-0.48104408617000444,-0.48104408617000444,1.0000714324489035,0.00012588454592476093
-0.4809271169200656,-0.4809271169200656,0.999961526061146,0.0001300290731172662
-0.48079797179671,-0.48079797179671,0.9998287321340579,0.00012660853753597133
-0.4807149732070684,-0.4807149732070684,0.9999940574333326,0.00012963342880885223
-0.48059310466051103,-0.48059310466051103,0.99998728353166,0.00013671751710593296
-0.48036222189111866,-0.48036222189111866,1.000201078964936,0.0001300660040568496
-0.4802400931468583,-0.4802400931468583,0.9999434295537583,0.0001263981498949057
-0.48014797155556155,-0.48014797155556155,0.9999356758695317,0.000130277619694192
-0.48008994759438794,-0.48008994759438794,0.999920561953506,0.00012590671888823018
-0.47997875211076463,-0.47997875211076463,0.9999638464845713,0.0001266753076911434
-0.4798669495154172,-0.4798669495154172,1.0000569129741563,0.00012797694187897124
-0.4797285056927649,-0.4797285056927649,1.0001613573272081,0.00012848057835143455
-0.47960229727978004,-0.47960229727978004,1.0000391070334795,0.00012938300450217265
-0.47936072182637873,-0.47936072182637873,0.9999817696783246,0.00013770268708776113
-0.4791218394108,-0.4791218394108,0.9998226362085256,0.00012897592957046057
-0.4788517920656886,-0.4788517920656886,0.9998854752118161,0.00012875152622778195
-0.4787132871497306,-0.4787132871497306,1.000271431215713,0.00012376751012079925
-0.47858167340018554,-0.47858167340018554,1.0000246754974618,0.0001305046422533618
-0.47848553784715475,-0.47848553784715475,1.0000549836145995,0.00012378360516524594
-0.4783525475548231,-0.4783525475548231,1.0000126696485687,0.00012810344767195627
-0.47827600222080946,-0.47827600222080946,1.000064258443333,0.00012741992831823284
-0.4782004350308853,-0.4782004350308853,1.0000420289589802,0.00013087682334513698
-0.47812673474181794,-0.47812673474181794,1.0002117342336039,0.0001278763002051464
-0.47799914094284757,-0.47799914094284757,0.9999901720545434,0.00012712639788768257
-0.47788954073621426,-0.47788954073621426,0.999972205819547,0.0001288290163991241
-0.47770869479500105,-0.47770869479500105,0.9998484471188647,0.00012855455574499187
-0.47759526762747556,-0.47759526762747556,1.0000540486868839,0.00012626503918177428
-0.4775172440931783,-0.4775172440931783,0.999991191474052,0.00012793181236399434
-0.4773684184481681,-0.4773684184481681,1.0001128385124884,0.00012682887184530748
-0.4771736460774264,-0.4771736460774264,0.9998202394210853,0.00012836327361859197
-0.4770436328100914,-0.4770436328100914,0.999939492384196,0.0001282588696274161
-0.476893705403927,-0.476893705403927,0.999951036013921,0.00013148462490095278
-0.4767026462017384,-0.4767026462017384,0.9996653821021952,0.0001309627338192459
-0.47659795311410563,-0.47659795311410563,0.9999417548409625,0.00012822507080559334
-0.47649894027854317,-0.47649894027854317,1.0001117246853621,0.00012694167153136864
-0.476407320414728,-0.476407320414728,1.0001886130232989,0.00013110479821024998
-0.47630460682339615,-0.47630460682339615,0.9999471428704018,0.00012678411565630665
-0.4762044103954395,-0.4762044103954395,0.9998485806529998,0.00012875842620289123
-0.4759849806767306,-0.4759849806767306,1.0002447733740705,0.00012826963731101099
-0.47577601355078514,-0.47577601355078514,0.9999025481481529,0.0001275626199972848
-0.4756475398360635,-0.4756475398360635,0.9997784856547138,0.00012977956218124137
-0.4754970133653842,-0.4754970133653842,0.9997145150283565,0.0001299424946212692
-0.4752923736072262,-0.4752923736072262,0.9999265822889954,0.0001264590410704857
-0.47514769549816266,-0.47514769549816266,1.0000480890955696,0.00012636973231221088
-0.47501041655996235,-0.47501041655996235,1.00008222354511,0.00012595365274816183
-0.4748795855317439,-0.4748795855317439,0.9999713408032985,0.0001252666964507895
-0.47482045331053085,-0.47482045331053085,0.9998502039745432,0.00012758182740832565
-0.47468746489903424,-0.47468746489903424,1.0001352224926436,0.0001303252467643984
-0.4746006035595201,-0.4746006035595201,0.99982825247497,0.00012827376561989993
-0.47455091837837243,-0.47455091837837243,0.9998119826177968,0.00012679568151792062
-0.4744606031301373,-0.4744606031301373,1.0000198971167176,0.00012778483331266882
-0.4743280480062822,-0.4743280480062822,1.0000148519467769,0.0001334420014159964
-0.4741689515380131,-0.4741689515380131,1.0001062232481952,0.00012893161511966954
-0.47404016664950177,-0.47404016664950177,0.9999171703092692,0.00012541523719247557
-0.47400080094812436,-0.47400080094812436,0.9999782941021799,0.00012992998603147572
-0.47396287213050525,-0.47396287213050525,0.9999192486890138,0.00012874466990974045
-0.47386346728890205,-0.47386346728890205,0.9999035942630939,0.0001269261886701583
-0.47367151681246467,-0.47367151681246467,1.0001388120435988,0.0001296970617851804
-0.4735500719412812,-0.4735500719412812,0.9997655323206175,0.0001277247969633674
-0.47341959710247467,-0.47341959710247467,1.0000719873972717,0.0001283757210769879
-0.47330972781710445,-0.47330972781710445,1.0000825565307625,0.00013060781379808543
-0.47316053055546947,-0.47316053055546947,1.0001198376216196,0.00013109431792815546
-0.4730805781415256,-0.4730805781415256,1.0000028926479712,0.00013065174539959293
-0.4729690727283014,-0.4729690727283014,0.999810321589462,0.0001279120209589421
-0.4728868463273102,-0.4728868463273102,1.0000295257243483,0.0001282418632815698
-0.47274876232404495,-0.47274876232404495,0.9999514638972119,0.000127787293844155
-0.4726200421930116,-0.4726200421930116,1.0000762992306254,0.0001291717474527756
-0.47249780381171147,-0.47249780381171147,1.00010086123953,0.00012912588641349288
-0.472270882983139,-0.472270882983139,1.0001595912329624,0.0001260931903476149
-0.47208992775413205,-0.47208992775413205,0.999957836413152,0.00012881300488619678
-0.4719547629916633,-0.4719547629916633,0.9999510170492331,0.0001287550956844338
-0.4718109866022132,-0.4718109866022132,1.000074564699266,0.00012628730307542415
-0.4716921419996652,-0.4716921419996652,0.9999069433625231,0.0001273610289011328
-0.47159382781683234,-0.47159382781683234,1.0002258026508035,0.00012638424643346522
-0.47147638731912594,-0.47147638731912594,1.0000238855074166,0.0001276260768442696
-0.4713135913480073,-0.4713135913480073,1.0001320579755193,0.00012324366782399853
-0.47124711422729887,-0.47124711422729887,0.9999229821824779,0.00012549048551682322
-0.4711676575927413,-0.4711676575927413,0.9999682708815248,0.0001321259457255359
-0.4710285137181927,-0.4710285137181927,0.9998629274955253,0.0001262380257055598
-0.4709666213631863,-0.4709666213631863,1.0000921432408532,0.0001290857346745172
-0.47086924195318713,-0.47086924195318713,0.9999839776391207,0.00012744528997624734
-0.47066983247132155,-0.47066983247132155,1.0002110555034527,0.00012802442230274957
-0.4704662401898531,-0.4704662401898531,1.0001253467459268,0.00012600654624888398
-0.4703918336468632,-0.4703918336468632,0.9999829501643941,0.00012729286757404953
-0.4703355997509789,-0.4703355997509789,1.0000498195488554,0.00012683427654390373
-0.4701861237932462,-0.4701861237932462,1.0000459831030817,0.00012690351457632978
-0.47004365841858087,-0.47004365841858087,0.9999702223117977,0.00012962090044861513
-0.4698899410090235,-0.4698899410090235,0.9998697282723906,0.0001276064709124568
-0.46977962075106916,-0.46977962075106916,0.99990205009969,0.0001269964835913273
-0.46967265668208713,-0.46967265668208713,0.999810558179615,0.0001284376739546201
-0.46954568438595745,-0.46954568438595745,0.9998531555880698,0.0001272526602651998
-0.4694635325722629,-0.4694635325722629,1.000089747516419,0.00013256414347142943
