time,time,flux,flux_err
-0.4999281098377348,-0.4999281098377348,1.0001125036541905,0.00011841771042429098
-0.4998248177077282,-0.4998248177077282,1.0000499523518087,0.00011496440845392978
-0.49969144755159506,-0.49969144755159506,0.9998661019966402,0.00010547130353064535
-0.49959262652992037,-0.49959262652992037,0.9997878759710226,0.00010724276419839035
-0.4994944194404525,-0.4994944194404525,1.0000139766466032,0.00010797503184926693
-0.4993534991903289,-0.4993534991903289,1.0000661583363484,0.0001088435778215239
-0.4992109698825516,-0.4992109698825516,1.0001028513030887,0.00010589875374186586
-0.49915350308219786,-0.49915350308219786,1.0001075187196584,0.00010582508268105667
-0.4990523842658149,-0.4990523842658149,1.000105431003715,0.0001103664592987597
-0.49891751919640226,-0.49891751919640226,0.9999317260114242,0.00010701445613998137
-0.4988423443115607,-0.4988423443115607,1.000158851946598,0.00010721193891918708
-0.49865142241251303,-0.49865142241251303,1.0000792269967487,0.00010476475057559339
-0.4984746782713046,-0.4984746782713046,0.9998983946721953,0.00010805947894064008
-0.4983554943988565,-0.4983554943988565,0.9999679941248745,0.00010607853457856289
-0.4982418072700966,-0.4982418072700966,1.000162134077569,0.00010602547675271973
-0.49818070295877986,-0.49818070295877986,0.9997739699377209,0.00010708480176134997
-0.49800469424808397,-0.49800469424808397,1.0000281733833487,0.00010355848970545862
-0.49787563906793364,-0.49787563906793364,1.0001627099876642,0.00010566827760045119
-0.49776508723007284,-0.49776508723007284,0.9998728190127473,0.00011126439776509064
-0.4976864733747789,-0.4976864733747789,0.9998965826801672,0.00010750829300336577
-0.49746649919106856,-0.49746649919106856,0.9998201308759951,0.00010668910060075666
-0.49725235318474004,-0.49725235318474004,1.0001356252017832,0.00010929485124284177
-0.49714414469272017,-0.49714414469272017,1.0001015441585008,0.00010731946610341631
-0.4970439585580607,-0.4970439585580607,0.9999235957632246,0.00010823593255404754
-0.49693618835372033,-0.49693618835372033,1.00007374379704,0.00010476304854506287
-0.49683968562385417,-0.49683968562385417,1.0001307344661152,0.00010679601490654548
-0.49674355347233357,-0.49674355347233357,0.9998016330166536,0.00010665331937446451
-0.49659510267083534,-0.49659510267083534,0.9999294338363182,0.0001070652193742982
-0.4964272985547723,-0.4964272985547723,0.9999282422325525,0.00010737065728270038
-0.496304847682768,-0.496304847682768,0.9999819790776622,0.00010734730015267634
-0.4961758780256787,-0.4961758780256787,0.999917281707984,0.00010708556729803667
-0.49605737155652607,-0.49605737155652607,1.0000049227889332,0.0001070400982842859
-0.49597030771838035,-0.49597030771838035,0.9999788862044545,0.00010757916775380872
-0.49586664665694113,-0.49586664665694113,0.9998845149286841,0.00010893301492228998
-0.495702782330045,-0.495702782330045,1.0001309978014228,0.00010707254993484904
-0.49558134459366554,-0.49558134459366554,1.0000981183699318,0.00010642819239245955
-0.4955063028515724,-0.4955063028515724,1.0001801711815874,0.00010691155860529011
-0.49539479625673266,-0.49539479625673266,1.0001606967191354,0.00010475733930750002
-0.49531737838115075,-0.49531737838115075,1.0000208602437852,0.00010668862562999721
-0.49516703612098356,-0.49516703612098356,0.9999287900346976,0.00010261850182156903
-0.4950167949675233,-0.4950167949675233,1.0000285226975048,0.00010514669974659275
-0.49489292280413794,-0.49489292280413794,0.9999043210914198,0.00010882704899531211
-0.4947727821774606,-0.4947727821774606,0.9998768757872007,0.00010850302215006187
-0.4944053934603289,-0.4944053934603289,1.0001186537362048,0.00010837128755391465
-0.4942614811137901,-0.4942614811137901,1.0000237233182598,0.000108791695016308
-0.4941470471538196,-0.4941470471538196,0.9999143191377191,0.00010794277973458729
-0.49396524224066524,-0.49396524224066524,0.9997410959024039,0.00010652437929738908
-0.49382199909887275,-0.49382199909887275,1.000292535702968,0.00010739863198451941
-0.4937247970192402,-0.4937247970192402,0.9998646322292825,0.00010774335750297394
-0.4936066467082128,-0.4936066467082128,0.9999804676152515,0.00010640674283829935
-0.49349455447663787,-0.49349455447663787,1.0000691740373844,0.00010571986995871961
-0.49337940227414945,-0.49337940227414945,0.9999734187488801,0.00010513200366566019
-0.4932212667881686,-0.4932212667881686,0.9999764123310481,0.00010660437627160674
-0.4931452494507539,-0.4931452494507539,1.0000142767272089,0.0001084852885853793
-0.49304325603443433,-0.49304325603443433,1.0000934664882328,0.00010924169966098237
-0.49285587772901635,-0.49285587772901635,1.0000151848801277,0.00010665307147487749
-0.49265006695495683,-0.49265006695495683,1.0000268307839837,0.00010583316479523125
-0.4925599491900357,-0.4925599491900357,0.9998940655060423,0.00010484975628645798
-0.49243493575922914,-0.49243493575922914,1.000071117056111,0.00010432376657580791
-0.49225078990348264,-0.49225078990348264,1.0001857187303633,0.0001042233716201867
-0.49211404671514175,-0.49211404671514175,0.9999672852816334,0.00011056832675873117
-0.4920190443728643,-0.4920190443728643,1.000038263988338,0.00010500354421086062
-0.49189651252236216,-0.49189651252236216,1.0001287213006265,0.00010925351041766674
-0.4916944160133426,-0.4916944160133426,0.9999526841784879,0.00010884742031518802
-0.4915404296218185,-0.4915404296218185,0.9997923914344771,0.00010894166960584496
-0.4914482534688432,-0.4914482534688432,1.0000422592181437,0.00010919927711682174
-0.4913372004171833,-0.4913372004171833,0.9999398038800866,0.00010726122534604667
-0.4911572668403096,-0.4911572668403096,0.9998404377089785,0.00011048639517370956
-0.49097002287671787,-0.49097002287671787,1.0000492733221922,0.00010911200929821082
-0.49084860034272426,-0.49084860034272426,1.0000302454056342,0.0001106369437108128
-0.4907362032390665,-0.4907362032390665,0.9998920719133219,0.00010639617911484465
-0.4905748524259252,-0.4905748524259252,1.0000308913682565,0.00010513471928143842
-0.4903946136138984,-0.4903946136138984,1.000186441165,0.00010521735274693522
-0.49034650621324544,-0.49034650621324544,1.0000240040012967,0.00010792288451742045
-0.4902579163965129,-0.4902579163965129,0.9999456913975069,0.00011328973347431482
-0.4901519974460825,-0.4901519974460825,0.9999355326064343,0.00010754870949697646
-0.4899782387918094,-0.4899782387918094,0.9999485610313876,0.00010437716524487408
-0.48981985478676504,-0.48981985478676504,1.0000222504880445,0.0001051002793231932
-0.4897206282810657,-0.4897206282810657,1.0000202092492245,0.00010799424884250241
-0.4895764340464666,-0.4895764340464666,0.9998632526925741,0.0001050252328833909
-0.4894147499537212,-0.4894147499537212,0.9999370954135051,0.00010590131907104704
-0.48924026127351683,-0.48924026127351683,1.00004628755472,0.00010910448644741012
-0.4891098209787742,-0.4891098209787742,1.0001325754270238,0.00010451660765176125
-0.48900776526133993,-0.48900776526133993,0.9998876605369773,0.00010989499032739675
-0.48886362911362086,-0.48886362911362086,1.0001202030269312,0.00010746365359231057
-0.4887799763389921,-0.4887799763389921,0.999908669916836,0.00010527890862687256
-0.48864786464255305,-0.48864786464255305,1.0000557413620013,0.00010763450003671676
-0.4885690184921259,-0.4885690184921259,0.9998325933674611,0.00010573342248532331
-0.48840670544159365,-0.48840670544159365,0.9997839571832123,0.00010919721210391328
-0.48822095452414943,-0.48822095452414943,1.0001166027840616,0.00010954807216023905
-0.48810076261943325,-0.48810076261943325,1.0001443646981685,0.00010685550159411842
-0.4880330020700058,-0.4880330020700058,0.9999177810692907,0.00010666278170961387
-0.4879401097103255,-0.4879401097103255,1.000158947732144,0.00010605341356619475
-0.48782607131943223,-0.48782607131943223,1.000054585756187,0.00010503288498564677
-0.4876517607975984,-0.4876517607975984,1.0001773322067533,0.00010464433645424078
-0.4875229784360272,-0.4875229784360272,1.0001310120959908,0.00010607638278051289
-0.4874558514886303,-0.4874558514886303,0.9999466915563102,0.00010848477603680944
-0.48735459012677895,-0.48735459012677895,0.9999880012989383,0.00010904465807361067
-0.4871992226864677,-0.4871992226864677,1.0001524400934545,0.00010486919845658958
-0.48701041553140384,-0.48701041553140384,0.9999515335161364,0.00010530185797885264
-0.48689297431337764,-0.48689297431337764,1.0000838493646609,0.00010551130491774821
-0.48677828475119894,-0.48677828475119894,1.00014770470755,0.00010878029379528192
-0.486609292702633,-0.486609292702633,1.0000987890191528,0.00010595752826577211
-0.4864480365999043,-0.4864480365999043,1.000115457772631,0.00010470205772342283
-0.48633823749623845,-0.48633823749623845,0.9999277379802104,0.00010736114955580065
-0.48620374613892636,-0.48620374613892636,1.0000863567246845,0.00010599278708704097
-0.48604569285307664,-0.48604569285307664,0.9998530258501341,0.00010514807813320171
-0.48594218787911814,-0.48594218787911814,0.999929513589823,0.00010668772005323365
-0.48579658036615003,-0.48579658036615003,0.9999947388280048,0.00010524606017793799
-0.48570592305550236,-0.48570592305550236,0.9999478511153768,0.00010778713208268496
-0.4855267322061991,-0.4855267322061991,1.0000599044003429,0.00010846813893451966
-0.4853465909378428,-0.4853465909378428,0.9998749393747621,0.00010922015420350576
-0.4852431811632414,-0.4852431811632414,1.0000413604252723,0.00010694631583584472
-0.4851317178545287,-0.4851317178545287,1.0000545746804173,0.00010602872436766258
-0.48508392146395635,-0.48508392146395635,1.0000038156149387,0.00010591686245388337
-0.4849814818917366,-0.4849814818917366,0.9998403730857739,0.00010656636477335206
-0.4847800163101056,-0.4847800163101056,1.0000124929463985,0.00010634245274335251
-0.4846508259695838,-0.4846508259695838,0.9999478712464942,0.00010969205539417767
-0.48447881316533314,-0.48447881316533314,1.0000835617306156,0.00010989810613253387
-0.4842989033757476,-0.4842989033757476,0.9999360787128287,0.00010493007892128632
-0.48413750065810746,-0.48413750065810746,1.000160534773543,0.0001068380811526242
-0.48403263205327673,-0.48403263205327673,1.0000367728729638,0.00010793662657820695
-0.48388987172802445,-0.48388987172802445,0.9999182255041916,0.00010665639767853883
-0.48374296956317264,-0.48374296956317264,0.9998688242490272,0.0001040838894277107
-0.4835519864012895,-0.4835519864012895,1.0001150923176514,0.00010757043192201465
-0.4833667798346141,-0.4833667798346141,0.999938867149256,0.00010663058676638648
-0.4832215155096492,-0.4832215155096492,1.0000535496573875,0.00010487968274017563
-0.48310375990258764,-0.48310375990258764,1.0000040477852112,0.00010735829720722573
-0.4829833705611236,-0.4829833705611236,0.9999921368877155,0.00010666832103940062
-0.4828574240709713,-0.4828574240709713,1.000091494248784,0.00010554157874085241
-0.4827185107409605,-0.4827185107409605,0.9999708695072396,0.00011094823625406677
-0.4825549274071818,-0.4825549274071818,1.0000260592593957,0.00010985182023262827
-0.482441042947903,-0.482441042947903,1.0001417686265766,0.00010791802116120257
-0.4823591657252109,-0.4823591657252109,1.0000238488862219,0.0001070403056753256
-0.4822804479343176,-0.4822804479343176,1.000035712865357,0.00010516324256571045
-0.4822015785612166,-0.4822015785612166,1.0000037029081779,0.00010755019493033665
-0.48205635388221707,-0.48205635388221707,0.9998391318025928,0.00010548105531389038
-0.481909087709937,-0.481909087709937,1.000195750724325,0.00010564083840441893
-0.4818409937084652,-0.4818409937084652,0.9999952423092179,0.00010922437803618109
-0.4817084197020449,-0.4817084197020449,0.9999612942905014,0.00010729494004310861
-0.48156308555044236,-0.48156308555044236,1.0000152282625012,0.00010529531546237135
-0.48138988230057295,-0.48138988230057295,0.9999374447956928,0.00010387903576046051
-0.48124188645306276,-0.48124188645306276,0.999908251712928,0.0001067568114083427
-0.4811698385521595,-0.4811698385521595,1.0001441472871266,0.00011522221320428955
-0.48109095453182815,-0.48109095453182815,0.9998635137183856,0.000107832447181196
-0.4809851468766283,-0.4809851468766283,1.000103533524991,0.00010333319784784532
-0.48079977917150246,-0.48079977917150246,0.9998946546275835,0.00010435463438515434
-0.4806594357396534,-0.4806594357396534,0.9998756903411374,0.00010330791428613762
-0.48053798849359736,-0.48053798849359736,0.9998685773648518,0.00011410160230900632
-0.48039030761356116,-0.48039030761356116,1.0000869934289198,0.00010743322755984548
-0.48024330581538377,-0.48024330581538377,0.9999601778731979,0.00010610748394732363
-0.4801092365232762,-0.4801092365232762,0.9999568173960629,0.00010801050950403623
-0.47995151963914395,-0.47995151963914395,0.9998840930803204,0.00010634014679890805
-0.4797912777605234,-0.4797912777605234,0.9998983167351565,0.00010670545615573043
-0.47966929717658785,-0.47966929717658785,0.9999535305299638,0.00010780058391711762
-0.47955553726787914,-0.47955553726787914,0.9999349561296895,0.0001084879616286375
-0.47945461234776304,-0.47945461234776304,1.0001187484467127,0.00010608478752102109
-0.4793980470894894,-0.4793980470894894,1.0001286284566873,0.0001077036285968174
-0.47927566754369766,-0.47927566754369766,1.000007924676325,0.00010756755651940365
-0.47906106024674955,-0.47906106024674955,0.9999569018807464,0.00010658205814569117
-0.47896921757346717,-0.47896921757346717,0.9998160116043457,0.00010788119932578121
-0.47890233185389663,-0.47890233185389663,1.0000529090831631,0.0001074576614709313
-0.478790579897759,-0.478790579897759,0.9999272396371228,0.00010905017925427665
-0.47866593961734905,-0.47866593961734905,1.000147803767577,0.00010680043877454775
-0.47848211698292287,-0.47848211698292287,0.9998744845084737,0.00010520982023328597
-0.4783502567275718,-0.4783502567275718,1.0001248925867046,0.00011199008565390175
-0.47828293425263835,-0.47828293425263835,1.0000524287395258,0.00010871865697452152
-0.4782046128217189,-0.4782046128217189,1.0000978490677994,0.00010567960814661059
-0.4779982590516738,-0.4779982590516738,1.000098927795489,0.00010338761794221577
-0.47781534430760075,-0.47781534430760075,1.0000822916507774,0.00010493057693376645
-0.4777281804010272,-0.4777281804010272,1.000031610503905,0.00010956013930443345
-0.4776244938781019,-0.4776244938781019,1.0000459715648105,0.0001076978768918261
-0.47755493070289956,-0.47755493070289956,1.0000031116441308,0.0001057658419660517
-0.4774498864324414,-0.4774498864324414,0.9999935651188103,0.00010682689410992872
-0.4773217342430144,-0.4773217342430144,0.9999941855830906,0.00010480826308821402
-0.47723566554996066,-0.47723566554996066,1.0002373065435293,0.00010798091922342998
-0.47710289056485633,-0.47710289056485633,1.00002575021958,0.00010697111269806047
-0.47693513367994456,-0.47693513367994456,0.9999370609221112,0.00010768768162123168
-0.47687715110514545,-0.47687715110514545,1.0000638952734937,0.00010535506476805066
-0.47677677503525046,-0.47677677503525046,1.0000396911462157,0.00010914729032992978
-0.47664875423506603,-0.47664875423506603,1.00001533337546,0.00010326881226696058
-0.4765762054135848,-0.4765762054135848,0.9999777767735626,0.00010959689414876829
-0.47651289470741176,-0.47651289470741176,1.0000900983287766,0.0001049364117735308
-0.4763482196016412,-0.4763482196016412,0.9998218502229614,0.00010505141953054477
-0.47619915219765974,-0.47619915219765974,1.000114441309638,0.00010633525617938144
-0.476089689553919,-0.476089689553919,1.0000601254870545,0.00010540119130712127
-0.4759588244800398,-0.4759588244800398,1.000191239948818,0.0001058810849421418
-0.47590191710041835,-0.47590191710041835,1.0000462399458412,0.00010654980134756937
-0.47572791489656086,-0.47572791489656086,1.0000205715930157,0.00010440373147445605
-0.4755547108434257,-0.4755547108434257,1.0000538998804236,0.00010766167778593591
-0.47544612611236514,-0.47544612611236514,1.0002048348626864,0.00011143655463559713
-0.4753836941548798,-0.4753836941548798,0.9999226513748807,0.0001054850402375258
-0.4751860087402747,-0.4751860087402747,1.0000105058445297,0.00010673599917517104
-0.4749557057417405,-0.4749557057417405,1.000359648273473,0.0001080418615881558
-0.4748957292882551,-0.4748957292882551,1.0001914359144448,0.00010670146254421356
-0.4747901472641388,-0.4747901472641388,0.9998829034896894,0.00010614478689031413
-0.4747160077400622,-0.4747160077400622,0.9999453101465134,0.00011043002396697937
-0.4745803402227466,-0.4745803402227466,0.9998057174120605,0.00010382899604710631
-0.4744748702272773,-0.4744748702272773,1.0000268316234648,0.0001053053194747912
-0.4743633240686904,-0.4743633240686904,0.9999616431761458,0.000108472278651936
-0.4741684264714422,-0.4741684264714422,0.9999313318122901,0.00010567254240783635
-0.47401363432582,-0.47401363432582,0.9998085470645265,0.00010593532527433105
-0.47391285750636597,-0.47391285750636597,0.9999880378464484,0.00010774882081415232
-0.47378000791941305,-0.47378000791941305,1.0000715269276044,0.00010526626151423104
-0.47369045076557087,-0.47369045076557087,1.0001654699445908,0.00010911693690809321
-0.47359221169608645,-0.47359221169608645,1.0000743612453096,0.0001092405689335886
-0.47340712085206177,-0.47340712085206177,1.0001492831693208,0.00010685952740099956
-0.4733057793448097,-0.4733057793448097,1.0000879840167958,0.00010604388599425329
-0.47322133599445804,-0.47322133599445804,1.0001221050722247,0.00010527608997990502
-0.4731002917178557,-0.4731002917178557,0.9999574980609166,0.00010542284767043849
-0.47302952299651224,-0.47302952299651224,1.0000023011941326,0.0001087966810749797
-0.4729078543001378,-0.4729078543001378,0.9999894152786861,0.00010331719959218986
-0.47274587247738964,-0.47274587247738964,1.0000047108370134,0.0001039895704495154
-0.4726205325125193,-0.4726205325125193,1.000078984331693,0.00010986728062195366
-0.47252486900324586,-0.47252486900324586,0.9999471520565836,0.00010562119187635896
-0.4723587313477765,-0.4723587313477765,1.0001473854532494,0.00011009913152120601
-0.47211879686728936,-0.47211879686728936,1.0000579048793856,0.00010610106874840086
-0.47200828271525097,-0.47200828271525097,1.0001055645604149,0.00010932473120821992
-0.4719314212197787,-0.4719314212197787,0.9999949224467901,0.00010595821669258064
-0.4718377523582603,-0.4718377523582603,1.0000585845620338,0.00010582666066074914
-0.47166827546679996,-0.47166827546679996,1.0000005684348205,0.00010651543834723158
-0.47152552574771106,-0.47152552574771106,0.9999051586311563,0.00010738974829206634
-0.47144920394566725,-0.47144920394566725,0.9999074213762287,0.00010750623861931606
-0.47134255736891645,-0.47134255736891645,0.999999633829183,0.00010801650072362599
-0.4712572408905544,-0.4712572408905544,1.0000348216288792,0.00010474951238498078
-0.47113779312057885,-0.47113779312057885,0.9999826057449696,0.00010741663178630836
-0.4709826495265588,-0.4709826495265588,0.9999418269522378,0.00010449762255570124
-0.47089357389559156,-0.47089357389559156,1.0001002861926975,0.00010802110246037871
-0.4708159781359427,-0.4708159781359427,0.9998509202234758,0.00010985056891071178
-0.47067865839635487,-0.47067865839635487,1.0001020460784844,0.00010706625502041752
-0.47049862058993314,-0.47049862058993314,1.000087216891627,0.00010459615139581347
-0.4703309530472325,-0.4703309530472325,1.0001236996644591,0.00010686984080010488
-0.47023354462435235,-0.47023354462435235,0.9999720598710826,0.00010579649215577047
-0.47009222787746696,-0.47009222787746696,0.9999806544969427,0.00010308790513101403
-0.4699176186026307,-0.4699176186026307,0.9998263546195488,0.00010644268185150863
-0.4697916413984785,-0.4697916413984785,1.0000514707337123,0.00010963124688792117
-0.469715544320934,-0.469715544320934,0.9999517765784152,0.00010356291341269807
-0.469597480759694,-0.469597480759694,1.0000713075504595,0.00010854337936673866
-0.4694280641313526,-0.4694280641313526,0.9999297996743965,0.0001098490756913481
-0.46927556557493516,-0.46927556557493516,0.9999754819558907,0.00010654884869961984
-0.46916280732184534,-0.46916280732184534,1.0002230535040428,0.00010546220988797346
