time,time,flux,flux_err
-0.4993612817894852,-0.4993612817894852,1.000172452267362,0.00019680267078920946
-0.4978295430907262,-0.4978295430907262,0.9998731907079214,0.0001968177497324517
-0.4960210815946387,-0.4960210815946387,1.0000617233491729,0.0001967856027766749
-0.4946114417962235,-0.4946114417962235,0.9998240828059256,0.00021954943398757248
-0.4934648812668456,-0.4934648812668456,1.0000515271845714,0.00017981030161139255
-0.49243943945330104,-0.49243943945330104,1.0000444919563993,0.00017986919188697686
-0.49077970515427294,-0.49077970515427294,1.0001044051102066,0.00017970513336903945
-0.4891725141169445,-0.4891725141169445,0.9999122649500907,0.0001796208514099248
-0.4877148790321371,-0.4877148790321371,1.0001859740032966,0.00017967530426456338
-0.48597383205342337,-0.48597383205342337,0.9999990470018545,0.0001796969175835628
-0.4848003256971424,-0.4848003256971424,1.0001983260262217,0.00017964868855563436
-0.48377052552677924,-0.48377052552677924,0.9997784696533909,0.00017956969585417162
-0.4826767356469645,-0.4826767356469645,0.9999590319871873,0.00017970906828973436
-0.4815971803102002,-0.4815971803102002,0.9998836368019124,0.0001796846634969997
-0.4800888219571789,-0.4800888219571789,1.0002340239924685,0.00018150770347902655
-0.47885642960900443,-0.47885642960900443,0.9997888287151138,0.00017970469733303806
-0.47701488984239404,-0.47701488984239404,1.0000466509652024,0.00017965561537081512
-0.47530894735318724,-0.47530894735318724,0.9997521467781288,0.00017963179127671855
-0.4740527477915748,-0.4740527477915748,0.9999988910983737,0.00017966666996786294
-0.472568754623353,-0.472568754623353,1.0000493322308213,0.0001797015418509859
-0.4712353352791979,-0.4712353352791979,0.9999563266107637,0.0001896129087190733
-0.47030421658128035,-0.47030421658128035,1.0000836045970465,0.00017968203390153514
-0.4690809144951345,-0.4690809144951345,1.0001162862313593,0.0001797416600083425
-0.4675321001202974,-0.4675321001202974,1.0002510767759414,0.00017963790324486715
-0.46575694313069105,-0.46575694313069105,0.9998800560422982,0.00018267176789505833
-0.46418827944653457,-0.46418827944653457,0.9999798989910031,0.00017968485405439277
-0.4629356988683867,-0.4629356988683867,0.9999042788068089,0.00017970463519312877
-0.4614396880126151,-0.4614396880126151,1.0004409938386964,0.00017972152633408017
-0.4599928405310493,-0.4599928405310493,1.0001646041530396,0.00021636891223672581
-0.4589795681225951,-0.4589795681225951,0.9999716196995996,0.00017965464742938648
-0.45793034300368163,-0.45793034300368163,1.0000756957940566,0.00017971160410476417
-0.4564461821020814,-0.4564461821020814,1.0000805484058033,0.00018079022569550496
-0.4550089240154193,-0.4550089240154193,1.0000668110657305,0.0001796880571479546
-0.453545780028071,-0.453545780028071,1.0000486778263658,0.00017962217822166626
-0.4519640122474812,-0.4519640122474812,0.999858427756452,0.0001796382998641857
-0.45031213699185174,-0.45031213699185174,0.9998969854347101,0.00017968348908037652
-0.44890591467992635,-0.44890591467992635,1.0000315682207324,0.00017967365528499333
-0.44751206541695865,-0.44751206541695865,1.0000256545669308,0.0001796762585843453
-0.4462026027322281,-0.4462026027322281,0.999929401429607,0.00017968356926925
-0.44465728783325176,-0.44465728783325176,1.0004043022760025,0.0001799425359598705
-0.44319512465663136,-0.44319512465663136,1.0001674163055174,0.00017966836848277922
-0.4414269381384656,-0.4414269381384656,1.0002058871747612,0.0001801893780348012
-0.439952726863703,-0.439952726863703,0.9999947344883452,0.00017969315598310905
-0.43869550451490796,-0.43869550451490796,1.0000845659113287,0.0001796649361530805
-0.43718358620099024,-0.43718358620099024,1.000034646898071,0.00017966673220114874
-0.43588791910005964,-0.43588791910005964,1.0001051942438868,0.000195977225984733
-0.43470055693323956,-0.43470055693323956,1.000049508501612,0.0001797377255003068
-0.4334386745671509,-0.4334386745671509,0.9999928749240142,0.00017976034866208916
-0.4317560121664428,-0.4317560121664428,1.0000444082673479,0.0001796930957719542
-0.4303706664781203,-0.4303706664781203,1.0001030598781895,0.00018554313467970417
-0.42904738777288004,-0.42904738777288004,1.0000954906802904,0.00017962768759553294
-0.427288459623378,-0.427288459623378,1.0000788596594536,0.00017971370979735356
-0.42573693652957445,-0.42573693652957445,1.000007892657448,0.00017966371344461466
-0.4246241919383465,-0.4246241919383465,0.9999851482265143,0.0002330715503549245
-0.4234500844962895,-0.4234500844962895,1.0002547881593213,0.0001796598555638415
-0.422271443734644,-0.422271443734644,0.9999054474804255,0.00017971023011470856
-0.4208024790954369,-0.4208024790954369,0.9998516168754443,0.00018110913989423602
-0.4195211039674177,-0.4195211039674177,1.0001676006030737,0.00017970679395530871
-0.41760264929107505,-0.41760264929107505,1.0000357372156423,0.00017965856197439515
-0.4158236814335396,-0.4158236814335396,0.9999998710556532,0.00017970522701402108
-0.4144762346193602,-0.4144762346193602,0.9999260129677644,0.0001796412302801892
-0.4129549753612082,-0.4129549753612082,0.9999823484988639,0.00017971549125612277
-0.4117889586414094,-0.4117889586414094,1.0000651762427712,0.0001796421857264786
-0.4105255972535815,-0.4105255972535815,1.0000584049515502,0.00017968308946056762
-0.4091749985163915,-0.4091749985163915,0.9999895261674073,0.00017980103683176149
-0.40743689051741966,-0.40743689051741966,1.0002232493871663,0.0001810498263196578
-0.40578997028860614,-0.40578997028860614,0.9999865250886366,0.00017964658396315864
-0.40432579543994507,-0.40432579543994507,0.9998705833766867,0.0001796728236334387
-0.4030069403910602,-0.4030069403910602,0.9999549162944366,0.0001796584966777276
-0.40152060696782427,-0.40152060696782427,1.0001858394821408,0.00017965487123657625
-0.40042102385123146,-0.40042102385123146,0.9998685927156622,0.0002052613788089698
-0.39936713663701084,-0.39936713663701084,1.000217456699821,0.00017987715377606217
-0.39834088087518466,-0.39834088087518466,1.000222783706589,0.00017984208600754594
-0.3966820811656362,-0.3966820811656362,0.999927959982517,0.00017972496600298017
-0.39507524599757743,-0.39507524599757743,0.9998012621952455,0.00017961046708483112
-0.39387907778000225,-0.39387907778000225,1.000085850258077,0.00017967241224653815
-0.3922122677358857,-0.3922122677358857,1.0001860327790104,0.00017969865412052763
-0.3909126065787859,-0.3909126065787859,0.9997939148203037,0.0001796750333743916
-0.38980940729088615,-0.38980940729088615,1.0000043134908991,0.0001796648231109041
-0.3888262043168652,-0.3888262043168652,1.0002980247178197,0.00017968468760749104
-0.3877733788860496,-0.3877733788860496,0.9999349571524407,0.00017972600923937327
-0.3862845119838312,-0.3862845119838312,1.000242751586376,0.00018013629390383902
-0.38492792243632723,-0.38492792243632723,1.0003142225499573,0.00018114854453951573
-0.38345722949379707,-0.38345722949379707,0.9999346342552287,0.0001797369812454782
-0.3814747626245662,-0.3814747626245662,1.0000206449413986,0.00017962045660507782
-0.38016281592863377,-0.38016281592863377,1.0000136138462994,0.000179684431538823
-0.3787458964245161,-0.3787458964245161,0.9998727566892374,0.00017970556477375316
-0.3773595148108143,-0.3773595148108143,0.9998498796781996,0.00017967811920430909
-0.37646756768153866,-0.37646756768153866,1.000114988132227,0.00019004004318982727
-0.3752486705576302,-0.3752486705576302,0.9999879680695489,0.0001797253807566218
-0.37379604557718266,-0.37379604557718266,1.0000029691989611,0.00017972118546447335
-0.3720241640949098,-0.3720241640949098,0.9999815868576075,0.00018289705734468727
-0.37036852749006355,-0.37036852749006355,1.0000366499978008,0.00017964668744577407
-0.36903779004424,-0.36903779004424,0.9997288798832791,0.0001796588002329343
-0.3676053312970907,-0.3676053312970907,1.000029937076747,0.00017967815282113485
-0.36618641657260015,-0.36618641657260015,1.0002287052366063,0.0002177374940724926
-0.36509007731074233,-0.36509007731074233,1.0000635695801232,0.0001796519825392991
-0.3641047663892095,-0.3641047663892095,1.0000651477141047,0.0001797198419756055
-0.36265118280716707,-0.36265118280716707,1.0001551438439866,0.00017974258289729279
-0.36112467270577325,-0.36112467270577325,0.9996879596566816,0.00018073303961164982
-0.3597866788157262,-0.3597866788157262,1.0002810860687659,0.00017967209394801074
-0.35820323619482225,-0.35820323619482225,0.9999288791885388,0.00017962307445653448
-0.35646626938832926,-0.35646626938832926,0.999944466344091,0.0001796621504322138
-0.3551201998539909,-0.3551201998539909,0.9999842180534827,0.00017964344402258712
-0.3536752456471731,-0.3536752456471731,1.0000043633739657,0.00017972205969083046
-0.35241992286901225,-0.35241992286901225,0.9999638962438364,0.00017968198334084595
-0.3508840395443258,-0.3508840395443258,0.9999947756744092,0.0001799049293131155
-0.3493602889342583,-0.3493602889342583,1.0002038886129865,0.00017971986538788546
-0.34770021798613016,-0.34770021798613016,1.0005546212973406,0.00018021360494172806
-0.3461385245696874,-0.3461385245696874,1.0002036862368942,0.00017963656716433714
-0.34488368361198807,-0.34488368361198807,0.9999973544434898,0.00017965812190636257
-0.34339517623666327,-0.34339517623666327,0.9998537689819,0.00017965666869516672
-0.3419455847950303,-0.3419455847950303,1.0001059042093963,0.0001967309594831116
-0.34087235115439396,-0.34087235115439396,0.9999212328059581,0.00017972436045938167
-0.339829540237406,-0.339829540237406,1.0000383578121355,0.00018008220861408884
-0.33836220609373413,-0.33836220609373413,1.0001838646226102,0.00017969810905599747
-0.336817068210803,-0.336817068210803,0.9998739026907117,0.00018587894835129333
-0.33549502064925035,-0.33549502064925035,0.9997665874975767,0.0001795989926662263
-0.33390631650909197,-0.33390631650909197,0.9997324711310309,0.00017958046551566823
-0.3322666795189434,-0.3322666795189434,0.9998986952259683,0.0001796469827171167
-0.3309072001677123,-0.3309072001677123,0.9998800221091797,0.00023574740014539107
-0.33001476573990657,-0.33001476573990657,1.0000899421872949,0.00017964303639305776
-0.32902853890627737,-0.32902853890627737,1.0000632978907107,0.00017964194409598086
-0.32757044668251184,-0.32757044668251184,1.0000696130091398,0.00017970177036251889
-0.32611409628152616,-0.32611409628152616,0.99997574643322,0.0001810904541313567
-0.32478653873695296,-0.32478653873695296,1.0000240636755564,0.00017975826385028436
-0.3227989014631021,-0.3227989014631021,1.000004857718794,0.00017970752973943017
-0.32113969132187775,-0.32113969132187775,1.000073954407439,0.00017968488969780552
-0.319727634316223,-0.319727634316223,0.9998893967790252,0.00017963467482383401
-0.3183378626294143,-0.3183378626294143,1.0001468512969123,0.00017969297026011516
-0.3171866950113326,-0.3171866950113326,1.0000571789812442,0.00017967812221331776
-0.3159625979067641,-0.3159625979067641,0.9999351821059896,0.00017978237462302812
-0.3144096413438092,-0.3144096413438092,0.999946188067789,0.00017972094410973434
-0.3126321992393059,-0.3126321992393059,0.9998646280405061,0.00018115852075996673
-0.3110658191581024,-0.3110658191581024,1.0001267564631615,0.00017973276040564407
-0.3098122209536086,-0.3098122209536086,0.9999693334691951,0.00017966555007601406
-0.3083195842700661,-0.3083195842700661,1.0000185990678891,0.00017969954884361293
-0.3068715654546395,-0.3068715654546395,1.000127532713019,0.0002062637035656355
-0.3058606927494111,-0.3058606927494111,1.0001897017368742,0.00017969156410549446
-0.30497401323373197,-0.30497401323373197,0.9996821911729248,0.0001800480586126814
-0.303633809096209,-0.303633809096209,1.0002257411368205,0.0001797476077261162
-0.3018878788650909,-0.3018878788650909,1.0001135922176918,0.00017968094514590548
-0.3004228687219438,-0.3004228687219438,0.999846726817478,0.00017959985861934938
-0.2988379794172943,-0.2988379794172943,1.000112051523509,0.0001796679470632172
-0.2971916077207425,-0.2971916077207425,0.9998759844285878,0.0001797018150632556
-0.29612737209681655,-0.29612737209681655,1.0000306516733688,0.00017967939472522066
-0.29491393946955213,-0.29491393946955213,0.9997939808312069,0.0001796292984526207
-0.2936753513313306,-0.2936753513313306,1.000316594990456,0.0001797112478556244
-0.29218626535439396,-0.29218626535439396,0.9996878048068117,0.0001800839100958074
-0.2908297568261332,-0.2908297568261332,1.0000888516449145,0.00018130901460652033
-0.28935981018948953,-0.28935981018948953,1.0000114871820198,0.00017968857096237737
-0.2873776714252017,-0.2873776714252017,0.9999509889750635,0.00017971930989603695
-0.28606513616177837,-0.28606513616177837,1.0000008750006262,0.00017967139732320885
-0.28464773106752544,-0.28464773106752544,0.9999427826702858,0.0001797230342957897
-0.2832616876512475,-0.2832616876512475,1.0000930994887076,0.00017964518623150364
-0.2823701069886738,-0.2823701069886738,0.999940385739863,0.0001905154050762713
-0.2811509236569691,-0.2811509236569691,1.0002066248049266,0.00017970027754250501
-0.2799513071506226,-0.2799513071506226,0.9999710300400482,0.00017972142011638494
-0.27853846477883054,-0.27853846477883054,0.9999761252191173,0.00018478484009809456
-0.2769631922354165,-0.2769631922354165,0.9999844455558385,0.0001796809876017651
-0.27537102800488356,-0.27537102800488356,1.000126333266521,0.000179656164318786
-0.2741691125338548,-0.2741691125338548,0.9998347159327766,0.00017970832194026117
-0.2726136913188384,-0.2726136913188384,0.9998891800990208,0.0001797089466289579
-0.2714988448475196,-0.2714988448475196,0.999914249492839,0.000219206190431838
-0.2703334122124943,-0.2703334122124943,1.0001068734716243,0.0001796847096444927
-0.2691582745894266,-0.2691582745894266,1.000015313860393,0.00017973368024049176
-0.2676973841334984,-0.2676973841334984,1.0000360778090196,0.00018067540803050008
-0.2661253709811717,-0.2661253709811717,1.0000851824636787,0.0001796592449042727
-0.26481443186421527,-0.26481443186421527,1.0000262466866978,0.0001796510203081554
-0.2630384405005316,-0.2630384405005316,0.9999214234197931,0.00017968465510489903
-0.2616263187272125,-0.2616263187272125,1.000247691749571,0.00017967168761955364
-0.2601188116430421,-0.2601188116430421,0.9998798444799089,0.0001796547571197431
-0.25887656751947363,-0.25887656751947363,0.9999142314028994,0.00017969431469214432
-0.25740945523430125,-0.25740945523430125,0.999900419596151,0.00017968801655368567
-0.2557791156039457,-0.2557791156039457,1.0000119926778133,0.00017993198438551156
-0.2543116564884258,-0.2543116564884258,0.9996745580209367,0.00018041638259661273
-0.2526633917972504,-0.2526633917972504,1.0001060550925942,0.00017960366371786807
-0.25120620126690485,-0.25120620126690485,0.9997054937931749,0.00017968904877306877
-0.24988813113959624,-0.24988813113959624,0.9999319657851273,0.00017969827996779648
-0.248398334455851,-0.248398334455851,0.9999098546261977,0.00017960499436424268
-0.2472980888254824,-0.2472980888254824,0.999827692880614,0.00019744009706743182
-0.24610538270062535,-0.24610538270062535,1.0001627236291581,0.00018010191674424275
-0.2449147713217826,-0.2449147713217826,1.0000744534928754,0.00017971921446166913
-0.24323416518091107,-0.24323416518091107,1.0000145340772835,0.00018626329463673443
-0.24195070148998638,-0.24195070148998638,0.999907682770621,0.0001796925434173014
-0.24049420442825067,-0.24049420442825067,1.0001845754928778,0.00017964352323872774
-0.23875562200555578,-0.23875562200555578,0.9998323507420744,0.00017967881817557884
-0.23728338340006302,-0.23728338340006302,0.9998547488517874,0.00024148461186596242
-0.2361742811553995,-0.2361742811553995,1.0000258092918723,0.00017965184862989974
-0.23510110355637154,-0.23510110355637154,0.9997399249711778,0.00017963551256920842
-0.23377127699059203,-0.23377127699059203,0.9998816153784749,0.0001796821506641524
-0.23233285297174006,-0.23233285297174006,0.9998317187671134,0.00018116150163513954
-0.23105080421446472,-0.23105080421446472,1.0001117626839642,0.0001797159321283546
-0.22903842600208008,-0.22903842600208008,0.9999493853675782,0.00017962117164767479
-0.22728950562304817,-0.22728950562304817,1.0000408167858796,0.00017969845624654749
-0.2259447134238144,-0.2259447134238144,0.9999938325121704,0.00017969304146790252
-0.22449909467759427,-0.22449909467759427,0.9999951697614738,0.0001796736214167586
-0.22335835025587586,-0.22335835025587586,0.9999226260920355,0.00017966846969624732
-0.2221284461702453,-0.2221284461702453,0.9996714473032349,0.00017963747868155982
-0.22068077454532614,-0.22068077454532614,0.9998957957859353,0.00017982593322888192
-0.21889730721741216,-0.21889730721741216,1.0002146366126805,0.00018129010360896976
-0.2172420108312508,-0.2172420108312508,1.000016710481404,0.0001796913623742044
-0.2159165538367233,-0.2159165538367233,0.9998574272239658,0.00017964457417928213
-0.2144884626562998,-0.2144884626562998,0.9999448266335739,0.00017966103469340024
-0.21306173022821895,-0.21306173022821895,1.0000553172984108,0.00020722052403750971
-0.2119700169801945,-0.2119700169801945,0.9997801646493617,0.0001796304324176347
-0.21102876376971835,-0.21102876376971835,0.9999098687434692,0.00018006418589335476
-0.21007994393803528,-0.21007994393803528,1.0000870931481773,0.00017966933180445292
-0.20848683596559567,-0.20848683596559567,1.0001933626394626,0.00017970753215402363
-0.20688071581171244,-0.20688071581171244,0.9997558904552267,0.00017959763448362773
-0.20542265570475138,-0.20542265570475138,0.9998734728338098,0.0001796312997596212
-0.2036806852411246,-0.2036806852411246,0.9998561548142171,0.0001796991990067771
-0.20250590760988416,-0.20250590760988416,1.0000419143920163,0.0001796707435880546
-0.20136851400020533,-0.20136851400020533,0.9999433535380116,0.00017965910620878312
-0.200027369640884,-0.200027369640884,0.9998999269128964,0.00017968917410839794
-0.19869102721204399,-0.19869102721204399,0.9999932054161501,0.00017967180563642648
-0.19724957353901118,-0.19724957353901118,0.9996292631605936,0.00018175349348895916
-0.19597640402789693,-0.19597640402789693,0.9998496334003797,0.0001796145000759077
-0.1942002140538534,-0.1942002140538534,1.0001304194629894,0.0001798159250780563
-0.1927364349605341,-0.1927364349605341,1.0000082672573527,0.00017967169951876023
-0.19147692447077133,-0.19147692447077133,0.9999660930490158,0.000179699200159267
-0.18996618026358192,-0.18996618026358192,0.9999360524885997,0.00017967577613380107
-0.18880163995781912,-0.18880163995781912,0.999953694379799,0.0001910448224978187
-0.18775527429315844,-0.18775527429315844,0.9996598803733822,0.0001796993351473553
-0.18651698335670516,-0.18651698335670516,1.000027036698597,0.0001797191695356262
-0.18492120580776827,-0.18492120580776827,0.9998147425422103,0.00017968132187204345
-0.18314878091259743,-0.18314878091259743,1.0000781772920082,0.00018331581166919648
-0.18189579187092023,-0.18189579187092023,1.0000957562426815,0.000179657821661953
-0.18064355024689577,-0.18064355024689577,0.9998763771893208,0.0001796653295116152
-0.1791464157620794,-0.1791464157620794,1.0000660534218135,0.00017966976551979608
-0.17769993196707218,-0.17769993196707218,0.999487040983778,0.00022062229359625838
-0.17668588624655968,-0.17668588624655968,1.0000056509488298,0.00017964627588041546
-0.1756361727573676,-0.1756361727573676,1.000133699738758,0.0001797283343413532
-0.17415138291034965,-0.17415138291034965,0.9999705087987796,0.00018063554136052516
-0.1727159611931711,-0.1727159611931711,0.9998767451564696,0.00017975766240372953
-0.1711176617682213,-0.1711176617682213,0.9998684111371491,0.0001796545985453173
-0.1692281952164194,-0.1692281952164194,0.9998805100758089,0.00017965396300539054
-0.1678465257253265,-0.1678465257253265,0.9992488066449553,0.0001796980359002332
-0.16661132420776995,-0.16661132420776995,0.9998119665903019,0.00017967890711644612
-0.16521849610653588,-0.16521849610653588,1.0001011033151899,0.0001796598753433691
-0.16390710518171545,-0.16390710518171545,1.0001881293547965,0.00017970459352470918
-0.1625760733608331,-0.1625760733608331,0.9999818620359211,0.00017992223818762945
