time,time,flux,flux_err
-0.499641176804289,-0.499641176804289,0.9992664808624588,0.00027463882313242134
-0.4986419940457078,-0.4986419940457078,1.0001184743666405,0.0002730941936255179
-0.4977128534883377,-0.4977128534883377,0.9993230223985604,0.00026930266846845346
-0.49721771715558133,-0.49721771715558133,1.000239104380571,0.00024952199919380587
-0.4963773634946847,-0.4963773634946847,0.999973399285168,0.0002528114470917582
-0.4956289008296153,-0.4956289008296153,0.9998536177921263,0.000246663247177594
-0.4949396578667802,-0.4949396578667802,0.9997248973018898,0.00025219590771926367
-0.4941383858160407,-0.4941383858160407,1.0003030308133263,0.00025280369146278434
-0.49349977710226084,-0.49349977710226084,1.000262985198907,0.0002472089406373498
-0.49289307709404967,-0.49289307709404967,0.9997309081245811,0.00024504858967068315
-0.49194809314067245,-0.49194809314067245,0.9997895956663964,0.0002523112412300852
-0.4912799170342623,-0.4912799170342623,1.0001375142141482,0.0002446656150147693
-0.49071545786064236,-0.49071545786064236,0.9996319178322581,0.00024550738450204376
-0.48978549253879466,-0.48978549253879466,0.9996861451460811,0.000253106934797012
-0.4893094403712894,-0.4893094403712894,0.9997618667503835,0.0002460619578643749
-0.48873934167422706,-0.48873934167422706,0.9997517491046368,0.00024592612586496834
-0.48791782245170906,-0.48791782245170906,1.0000008473565716,0.00025234579082133123
-0.487172341576661,-0.487172341576661,1.0006392674755142,0.0002456136704512244
-0.48673332806065445,-0.48673332806065445,0.9998722426898976,0.0002454863695776168
-0.48622659046232003,-0.48622659046232003,0.9993102417595644,0.00024314011611959097
-0.4853960917324002,-0.4853960917324002,0.9997611963600328,0.0002540159049558505
-0.48491039166547123,-0.48491039166547123,0.9999842650522066,0.00024581358743319546
-0.4844783859618474,-0.4844783859618474,0.9998639843234208,0.00024425391707079836
-0.48379103828701775,-0.48379103828701775,1.0000981138612228,0.0002510343040204709
-0.48298820614654686,-0.48298820614654686,0.9999943020796263,0.0002484472147593484
-0.48252816225285644,-0.48252816225285644,0.9997411394918403,0.00024675340538332
-0.48192560311144916,-0.48192560311144916,0.9999130356505608,0.00024509765905019105
-0.48092556203046116,-0.48092556203046116,1.0002024479340343,0.00025179593844467025
-0.48054061364964584,-0.48054061364964584,0.9998647110617004,0.00024676340342728745
-0.47982265903556254,-0.47982265903556254,0.9999509074972845,0.0002482311198664646
-0.4787912387597316,-0.4787912387597316,0.999523652156892,0.00025319674690956433
-0.4783778909528337,-0.4783778909528337,0.9995554273283604,0.0002451124121291803
-0.4777309740311466,-0.4777309740311466,1.0008712568051557,0.00025229900503788937
-0.47682006010145417,-0.47682006010145417,0.9997799871913079,0.00025084774208819895
-0.4764733661817445,-0.4764733661817445,0.9995445158479586,0.00024878274989765744
-0.4759173935286526,-0.4759173935286526,1.0001994581952411,0.00024547008656425253
-0.4751218481491378,-0.4751218481491378,1.0000527560048815,0.00025625611399017657
-0.4744510739517864,-0.4744510739517864,0.9996580300311783,0.00024994881168371313
-0.47399238797443105,-0.47399238797443105,0.9997366441695696,0.0002456608943059925
-0.473405498448119,-0.473405498448119,0.999441689925358,0.0002515769633283921
-0.4723986170632998,-0.4723986170632998,1.0005328239272318,0.0002544825754125019
-0.4721543212181132,-0.4721543212181132,0.9997068702272063,0.0002485500864465252
-0.4716589248753735,-0.4716589248753735,1.000481316004883,0.00024750158541717016
-0.47088102527995945,-0.47088102527995945,0.9997760099435675,0.0002558487366165338
-0.470148915349273,-0.470148915349273,1.000174358968049,0.00024895083280825834
-0.4693723948454135,-0.4693723948454135,1.0001961446367327,0.0002445710197857793
-0.46860671247632124,-0.46860671247632124,0.9997862625899314,0.0002561932626687862
-0.4679756847021054,-0.4679756847021054,0.9999878955244096,0.0002487321176416301
-0.46736845800769516,-0.46736845800769516,1.000075028815366,0.00024666897964220673
-0.4668254766504106,-0.4668254766504106,1.0002597756798388,0.0002489500511609651
-0.46595570809367926,-0.46595570809367926,1.0001891165248804,0.0002518222438527757
-0.465582882243325,-0.465582882243325,0.9993622516682285,0.00024850283167891644
-0.4647279058583081,-0.4647279058583081,0.9994011404425865,0.00025123228498470646
-0.463775949315459,-0.463775949315459,0.9997247979935618,0.000252306062692002
-0.46339078098899333,-0.46339078098899333,0.9997166448542906,0.0002472760912414926
-0.4625960041084909,-0.4625960041084909,0.9998090253626133,0.00025332429228839957
-0.4618045923649333,-0.4618045923649333,1.0000549593484702,0.00025101439745096106
-0.46123766873570277,-0.46123766873570277,1.000110761752499,0.00024990942406506576
-0.46062930762273024,-0.46062930762273024,0.9998382522795586,0.00024684169037961874
-0.45986239083285907,-0.45986239083285907,0.9999760724295758,0.00026080065519251986
-0.4591702966456069,-0.4591702966456069,1.0002546413503077,0.00024748215967373743
-0.4584326693904586,-0.4584326693904586,0.999762548675632,0.00025438205646528134
-0.457444487932662,-0.457444487932662,0.9996132528995736,0.0002544358420475566
-0.4567683457375097,-0.4567683457375097,0.9999486460522504,0.0002465909805492956
-0.45602563327483947,-0.45602563327483947,0.9992695889985796,0.0002526765211367355
-0.455111588708678,-0.455111588708678,1.0001272971676465,0.0002537878568953309
-0.4544975559110753,-0.4544975559110753,1.0004022200472946,0.0002488174845548381
-0.4537148106901441,-0.4537148106901441,0.999897703238782,0.00024728995695594253
-0.4528400657014572,-0.4528400657014572,1.0003857843472495,0.0002541467220854176
-0.45216401916623,-0.45216401916623,0.9990611522321095,0.0002499816938264008
-0.45121212538142574,-0.45121212538142574,1.0003426549972456,0.0002450048058931551
-0.45062175921048037,-0.45062175921048037,1.000012027293146,0.00025715169500341664
-0.44969249548666995,-0.44969249548666995,0.999725515689126,0.0002452318203139429
-0.4488521230472543,-0.4488521230472543,0.9991760365728795,0.00024410722987616105
-0.4484728402079782,-0.4484728402079782,1.0000810137833016,0.0002573078091717585
-0.44785640053814857,-0.44785640053814857,0.9997133739472852,0.0002482048730909038
-0.44688290726335256,-0.44688290726335256,0.9999553982441631,0.0002453174347241976
-0.4462697982446116,-0.4462697982446116,0.9997313572890688,0.000258520860552494
-0.44565660552325426,-0.44565660552325426,0.9994406200606765,0.0002476146921248235
-0.4446947319775063,-0.4446947319775063,0.999973190988355,0.00024341801391972303
-0.44408177697769136,-0.44408177697769136,0.9999589841373886,0.00025820364308415877
-0.4432543368944607,-0.4432543368944607,0.999641188209117,0.0002496091195608281
-0.44236705687726496,-0.44236705687726496,0.9996647925571951,0.00024488948907159375
-0.441638373798196,-0.441638373798196,0.9994188193186346,0.00025945128970643815
-0.4406260953823221,-0.4406260953823221,0.9999002270748901,0.00024632218708537756
-0.4397827827197034,-0.4397827827197034,0.9992776808263063,0.00025408567015698744
-0.4392161048410344,-0.4392161048410344,1.0000233942913312,0.0002479580025378019
-0.4384615535629564,-0.4384615535629564,1.0000685864150227,0.0002467290837448005
-0.437692242085177,-0.437692242085177,0.9996773464623093,0.00024977117166091295
-0.43702883862570163,-0.43702883862570163,0.9992837163208497,0.0002485308619366754
-0.43656290445287593,-0.43656290445287593,1.0001604641403414,0.00024696481651563436
-0.43589487631252266,-0.43589487631252266,0.999972316222083,0.0002453012128937096
-0.43526631870045096,-0.43526631870045096,0.9997465884097823,0.0002478842776942647
-0.4344652653177036,-0.4344652653177036,0.9993720472117088,0.00024907348566346956
-0.4339600898318167,-0.4339600898318167,0.9996777312628204,0.00024389568205378893
-0.433331227824965,-0.433331227824965,1.000162446833758,0.00024984688586253867
-0.43266490807945956,-0.43266490807945956,0.9997482556189089,0.00024604575760262746
-0.4320970623368339,-0.4320970623368339,1.000318460072515,0.0002476936404900849
-0.43144774826578214,-0.43144774826578214,1.000129034795579,0.00024575662942613455
-0.43072826950374293,-0.43072826950374293,1.000021756872363,0.00025048519952983753
-0.42973602631027463,-0.42973602631027463,1.0000208304491351,0.0002462845208876457
-0.4290828979355865,-0.4290828979355865,0.9996854108691986,0.00025090795402377136
-0.4284920035817777,-0.4284920035817777,0.9999512371483205,0.0002461746610797356
-0.42776004150509833,-0.42776004150509833,0.9995639469668465,0.00024717533084725105
-0.4271259828463371,-0.4271259828463371,0.9997297058062365,0.0002457127677780184
-0.4266396805367549,-0.4266396805367549,0.9996708430420373,0.000248247463987215
-0.42588387417272316,-0.42588387417272316,1.0001271667265992,0.0002491711172507222
-0.42545256144294397,-0.42545256144294397,0.9997488706285477,0.00024489263747651377
-0.4247586245772254,-0.4247586245772254,0.9998613916769458,0.0002516938459484315
-0.4239231339801336,-0.4239231339801336,0.9999987836377308,0.00024989730241095225
-0.4231745739838516,-0.4231745739838516,0.9997748079994286,0.00024539924312075897
-0.42259638461400756,-0.42259638461400756,0.9995281519859445,0.00025209331685657727
-0.42182902838176234,-0.42182902838176234,0.9998608072184745,0.0002470733089792093
-0.4209828792241751,-0.4209828792241751,0.9998826866735662,0.00024736065917361165
-0.4203465777005476,-0.4203465777005476,0.9995866519512075,0.00025204165942577494
-0.4195895872224355,-0.4195895872224355,1.0000501788674092,0.00024615802771013644
-0.41906949475524014,-0.41906949475524014,0.9997165080065834,0.0002507522167461124
-0.4182717000869161,-0.4182717000869161,0.9997253687313258,0.00025328440125449875
-0.41746123253251427,-0.41746123253251427,1.0000113638044164,0.00024829765864722544
-0.416867082722456,-0.416867082722456,1.0004241768585749,0.00024986964366074195
-0.41637967087590366,-0.41637967087590366,1.0005544230325747,0.0002471184896193806
-0.4158024937431037,-0.4158024937431037,0.9994079154754674,0.0002451028647468878
-0.41485766617770425,-0.41485766617770425,0.999703844282022,0.0002522944456445204
-0.4141901650400541,-0.4141901650400541,1.0003806767248882,0.0002446697029081169
-0.41362486830548734,-0.41362486830548734,0.9998305350429529,0.000245416590257671
-0.4126953323830094,-0.4126953323830094,0.9997378783988429,0.00025292611557399677
-0.4122198696160922,-0.4122198696160922,0.9993208290410618,0.00024590890557626234
-0.41164905024998005,-0.41164905024998005,0.9999746821162884,0.00024589753252509175
-0.41082697722376904,-0.41082697722376904,0.9997504041390496,0.00025236120665873715
-0.41008264158735985,-0.41008264158735985,0.9996641814028392,0.0002455765746237154
-0.4096431473641132,-0.4096431473641132,1.0000487347801759,0.0002454910656851499
-0.40904001528106165,-0.40904001528106165,0.9998922131704073,0.0002470175400090484
-0.408236185694841,-0.408236185694841,0.9998010887537763,0.0002513763714594752
-0.40781574627180817,-0.40781574627180817,1.0001619170594847,0.0002465057707983514
-0.4073879169547581,-0.4073879169547581,0.9998974179129082,0.00024413421293561474
-0.4067004627584538,-0.4067004627584538,0.9998723864228432,0.00025102480198050856
-0.4059410151785414,-0.4059410151785414,1.0000892214777413,0.0002482024218741531
-0.40553474339103557,-0.40553474339103557,1.0003543608920338,0.0002471652373676878
-0.4050695897276455,-0.4050695897276455,1.0000226151295262,0.00024392865675981838
-0.4038949833535298,-0.4038949833535298,1.0000874805072746,0.00025318186548446047
-0.4035273359499115,-0.4035273359499115,0.9994955758800519,0.00024654037234069084
-0.4030371333043149,-0.4030371333043149,1.0000251180742883,0.00024513101261794347
-0.4019719817209989,-0.4019719817209989,1.0003614606082962,0.0002548661676470065
-0.40143562164812463,-0.40143562164812463,0.9996508060858966,0.000246109918212801
-0.4007126634132874,-0.4007126634132874,0.9998687006583362,0.00024518469219296984
-0.3999135598722205,-0.3999135598722205,0.9997455817554636,0.00025626450790618946
-0.3994740915011789,-0.3994740915011789,0.9994184120995921,0.0002484884636630467
-0.39892337612836853,-0.39892337612836853,0.9998564109488385,0.0002459498927790608
-0.39827413383609384,-0.39827413383609384,0.9995409284379985,0.0002563788864045755
-0.3974049816308252,-0.3974049816308252,1.0001033313976442,0.00024974840670290664
-0.39695544366695684,-0.39695544366695684,1.0000402053342112,0.00024533931970031165
-0.3963151323798229,-0.3963151323798229,0.999730004055073,0.00025155488193703265
-0.39534108454099626,-0.39534108454099626,0.9998463563506128,0.0002544107163386566
-0.395124638818379,-0.395124638818379,1.0002352292989605,0.00024757968114728495
-0.3946962778558373,-0.3946962778558373,1.0000893464472724,0.0002482009895508004
-0.39402241557691015,-0.39402241557691015,1.0000107177620352,0.00025039009930528304
-0.3930864121626655,-0.3930864121626655,0.9998579193806029,0.00025523240150646456
-0.3924727059733414,-0.3924727059733414,0.9998481578792763,0.00024449645579081636
-0.3917314256032114,-0.3917314256032114,1.0003884417711486,0.0002494574047277167
-0.3909093685331754,-0.3909093685331754,1.0005288502807104,0.00025571359120765377
-0.3904600700094306,-0.3904600700094306,1.000312881601527,0.000245873664127137
-0.3898530293357908,-0.3898530293357908,1.0000204071181555,0.000249859142614528
-0.38886570901377127,-0.38886570901377127,0.9996144212023671,0.0002517049151941151
-0.3884920276061166,-0.3884920276061166,1.0003338714199894,0.000248412237345968
-0.38763791370074613,-0.38763791370074613,0.9995325762861247,0.0002513038220564248
-0.3866861018977943,-0.3866861018977943,1.0003287294607202,0.00025237647603562304
-0.38638623419756185,-0.38638623419756185,1.000062378982929,0.0002473334912482018
-0.3855964659640449,-0.3855964659640449,1.000158290322648,0.00025397365568441426
-0.38475938354531536,-0.38475938354531536,0.9997746048832573,0.0002517161859027459
-0.3842407328047557,-0.3842407328047557,1.0000020387931403,0.0002498957254352124
-0.38367514866986313,-0.38367514866986313,1.000203231884888,0.0002469782045471349
-0.3829639742987638,-0.3829639742987638,1.0000847967996378,0.0002531244491797672
-0.38218556457577507,-0.38218556457577507,0.999841662585965,0.0002550451912573474
-0.3813855511078145,-0.3813855511078145,1.0002182743768673,0.00025392533932170014
-0.3803547575123957,-0.3803547575123957,0.9995880426456385,0.00025433207610213394
-0.3796776401854004,-0.3796776401854004,0.9999031921457743,0.0002465893247745535
-0.3789355197419354,-0.3789355197419354,1.0000021987992098,0.0002524611116646468
-0.3780220552405808,-0.3780220552405808,0.9997584965283638,0.00025366432638246035
-0.3774068749647995,-0.3774068749647995,0.9996770592386774,0.00024887861564446375
-0.3766251107728749,-0.3766251107728749,0.9988755943590399,0.00024706636089691353
-0.3757505508423492,-0.3757505508423492,0.9997630429699338,0.00025398188010066836
-0.3751732352502586,-0.3751732352502586,0.9993398521228023,0.0002494311491028172
-0.3743711547162093,-0.3743711547162093,1.0000679918253366,0.00024556078714168574
-0.3735868239804404,-0.3735868239804404,0.9996739869749736,0.00025523480916319973
-0.37293399558984675,-0.37293399558984675,0.9997649688656164,0.0002491537411581339
-0.3721163680500467,-0.3721163680500467,0.9997473624498692,0.0002433894301076413
-0.3714611176910694,-0.3714611176910694,0.9998795348998556,0.0002553300112923879
-0.37096953236032276,-0.37096953236032276,1.0001036879181426,0.00024902761457995206
-0.36999275994458003,-0.36999275994458003,0.9999240940665233,0.00024457382398585285
-0.36921229219078666,-0.36921229219078666,0.9996269444768535,0.0002586154931510404
-0.3685665329343465,-0.3685665329343465,1.000526722330246,0.00024765373006579994
-0.36760483579637365,-0.36760483579637365,0.9996965443213662,0.00024345916061428724
-0.36699211861996445,-0.36699211861996445,1.0003208186959462,0.00025810118920432604
-0.3661638152276282,-0.3661638152276282,1.0000157196163941,0.0002497301160627616
-0.3652773073692515,-0.3652773073692515,0.9995392217961865,0.00024497071795443143
-0.36454843577739665,-0.36454843577739665,0.9988087254496161,0.00025905747998877137
-0.36353576828914813,-0.36353576828914813,0.9997085433596039,0.0002463500774547464
-0.36269337896592335,-0.36269337896592335,0.9989624052306689,0.00025350549988364094
-0.3619933017485891,-0.3619933017485891,1.0000234794707379,0.0002479151410698653
-0.3611672094921232,-0.3611672094921232,1.0004543929104588,0.0002467208454014949
-0.3605310937811737,-0.3605310937811737,0.9994812823343482,0.0002491024002547811
-0.359840200268809,-0.359840200268809,0.9999529824406853,0.0002490577853287568
-0.3594441673012625,-0.3594441673012625,0.9991092024167187,0.000246802448113104
-0.35874184871427134,-0.35874184871427134,1.0000948952480584,0.000246276290524626
-0.3581372429631301,-0.3581372429631301,0.999491920832865,0.0002490708963412463
-0.3572787519588019,-0.3572787519588019,0.9992971300251913,0.00024681067606181843
-0.3568276193829661,-0.3568276193829661,0.9995835363136184,0.0002456760404929548
-0.35624169725197136,-0.35624169725197136,1.0000730306342387,0.0002497757366172223
-0.3554582065611612,-0.3554582065611612,0.9997146058211899,0.00024504966198671133
-0.35491228694299937,-0.35491228694299937,0.9999357077832718,0.00024728968294505065
-0.3542417307013238,-0.3542417307013238,0.9999010094125712,0.00024663616316546926
-0.3534456999375834,-0.3534456999375834,0.9996910871047193,0.0002502309186252942
-0.35274214998062237,-0.35274214998062237,1.0001664080599635,0.00024744603788977185
-0.3520740241379826,-0.3520740241379826,0.9997745945835504,0.0002468639139816911
-0.3515518488071393,-0.3515518488071393,1.0004098915139739,0.00024917342949742547
-0.3507454369959305,-0.3507454369959305,0.9998133678013932,0.0002479598318756497
-0.3499617133558786,-0.3499617133558786,0.9993391948627508,0.0002478902925127247
-0.3493626807940018,-0.3493626807940018,1.0000814211811897,0.00024807173728682674
-0.3486079550508293,-0.3486079550508293,0.9997707393713637,0.0002497019768488246
-0.34791139525477777,-0.34791139525477777,1.0002144904543009,0.00024481955969221615
-0.3473542551007995,-0.3473542551007995,0.9999578229918263,0.0002490832314116833
-0.3463989959374885,-0.3463989959374885,0.9999406161322371,0.00025111328468657105
-0.345845626656228,-0.345845626656228,1.000844011108116,0.00024529250660951745
-0.34540619227918795,-0.34540619227918795,0.999777408055649,0.00025126477195387665
-0.344542183727026,-0.344542183727026,0.9999380970571028,0.0002499162272949303
-0.3437218608807598,-0.3437218608807598,1.000004491391545,0.00024525677323899503
-0.34314601197329464,-0.34314601197329464,0.9998092717920445,0.000249971254303078
-0.34237321248219815,-0.34237321248219815,0.9999259528707889,0.0002496802235989697
-0.34180833890204665,-0.34180833890204665,0.9998549279521093,0.000249395499989826
-0.3410501977559761,-0.3410501977559761,0.9995016299960492,0.00025189783473059937
-0.34014031008555323,-0.34014031008555323,1.000176057545938,0.0002524792801620564
-0.33966308981180193,-0.33966308981180193,0.9999113457787026,0.0002454889735960591
-0.3390880180028034,-0.3390880180028034,0.9997203510904404,0.0002463805494892499
-0.3383188257132133,-0.3383188257132133,1.000059770527644,0.0002462805875934216
-0.33753474886980256,-0.33753474886980256,0.9996662743484585,0.0002497449553168842
-0.33685776942802476,-0.33685776942802476,0.9999916122017124,0.00024614244861458887
-0.3361096631480905,-0.3361096631480905,1.000173037803941,0.0002489440630129172
-0.3353479951649206,-0.3353479951649206,1.0002837394984039,0.00025059578056839523
-0.3348591370973736,-0.3348591370973736,1.0000513566722118,0.00024658484107475606
-0.3343463467957918,-0.3343463467957918,1.0000394012543599,0.00024470225634745326
-0.33352336856041803,-0.33352336856041803,0.9995289566371935,0.00025188692673921385
-0.3328960274571727,-0.3328960274571727,0.9999399026377891,0.00024561111496451205
-0.3324658105724666,-0.3324658105724666,0.9996622173280441,0.00024452658534398835
