time,time,flux,flux_err
-0.49985325464755687,-0.49985325464755687,0.9999342641870032,0.0002880527524100051
-0.4996627028443375,-0.4996627028443375,1.0000088631676554,0.00029424346673656684
-0.4994542737252535,-0.4994542737252535,1.0000755722467025,0.0003115299500975863
-0.4993699841549339,-0.4993699841549339,1.00027295411753,0.0002987498034547803
-0.4992384028621018,-0.4992384028621018,1.0001758375024727,0.0002716977731683259
-0.4991020044442848,-0.4991020044442848,0.9998985285891593,0.00027605542386849845
-0.49898077987891154,-0.49898077987891154,1.0000673824131474,0.0002737924023172844
-0.49878466995724013,-0.49878466995724013,0.9999279808063115,0.00027619726034268355
-0.4985299319654587,-0.4985299319654587,0.9996226343304654,0.0002685727794512394
-0.49841056279910845,-0.49841056279910845,0.9999472449647044,0.00042161642274592473
-0.49829095371460425,-0.49829095371460425,1.0001896895333557,0.000283315148639732
-0.4981680277560372,-0.4981680277560372,0.9999351690440538,0.00026972168814540313
-0.4980397333849396,-0.4980397333849396,0.9997565748597207,0.0002586016033761923
-0.49795843666943257,-0.49795843666943257,0.9997159852670965,0.00025311676002498545
-0.4977429772385221,-0.4977429772385221,0.9999676514093757,0.00025883328714276815
-0.49761980810653766,-0.49761980810653766,1.000015502504577,0.00027197453646281674
-0.49745214948634386,-0.49745214948634386,1.00022317515103,0.0002576283556348411
-0.49735689421431745,-0.49735689421431745,1.0003440618751853,0.000333287435742161
-0.4972474115151272,-0.4972474115151272,0.9997247501832811,0.0002747680227739309
-0.49710887980982077,-0.49710887980982077,0.9996751769023311,0.00024694663549064703
-0.49695247860145175,-0.49695247860145175,1.0001522354532302,0.00027751039973064644
-0.4968097045370087,-0.4968097045370087,1.0000330506197845,0.00025697597383444104
-0.4966941181097354,-0.4966941181097354,0.9996345938300777,0.00026181023354696195
-0.4966158321898547,-0.4966158321898547,1.0000289555523243,0.0002651503729536541
-0.49656193133851045,-0.49656193133851045,0.9996635211958921,0.00026809059624924043
-0.496463790537382,-0.496463790537382,1.0000049672198241,0.0002812625343019213
-0.49635052532539703,-0.49635052532539703,0.9995262215602082,0.0002674311047998115
-0.49627570866578025,-0.49627570866578025,0.9995894942984467,0.0002756479625991196
-0.49616067369133815,-0.49616067369133815,0.9998213076277433,0.0002896173432863006
-0.4960128188453382,-0.4960128188453382,0.9999179441572601,0.0002679932229719199
-0.4959343741531484,-0.4959343741531484,1.0001252637604208,0.00026624990760812947
-0.49579919987736504,-0.49579919987736504,0.9998694378229824,0.00027964735223233645
-0.49565526561127626,-0.49565526561127626,0.9997857363769797,0.0002622840442008351
-0.4956076045447844,-0.4956076045447844,0.9999529652568484,0.00027311644779983037
-0.49541963084193413,-0.49541963084193413,1.000042533457415,0.000266232069957125
-0.49532559316212427,-0.49532559316212427,0.9998312873691143,0.00027096532986638255
-0.495198657153378,-0.495198657153378,0.9999552567970872,0.0002576621453259988
-0.4950170939344389,-0.4950170939344389,1.0000809537018882,0.0002688448993957958
-0.4948039609109401,-0.4948039609109401,1.0001603457782153,0.00028278749848944677
-0.4946235527735553,-0.4946235527735553,0.999959899869286,0.00028108103063005137
-0.49450128544558536,-0.49450128544558536,1.0005398730644823,0.00026834499407911785
-0.49434313028032195,-0.49434313028032195,0.9996861919582128,0.00027493606435975395
-0.49416813745483523,-0.49416813745483523,1.0002793795479012,0.00026672818455334183
-0.4940469467575895,-0.4940469467575895,1.0002706532007788,0.0002754555560732874
-0.49392946971202034,-0.49392946971202034,0.9999815952032776,0.00026135714533457184
-0.4938494588350295,-0.4938494588350295,0.9987454815542742,0.0002628445336871132
-0.4937749122756941,-0.4937749122756941,1.0000782594751336,0.0002769769162409524
-0.4936626322880329,-0.4936626322880329,1.0000335792604407,0.00025659421719321113
-0.49356248081094234,-0.49356248081094234,1.0000391451135493,0.00025460673055085337
-0.4934932951182418,-0.4934932951182418,1.0001496274683839,0.0002723697520681023
-0.4933195972458634,-0.4933195972458634,0.9996617705056753,0.0002740537394013019
-0.4931376694490609,-0.4931376694490609,1.0001593369295547,0.00028822195332696415
-0.49303636093754905,-0.49303636093754905,1.0004077770244355,0.00028474624278735196
-0.49291630387233454,-0.49291630387233454,1.0001056986219072,0.0002641898105473158
-0.49286794321160415,-0.49286794321160415,0.999905442982276,0.0002797146239351708
-0.4927403334681003,-0.4927403334681003,0.9995987524067992,0.00025506115659771646
-0.492600047277665,-0.492600047277665,0.9996462822045616,0.00032416543683157396
-0.4924600120633841,-0.4924600120633841,0.9995501369734731,0.0002703884754422451
-0.49216097816606635,-0.49216097816606635,1.000000233073642,0.0002688411950948066
-0.49203863895818356,-0.49203863895818356,1.0003350857834346,0.00027508074369358943
-0.49190330766141416,-0.49190330766141416,0.9997578851248357,0.00032661734922514015
-0.49178656114963815,-0.49178656114963815,1.0002973916559363,0.00026750068762923393
-0.49159412179506035,-0.49159412179506035,0.9996539647924969,0.0002701660197544557
-0.49137546326892334,-0.49137546326892334,0.9999311524501557,0.0002706063697492486
-0.4912068175515742,-0.4912068175515742,1.000161902693008,0.0002770127351422907
-0.49100493021396685,-0.49100493021396685,0.9998944721527389,0.0002642297869614738
-0.4909531772747869,-0.4909531772747869,0.9997705556674523,0.00027813278129379425
-0.4907899877980526,-0.4907899877980526,0.9998284800728701,0.00025690012689739424
-0.49064860440121266,-0.49064860440121266,0.9998909561914102,0.0002685024279797707
-0.49043036528528317,-0.49043036528528317,0.9997755198375942,0.0002773639214552045
-0.49031222309495204,-0.49031222309495204,1.0000619417504653,0.00027298331918785364
-0.4901966435303621,-0.4901966435303621,0.9997872315655096,0.00025726969996814504
-0.4900908554074704,-0.4900908554074704,1.0003566451132784,0.0002851735222364768
-0.48999432542113935,-0.48999432542113935,0.9998318534136448,0.0002692264144849557
-0.48983277398074276,-0.48983277398074276,0.9997362203184961,0.00025915207076161354
-0.4896540462934354,-0.4896540462934354,1.0000513100087844,0.0002759676275813014
-0.4894188093050616,-0.4894188093050616,0.999772500246138,0.0002765830674782051
-0.48930796180138714,-0.48930796180138714,1.0001181303632387,0.0002767631108921755
-0.48915796024084557,-0.48915796024084557,0.999782689899121,0.0002994665560191687
-0.48904509404965213,-0.48904509404965213,0.9999170429395313,0.000265694959519579
-0.4889258166062064,-0.4889258166062064,1.000061977320804,0.0002635447677454895
-0.4887118437574827,-0.4887118437574827,1.0003375705157647,0.00026038237159129254
-0.48854380168704664,-0.48854380168704664,1.0003005843677766,0.00026187078670831024
-0.4883451238609268,-0.4883451238609268,1.0002124211864842,0.0002685235522644488
-0.48821116049439295,-0.48821116049439295,0.999892958963928,0.00028667480000366244
-0.488102193854138,-0.488102193854138,1.000121888597993,0.00025483556463609273
-0.48794055560574634,-0.48794055560574634,0.9999700701591678,0.00026634406242315417
-0.48777074664685643,-0.48777074664685643,1.0000677080263478,0.0002773483533171286
-0.487585633447452,-0.487585633447452,1.000631200662929,0.00025923470727960295
-0.48751984186965275,-0.48751984186965275,1.0005018368533656,0.00026875656574647195
-0.4874403221678222,-0.4874403221678222,0.9998117387279393,0.00026742222887904296
-0.4872862836542481,-0.4872862836542481,1.0000074052658603,0.0002772097833514747
-0.4871906057138403,-0.4871906057138403,1.0002926698511239,0.0002708008276542206
-0.48704892722234944,-0.48704892722234944,1.0002128835411546,0.000271420560772682
-0.48683573408270603,-0.48683573408270603,1.0000769799173583,0.00026224600430305525
-0.4866348721065151,-0.4866348721065151,0.9998585122261169,0.00027425505835481647
-0.48653852267962067,-0.48653852267962067,1.0001212708993066,0.0002782149878967661
-0.48641992005723295,-0.48641992005723295,1.0001067467762543,0.00027306308109722685
-0.4862381968450791,-0.4862381968450791,1.000105670045551,0.000262658283880597
-0.4860415988179739,-0.4860415988179739,1.000277682557276,0.00025683488012525864
-0.48584478381017104,-0.48584478381017104,1.0003494879921382,0.00026982409501634917
-0.4856499572582834,-0.4856499572582834,0.9997608291730631,0.00027987179552977466
-0.48547960498399334,-0.48547960498399334,1.0007752687672515,0.00029155309681155016
-0.4853730824092054,-0.4853730824092054,1.0004356706528732,0.0002640338927959337
-0.485229579704901,-0.485229579704901,0.9998937408026227,0.0002673355808140214
-0.4850672318396391,-0.4850672318396391,1.0000426685100856,0.00026350220020115517
-0.4849752404494211,-0.4849752404494211,0.999989804491648,0.00028686960192985105
-0.4848427281474869,-0.4848427281474869,0.999943479668859,0.00025781937694877634
-0.484756752566318,-0.484756752566318,1.000010735570833,0.0002712168940023821
-0.48467621138261163,-0.48467621138261163,0.9999093889660919,0.00028611987415707283
-0.48456656959679095,-0.48456656959679095,1.0005590821515502,0.00026554135030952433
-0.4844966423799633,-0.4844966423799633,1.0001109497739185,0.00025732271121618326
-0.4844373942520178,-0.4844373942520178,1.000221227510584,0.00026363832421243946
-0.4842781984320027,-0.4842781984320027,1.0000806232434425,0.0002701750935186784
-0.4841023842003779,-0.4841023842003779,1.0001473597447657,0.00028152937843668805
-0.4840270447908551,-0.4840270447908551,0.9999464323293559,0.0002737057403214366
-0.48385835800872884,-0.48385835800872884,1.0001232337658805,0.0002564512717594319
-0.48382272974413354,-0.48382272974413354,0.9997560478523304,0.0002697049099755493
-0.48378315360387203,-0.48378315360387203,0.9999287122674524,0.0002692992199495481
-0.48365732574020515,-0.48365732574020515,1.0002747515509274,0.0002581123044015311
-0.4834922259120503,-0.4834922259120503,1.0001872573533117,0.00027409952890931254
-0.48338345677839245,-0.48338345677839245,0.9998721628467123,0.0002617512248104208
-0.4830984074047592,-0.4830984074047592,0.9998735885776393,0.0002798788140416494
-0.4828931751253549,-0.4828931751253549,0.9998671999929643,0.00026994566199835387
-0.4827666833109106,-0.4827666833109106,1.0000053359373342,0.0002682319802122079
-0.4827035893140419,-0.4827035893140419,1.0001633796593061,0.00026798814865086173
-0.48250416393057094,-0.48250416393057094,0.9996358879664667,0.00026896617889050347
-0.48227439905458597,-0.48227439905458597,1.0004143823438003,0.0002773815889762438
-0.4821459702325228,-0.4821459702325228,1.0002098401767436,0.000248696311862284
-0.4819999876723159,-0.4819999876723159,0.9997298020549643,0.0002762084430658257
-0.4818944498882047,-0.4818944498882047,0.9999401039502803,0.0002664556659627489
-0.48182366473338334,-0.48182366473338334,0.9996720884257165,0.00025818254039745587
-0.4816607874381589,-0.4816607874381589,0.9999926659073981,0.0002712461960759702
-0.48153665031277343,-0.48153665031277343,1.0000543936216635,0.00027359625100582336
-0.4812943683413323,-0.4812943683413323,1.0002065425968913,0.0002912415836447974
-0.48118310238132833,-0.48118310238132833,0.9998197722262845,0.0002751644705249219
-0.48105448148053254,-0.48105448148053254,0.9998101955468874,0.0002733041598169471
-0.48099229630606716,-0.48099229630606716,1.0000424152618166,0.0002778482346910936
-0.48085628742410336,-0.48085628742410336,0.9996177971845382,0.00025577560045018986
-0.4806871486085583,-0.4806871486085583,1.000123712486102,0.00027055311715312513
-0.480379752083536,-0.480379752083536,0.9994634983735755,0.00029668978714311153
-0.48021851804078325,-0.48021851804078325,0.9997991108210147,0.0002707361541290044
-0.4800489879671659,-0.4800489879671659,0.9998899397887484,0.0002726263153124839
-0.4799536344333319,-0.4799536344333319,0.9999320747358436,0.00027899318993084043
-0.4797906205858453,-0.4797906205858453,0.9996131833937492,0.00027186611414263664
-0.47946174481839987,-0.47946174481839987,0.9999971148332151,0.00026695613529983123
-0.47933134084159973,-0.47933134084159973,0.9999506386835921,0.0002965344649199553
-0.4791798907739576,-0.4791798907739576,0.9998013547196285,0.00025873212589654554
-0.47908587985875783,-0.47908587985875783,1.00009092824325,0.000274659457211775
-0.478875285864342,-0.478875285864342,0.9997713985138365,0.00026219682782238813
-0.47872197512260756,-0.47872197512260756,0.9998193329700964,0.00025534637400277573
-0.47852261123553036,-0.47852261123553036,1.0000485766675635,0.0002745240672646735
-0.47844852293201257,-0.47844852293201257,1.0000098576542635,0.0002684559780868796
-0.47833966492325997,-0.47833966492325997,0.9997700987475721,0.00027685417791615
-0.4781892518170935,-0.4781892518170935,0.9998333237709911,0.00027317385286879846
-0.47801746813202045,-0.47801746813202045,1.0001786746056538,0.00027072553443561694
-0.47783130283569336,-0.47783130283569336,1.0003351312614341,0.00027778162668101324
-0.4775934352001059,-0.4775934352001059,1.0001550488408897,0.000268645360918427
-0.4774506527937774,-0.4774506527937774,1.0003464618746545,0.00044285056778733636
-0.47732720105486803,-0.47732720105486803,0.9998234223539516,0.0002682518125422392
-0.4771848474760191,-0.4771848474760191,0.9997192791831054,0.00025703792343347807
-0.47708787122319335,-0.47708787122319335,0.9999666027323096,0.0002585957435919322
-0.47694643872746384,-0.47694643872746384,0.9997964943544361,0.00025713472254250484
-0.476738156715146,-0.476738156715146,1.0001641513616075,0.0002702593014081333
-0.47656362277411973,-0.47656362277411973,1.0001874694919644,0.000267363504316817
-0.47645917621266565,-0.47645917621266565,1.0001729762111988,0.00027299212670591524
-0.4763394325709669,-0.4763394325709669,1.0001173880134977,0.0002715080427064255
-0.4762156290322309,-0.4762156290322309,0.9999031726290554,0.00025442026512266714
-0.47605706425456445,-0.47605706425456445,0.9993914013859392,0.0002689047861974717
-0.4759076444650418,-0.4759076444650418,0.9996561161701252,0.0002646309494268398
-0.47573938731948145,-0.47573938731948145,1.0005684542773747,0.00025958640017681374
-0.475671388302726,-0.475671388302726,1.000068717794149,0.00025865736216825125
-0.4756191036074597,-0.4756191036074597,1.0003864354642134,0.00027645457316405455
-0.475532280052721,-0.475532280052721,1.000196062873612,0.0002757672882243952
-0.475418776548031,-0.475418776548031,0.9998255018816948,0.00026739184626681895
-0.4753349783037265,-0.4753349783037265,1.0000830180350928,0.00026830306888992237
-0.4751477547826653,-0.4751477547826653,1.0000469127079046,0.00026612610349520773
-0.47502226048600277,-0.47502226048600277,0.9996563931847847,0.0002696659030674405
-0.47496818311847167,-0.47496818311847167,0.9995473896978844,0.00028669296110593834
-0.47479039345344065,-0.47479039345344065,0.9997740970990101,0.00026411512108828674
-0.4747249941166956,-0.4747249941166956,1.0003644310181083,0.00026620914887074516
-0.4746745873591863,-0.4746745873591863,0.9997037832424057,0.00026507199897393707
-0.47448726708316824,-0.47448726708316824,1.0001902431795016,0.00026617844173092533
-0.4744073729736556,-0.4744073729736556,0.9999073090341964,0.00026118006755245936
-0.4742377434988157,-0.4742377434988157,0.9996921631850292,0.00026737343887999073
-0.47404298254405147,-0.47404298254405147,1.0004657671554718,0.0002762800964493773
-0.47384545875611367,-0.47384545875611367,0.9998252930572471,0.0002757797397593918
-0.47369085300524605,-0.47369085300524605,1.0001308486227063,0.00027749799266557645
-0.4735994961047254,-0.4735994961047254,1.0003008182378343,0.00026517775583036055
-0.47347331397468223,-0.47347331397468223,1.0005367524199198,0.0002654934956777738
-0.4732576291040459,-0.4732576291040459,1.0005352335074469,0.00026484606442555333
-0.4731383647100301,-0.4731383647100301,0.9997855937675771,0.0002763415960063841
-0.4730289891806024,-0.4730289891806024,0.9998067683116976,0.0002472693963790434
-0.4729537336366775,-0.4729537336366775,0.9998071997655366,0.00026593006762211884
-0.47284596645113197,-0.47284596645113197,1.0003411030255651,0.0002828642991790556
-0.4727553828925011,-0.4727553828925011,1.0000340321393264,0.00025848079197763626
-0.47264862354204523,-0.47264862354204523,1.0000152287369217,0.00025735694011185466
-0.4725631034038088,-0.4725631034038088,1.0003095108193076,0.00026393397730860627
-0.47245150337330416,-0.47245150337330416,1.000286797118707,0.0002732488969760376
-0.4722516802059545,-0.4722516802059545,1.0000763421804173,0.0002857440652193488
-0.47217896809233934,-0.47217896809233934,0.9995849005283362,0.00027760046461555504
-0.4720727691637876,-0.4720727691637876,1.0002766929141775,0.00028436337861044696
-0.4719849489163607,-0.4719849489163607,0.9999920024218586,0.0002654896704366645
-0.47193234210499213,-0.47193234210499213,1.000036731246067,0.0002814844143139728
-0.4717892879336432,-0.4717892879336432,0.9998146900004322,0.0003106919748952771
-0.47165274554427017,-0.47165274554427017,0.9995636069949146,0.00026980265886796954
-0.4714975359856908,-0.4714975359856908,0.9996981511083799,0.00026523292978873755
-0.47121236933235194,-0.47121236933235194,1.0000676049557506,0.00027441371624010075
-0.4710578687663656,-0.4710578687663656,0.9997309765897852,0.0002788602428731201
-0.47091690131273933,-0.47091690131273933,1.0001631785978744,0.00027636648871757466
-0.4707332563266391,-0.4707332563266391,0.9998065143928496,0.0002640955387559256
-0.4704051257140236,-0.4704051257140236,0.9999445204305595,0.0002798276100617856
-0.4702256789896637,-0.4702256789896637,0.9996899808192998,0.00027631597798304563
-0.4700593797912006,-0.4700593797912006,1.0000394393860594,0.00026467643046621843
-0.47001347012992484,-0.47001347012992484,0.9997283914446683,0.0002773959193116342
-0.4698863533718395,-0.4698863533718395,1.0000719450353448,0.0002578177037277008
-0.46975973871813037,-0.46975973871813037,0.9999406053578352,0.00027763418121286873
-0.4696355947249685,-0.4696355947249685,1.0001458819478395,0.0002645604318606659
-0.469496676982817,-0.469496676982817,1.0000933574763042,0.0002630244262503973
-0.4693758009307203,-0.4693758009307203,1.0001802662234178,0.00027805098993537966
-0.4692675423757464,-0.4692675423757464,1.0002410088572433,0.00026365111771005487
-0.4691777998610632,-0.4691777998610632,0.9998186999198273,0.0002725758944041594
-0.46909267232840646,-0.46909267232840646,1.0001622238655359,0.0002814794663778024
-0.4689055252012622,-0.4689055252012622,1.000103039958222,0.00025932030862035557
-0.4687472178913595,-0.4687472178913595,1.000072237059056,0.00027661372897846883
-0.4684908912990068,-0.4684908912990068,1.0003813190684974,0.00026404265600272326
-0.4683474133860727,-0.4683474133860727,1.0001350607471777,0.0003647613038219075
-0.46821018476912285,-0.46821018476912285,1.0004658727582276,0.0002958255153126282
-0.4681141190834751,-0.4681141190834751,0.9998444932942597,0.00026569724363234625
-0.4679965756433376,-0.4679965756433376,0.9999522641495219,0.00026362165160971954
-0.46784029953414574,-0.46784029953414574,1.0002696899693846,0.0002517449882331378
-0.46764371430690516,-0.46764371430690516,0.9997414946757861,0.00026214179300560294
-0.4674582399376959,-0.4674582399376959,1.0001739349420915,0.0002668622702605303
-0.46730331764556465,-0.46730331764556465,1.0000163289331476,0.0002681883328021166
-0.46718447044986533,-0.46718447044986533,0.999870675156869,0.00026682413514603524
-0.4670022186270216,-0.4670022186270216,0.9998676717497371,0.0002702148192647341
-0.4667650598232285,-0.4667650598232285,0.9996558264822786,0.0002535097892999061
-0.46664080892369386,-0.46664080892369386,0.9997806238857156,0.0002593427822324023
-0.4665819834248396,-0.4665819834248396,0.9995544032417378,0.00027472206782318433
-0.46648186411621284,-0.46648186411621284,0.9998465012295237,0.0002641844431535854
-0.46634339933807495,-0.46634339933807495,0.9997871479071689,0.00026742969613693864
-0.46625974290436717,-0.46625974290436717,1.0001830152144269,0.0002707349177270165
-0.4660837513300066,-0.4660837513300066,0.999886727037576,0.00027219995964588016
