time,time,flux,flux_err
-0.4997645669882331,-0.4997645669882331,0.9999155996741617,0.0006312715838849165
-0.49923806259600195,-0.49923806259600195,1.0003913257942703,0.0005968007464660861
-0.49875005839930964,-0.49875005839930964,0.998987289975774,0.0007755738253542268
-0.4983677396608982,-0.4983677396608982,1.000176136418188,0.0005545090493748164
-0.49761019333527656,-0.49761019333527656,1.000448833424538,0.0005122045196600806
-0.49713363378759823,-0.49713363378759823,1.0000876383541937,0.0005584383949582627
-0.4968084935011575,-0.4968084935011575,0.999482323945864,0.0005093930080011767
-0.4963855507681728,-0.4963855507681728,1.0005510221824303,0.0005184295202328353
-0.49623723657423396,-0.49623723657423396,1.0003562414862663,0.0005107095274818321
-0.4959444037711364,-0.4959444037711364,1.0001630412279074,0.000593032934116905
-0.4955880919929768,-0.4955880919929768,0.9997007653317521,0.0005867573021874808
-0.4952457027466153,-0.4952457027466153,1.0003832936572916,0.0005121653980345137
-0.49490304149949227,-0.49490304149949227,0.9992993626602175,0.00046644258976971605
-0.49460923873702994,-0.49460923873702994,1.000418056323908,0.0005539890286064555
-0.4942899778718129,-0.4942899778718129,1.000669459468444,0.0005593404416725519
-0.49390570387768096,-0.49390570387768096,1.0002463594473163,0.0005552167471515819
-0.49339313033560755,-0.49339313033560755,0.9997288317574844,0.0007792297168455312
-0.4929366119620681,-0.4929366119620681,1.00004043084652,0.0005167091842947921
-0.49251048760706906,-0.49251048760706906,1.0002104338700797,0.00046789898055389303
-0.49204061784403164,-0.49204061784403164,1.0000233769565137,0.0005089152308959298
-0.49172963607488784,-0.49172963607488784,1.0003080861524565,0.0005551270401372395
-0.49128596829395976,-0.49128596829395976,0.999593385355082,0.0005111833251543057
-0.4909992061846424,-0.4909992061846424,0.9998595775552491,0.0005550969033005051
-0.4907845203466422,-0.4907845203466422,0.9995446056070925,0.0005493387153307042
-0.49047177340908094,-0.49047177340908094,1.0004736823393456,0.0005536906529624715
-0.49000985876191405,-0.49000985876191405,1.000043844303776,0.0005502186287900757
-0.48947315598998103,-0.48947315598998103,1.000007808618126,0.000515573025692167
-0.48927507033004075,-0.48927507033004075,1.0006694950770452,0.0006001749674756798
-0.48894282549226775,-0.48894282549226775,0.999567655107221,0.0005541514109523181
-0.4885937803468551,-0.4885937803468551,0.9997395893597864,0.0005553985082841197
-0.48810673907937596,-0.48810673907937596,1.0003005880351057,0.0007430735103998378
-0.4875812498634332,-0.4875812498634332,1.000386275122604,0.0005167551344994448
-0.4871552554424852,-0.4871552554424852,1.0003558791568261,0.0006565174878861612
-0.4867065580045164,-0.4867065580045164,0.9997380926140979,0.0005102339414631025
-0.4863931725863949,-0.4863931725863949,0.9997215966858043,0.0005073685832574677
-0.48601550425737516,-0.48601550425737516,0.9993682476909879,0.0005109241117207856
-0.48576449834436064,-0.48576449834436064,1.000446703329073,0.0005168700784020934
-0.4854354806964693,-0.4854354806964693,1.0004223495706006,0.0005843718701164952
-0.4851526089492836,-0.4851526089492836,1.0001176976760262,0.000592070261633468
-0.484720328648109,-0.484720328648109,0.9999360738142011,0.0005091295111305994
-0.48414322962998996,-0.48414322962998996,0.9997010365086727,0.0005148273492152912
-0.48388930422006526,-0.48388930422006526,0.9999304782237889,0.0005485635679945295
-0.48351350711964186,-0.48351350711964186,0.9999396593486954,0.0005570817725970618
-0.4831602733102045,-0.4831602733102045,0.9996356563411618,0.0005541166594671188
-0.4828103449290211,-0.4828103449290211,1.0001152178817143,0.000698387337708368
-0.4823488109526807,-0.4823488109526807,0.9994409178699637,0.000552121560064494
-0.48189759125452836,-0.48189759125452836,1.0005289168387796,0.0004695234149458163
-0.4813592316597351,-0.4813592316597351,1.0004948249553323,0.0007354319345863623
-0.48089885917215724,-0.48089885917215724,0.9988934169503798,0.0006469394014111075
-0.4805630208727962,-0.4805630208727962,1.000274166913255,0.0005204539051771728
-0.4803038091304188,-0.4803038091304188,1.0009526179523873,0.0005541168150731338
-0.47996736011918983,-0.47996736011918983,1.0006420129864082,0.0005895858573927198
-0.47968547524142197,-0.47968547524142197,1.0002516942446071,0.0005492970102737346
-0.47916657915047833,-0.47916657915047833,0.9994220749755398,0.0005148212468492989
-0.47869036518604846,-0.47869036518604846,1.0000939617154787,0.0005539458330698457
-0.4783994900491962,-0.4783994900491962,1.0001134864108234,0.0005221505323453917
-0.4780807733237452,-0.4780807733237452,0.9997889261923334,0.0005596665315160316
-0.4777417429620982,-0.4777417429620982,1.0001788113600312,0.0005533668710717477
-0.47756072245829273,-0.47756072245829273,0.9994641005152246,0.00047561800755740763
-0.4772596384929784,-0.4772596384929784,0.9994423629144554,0.0005508547092774689
-0.47662787019216923,-0.47662787019216923,0.999985782942517,0.00047249224106860993
-0.4761147422432259,-0.4761147422432259,0.9990762683485258,0.000828692363325375
-0.4755305716949806,-0.4755305716949806,0.999297836044662,0.0005167266866186991
-0.4751358941313811,-0.4751358941313811,0.999547598215119,0.0005133688319185054
-0.47477454334220964,-0.47477454334220964,1.000617174803181,0.0006259817783479419
-0.474318185167067,-0.474318185167067,0.9989001073951084,0.0005527184441849869
-0.47378388172364794,-0.47378388172364794,1.0003350394960726,0.000508955403217183
-0.47335777352564035,-0.47335777352564035,0.999796901214131,0.0005564819376543348
-0.47306027484155494,-0.47306027484155494,1.00029962146934,0.0005185853384013699
-0.47276219543127806,-0.47276219543127806,0.9991272933557095,0.0005219787866745731
-0.4724806451202312,-0.4724806451202312,0.9997333398365656,0.0005940220523588554
-0.472198701446905,-0.472198701446905,1.0000175959937447,0.00047566099498658155
-0.4718417707619665,-0.4718417707619665,1.0001477461169548,0.0005564664705255465
-0.4712858122577018,-0.4712858122577018,1.0002586115451366,0.000470792935446565
-0.47087595129196413,-0.47087595129196413,0.9997486605335653,0.0009480501227519249
-0.4704041628661798,-0.4704041628661798,1.0002428575246436,0.0005488512157059124
-0.46990576305179277,-0.46990576305179277,0.999961895647598,0.00047292042828692566
-0.4696190528200532,-0.4696190528200532,1.0000490032732405,0.0005627962748828661
-0.4692878398745961,-0.4692878398745961,0.9988782551213381,0.0005923083491946885
-0.46895039864757565,-0.46895039864757565,0.9998016875997054,0.0005475941275753459
-0.46850390813997367,-0.46850390813997367,1.000157518689916,0.000516554145590596
-0.4680368775363604,-0.4680368775363604,0.9997405291125814,0.0005596898710749028
-0.46774432321763015,-0.46774432321763015,0.9999751103818468,0.0005186618173837343
-0.46749265491889674,-0.46749265491889674,0.9997620744091259,0.0005161327381221496
-0.4673184974679316,-0.4673184974679316,1.0001940441163604,0.0005165156969142861
-0.46711029943762694,-0.46711029943762694,1.0011693157118937,0.0005609763851334431
-0.46688390175258976,-0.46688390175258976,1.0002746865858745,0.0004814506461490816
-0.4664771075520548,-0.4664771075520548,0.9997983846947879,0.0005543320506517909
-0.46606722848737264,-0.46606722848737264,0.999984862412114,0.0004872453798764597
-0.4656847439051489,-0.4656847439051489,1.000897212148454,0.0010388342362071374
-0.46529518502939027,-0.46529518502939027,1.000296574073488,0.0005657898943410959
-0.4647521074002725,-0.4647521074002725,1.0000184583010558,0.0005169859072727278
-0.46435847077300424,-0.46435847077300424,1.0004095401093336,0.0005159468085572198
-0.4639999763458036,-0.4639999763458036,1.0003352420686462,0.0005945193977497224
-0.4635426882625325,-0.4635426882625325,1.000293573938159,0.0005502977184422957
-0.46314638373150957,-0.46314638373150957,0.9992150925274045,0.0005143561409988438
-0.4627362379716942,-0.4627362379716942,1.00003228131725,0.0005220999908166614
-0.46232588520506396,-0.46232588520506396,0.9997758737078376,0.0005894907038037027
-0.46199690935609394,-0.46199690935609394,0.9996248008278504,0.000524350293035409
-0.4618169209810731,-0.4618169209810731,1.0006216549114388,0.0005187927755628145
-0.4615498432991444,-0.4615498432991444,0.999950782342245,0.0005250588981357858
-0.4612155460374197,-0.4612155460374197,0.9999512065865602,0.0005574531275963385
-0.4607480116545048,-0.4607480116545048,0.9998679865995597,0.00048048259344811645
-0.4602505403861869,-0.4602505403861869,1.000184752548447,0.00046139883995723155
-0.45955603247784893,-0.45955603247784893,1.0001006693738401,0.0005550222205010049
-0.45903454353028794,-0.45903454353028794,1.000481837415618,0.00047525929473593066
-0.4588486681859649,-0.4588486681859649,1.000189894486215,0.0005526243055957731
-0.4585174399340758,-0.4585174399340758,0.9996660031292232,0.0005888936278867698
-0.4579730516023119,-0.4579730516023119,0.9998610616013324,0.000518169396302323
-0.4575608874518366,-0.4575608874518366,0.9996650962992689,0.0005161012754700402
-0.4573323495409568,-0.4573323495409568,0.9998037532509982,0.0005574752727441503
-0.456855972338235,-0.456855972338235,0.9997220620231086,0.0005211640846982072
-0.4565797868919617,-0.4565797868919617,1.0004040506585883,0.0005136020686244649
-0.45638436810404526,-0.45638436810404526,1.0000059367763163,0.000566459850404579
-0.4561444606806617,-0.4561444606806617,1.0004149703292389,0.0004892902724772609
-0.45575212732801446,-0.45575212732801446,0.9990761927029965,0.0005569973221961321
-0.455282340003032,-0.455282340003032,0.9998057631613962,0.00048103730058936196
-0.45471558507560983,-0.45471558507560983,0.9995446179963743,0.0005064698168734552
-0.4543761218767031,-0.4543761218767031,0.9998890403084445,0.0005656327216856802
-0.45374042188195746,-0.45374042188195746,0.9995791115895762,0.0004693220693745532
-0.4536031888681464,-0.4536031888681464,0.9998157789416598,0.0005205089005804787
-0.4533544699501363,-0.4533544699501363,0.9996901006455013,0.0005876176877375922
-0.45312202834320486,-0.45312202834320486,1.0002916383764133,0.0006743265869910826
-0.4526655795198167,-0.4526655795198167,0.9994777697418332,0.0005206929527813949
-0.4522848144697491,-0.4522848144697491,1.0003516438880382,0.0005158235463449763
-0.451974252598302,-0.451974252598302,1.0002898643026832,0.000559906560418613
-0.4515788918797625,-0.4515788918797625,1.0000793884469492,0.0005073692774693761
-0.4512733439318254,-0.4512733439318254,0.998782211980544,0.0005383065571450692
-0.4510601890993712,-0.4510601890993712,1.0001702605698888,0.000513937529022481
-0.4507904861813586,-0.4507904861813586,1.0003148686295105,0.0005149055542941821
-0.4502985239756526,-0.4502985239756526,1.0002108762326356,0.0005565864678348068
-0.44975685446770514,-0.44975685446770514,1.0003595152904112,0.0004720349824053413
-0.4493176391668385,-0.4493176391668385,0.9999249391451139,0.0005584006384533332
-0.4488181146902207,-0.4488181146902207,1.0002766597287909,0.0005084645108830168
-0.4483479245340277,-0.4483479245340277,1.000554734554329,0.0004721894531295737
-0.44821206006236025,-0.44821206006236025,0.999848400607001,0.0005148740658192749
-0.44795993767984327,-0.44795993767984327,1.0003729764560627,0.0005927148856454596
-0.4476645620750787,-0.4476645620750787,0.9991731506102838,0.0006964411309426497
-0.4472352947552281,-0.4472352947552281,0.9995068456191222,0.0005591040303627086
-0.4466723401674244,-0.4466723401674244,1.000603371007918,0.000559496159219904
-0.4462485555843159,-0.4462485555843159,1.0006636762887449,0.0005272831033561251
-0.44592260127319605,-0.44592260127319605,0.999728364335906,0.0005474832420156961
-0.44568095337381236,-0.44568095337381236,1.0001002665797245,0.0005524691637938219
-0.44542046356000353,-0.44542046356000353,1.0003365086785454,0.00047001306205269184
-0.44496569945622466,-0.44496569945622466,0.9997133567726962,0.0005543639694077961
-0.44460048208711667,-0.44460048208711667,0.9991817032282373,0.0005454875463085069
-0.44422049421191334,-0.44422049421191334,1.0001952052098932,0.00046135182646074157
-0.44380962136783636,-0.44380962136783636,1.000028409720981,0.0005494381066296838
-0.4430608808317629,-0.4430608808317629,1.0003597709496437,0.0005119483619288758
-0.4429031816966017,-0.4429031816966017,0.9996058753694186,0.0005202092622203467
-0.44265564780216665,-0.44265564780216665,1.0002000276532412,0.0005877476092497654
-0.44241428368186464,-0.44241428368186464,1.000674592327174,0.0005156509927918417
-0.4419088947579439,-0.4419088947579439,1.00085892216219,0.0006002439423693059
-0.4414835040428443,-0.4414835040428443,0.9992165417266753,0.0005569270534193752
-0.44109623329059106,-0.44109623329059106,0.9998623371366374,0.0005119559796543951
-0.4406983341825253,-0.4406983341825253,1.0005694665831404,0.0005194767152274864
-0.4404493138899852,-0.4404493138899852,1.0000621705273074,0.0005156545761540545
-0.44017066775704733,-0.44017066775704733,1.0004359899277326,0.0005487275713119361
-0.43967387081793274,-0.43967387081793274,0.9995458081642254,0.0005215749957737942
-0.4391818690521177,-0.4391818690521177,1.0001730131016644,0.0005602237912046365
-0.4387318286804657,-0.4387318286804657,0.9999850565467592,0.0005039875431564034
-0.4381102366802224,-0.4381102366802224,0.9992362963767295,0.000557444077676023
-0.4375991718159639,-0.4375991718159639,1.0001356816786369,0.0005163495780978818
-0.4373767321339983,-0.4373767321339983,1.0000001495296544,0.0005510987921124182
-0.4371435003784427,-0.4371435003784427,1.0005461689530286,0.000557550198018482
-0.43672313253919126,-0.43672313253919126,0.9996994402083382,0.0005179761872121842
-0.43615772526391083,-0.43615772526391083,0.9996404542782305,0.0005945316818799337
-0.4357017156333313,-0.4357017156333313,0.9997267061187973,0.0005070540408507983
-0.43543800938277855,-0.43543800938277855,0.999608590876031,0.000517004270939166
-0.43522310604312225,-0.43522310604312225,0.9996254224262027,0.0004705849693044212
-0.4350084144352877,-0.4350084144352877,1.0002266460386777,0.0005669865152778032
-0.43474854012747527,-0.43474854012747527,0.9999814156010768,0.0005511101865948304
-0.434077940685529,-0.434077940685529,1.0001436628939262,0.000589140751819891
-0.4335540771164233,-0.4335540771164233,1.0006902235769495,0.0005114535143001733
-0.43280059485623495,-0.43280059485623495,0.9992454492662983,0.0005510420950823167
-0.43231251907127444,-0.43231251907127444,1.0001160761027403,0.0005148346209823849
-0.43215581341064535,-0.43215581341064535,0.9995852079205344,0.0005147182847927187
-0.4318933447037125,-0.4318933447037125,1.000218632104937,0.0005568016775229334
-0.43165309105752386,-0.43165309105752386,0.9987641023019684,0.0005094285911669192
-0.4312946966936579,-0.4312946966936579,1.0000338094575578,0.0005584140436937491
-0.4308380724447488,-0.4308380724447488,0.9995599643809141,0.0006107626943856373
-0.4304014345711039,-0.4304014345711039,1.000518684232955,0.0005138099891128045
-0.4300364424016152,-0.4300364424016152,0.9994572197076106,0.0005193131039232704
-0.42982995925340217,-0.42982995925340217,1.0000943492857883,0.000548210785448701
-0.42960451924955123,-0.42960451924955123,0.999731173551241,0.0005961300089649877
-0.4292828075464058,-0.4292828075464058,1.0000495847249327,0.0005129263809217704
-0.4286282510089222,-0.4286282510089222,1.0012341837168364,0.00048311790079293783
-0.42784112277659003,-0.42784112277659003,1.000354359055361,0.000545803675181822
-0.42710196105836074,-0.42710196105836074,1.000684930179416,0.0005594228691233625
-0.4268232227375847,-0.4268232227375847,0.9998256295765892,0.0005108516173007577
-0.42654985613044116,-0.42654985613044116,0.9996583162583524,0.0005971853236930033
-0.4262597817702044,-0.4262597817702044,1.0002213194073963,0.0004780497960842521
-0.4258831829691189,-0.4258831829691189,1.0005375471403657,0.0006061302314038335
-0.4255774813071184,-0.4255774813071184,1.0003841544223266,0.0005595442280326358
-0.42522454945356003,-0.42522454945356003,1.000749686234379,0.0005904799414393632
-0.42486116295331156,-0.42486116295331156,1.0001059520437645,0.00046935675364488644
-0.42462460156020826,-0.42462460156020826,1.0001873883532133,0.0005153512130416364
-0.4243966402616934,-0.4243966402616934,0.9997044587870535,0.0005786688869047444
-0.42417675439210145,-0.42417675439210145,1.0002181383479403,0.0006252133576083299
-0.42389246949896914,-0.42389246949896914,0.9998583823180105,0.0005151538625196745
-0.4234804722495028,-0.4234804722495028,0.9997812841328759,0.00047871168139048076
-0.4229306330307736,-0.4229306330307736,1.0003351292354117,0.0005149965317928878
-0.42237050051553526,-0.42237050051553526,0.9997803106172667,0.0005054672677253265
-0.42175971277029023,-0.42175971277029023,1.0004224777642083,0.0005594353957118884
-0.42143309107414095,-0.42143309107414095,0.9996260508680124,0.000507538043341135
-0.42124846044898734,-0.42124846044898734,1.000262357621906,0.0005635695754899561
-0.42099577328772286,-0.42099577328772286,0.999493574220818,0.0005185215979886811
-0.42072695983806624,-0.42072695983806624,0.9999191207461168,0.0005126935343693119
-0.4202982746697671,-0.4202982746697671,1.0008520928948026,0.0005559978264112126
-0.4199108267814154,-0.4199108267814154,1.0009701704029736,0.0007454640197627229
-0.4195568816146988,-0.4195568816146988,0.9997985184889314,0.0004729414446664978
-0.419324250806676,-0.419324250806676,1.0000964366654137,0.0005186336445619223
-0.41908658996253506,-0.41908658996253506,1.000484334995305,0.0006002106013642719
-0.4188784661317186,-0.4188784661317186,1.000345778706539,0.0006215618698625254
-0.41838934792976945,-0.41838934792976945,0.9996311837912634,0.0005128633283435474
-0.4178130413398321,-0.4178130413398321,1.0011769225716114,0.0004799854671632507
-0.41739067950184106,-0.41739067950184106,1.0007625023355096,0.0005493447889535843
-0.4169058878789656,-0.4169058878789656,0.9997694072040814,0.0005114552531805558
-0.41649006566367464,-0.41649006566367464,0.9999430856699408,0.0006687777159714026
-0.4161875112309644,-0.4161875112309644,0.9997368404853326,0.0005111104630594248
-0.4159835610233131,-0.4159835610233131,1.0001800810412198,0.0005512546407792022
-0.4157650580040354,-0.4157650580040354,0.999786515895779,0.0005725438190871446
-0.4154019333880569,-0.4154019333880569,1.0003367236687684,0.0005181903261582049
-0.4150647431270045,-0.4150647431270045,1.001088748590956,0.0005227490527858273
-0.4148494728375226,-0.4148494728375226,0.9993115422108181,0.0005598014285278002
-0.41439749233977635,-0.41439749233977635,0.9996658228271489,0.0006188675986338698
-0.4140652620095352,-0.4140652620095352,1.000330730861253,0.0005142301001325547
-0.41382053876441205,-0.41382053876441205,1.000835325212584,0.0004769782102756738
-0.41336450459639307,-0.41336450459639307,0.9998732013617732,0.0006741776175396332
-0.4125151287429617,-0.4125151287429617,1.0002253026501575,0.00048213948513769805
-0.4120365359369316,-0.4120365359369316,0.9997964504648552,0.0005493264823978829
-0.4115467204908782,-0.4115467204908782,1.0003634117875353,0.000511516871274312
-0.41106104655045783,-0.41106104655045783,1.0001568993362757,0.0006821125254156836
-0.4107911132756271,-0.4107911132756271,0.9995347900145036,0.0005145565807822465
-0.41056116365652995,-0.41056116365652995,1.0002137373649629,0.0005565079430660699
-0.4102704179837019,-0.4102704179837019,0.999874731480326,0.0005110482779148156
-0.409870254942507,-0.409870254942507,0.9994493833623345,0.0005573424029756637
-0.4095668993853906,-0.4095668993853906,0.9996527476851147,0.0005205309897419596
-0.40922102213808104,-0.40922102213808104,0.9994765543094377,0.0006194511069960094
-0.40888515495535105,-0.40888515495535105,1.0002464921160314,0.000478963666183016
-0.4086213793758361,-0.4086213793758361,0.9999174082566405,0.0005186285575751843
-0.4084086246009974,-0.4084086246009974,1.000365159741046,0.00046411797346269907
-0.408117663111625,-0.408117663111625,1.0001613564324714,0.0006976185508483179
-0.40734038169757697,-0.40734038169757697,1.000174087107455,0.00047344302751406366
