time,time,flux,flux_err
-0.49952450812027865,-0.49952450812027865,1.005862882762117,0.01453904175517349
-0.4983134970267808,-0.4983134970267808,0.9913346046176318,0.014622541632680532
-0.4956817908168887,-0.4956817908168887,0.9995654673238907,0.014804097687112333
-0.493555363881751,-0.493555363881751,0.9993861177846798,0.013276533478955419
-0.49250872088305186,-0.49250872088305186,1.0035801048817405,0.013311704846233324
-0.4917820022092201,-0.4917820022092201,1.0048092243195887,0.013316084102858153
-0.4903872933035018,-0.4903872933035018,1.0046122882351372,0.013364062251914938
-0.4885501173033845,-0.4885501173033845,0.9948656769851173,0.013591518241230236
-0.4862465985061135,-0.4862465985061135,0.9963656192312694,0.01327392363639194
-0.4851248150662286,-0.4851248150662286,0.999145448380356,0.013543533406357033
-0.4843804463424021,-0.4843804463424021,1.0132885475921365,0.013298687413503965
-0.4829339648858877,-0.4829339648858877,0.9996841731780368,0.013778483011793269
-0.4806461549713276,-0.4806461549713276,1.0025981807703417,0.01325936250914734
-0.47861856915988027,-0.47861856915988027,1.0047261950537405,0.013314580008920652
-0.4775565410294803,-0.4775565410294803,1.000686416232431,0.013509721340780243
-0.47680396448995455,-0.47680396448995455,0.9929121263390691,0.013235574749953075
-0.4749881799012655,-0.4749881799012655,1.010290355900428,0.013793668137510571
-0.47204320049204396,-0.47204320049204396,0.9898892041718957,0.01326532003007323
-0.4705706074251793,-0.4705706074251793,0.9928820444416383,0.013517572163371006
-0.4697296350583201,-0.4697296350583201,0.9942340427395683,0.013278939822854339
-0.4685587066836888,-0.4685587066836888,0.9892520294559513,0.013295498774973057
-0.46536025121749847,-0.46536025121749847,0.9999737342094626,0.01323538115796279
-0.46357214905146976,-0.46357214905146976,1.007841859059019,0.013302571107439593
-0.46244547025416977,-0.46244547025416977,1.000858471297002,0.01321567440721438
-0.46149512081465216,-0.46149512081465216,0.9916617583805556,0.013229602247718566
-0.4587506839103298,-0.4587506839103298,0.9944533224570424,0.013243991214888867
-0.45663246502226684,-0.45663246502226684,0.9976674082104011,0.013195208624401423
-0.455448956246255,-0.455448956246255,0.9922594462186772,0.013262655809601186
-0.4546101078944048,-0.4546101078944048,0.9843459201787969,0.013210188319410319
-0.4526201678032521,-0.4526201678032521,1.0046681813120393,0.013300893180902967
-0.449859758943785,-0.449859758943785,0.9801134280773622,0.013286407274471567
-0.448808567589731,-0.448808567589731,1.0048972605628048,0.013182329722541422
-0.4475580358732259,-0.4475580358732259,1.0087776584000638,0.013296232750005198
-0.44635525239282287,-0.44635525239282287,0.9889291181377313,0.013343626635898043
-0.4436160923272837,-0.4436160923272837,0.9951780121661468,0.013266605037043851
-0.44218320040381515,-0.44218320040381515,0.9898941362395111,0.013227805856234922
-0.44119027714186815,-0.44119027714186815,1.000663540360413,0.01324578313075524
-0.4399715969135286,-0.4399715969135286,0.9983840102333603,0.013330731756641925
-0.4377849169104593,-0.4377849169104593,0.9973571349339011,0.013273586346113466
-0.4355515530332923,-0.4355515530332923,0.9990653513070136,0.013200067951053007
-0.43442148703034034,-0.43442148703034034,0.9963080574735474,0.013216544112326672
-0.43327690485457426,-0.43327690485457426,1.0011995451320026,0.013214604716445014
-0.43158917828986887,-0.43158917828986887,1.0117428085927884,0.01346868132053299
-0.4287793404655531,-0.4287793404655531,1.003713130417124,0.013284989445333514
-0.4274247227207525,-0.4274247227207525,1.0021790021869763,0.013305733214327709
-0.42641126991366035,-0.42641126991366035,0.9992978165842216,0.01326662597948185
-0.42469288218126167,-0.42469288218126167,1.0029737948349204,0.013410911571955508
-0.42201762853947,-0.42201762853947,0.9925894354221267,0.013216314224458806
-0.4206404407566879,-0.4206404407566879,1.0036486449609718,0.01356313314408924
-0.41962579829851165,-0.41962579829851165,0.9976404734417281,0.01329779478071022
-0.4184881144145038,-0.4184881144145038,1.0035874656680226,0.013295737763795116
-0.4165377659141086,-0.4165377659141086,0.9983276201069587,0.013506479837585354
-0.4141326117067365,-0.4141326117067365,1.011655076455497,0.013553413322202825
-0.4130540117592318,-0.4130540117592318,1.0025994230341573,0.013306744293853506
-0.41210419868293685,-0.41210419868293685,1.004042242547571,0.01327659253812916
-0.4107264753198251,-0.4107264753198251,1.0011114271619888,0.01324454537325596
-0.4085776890424313,-0.4085776890424313,0.9977046126798953,0.013566014698713935
-0.406435220912681,-0.406435220912681,1.0117129343378535,0.01355845383690256
-0.40549399867304603,-0.40549399867304603,0.9942224551738551,0.013297093873021068
-0.4046446496620774,-0.4046446496620774,1.0107528616261834,0.013378158911043736
-0.4033277592039667,-0.4033277592039667,1.0049157139610272,0.01324789376813724
-0.4011596570286201,-0.4011596570286201,0.9966968701574042,0.013595682181671054
-0.3990205987327499,-0.3990205987327499,0.9925153505693165,0.01357534530060919
-0.3981118468946079,-0.3981118468946079,1.0044531029115198,0.013257676387448621
-0.39724570399848746,-0.39724570399848746,1.007926497376248,0.013267597845866444
-0.3962682191253407,-0.3962682191253407,1.0000282437377082,0.013404716693764179
-0.3942801219294779,-0.3942801219294779,1.0076243250869192,0.013526973759953834
-0.3918006977066398,-0.3918006977066398,1.0066318488348405,0.013265822079008057
-0.3907301229279255,-0.3907301229279255,1.004513338110545,0.013394248685960588
-0.3898472142609535,-0.3898472142609535,1.0013303293036373,0.013211823247827256
-0.38886921405792235,-0.38886921405792235,1.008640157742088,0.013478427924506233
-0.3868615825980669,-0.3868615825980669,1.008804766139907,0.013605138665539713
-0.384318686122424,-0.384318686122424,0.9960980139005464,0.013276761470782434
-0.3831269301066641,-0.3831269301066641,0.9954027464905965,0.01358620621627268
-0.3823212855757447,-0.3823212855757447,1.0048542987899725,0.013244440167903418
-0.38113382069568613,-0.38113382069568613,1.0024479043435846,0.013336684355870581
-0.3784637549746549,-0.3784637549746549,0.9942785844067996,0.013734869091010815
-0.3764010743179824,-0.3764010743179824,1.0032902692867385,0.01327430770252012
-0.3753404974471778,-0.3753404974471778,0.9993069651774821,0.01348637210862944
-0.37458439951878975,-0.37458439951878975,1.0062787697551703,0.013218316364953995
-0.37276294071925803,-0.37276294071925803,1.0105591665027571,0.013814569371629268
-0.37006114922114647,-0.37006114922114647,1.000022802937917,0.013245025574872971
-0.36859995428822,-0.36859995428822,0.99587530739379,0.013546777027290121
-0.3676309808361111,-0.3676309808361111,1.006136407246943,0.013314327534824633
-0.36667439739976543,-0.36667439739976543,1.0121591174256026,0.01325249379933082
-0.3638692935695872,-0.3638692935695872,0.9976865008087031,0.013265989204192516
-0.36161895827099216,-0.36161895827099216,1.004915874338192,0.013249105589889176
-0.3603801283839857,-0.3603801283839857,1.0026001381048038,0.01324241464543906
-0.3595294913247926,-0.3595294913247926,1.0064949239920125,0.01324755318641963
-0.3571362485323334,-0.3571362485323334,1.0104402409132156,0.013254015790343927
-0.3546978933823993,-0.3546978933823993,0.9838733315594206,0.013247390139672046
-0.35346220850769894,-0.35346220850769894,0.9899662848975606,0.01323474587103574
-0.35253741714986975,-0.35253741714986975,1.0045245579935596,0.013257440154991699
-0.3510081725748023,-0.3510081725748023,1.0064977515316988,0.013342381028299603
-0.34805146608268844,-0.34805146608268844,1.0144541882376579,0.013283045289634865
-0.34683888748113534,-0.34683888748113534,0.9944073892667697,0.013253435552257936
-0.3455137678189203,-0.3455137678189203,0.9950252230082377,0.01333029225131808
-0.3444627139251679,-0.3444627139251679,1.0012896676623302,0.013323851334177295
-0.34191537350416185,-0.34191537350416185,1.0013309815866351,0.013234428022683573
-0.3401961477502482,-0.3401961477502482,1.0082876788487758,0.01322219297764557
-0.3391954871680355,-0.3391954871680355,1.0047302931184134,0.013234414878944393
-0.33794291014201006,-0.33794291014201006,0.9968471919173101,0.013295371319251788
-0.3361912094813306,-0.3361912094813306,0.9906603525983501,0.013252163750667439
-0.3336250910797389,-0.3336250910797389,0.9987085392791775,0.013206982317892949
-0.3323853265115758,-0.3323853265115758,1.0048151976003457,0.013304932454132062
-0.331311749771703,-0.331311749771703,1.0023482500577667,0.013179752814218714
-0.32980483486317097,-0.32980483486317097,1.0009648669043802,0.01345864781949839
-0.3270743657689309,-0.3270743657689309,0.9980403069434564,0.013283512935235015
-0.32542803380638363,-0.32542803380638363,1.0011467825594667,0.013337432842096536
-0.3244092637993162,-0.3244092637993162,0.9938297203539651,0.013228435299219812
-0.3229342590668239,-0.3229342590668239,1.003899726375135,0.013420619795989127
-0.32071215725154617,-0.32071215725154617,1.0083031829311655,0.013198994657874913
-0.31883899591630327,-0.31883899591630327,1.0074497167658918,0.01355992566692337
-0.31783254592155574,-0.31783254592155574,0.9968562543560443,0.013324165500752744
-0.31680595548823476,-0.31680595548823476,1.009256484460999,0.013196252196468092
-0.3151312829460949,-0.3151312829460949,1.0025541527027082,0.013590630301543349
-0.31279130789334886,-0.31279130789334886,0.9894048649532327,0.013304167159252717
-0.31125897674646696,-0.31125897674646696,0.9970110935955333,0.013579404505030207
-0.31021478192415086,-0.31021478192415086,1.0119695885990398,0.013355055500837792
-0.309148758687661,-0.309148758687661,1.007253204158419,0.013313980128528377
-0.30731763336225415,-0.30731763336225415,0.9924444772707253,0.013525953947490402
-0.30491583288821855,-0.30491583288821855,1.0076461345089263,0.013215650257541655
-0.3036868753348244,-0.3036868753348244,1.0139942588826762,0.013493907324335872
-0.3026739558787085,-0.3026739558787085,1.0050273817676607,0.013304674651645415
-0.3017524707422126,-0.3017524707422126,0.9979808203135443,0.013424165978786953
-0.2998945299477782,-0.2998945299477782,1.0047808013256847,0.013571020362807324
-0.2974815632944228,-0.2974815632944228,1.0128008145707805,0.013283841424117135
-0.2963164372020401,-0.2963164372020401,1.0070793179715234,0.013693627382685761
-0.2952860439720098,-0.2952860439720098,0.995261272413593,0.013305602801279301
-0.2945619757345412,-0.2945619757345412,0.9949440142976131,0.013347728967116093
-0.2928768272569869,-0.2928768272569869,0.9999576983045351,0.013522182589821411
-0.2905118195980322,-0.2905118195980322,1.0118270668777676,0.013272343089738386
-0.28893844337726476,-0.28893844337726476,0.9956493806076103,0.013249123172916506
-0.2878984964918345,-0.2878984964918345,0.9998502521960371,0.013423764440388624
-0.28716248585260473,-0.28716248585260473,0.979000988745034,0.013316388973904008
-0.28545933141722346,-0.28545933141722346,1.0053100202760326,0.013729179427754649
-0.2830865537660429,-0.2830865537660429,1.0067870232147282,0.013269052276618218
-0.28136053729685956,-0.28136053729685956,0.9950238752606306,0.013544218996744633
-0.2803477095178096,-0.2803477095178096,0.9955980117550631,0.013355577657882556
-0.279511495216866,-0.279511495216866,0.995063658797485,0.013291026190203855
-0.27749320003495087,-0.27749320003495087,1.0034770783893805,0.013794771196226385
-0.27469490343355574,-0.27469490343355574,1.0115909110554804,0.013257737555604509
-0.27352480797853784,-0.27352480797853784,1.0148227397873284,0.01352207658053601
-0.2726923784968676,-0.2726923784968676,0.9972744297452941,0.013275030757848874
-0.2715174636483425,-0.2715174636483425,1.00230349800441,0.013270569269533832
-0.26832812914508397,-0.26832812914508397,1.002282447088905,0.013263164203832731
-0.26662200487917287,-0.26662200487917287,1.0024983178153986,0.013600359560808739
-0.26555661535821856,-0.26555661535821856,1.0070545916732854,0.013285331811927512
-0.2647097349021351,-0.2647097349021351,1.0118528363969,0.01324106016554708
-0.262005676786066,-0.262005676786066,1.019231660907986,0.013233831482155563
-0.25940181902551557,-0.25940181902551557,1.0071288096458857,0.013234500366605808
-0.2581616951938486,-0.2581616951938486,1.0006364702636514,0.013244984773336379
-0.25730944392562377,-0.25730944392562377,1.0001622185206334,0.013271823042740286
-0.2549108695005998,-0.2549108695005998,1.0077357523715624,0.013272813701473287
-0.2526003580191173,-0.2526003580191173,0.9969539069957234,0.013263137397709564
-0.25151716391847,-0.25151716391847,0.9897754924284428,0.01322652413007567
-0.2503508774389047,-0.2503508774389047,1.0023926713493077,0.013242992941770334
-0.24878535268944688,-0.24878535268944688,0.9921745861103005,0.013382986557155682
-0.24621406507212668,-0.24621406507212668,1.0029567389578289,0.013259550970095393
-0.24496464577678126,-0.24496464577678126,1.0056389138746975,0.013249352144638868
-0.24385887031094172,-0.24385887031094172,0.9978052358188523,0.013250126889617839
-0.2427993869932834,-0.2427993869932834,1.0062550738561664,0.01337192166946243
-0.2407518107269425,-0.2407518107269425,0.9930620618362964,0.013264263855979059
-0.23851007157063578,-0.23851007157063578,0.9957670695492944,0.0131952673358912
-0.23738084119104313,-0.23738084119104313,1.0036730634843067,0.013233496579163307
-0.23623486715368927,-0.23623486715368927,1.0033833117490003,0.013277087264658042
-0.23455142293532844,-0.23455142293532844,0.9964278182255619,0.013394842410782436
-0.2320639187382767,-0.2320639187382767,1.0092848222191937,0.013290000966834433
-0.2305966600513784,-0.2305966600513784,1.0004128465810314,0.013274150978793068
-0.22958327202941292,-0.22958327202941292,0.9995916367375666,0.013241504062427426
-0.22811934210185428,-0.22811934210185428,1.0076946001271203,0.013404570170406851
-0.22541890570428222,-0.22541890570428222,0.9962210791224961,0.013250821533223591
-0.22393379273707978,-0.22393379273707978,1.0073381650847428,0.014061118410886673
-0.22276675165630877,-0.22276675165630877,0.9946427136518533,0.013314028526138564
-0.2217181795014767,-0.2217181795014767,1.010206090125822,0.01327834787415213
-0.21993773009453435,-0.21993773009453435,1.00708923386773,0.013429766944146155
-0.21755588682135568,-0.21755588682135568,0.9904798864967876,0.013205053332521324
-0.21621755643282087,-0.21621755643282087,1.0006568604821744,0.013489802760438967
-0.21518744373461232,-0.21518744373461232,0.9893209792353778,0.013397619717160547
-0.21405180511355865,-0.21405180511355865,1.0027257981329487,0.013278210800754526
-0.21208598956582136,-0.21208598956582136,1.0084824425253005,0.013611222969215167
-0.2096797413134482,-0.2096797413134482,1.0084008463961323,0.013627004908569754
-0.20863118763663807,-0.20863118763663807,0.9941434406583273,0.013316084590617422
-0.20766057045839262,-0.20766057045839262,0.9988085335408258,0.013348128860059597
-0.20628720165987033,-0.20628720165987033,1.0073440595447054,0.013203150883325559
-0.20412680850713513,-0.20412680850713513,0.9932123281003594,0.013577800950636784
-0.20198637440626044,-0.20198637440626044,1.003114524214709,0.013504713123503787
-0.2010646551148966,-0.2010646551148966,0.9966241560807105,0.013200742200612677
-0.2002052251045825,-0.2002052251045825,1.0109168594757783,0.013330122097688099
-0.1992279256664915,-0.1992279256664915,1.0094892349472282,0.013383577431468101
-0.1972476298280526,-0.1972476298280526,0.9922217386276568,0.013531245072093167
-0.19477163386181928,-0.19477163386181928,1.00082417577821,0.013272910546105257
-0.19368275937740692,-0.19368275937740692,1.0021943344000648,0.013339362672288187
-0.19280655477487016,-0.19280655477487016,1.006584342036462,0.013195750619007632
-0.1918287680920912,-0.1918287680920912,0.9945359537024057,0.013445726888562845
-0.19004978581506293,-0.19004978581506293,1.0012817292885594,0.013547153906598622
-0.187758577283239,-0.187758577283239,1.008823282297814,0.013264710698518955
-0.18630129469383974,-0.18630129469383974,1.004767550159897,0.013554536678420284
-0.18540834356681443,-0.18540834356681443,1.015807694568413,0.013261165656275586
-0.18442998455138876,-0.18442998455138876,1.0103667371386675,0.013365426152516461
-0.18241062098240945,-0.18241062098240945,1.0101471555796313,0.013689497271459499
-0.179876815789612,-0.179876815789612,0.9975029779525272,0.013299245335970208
-0.17869508856674657,-0.17869508856674657,1.017787972223552,0.013589912683645258
-0.17787708100222516,-0.17787708100222516,1.008601998840343,0.01329015457503443
-0.1766954267892288,-0.1766954267892288,0.9940942239745294,0.013255626192998277
-0.17392337650526316,-0.17392337650526316,1.0068499971037344,0.013791289460611342
-0.1717803093313705,-0.1717803093313705,1.0040201010390666,0.013560264996388086
-0.1707333062280668,-0.1707333062280668,0.995348805044863,0.013270484835075775
-0.16989017112064175,-0.16989017112064175,0.9906562008596019,0.013298242580478483
-0.1674552404350834,-0.1674552404350834,1.0010382833007245,0.013286664442543053
-0.1648771193868015,-0.1648771193868015,1.0010673607408387,0.013290953959310051
-0.16372796091309283,-0.16372796091309283,1.0010872187037752,0.013568321889387789
-0.16290404487808702,-0.16290404487808702,0.991090299404328,0.013216774623834051
-0.16138190328492782,-0.16138190328492782,0.9941577361686662,0.013320743618340968
-0.15831998589274007,-0.15831998589274007,1.0072514991447274,0.013212888956655075
-0.15693504083901644,-0.15693504083901644,1.0113544078873944,0.013267115951180733
-0.15578175367845687,-0.15578175367845687,0.9964808214850981,0.013232124563091582
-0.1548332632781239,-0.1548332632781239,0.9901127559339182,0.013282647170567827
-0.1520813124254346,-0.1520813124254346,0.9971709352550804,0.013283442047173844
-0.15014476253127212,-0.15014476253127212,1.0048209069670169,0.013250250198553554
-0.14902980428305454,-0.14902980428305454,1.0033706657530215,0.013205562742549554
-0.14797955029644072,-0.14797955029644072,1.0008588115213362,0.013268723588165892
-0.14594914940244053,-0.14594914940244053,1.0024384238698796,0.013369330986507602
-0.14368262915231753,-0.14368262915231753,0.9971796258261391,0.013247021435182605
-0.14256171423185152,-0.14256171423185152,1.0063348537858468,0.013255272533848173
-0.14140964825055563,-0.14140964825055563,1.0039808104879224,0.013369727361185208
-0.14029023852781392,-0.14029023852781392,1.0045223002273151,0.013300808250545226
-0.1380484114983119,-0.1380484114983119,0.9953529359751794,0.0131670573783537
-0.13595746643841267,-0.13595746643841267,1.0036002749003916,0.013186276615365011
-0.13501625240314752,-0.13501625240314752,1.00216623426897,0.013253672496105113
-0.1336950361932395,-0.1336950361932395,0.995869024333776,0.013225607076689419
-0.1317564214899903,-0.1317564214899903,0.9958303532751017,0.013481330989782487
-0.12918234823155217,-0.12918234823155217,0.9992133631571247,0.013257246588157186
-0.12794588752731215,-0.12794588752731215,0.9989656758360063,0.01330897232122057
-0.12688385988003575,-0.12688385988003575,1.006272313511826,0.013267817429665592
-0.12498631844937336,-0.12498631844937336,1.0019412158703322,0.013409662655286456
-0.12229691378306598,-0.12229691378306598,0.9991553403117559,0.013525139673887673
-0.12117457418353297,-0.12117457418353297,1.0058173474999186,0.013254824813060668
-0.12023968373250682,-0.12023968373250682,1.004274599677388,0.013256539957675176
-0.1188654951256467,-0.1188654951256467,1.0057828791114,0.01329436844898973
-0.11673810291395056,-0.11673810291395056,1.005359690307323,0.013497278263025134
-0.11459200099343433,-0.11459200099343433,0.9914227330030141,0.013516934194386354
-0.11361487928952556,-0.11361487928952556,0.9984170428228089,0.013307956403675806
-0.11258583967282902,-0.11258583967282902,0.9980464335761257,0.013268182279495533
-0.11108129192143679,-0.11108129192143679,0.9877252856894861,0.013561394712985606
-0.10883915259037166,-0.10883915259037166,0.9953118716297791,0.013328863739012589
-0.10697726658836473,-0.10697726658836473,0.9927684513087822,0.013546581859925893
-0.1060273132083239,-0.1060273132083239,0.9975081151027363,0.013276182762777805
