time,time,flux,flux_err
-0.49833456110427504,-0.49833456110427504,0.981771197949817,0.028240401627439092
-0.4931534547336923,-0.4931534547336923,1.0368573721382457,0.025545156006690384
-0.49129990511210053,-0.49129990511210053,0.9800415413085461,0.02295791476032179
-0.4894740245072171,-0.4894740245072171,0.9807539832143854,0.028642371212992856
-0.48795400260860333,-0.48795400260860333,0.9935113890036039,0.022770134852411212
-0.48621069002183503,-0.48621069002183503,1.024014678458651,0.02292255386151481
-0.4842198759928579,-0.4842198759928579,1.0397786003900187,0.022847516462469596
-0.48216712578359877,-0.48216712578359877,0.9760217114371699,0.023081629929206544
-0.4803563958201266,-0.4803563958201266,0.9652175289357894,0.023153683034939067
-0.47817581455456093,-0.47817581455456093,0.9610077421887967,0.023353100587491137
-0.47608117916752235,-0.47608117916752235,0.9755463164800313,0.022910536707030898
-0.4740491903816292,-0.4740491903816292,0.9523727331983922,0.028028161963269748
-0.4729032934483257,-0.4729032934483257,0.983941825783251,0.027537629130847348
-0.47147447733150327,-0.47147447733150327,0.9986959004300763,0.02301197940115955
-0.4695956792354991,-0.4695956792354991,1.0175843031210086,0.022952410227514465
-0.4680688322099741,-0.4680688322099741,0.9954527587578467,0.022812029232646157
-0.4656378603831399,-0.4656378603831399,1.0167706654068076,0.02715139594060493
-0.4620262917167565,-0.4620262917167565,0.9362810425325818,0.025141837260876536
-0.4608177611757128,-0.4608177611757128,1.0009774169257044,0.023019282748721077
-0.45915437204748744,-0.45915437204748744,0.9863267553861377,0.023768879588537597
-0.4576268946613709,-0.4576268946613709,1.0117988209721172,0.02372044571907621
-0.4564465425821254,-0.4564465425821254,0.9850192564672173,0.022836229425789646
-0.45531673441437304,-0.45531673441437304,0.9773990429838904,0.027886680615504485
-0.4540151146022254,-0.4540151146022254,1.0221167173966008,0.023502741144466106
-0.45281738444100483,-0.45281738444100483,0.9755930326143065,0.02264491827260933
-0.45157939981436357,-0.45157939981436357,0.9914719034120483,0.025709379885162042
-0.44956569043424677,-0.44956569043424677,0.9823603734325937,0.023338078787214514
-0.4472022789348557,-0.4472022789348557,0.9900485368902874,0.02350231875097837
-0.44610735540118185,-0.44610735540118185,0.9906507059281815,0.022581998472305624
-0.4443172617466189,-0.4443172617466189,1.0020983091217572,0.024426122283362165
-0.4440112841075461,-0.4440112841075461,0.987994492439466,0.022787086259210786
-0.4426274317243951,-0.4426274317243951,0.9777522949872418,0.023425187067251264
-0.44149879393880836,-0.44149879393880836,0.9624055247892607,0.023546016025674493
-0.43936126538610554,-0.43936126538610554,1.0134078487467142,0.022783890763065244
-0.43900574523358954,-0.43900574523358954,0.9832307230635464,0.02299492203422488
-0.43737320093132437,-0.43737320093132437,1.0016460310978972,0.023134350494289673
-0.435962849202042,-0.435962849202042,0.9507458183775019,0.022782707544794497
-0.4342302859309711,-0.4342302859309711,1.018703829866269,0.022942001408098746
-0.43239858240704054,-0.43239858240704054,1.0437852228183364,0.022910648870311624
-0.43083469628181775,-0.43083469628181775,1.0188664328617434,0.023056736522991405
-0.4294645171918091,-0.4294645171918091,1.0079497471132521,0.02558485842943342
-0.42794580530535314,-0.42794580530535314,1.0090668705128334,0.0230189639212418
-0.42619752033861,-0.42619752033861,0.9773111501293293,0.02422629549625424
-0.4238160091284954,-0.4238160091284954,0.9842319486510089,0.022953055114991787
-0.4212269427960564,-0.4212269427960564,0.9697085960797056,0.023246906605558275
-0.41943997212074463,-0.41943997212074463,0.9767588739245859,0.023206298511222984
-0.41830579378074617,-0.41830579378074617,0.999902776635088,0.02271808735939728
-0.41583619649900355,-0.41583619649900355,0.9900650290584547,0.022917123003891014
-0.4134045945938851,-0.4134045945938851,1.0073823047666917,0.022966723747564047
-0.4107241348698153,-0.4107241348698153,0.9838342007106833,0.022804295083069543
-0.4086989916417224,-0.4086989916417224,0.9628456947457616,0.022984793794655237
-0.4066658413692494,-0.4066658413692494,0.9910602979757673,0.02264738948405497
-0.4041631157808297,-0.4041631157808297,0.9594232399163071,0.02293081158787259
-0.4015520951063081,-0.4015520951063081,0.9325233116846998,0.02680680608804667
-0.39824608339913536,-0.39824608339913536,0.9613383988850549,0.026284452933984008
-0.3953100055492541,-0.3953100055492541,0.9768296146910025,0.025041218049566456
-0.3920996801360161,-0.3920996801360161,0.980607447203416,0.02276318068093055
-0.39016072777303634,-0.39016072777303634,0.9772542709677687,0.028532614104190956
-0.38820598096062897,-0.38820598096062897,1.0043696319874316,0.022725158853868565
-0.38619810775635416,-0.38619810775635416,1.0021727509576226,0.022812318313248946
-0.3843364319931425,-0.3843364319931425,1.0026765915986733,0.02335610854942314
-0.38232093196129424,-0.38232093196129424,0.9643236701435631,0.023135872569490363
-0.3799699856768711,-0.3799699856768711,0.9926740318627904,0.023316096514193134
-0.3776932398919598,-0.3776932398919598,1.032276481793589,0.023133762078571346
-0.37592544889994317,-0.37592544889994317,1.0015227825174413,0.02299593513384552
-0.3742986707286036,-0.3742986707286036,0.9955070447123626,0.028223869019823867
-0.37315326313109837,-0.37315326313109837,0.9751660621141411,0.027518349234392288
-0.3717237971563009,-0.3717237971563009,0.9826481477829724,0.022937769556278867
-0.3700293890549801,-0.3700293890549801,1.0149897114543454,0.022949761157942054
-0.36921648845163874,-0.36921648845163874,1.020510834916847,0.022815629356018757
-0.3668228594295215,-0.3668228594295215,0.9730618196603048,0.02301091313775396
-0.3638179785033572,-0.3638179785033572,0.930967287977,0.027367622141472474
-0.36173400426341684,-0.36173400426341684,0.9803084694660358,0.027785346045003594
-0.359979800759902,-0.359979800759902,1.0039855904503585,0.023499002612249166
-0.3584080168417131,-0.3584080168417131,1.017464480848304,0.02315906539901925
-0.35682379124700675,-0.35682379124700675,1.0154668322412252,0.0236650117002338
-0.35582377589234965,-0.35582377589234965,1.0166651854924624,0.022923472748544175
-0.35435761324406484,-0.35435761324406484,1.0135383481309461,0.023690994771288727
-0.3533120015723398,-0.3533120015723398,1.0164069116927705,0.022700193750001475
-0.3518300504008948,-0.3518300504008948,0.9629957309864711,0.025776344312700365
-0.34981613144409496,-0.34981613144409496,1.0101282994740504,0.023477785888816986
-0.3479356700619974,-0.3479356700619974,1.0193009265843374,0.02787991250038389
-0.3468995605042437,-0.3468995605042437,0.9915617787841924,0.023206149426914287
-0.345229763801035,-0.345229763801035,0.9860911642060598,0.024001385157910445
-0.34443753387968173,-0.34443753387968173,0.9537841475811106,0.023274793933788222
-0.3439196932748018,-0.3439196932748018,0.9831616483044249,0.023064572318778027
-0.34221670991464637,-0.34221670991464637,0.9722725135128677,0.023615589138510674
-0.3411456963374803,-0.3411456963374803,1.0005491628348184,0.022918139007099107
-0.3394693566740898,-0.3394693566740898,0.9790513688329577,0.022871777335834904
-0.3391883255339053,-0.3391883255339053,0.983481210392917,0.023240021903537352
-0.3371926641302707,-0.3371926641302707,1.0168420047871227,0.0231213618968951
-0.33582249973987927,-0.33582249973987927,0.9772777090654049,0.022748090341269
-0.33419910434677147,-0.33419910434677147,0.9899636187123084,0.022854750536263742
-0.33232147634480497,-0.33232147634480497,0.9952620168019148,0.02305884607471487
-0.3307220693859563,-0.3307220693859563,0.9984128160375068,0.022979131594293472
-0.32899209217721365,-0.32899209217721365,1.0023208562515074,0.022772086935381103
-0.3270057072302734,-0.3270057072302734,1.0182538561065413,0.022754676091718863
-0.32474048414151185,-0.32474048414151185,0.9836778595084759,0.024561933618406653
-0.32198008726045374,-0.32198008726045374,0.9678137522521215,0.023290215250802375
-0.31999750320683235,-0.31999750320683235,0.9907096493346863,0.023357369416603595
-0.3190109387949633,-0.3190109387949633,0.9902290298116995,0.02440674400532927
-0.3172460541332839,-0.3172460541332839,1.018063875136043,0.022941342247780275
-0.3151148152501264,-0.3151148152501264,0.9947007756286543,0.02285489136633797
-0.3119558932594373,-0.3119558932594373,1.0087555680820897,0.022949761146556936
-0.30930485834469434,-0.30930485834469434,0.9676755777477728,0.023088075025082793
-0.3073317107016919,-0.3073317107016919,0.9802848542757736,0.02275383498118661
-0.30444058336724994,-0.30444058336724994,0.9989260588028005,0.022610921009951632
-0.302143578936375,-0.302143578936375,0.9881741451390292,0.027016466677934437
-0.2996484644259908,-0.2996484644259908,1.0257571775076202,0.026185918563608246
-0.29631181977965754,-0.29631181977965754,0.9737481589565297,0.025136623145818215
-0.29273667832749195,-0.29273667832749195,1.0042626936244665,0.02289148536011562
-0.2904113588294422,-0.2904113588294422,1.0054529816987088,0.028425359191404532
-0.2884565641215886,-0.2884565641215886,0.9782506306950488,0.022717730621262654
-0.2864485263788083,-0.2864485263788083,0.9856430921203658,0.02280394666830724
-0.2845786252539256,-0.2845786252539256,0.9911386996017381,0.022778710327689744
-0.28305054074007785,-0.28305054074007785,0.9887412567890097,0.023077054901937708
-0.28070306174995496,-0.28070306174995496,0.9945342233337675,0.02347633392980377
-0.27814294483614505,-0.27814294483614505,1.00661939045517,0.023216290236705225
-0.276143644968397,-0.276143644968397,1.015940974168101,0.028495936022458295
-0.27448673859835254,-0.27448673859835254,1.0177204716799366,0.022977758240999388
-0.2734032333522919,-0.2734032333522919,0.9468595860486808,0.027488448903557804
-0.27197311777345023,-0.27197311777345023,1.0035913727779122,0.022873383893602637
-0.2700948082150717,-0.2700948082150717,0.9813466488377619,0.02286504599600047
-0.26905362219549717,-0.26905362219549717,0.9690293761564783,0.022778757812193687
-0.26657252107470414,-0.26657252107470414,1.0255236297689376,0.022908828628137957
-0.2634425857104361,-0.2634425857104361,1.0364656575753894,0.02876514764999565
-0.2615408872406988,-0.2615408872406988,1.0264325969916452,0.02360811468253812
-0.2596547769506287,-0.2596547769506287,1.0028314908082603,0.023810040465920605
-0.2578226850971987,-0.2578226850971987,0.9892530676918773,0.02387625773520274
-0.2568319691541546,-0.2568319691541546,0.9988518292643456,0.022781896609583845
-0.25534122470780857,-0.25534122470780857,1.0077625904073688,0.023863056692342666
-0.2543355960122426,-0.2543355960122426,0.9910023096064184,0.022709001424820012
-0.2528667712875176,-0.2528667712875176,0.9995889674308834,0.02583059685630591
-0.2514214710150554,-0.2514214710150554,1.0121227405100472,0.02278186098504815
-0.24906244315352524,-0.24906244315352524,0.9954587205462347,0.023610556214901546
-0.24735576921884786,-0.24735576921884786,1.0068296242907953,0.028242726884819196
-0.24631234344415134,-0.24631234344415134,0.9898285121760149,0.022773583461836104
-0.24492363535609912,-0.24492363535609912,1.0163258588843085,0.024693452586843516
-0.24440611834215814,-0.24440611834215814,0.9953424862259876,0.02288794734452066
-0.2427501705918985,-0.2427501705918985,0.9670396278888334,0.0232861589396972
-0.24187436081192573,-0.24187436081192573,0.9889636997619196,0.023410472894052008
-0.24013606444641483,-0.24013606444641483,1.0313707687609839,0.02301052608732402
-0.23954220512750907,-0.23954220512750907,0.9886128678011143,0.02305379864344612
-0.23859151235592435,-0.23859151235592435,0.9934885646720112,0.023242029467306725
-0.23725779835876892,-0.23725779835876892,1.0284881690320005,0.02617544227901345
-0.23537281525859727,-0.23537281525859727,0.9883191540603569,0.022808599303753743
-0.23375743371216232,-0.23375743371216232,0.9528973099189422,0.02277606316555842
-0.2319463865896978,-0.2319463865896978,0.9681410336017768,0.02306168805729296
-0.23005900112038943,-0.23005900112038943,1.0417832824777729,0.022742613309943024
-0.22810249099275098,-0.22810249099275098,1.0255351754835615,0.02300174622479482
-0.22633850029669703,-0.22633850029669703,0.992310675824746,0.02272842747368651
-0.22445801919093356,-0.22445801919093356,1.0067332518190206,0.022829718672223057
-0.22212557130187632,-0.22212557130187632,0.982756966963966,0.023230135048298045
-0.22024785628454993,-0.22024785628454993,1.0202660941562047,0.02338834483954398
-0.2191055937859346,-0.2191055937859346,1.0114057895132598,0.02279129914347783
-0.21702384664604324,-0.21702384664604324,1.0055953206633306,0.02317138457907121
-0.21473127579592982,-0.21473127579592982,1.005048959152172,0.02276523471416954
-0.2120127105517895,-0.2120127105517895,0.983899696040349,0.023086815848891228
-0.2097669466988009,-0.2097669466988009,1.0084186811445193,0.02488672297287089
-0.20799538724604644,-0.20799538724604644,1.020219808227035,0.0244719114984146
-0.20615771600714652,-0.20615771600714652,1.0311121654075581,0.022660414715507903
-0.2033460451872088,-0.2033460451872088,1.0322598154654217,0.022989912701167493
-0.20136570695394768,-0.20136570695394768,1.0342312789704047,0.026611117773810304
-0.1971745009162987,-0.1971745009162987,0.97755179940837,0.022933974821544707
-0.1930274520185776,-0.1930274520185776,1.0081008518129468,0.02521849672750484
-0.19090577678434784,-0.19090577678434784,0.9884530227969115,0.028129743407906204
-0.1887421652842022,-0.1887421652842022,0.9674704639114637,0.022851485662409885
-0.18697510246784077,-0.18697510246784077,0.9938171737569096,0.022852888544543853
-0.1849795005939086,-0.1849795005939086,0.9960128491886451,0.022802408215584994
-0.1833005031978246,-0.1833005031978246,0.9763057801539649,0.023123626219355473
-0.18110198932845378,-0.18110198932845378,1.015486774268051,0.02314601705151863
-0.1789249731467862,-0.1789249731467862,1.0022791495736971,0.023586627333346374
-0.17682945834167185,-0.17682945834167185,0.9816303127210173,0.022982324875946862
-0.17471973618885386,-0.17471973618885386,0.9938951161672648,0.02277611809780295
-0.1729616009091842,-0.1729616009091842,0.9976127223295606,0.027485569296688113
-0.17220780907737207,-0.17220780907737207,1.016201362038331,0.022770246744488295
-0.17002042444073595,-0.17002042444073595,0.9770149916263137,0.02684947482600656
-0.16930304127963608,-0.16930304127963608,1.0386026014292957,0.022837679272053074
-0.16712382058613,-0.16712382058613,1.0084582391072245,0.022827002337109516
-0.16424308389614453,-0.16424308389614453,1.0137441639805105,0.027637298861128284
-0.1624589268314594,-0.1624589268314594,1.040017239407955,0.0254409576548562
-0.16048078248422826,-0.16048078248422826,1.0392783986735443,0.02378320743577061
-0.15890940067329212,-0.15890940067329212,1.0091962374990273,0.023150941480829
-0.15732375603256515,-0.15732375603256515,1.0069204320541376,0.023748158179598248
-0.15595241533665102,-0.15595241533665102,0.9809928671087291,0.02368905300809477
-0.1546036074294534,-0.1546036074294534,1.0065569686825984,0.022857973103011516
-0.1531823790006456,-0.1531823790006456,0.9889909641971272,0.0236556192791429
-0.15167246673372575,-0.15167246673372575,1.0003512375679846,0.022807533460371624
-0.14931261804522364,-0.14931261804522364,1.0086389361680446,0.0236300297376445
-0.14760584672403637,-0.14760584672403637,0.9671541271454128,0.028185750088438138
-0.14669116711302194,-0.14669116711302194,1.0117811464051396,0.02276709062641422
-0.14517381211917382,-0.14517381211917382,1.028687926242404,0.02469300745799622
-0.14471247308538296,-0.14471247308538296,1.0145552155752777,0.025052039950205697
-0.14337962399586104,-0.14337962399586104,1.054279005786865,0.023036385202675185
-0.14215742057931494,-0.14215742057931494,1.0043939914477518,0.02351876170432768
-0.14024951978062744,-0.14024951978062744,1.0093305327870212,0.023121367292019898
-0.1394112797206617,-0.1394112797206617,0.9968248098739467,0.023355337943243862
-0.13775849645899144,-0.13775849645899144,0.9871428704540974,0.026273554217267358
-0.13687880015349946,-0.13687880015349946,1.023118690938544,0.022876495125731054
-0.13515889082700597,-0.13515889082700597,1.013249220847291,0.022951413158158265
-0.13390402951336,-0.13390402951336,1.0315581643952108,0.022917058459662673
-0.13241542534815381,-0.13241542534815381,0.9619971823137503,0.022951594660494803
-0.13094279905271833,-0.13094279905271833,1.0241775019174455,0.02291612248414696
-0.12869876810218556,-0.12869876810218556,0.9866804258187564,0.02292991249158382
-0.12680085089159548,-0.12680085089159548,0.9952219065730941,0.0228837500150796
-0.12470847901931847,-0.12470847901931847,1.010859801822876,0.022828752457597017
-0.12229254549529286,-0.12229254549529286,1.0113142074819492,0.02348228490421636
-0.11986961571892607,-0.11986961571892607,1.0074708833938661,0.02288274194608719
-0.11774720975954552,-0.11774720975954552,1.0003252620366578,0.023163902799222032
-0.11582983670159593,-0.11582983670159593,1.0596889691863691,0.023284544852480406
-0.11394472446627332,-0.11394472446627332,0.989416925911273,0.022805132820789373
-0.11140144413366215,-0.11140144413366215,1.018689256819967,0.02297057784641131
-0.109204587154818,-0.109204587154818,0.9951408362785269,0.022916700982158426
-0.10746865882319981,-0.10746865882319981,1.0163098820390628,0.02456143942986161
-0.10528962624666746,-0.10528962624666746,1.021783008800364,0.02269192668464463
-0.10301558448190917,-0.10301558448190917,1.036127494536098,0.02313077959974781
-0.10026764770882438,-0.10026764770882438,1.013624318845002,0.026661534899817714
-0.09561582285750773,-0.09561582285750773,0.9972518586891072,0.025316972212635663
-0.0923018749737821,-0.0923018749737821,0.9783167811405843,0.02310534576176435
-0.09050138823731686,-0.09050138823731686,1.0147522504030442,0.029482286474818258
-0.08886679024581098,-0.08886679024581098,0.990511341732924,0.0228515645073654
-0.0871204645751277,-0.0871204645751277,0.9977450380862779,0.022913596815802507
-0.0852293233954697,-0.0852293233954697,0.9781690366984979,0.02281968977651378
-0.08355046619326459,-0.08355046619326459,1.0082394127433938,0.023076699318651545
-0.08120256314432481,-0.08120256314432481,1.0397172987819308,0.023539139711702343
-0.0786419346855837,-0.0786419346855837,1.0192527799759694,0.023265117892992914
-0.07659226832547575,-0.07659226832547575,1.0434236818926952,0.02310604254863573
-0.07496889440735685,-0.07496889440735685,0.9984350576580013,0.022770894662214568
-0.07295299361212529,-0.07295299361212529,0.9930380745305593,0.02756263554119743
-0.07156855268767685,-0.07156855268767685,0.9972039785392098,0.022779853141456075
-0.0699785835640796,-0.0699785835640796,0.9833937183455115,0.022931956310924123
-0.06856088989006821,-0.06856088989006821,1.0029513314023828,0.022875110300593703
-0.06639699251390993,-0.06639699251390993,1.027992146977337,0.027557696220132277
-0.06387865116266767,-0.06387865116266767,1.006896167383979,0.02706446796201136
-0.062370716096484105,-0.062370716096484105,1.0061861540008727,0.025257176231276275
-0.06048300774564268,-0.06048300774564268,1.0183860914144536,0.024016472539682247
-0.058712260844913544,-0.058712260844913544,0.9907973710099238,0.023796617866049648
-0.05741372052361839,-0.05741372052361839,0.9975312069218895,0.023029589362354518
-0.05610195527478936,-0.05610195527478936,0.9933010013780657,0.023688125346285945
-0.054972199651092526,-0.054972199651092526,1.0152009860262599,0.022918388358963863
-0.053694446742883886,-0.053694446742883886,1.0297850970622762,0.02378145612466676
-0.05192346405237913,-0.05192346405237913,0.9803207151800549,0.022791561655912194
-0.04956279293328407,-0.04956279293328407,1.0158598301847852,0.023590340203080838
-0.04785592503249063,-0.04785592503249063,1.0223580196364266,0.02815782408182852
-0.046920987719931875,-0.046920987719931875,1.0256195581636405,0.022701111562488087
-0.045423989417759006,-0.045423989417759006,1.0039806922042618,0.024670424378939564
-0.04452059979303158,-0.04452059979303158,1.0066072271203583,0.02286385664385661
