time,time,flux,flux_err
-0.49939777782760475,-0.49939777782760475,1.00014164468049,1.8567336736111417e-05
-0.49815212561482697,-0.49815212561482697,0.9998076336060573,1.8562654499975006e-05
-0.4969064734488171,-0.4969064734488171,0.999924097590607,1.8566090036645428e-05
-0.4956149813320593,-0.4956149813320593,1.0000642930528398,1.8567861717140742e-05
-0.49431551709077726,-0.49431551709077726,0.9998606874933627,1.8563269727570457e-05
-0.4930698650704457,-0.4930698650704457,1.000039735276551,1.8568892333847488e-05
-0.4918242131008995,-0.4918242131008995,0.9999757467363295,1.856749217459467e-05
-0.49057856117947696,-0.49057856117947696,0.9998927910608877,1.8563795202743414e-05
-0.4890100363626672,-0.4890100363626672,1.000067787154555,1.8574195919387347e-05
-0.48763882286698673,-0.48763882286698673,0.9999559710204409,1.8575360175822243e-05
-0.4863931711339987,-0.4863931711339987,1.0000065558939475,1.8573409399609516e-05
-0.4851475194591387,-0.4851475194591387,1.0000274197550147,1.8573977720698016e-05
-0.4839018678484308,-0.4839018678484308,1.0000113339724024,1.8573243967054414e-05
-0.48265621629921185,-0.48265621629921185,0.9999773487315995,1.8575154738301603e-05
-0.4814105648188075,-0.4814105648188075,0.9999794972369234,1.8575516325597123e-05
-0.48016491340523404,-0.48016491340523404,1.0000011515483935,1.857545093921335e-05
-0.47891926206583263,-0.47891926206583263,1.0000304100002746,1.8575678107898132e-05
-0.47767361080127274,-0.47767361080127274,0.9999405450927101,1.8575296984866018e-05
-0.47642795961890555,-0.47642795961890555,0.9999736412271997,1.857484308868394e-05
-0.4751823085173953,-0.4751823085173953,1.0000613768110251,1.8574858423455808e-05
-0.47393665750743563,-0.47393665750743563,0.9998940951145625,1.857500829551961e-05
-0.4726910065890152,-0.4726910065890152,1.0000884459931791,1.857717980060643e-05
-0.4714254253562757,-0.4714254253562757,0.99994520442549,1.857361251151532e-05
-0.4701498790228385,-0.4701498790228385,1.0000411536269558,1.8573539999229648e-05
-0.46890422841917,-0.46890422841917,0.9999721323858137,1.857166963270839e-05
-0.46765857793042614,-0.46765857793042614,1.000119125372388,1.8574330345550436e-05
-0.4664129275646417,-0.4664129275646417,0.9998962768452746,1.8572154203648068e-05
-0.46516727733183105,-0.46516727733183105,1.0000057549793098,1.8571738638195952e-05
-0.46392162722999614,-0.46392162722999614,0.9999756553992067,1.8571644152786198e-05
-0.4626759772751754,-0.4626759772751754,0.9999501724014983,1.8570809409782176e-05
-0.4614303274767252,-0.4614303274767252,1.0000385948212325,1.8571670928203195e-05
-0.4601846778373059,-0.4601846778373059,0.9999166578607956,1.8572722197469956e-05
-0.45893902836895395,-0.45893902836895395,1.0000109854380832,1.8575087598176564e-05
-0.45769337908237445,-0.45769337908237445,0.9999854767421624,1.8573736994660642e-05
-0.4564477299842295,-0.4564477299842295,1.0000218148381184,1.8572166396072652e-05
-0.45520208108855087,-0.45520208108855087,0.999824217397982,1.8570668591763716e-05
-0.45404611698691466,-0.45404611698691466,1.0000620415095662,1.9278951238711712e-05
-0.4528402919542643,-0.4528402919542643,0.9999516212607492,1.8884544926820655e-05
-0.4515896168414059,-0.4515896168414059,1.0001029127024794,1.8517967388339345e-05
-0.45034392461047473,-0.45034392461047473,0.9999558953222507,1.851986490501813e-05
-0.44909823248646746,-0.44909823248646746,0.9999703609026023,1.8520898730653326e-05
-0.4478525404653638,-0.4478525404653638,1.0000767764421892,1.8521469857468844e-05
-0.4466068485351343,-0.4466068485351343,0.9999479562893402,1.8521999745934653e-05
-0.44536115669445736,-0.44536115669445736,0.9999841225144713,1.852183097964365e-05
-0.4441154649346274,-0.4441154649346274,1.000019051247066,1.852236193215877e-05
-0.442869773254327,-0.442869773254327,0.9999894728631704,1.8522859772405648e-05
-0.4416240816455229,-0.4416240816455229,1.0000020735837993,1.852337483296938e-05
-0.44037839010487545,-0.44037839010487545,1.0000198781636063,1.8522321707380953e-05
-0.4391326986303866,-0.4391326986303866,0.9999990223146076,1.8523214249005495e-05
-0.43788700721737683,-0.43788700721737683,1.0000100004721546,1.8524365045454687e-05
-0.43664131586317156,-0.43664131586317156,0.9999487283372023,1.8523822704889645e-05
-0.43539562456776937,-0.43539562456776937,1.0000465983260993,1.852585697604158e-05
-0.43414993332181806,-0.43414993332181806,0.9999965660373642,1.8524187952931126e-05
-0.4329042421273087,-0.4329042421273087,1.0000130079639722,1.8525435848865418e-05
-0.4316585509829366,-0.4316585509829366,0.9999707905066655,1.8524491009135054e-05
-0.43039691504069993,-0.43039691504069993,0.9999903266645692,1.85239976662614e-05
-0.4291173411932988,-0.4291173411932988,1.000068304335299,1.8523480065480795e-05
-0.427871650187906,-0.427871650187906,0.999948324123503,1.8523163470666337e-05
-0.42662595922595725,-0.42662595922595725,1.0000288872717766,1.8525654818778095e-05
-0.42538026830408737,-0.42538026830408737,0.9999785664493253,1.852575757680073e-05
-0.42413457742299554,-0.42413457742299554,0.9999880016460706,1.8525261329791685e-05
-0.4228888865806539,-0.4228888865806539,1.0000275096078841,1.85261551136717e-05
-0.4216431957804147,-0.4216431957804147,0.9999743014285226,1.8525058902983056e-05
-0.4203975050149225,-0.4203975050149225,1.0000067823087195,1.8525302500469053e-05
-0.4191518142888512,-0.4191518142888512,1.0000072702672753,1.85256358773213e-05
-0.4179061235982033,-0.4179061235982033,0.9999620635268472,1.8523879119345424e-05
-0.4166365156830437,-0.4166365156830437,1.0000766180421181,1.8525016114708864e-05
-0.4153150870768272,-0.4153150870768272,0.9999716007482448,1.852470304653706e-05
-0.41406939649643276,-0.41406939649643276,0.9999598624446875,1.852616075601929e-05
-0.4128237059514547,-0.4128237059514547,1.00000948264969,1.8526262442753725e-05
-0.41157801544055844,-0.41157801544055844,1.0000436617253528,1.8526711667187344e-05
-0.4103323249650771,-0.4103323249650771,0.99992710751679,1.852597633780761e-05
-0.40908663452567995,-0.40908663452567995,1.0000600571090403,1.8527301614413157e-05
-0.4078409441163572,-0.4078409441163572,0.9999800526911187,1.852742936190432e-05
-0.40659525373977773,-0.40659525373977773,0.9999763168485563,1.8526963880110396e-05
-0.4053495633992796,-0.4053495633992796,1.0000914165871482,1.8526669571702426e-05
-0.4040759696316414,-0.4040759696316414,0.999993270490414,1.8525571128644225e-05
-0.4027645069128951,-0.4027645069128951,0.9999875180604709,1.8525911758965514e-05
-0.4015128373626752,-0.4015128373626752,1.0000519952867168,1.8526874372226924e-05
-0.4002671471591611,-0.4002671471591611,0.9999311552119263,1.8526374742699743e-05
-0.39902145698839886,-0.39902145698839886,1.000011299813783,1.8527687264591564e-05
-0.39777576685171,-0.39777576685171,0.9999862798642191,1.8528164343801456e-05
-0.39653007674843366,-0.39653007674843366,1.00002630264329,1.8526885696396004e-05
-0.39528438668058075,-0.39528438668058075,0.9999604934102416,1.8524664095035854e-05
-0.39403869664412666,-0.39403869664412666,1.0000362393632287,1.852487139908579e-05
-0.39279300664309036,-0.39279300664309036,0.9999516667066579,1.852161809532033e-05
-0.3915473166741322,-0.3915473166741322,1.000034296835835,1.852247770825354e-05
-0.3902557853501321,-0.3902557853501321,1.0000235555827657,1.8523866649031418e-05
-0.38893236440303836,-0.38893236440303836,0.9999576817528298,1.8524189596473006e-05
-0.3873797365644819,-0.3873797365644819,1.0000056455514685,1.852563973538598e-05
-0.38584106050196854,-0.38584106050196854,1.0000227086558162,1.8524544576006466e-05
-0.38454952933967945,-0.38454952933967945,0.9999650642304108,1.852442072250971e-05
-0.3832440464902177,-0.3832440464902177,1.0000343641239464,1.8524383356382094e-05
-0.3819804188526362,-0.3819804188526362,0.9999603515273524,1.8523451663126308e-05
-0.38055933607794257,-0.38055933607794257,1.0001347431929726,1.8522963525988457e-05
-0.37923990162150006,-0.37923990162150006,0.9999928879285391,1.8523333876310766e-05
-0.3779742809995355,-0.3779742809995355,0.9999456613129105,1.8524661407429e-05
-0.3766488673032825,-0.3766488673032825,1.000041763610842,1.8525072547476486e-05
-0.37540317778070287,-0.37540317778070287,0.9999623530523486,1.8524420899481512e-05
-0.37415748829487827,-0.37415748829487827,1.0000289789579095,1.8524651024688942e-05
-0.3729038264318447,-0.3729038264318447,0.99997867867657,1.8524185887375135e-05
-0.37161628185175316,-0.37161628185175316,1.0000797429366994,1.8524156014096903e-05
-0.37037059247283965,-0.37037059247283965,1.0000061606761288,1.8522870261155324e-05
-0.3690930134848728,-0.3690930134848728,0.9999696996374446,1.8521977859843894e-05
-0.36777955868119394,-0.36777955868119394,1.000009480504436,1.8521297083049324e-05
-0.366509952179355,-0.366509952179355,0.999989302575265,1.8521233364881938e-05
-0.36517855953130435,-0.36517855953130435,1.000027469522073,1.8522062893122937e-05
-0.3638312221007752,-0.3638312221007752,0.999977772423507,1.8523970765622888e-05
-0.36194774011834596,-0.36194774011834596,0.9999906993224943,1.8525725223687682e-05
-0.3606542165597233,-0.3606542165597233,1.0000452817515815,1.8526338936414452e-05
-0.3594085275002271,-0.3594085275002271,0.9999648042058915,1.85249070476278e-05
-0.35816283847815245,-0.35816283847815245,1.000007699902859,1.8525517251432488e-05
-0.3569171494928369,-0.3569171494928369,1.0000041686345047,1.8524013822811057e-05
-0.35567146054493576,-0.35567146054493576,1.0000398426690917,1.8522766725941553e-05
-0.3544257716357862,-0.3544257716357862,0.9999672763056038,1.852305778031217e-05
-0.3531800827614006,-0.3531800827614006,0.999991969865008,1.8523793364368225e-05
-0.35193439392575954,-0.35193439392575954,1.000018034371623,1.852264121021736e-05
-0.35068870512821493,-0.35068870512821493,0.9999465857827652,1.8523306979992284e-05
-0.34944301637343217,-0.34944301637343217,1.0000933275093091,1.8524806902865936e-05
-0.34819732764672295,-0.34819732764672295,0.9999053803817812,1.852440678751759e-05
-0.34695163896277137,-0.34695163896277137,1.0000779807626388,1.8525550382550783e-05
-0.34570595031624124,-0.34570595031624124,0.9999663070154812,1.8526182506447792e-05
-0.3444602617091391,-0.3444602617091391,1.0000287590393349,1.852597988644187e-05
-0.3432145731408056,-0.3432145731408056,0.999947392833849,1.8526073489831464e-05
-0.34196888461054015,-0.34196888461054015,1.0000445534397469,1.852602509768727e-05
-0.34072319611704954,-0.34072319611704954,0.9999584018030566,1.8524936634351144e-05
-0.3394137284167854,-0.3394137284167854,1.0000266637659334,1.8525352264638682e-05
-0.33813216417908193,-0.33813216417908193,1.0000108685903775,1.8526167752216427e-05
-0.3368864758058535,-0.3368864758058535,0.9999940216240176,1.85276399780605e-05
-0.33564078747406967,-0.33564078747406967,1.0000124151897345,1.852762764457932e-05
-0.3343950991797044,-0.3343950991797044,1.0000430252959602,1.8527935056836695e-05
-0.3331494109247572,-0.3331494109247572,1.0000051895100417,1.852770615374377e-05
-0.3319037226528735,-0.3319037226528735,0.9999760017049514,1.8526955497202154e-05
-0.3306580329953405,-0.3306580329953405,1.0000474315325427,1.8527211151217422e-05
-0.32941234274395015,-0.32941234274395015,0.9999338470450088,1.8526964553502254e-05
-0.3281168249271616,-0.3281168249271616,1.000049748658574,1.8529348220007914e-05
-0.3268711347586219,-0.3268711347586219,0.9999333666238479,1.8528195783695418e-05
-0.3256015273784428,-0.3256015273784428,1.0001053912771896,1.8530011904185002e-05
-0.32432992693566404,-0.32432992693566404,0.9999261849307344,1.852877408082637e-05
-0.32308423688607063,-0.32308423688607063,1.0000319473415122,1.8528782865528767e-05
-0.3218385468805792,-0.3218385468805792,0.9999630855305115,1.8528402884939693e-05
-0.3205928569131771,-0.3205928569131771,1.000013951847405,1.8528641768835234e-05
-0.31934716698720533,-0.31934716698720533,1.0000217197383385,1.8528866426415713e-05
-0.3180875253751026,-0.3180875253751026,0.999957684614758,1.852801820164278e-05
-0.31680595966409014,-0.31680595966409014,1.000050137964373,1.8530064397888603e-05
-0.31551044226761604,-0.31551044226761604,0.9999649106461639,1.8529352952837315e-05
-0.3139757524881617,-0.3139757524881617,1.0000093425885976,1.85316403384365e-05
-0.31251879380606906,-0.31251879380606906,0.9999731812993108,1.853011971902424e-05
-0.31122526965930175,-0.31122526965930175,1.0000534824603677,1.852972671265815e-05
-0.30994968349292834,-0.30994968349292834,0.9999608109080746,1.8527984128665852e-05
-0.3086840628781246,-0.3086840628781246,1.0000223393162746,1.8527562533554257e-05
-0.3074184423094309,-0.3074184423094309,0.9999929131992598,1.8527017765837396e-05
-0.3061368769565888,-0.3061368769565888,0.9999705001881797,1.8527052490869633e-05
-0.30477558752665884,-0.30477558752665884,0.9999920690561792,1.852861997032683e-05
-0.3033026843758293,-0.3033026843758293,1.0000232882831006,1.8531029840759047e-05
-0.30199122262020384,-0.30199122262020384,1.0000276715043106,1.852932161969993e-05
-0.3007116505578253,-0.3007116505578253,0.999981521837301,1.85304055701882e-05
-0.299465961287396,-0.299465961287396,0.9999847405523002,1.8531441432856495e-05
-0.2982063203375134,-0.2982063203375134,1.0000500326074178,1.8530628631695087e-05
-0.2968530036063683,-0.2968530036063683,0.9999150077372876,1.8528693412357623e-05
-0.2955614731042374,-0.2955614731042374,1.000108988882321,1.8529202044274745e-05
-0.29428389436641,-0.29428389436641,0.9999616201400168,1.8529461466837265e-05
-0.2930382053104779,-0.2930382053104779,1.0000204949246616,1.852905899673304e-05
-0.2917925162966483,-0.2917925162966483,1.0000142819836535,1.8527941465797903e-05
-0.29054682732624426,-0.29054682732624426,1.000041460417038,1.852767309211142e-05
-0.2893011383959376,-0.2893011383959376,0.9998736233746698,1.852755657567155e-05
-0.28798369783006594,-0.28798369783006594,1.0001136735095155,1.8528445633977297e-05
-0.2866463262906834,-0.2866463262906834,0.9999784937015811,1.852844483316728e-05
-0.28481865170731024,-0.28481865170731024,1.000053092389194,1.852709519928018e-05
-0.283283963188822,-0.283283963188822,0.9999138835344251,1.8525480304546796e-05
-0.28177119885811097,-0.28177119885811097,1.0000096676877508,1.852620767590209e-05
-0.280481661987919,-0.280481661987919,1.0000254096898833,1.8528168600567822e-05
-0.2791781734549971,-0.2791781734549971,0.9999900644835783,1.852825382302474e-05
-0.27780293330452394,-0.27780293330452394,0.9999676328280994,1.8529195626533095e-05
-0.27637387946747083,-0.27637387946747083,1.0000125669804312,1.8527993318133395e-05
-0.2750544462660017,-0.2750544462660017,0.9999543791370874,1.852765353889208e-05
-0.2734260824072692,-0.2734260824072692,1.000049424480774,1.8528539194298862e-05
-0.2716123601842696,-0.2716123601842696,1.0000010693547214,1.8531868439953528e-05
-0.27036667190215125,-0.27036667190215125,0.9999724482620918,1.853218772288018e-05
-0.26912098366347126,-0.26912098366347126,1.0000039215494145,1.853311241109258e-05
-0.26787529546821676,-0.26787529546821676,1.0000394707973639,1.8533852466076987e-05
-0.2666296073157383,-0.2666296073157383,1.0000100293373646,1.853453575511602e-05
-0.2653839192066897,-0.2653839192066897,0.9999734864903884,1.85342196183579e-05
-0.2641382311404129,-0.2641382311404129,0.999983346242938,1.8535343801607603e-05
-0.2628925431175702,-0.2628925431175702,1.0000041016097398,1.8535868723285417e-05
-0.26164685513748653,-0.26164685513748653,0.9999979925425642,1.8536259421016373e-05
-0.2604011671995082,-0.2604011671995082,1.0000369923857093,1.8536512704066316e-05
-0.2591554793083134,-0.2591554793083134,0.9999172840896419,1.853585429899894e-05
-0.25790979145920545,-0.25790979145920545,1.000098918494368,1.8535865753365836e-05
-0.25666410365220005,-0.25666410365220005,0.9999693339943413,1.8535912547119766e-05
-0.2554184158893008,-0.2554184158893008,1.000023085821952,1.8537171602418103e-05
-0.25417272816984565,-0.25417272816984565,1.0000219130326597,1.8536539446942265e-05
-0.2529270404951475,-0.2529270404951475,1.0000068470538972,1.8535368314042413e-05
-0.25168135286188686,-0.25168135286188686,1.0000260559835445,1.853461026122764e-05
-0.2504356652733932,-0.2504356652733932,1.0000416090081115,1.853459532480438e-05
-0.2491899777263285,-0.2491899777263285,0.9999900685533545,1.8535082558842884e-05
-0.24794429022537656,-0.24794429022537656,0.9999855796751979,1.8534513910495955e-05
-0.24669860276785868,-0.24669860276785868,1.0000309637474873,1.8534847453470116e-05
-0.24545291535377345,-0.24545291535377345,1.0000007131176192,1.8535445094703798e-05
-0.244207227985126,-0.244207227985126,0.999968161295382,1.8535402708797605e-05
-0.24295356825849126,-0.24295356825849126,1.0000186783705074,1.853564696706088e-05
-0.241658053486168,-0.241658053486168,1.000000149652177,1.8534430376916304e-05
-0.24037051115870725,-0.24037051115870725,1.000000136260937,1.853442934408504e-05
-0.23912482396714693,-0.23912482396714693,1.0000104802369882,1.8534371742168328e-05
-0.23786717822355855,-0.23786717822355855,0.999981900489975,1.8534778317635482e-05
-0.2365557188441713,-0.2365557188441713,1.00000162287828,1.8535533866633824e-05
-0.23523828020882293,-0.23523828020882293,1.000017599587856,1.853478022352279e-05
-0.23399259319834725,-0.23399259319834725,1.0000254423837214,1.8533077081296817e-05
-0.23274690623064345,-0.23274690623064345,0.999995321310999,1.853221067783963e-05
-0.23147929521949068,-0.23147929521949068,0.9999971583819818,1.853093974821217e-05
-0.23014989818446593,-0.23014989818446593,0.9999516449637283,1.853134762507976e-05
-0.2286710187833947,-0.2286710187833947,1.000013223271549,1.853340906205923e-05
-0.22740938721329657,-0.22740938721329657,0.9999883857679566,1.8532182477488853e-05
-0.22611985230503961,-0.22611985230503961,1.0000635512099563,1.8534426925322035e-05
-0.22475059349942939,-0.22475059349942939,0.9999503523799804,1.8534315068542385e-05
-0.2234789965775718,-0.2234789965775718,0.9999983560881113,1.853574231068637e-05
-0.2222333099820773,-0.2222333099820773,0.9999860826336423,1.8535094643331778e-05
-0.22088996160706956,-0.22088996160706956,1.000020990607966,1.853490846006109e-05
-0.2195565787736143,-0.2195565787736143,0.9999856037952037,1.8533789900669898e-05
-0.21824711317250517,-0.21824711317250517,1.000051641212139,1.8535943379559676e-05
-0.2169994336640883,-0.2169994336640883,0.9999703548800507,1.8534914140587655e-05
-0.2156600716849212,-0.2156600716849212,1.0000269651863711,1.8535625770638816e-05
-0.21435259932751335,-0.21435259932751335,0.9999300415221792,1.8535015446985655e-05
-0.2129873271723369,-0.2129873271723369,1.0000088874449904,1.8533103086405376e-05
-0.21167387562043416,-0.21167387562043416,1.0000437854004098,1.853420699295163e-05
-0.21041822395382753,-0.21041822395382753,0.9999602941306968,1.8534840915873504e-05
-0.20912868966902637,-0.20912868966902637,1.000051708438781,1.8536344980100127e-05
-0.20788300358137804,-0.20788300358137804,0.9999708242335046,1.853339952390349e-05
-0.20660144178220463,-0.20660144178220463,1.0000139852012118,1.853224339610888e-05
-0.20525211471255603,-0.20525211471255603,0.9999768813557683,1.8532710953180528e-05
-0.20394663583806646,-0.20394663583806646,1.0000313550974944,1.8533141809782043e-05
-0.20263517772097686,-0.20263517772097686,0.9999585371349605,1.8532768642242646e-05
-0.2011802166421262,-0.2011802166421262,1.0000210607180304,1.8531752836353e-05
-0.19987075172662686,-0.19987075172662686,1.0000221463791565,1.853301697468807e-05
-0.19832610139332302,-0.19832610139332302,1.0000101508456187,1.8531543380229412e-05
-0.19694488508749117,-0.19694488508749117,1.000005391688614,1.8531645476210665e-05
-0.19562146864757465,-0.19562146864757465,0.999966325173079,1.8531875439963498e-05
-0.19432994181069888,-0.19432994181069888,1.0000364925725322,1.8532290739288715e-05
-0.1930722976675284,-0.1930722976675284,0.9999298983318583,1.8533229604063955e-05
-0.19178874331093426,-0.19178874331093426,1.0000319053769342,1.8534678356660404e-05
-0.19054106474071517,-0.19054106474071517,1.0000463709649492,1.8535033801495865e-05
-0.18921964164072164,-0.18921964164072164,1.0000253440399323,1.8536426011132024e-05
