time,time,flux,flux_err
-0.49994674299523467,-0.49994674299523467,0.9999517107287164,0.00010212280455702899
-0.499862127542292,-0.499862127542292,1.000171545025515,9.57589520966482e-05
-0.49970276581079814,-0.49970276581079814,1.0000693242932874,9.638529931678234e-05
-0.4995535768321133,-0.4995535768321133,0.9998953933415515,9.803929536359812e-05
-0.4994159988149477,-0.4994159988149477,0.9998379354257929,9.762226513218156e-05
-0.4992799972911598,-0.4992799972911598,0.9999480888820104,9.760059330150023e-05
-0.4990631237451453,-0.4990631237451453,0.9999292835833536,9.466153679345798e-05
-0.49894920895603717,-0.49894920895603717,1.0000352088520763,9.564003049797442e-05
-0.49875418651572545,-0.49875418651572545,1.0000373902460822,9.621592068293501e-05
-0.4986072732230241,-0.4986072732230241,0.9998692209431221,0.00010275518287920728
-0.49847401225633803,-0.49847401225633803,0.9999933412148707,9.763736681777686e-05
-0.4983501914488443,-0.4983501914488443,1.0000373839103387,9.753024513347767e-05
-0.4981916726486816,-0.4981916726486816,0.9999463426917673,9.6638318224606e-05
-0.4980567699596577,-0.4980567699596577,1.0000440014509728,9.530632401927094e-05
-0.4979516846302431,-0.4979516846302431,1.0000571301294106,9.611310174305122e-05
-0.4978249345847871,-0.4978249345847871,1.0000020114324149,0.00010162751062371103
-0.49765285818721167,-0.49765285818721167,1.0000409046064553,9.785403766680285e-05
-0.4975193639329518,-0.4975193639329518,0.9999023045205717,9.646142576891612e-05
-0.49745764843100915,-0.49745764843100915,1.0001387297565856,9.715860938450128e-05
-0.4973221756576095,-0.4973221756576095,0.9999238809618222,9.931604917150339e-05
-0.4971589594715624,-0.4971589594715624,1.0001400782453718,9.932240652902192e-05
-0.4970451493318251,-0.4970451493318251,0.9999247826275655,9.590245974035767e-05
-0.49693689936393637,-0.49693689936393637,0.9999103022634316,9.688204732625e-05
-0.4968522526149172,-0.4968522526149172,0.9999451021955578,9.847417320902765e-05
-0.49670833073105314,-0.49670833073105314,1.000031219819212,9.643891647484102e-05
-0.4965552788220521,-0.4965552788220521,1.0001287192988788,9.682992166798686e-05
-0.4963894479886221,-0.4963894479886221,1.000009401276661,9.559216061344667e-05
-0.4962995096546365,-0.4962995096546365,1.0002856237895639,9.84072338073314e-05
-0.49622885218195734,-0.49622885218195734,1.0000870495472394,9.460828309275306e-05
-0.4961365376599133,-0.4961365376599133,0.9999227866296119,9.770600798197907e-05
-0.495985210489016,-0.495985210489016,0.99999609607517,9.553282147083932e-05
-0.4958792735480529,-0.4958792735480529,1.0000948918709849,9.90192819680182e-05
-0.4957735567928466,-0.4957735567928466,0.9999158189828607,9.572295397041627e-05
-0.4955892974474409,-0.4955892974474409,0.9998040067060472,9.716586195088208e-05
-0.49542553534556644,-0.49542553534556644,0.9997984484985712,9.66977165027805e-05
-0.49527317054453307,-0.49527317054453307,1.000050230258554,9.758273091358952e-05
-0.4951413285227318,-0.4951413285227318,1.0001307050053252,9.676129992056059e-05
-0.4950558866512438,-0.4950558866512438,1.0001547215919337,9.855670141115034e-05
-0.4948738775019592,-0.4948738775019592,1.0001125151935857,9.746754098659778e-05
-0.4946929121360881,-0.4946929121360881,0.999964372587716,9.974153927847765e-05
-0.49458678450828303,-0.49458678450828303,0.9999643590093032,9.653867747289589e-05
-0.49450719601882154,-0.49450719601882154,1.000143347111362,0.00010088612840652505
-0.4943594153417507,-0.4943594153417507,1.0000783859354687,9.684412746807162e-05
-0.4942560699157184,-0.4942560699157184,1.0000376039355883,9.773744343062973e-05
-0.4941287063760683,-0.4941287063760683,1.000144168668657,9.601462363076636e-05
-0.4940600203022768,-0.4940600203022768,1.0000184911095986,9.652444175488659e-05
-0.4939639763877494,-0.4939639763877494,1.0000938094519687,9.696500764485028e-05
-0.49386704960197675,-0.49386704960197675,1.0000098433939895,9.66358034798103e-05
-0.4937428582976281,-0.4937428582976281,0.9999023509046797,9.58171280599974e-05
-0.4935984495743469,-0.4935984495743469,1.0000838396516523,9.69306460915013e-05
-0.4934774371984531,-0.4934774371984531,0.9999978462928866,9.566863551426133e-05
-0.493303214549087,-0.493303214549087,1.0000260935403829,9.834217938578464e-05
-0.4931618907692609,-0.4931618907692609,1.0001468910965066,9.77362631397404e-05
-0.4930205650285643,-0.4930205650285643,1.000041613758183,9.927835526291221e-05
-0.4928960441888194,-0.4928960441888194,0.9998415388079473,9.6951789138311e-05
-0.49275214786830474,-0.49275214786830474,1.0001413503463046,9.5117140956659e-05
-0.4926246909650217,-0.4926246909650217,1.0001737767708643,0.00010155152447231236
-0.49254493105763686,-0.49254493105763686,0.999838433266014,9.563143316719262e-05
-0.4924176578082552,-0.4924176578082552,1.0000993826315883,9.574029132048267e-05
-0.4923055416686111,-0.4923055416686111,1.000092596907002,9.493396458608965e-05
-0.4921894185368728,-0.4921894185368728,1.0001630968527224,9.786456959384835e-05
-0.4921001369133592,-0.4921001369133592,1.0002265933838903,9.857588984264066e-05
-0.4919515524888993,-0.4919515524888993,1.0000364799544137,9.660718001828609e-05
-0.4917145894978603,-0.4917145894978603,1.0000149376465834,9.445432818724798e-05
-0.49164456476137275,-0.49164456476137275,0.9998320065452099,9.493579509762723e-05
-0.4914638938884309,-0.4914638938884309,1.0001280977669873,9.678745815116855e-05
-0.4912756423764222,-0.4912756423764222,1.0000871332338623,0.00010015823620205973
-0.4911284542424255,-0.4911284542424255,1.0000164493341237,9.82558281921952e-05
-0.491003921207448,-0.491003921207448,1.0001846502246892,9.705122804808384e-05
-0.490905166300945,-0.490905166300945,0.9999762924730697,9.553000404784615e-05
-0.4907464050716953,-0.4907464050716953,1.0000340447645208,9.869928133125229e-05
-0.49068910609639715,-0.49068910609639715,0.9999514335758647,9.638686209633118e-05
-0.490593765808444,-0.490593765808444,0.9999245919842352,0.00010268549381081552
-0.49045310852161494,-0.49045310852161494,1.0000086226699514,9.578547965271511e-05
-0.49032149288250365,-0.49032149288250365,1.0000512962249148,9.622098319166558e-05
-0.49020785692555363,-0.49020785692555363,1.0002060484096713,9.60540004201778e-05
-0.49013821759290294,-0.49013821759290294,0.9999611311194212,9.701790485155132e-05
-0.49000670395907947,-0.49000670395907947,0.9998430952645142,9.925695802864037e-05
-0.4898588613694301,-0.4898588613694301,0.9999250422437459,9.852591902555461e-05
-0.4897505716828164,-0.4897505716828164,1.000037393017878,9.708992139929626e-05
-0.48962579523213207,-0.48962579523213207,1.0000523832131507,9.642590671589071e-05
-0.48949781794945013,-0.48949781794945013,1.0000156520400185,9.582195830131211e-05
-0.48935088002108384,-0.48935088002108384,1.000026921990269,9.690063197206268e-05
-0.48922362899247673,-0.48922362899247673,0.9999398561306236,9.975879036423629e-05
-0.4891085304472654,-0.4891085304472654,1.000023189204038,9.728105384749847e-05
-0.48901515256075073,-0.48901515256075073,0.9999573703184457,9.882285284864426e-05
-0.4889217092611943,-0.4889217092611943,1.0002253226028872,9.610877357598129e-05
-0.48875197549641597,-0.48875197549641597,0.9999954355471055,9.712418200684905e-05
-0.48864079677732664,-0.48864079677732664,1.0000306087302093,9.563786141452728e-05
-0.4885160045865632,-0.4885160045865632,0.9998527989569717,9.551318361260458e-05
-0.48841702711652035,-0.48841702711652035,1.000004366663216,9.643753141912145e-05
-0.4882238823571242,-0.4882238823571242,0.9999465353825056,9.630490667445705e-05
-0.4880791758041596,-0.4880791758041596,0.999942155292632,9.578753014856402e-05
-0.48793377140391386,-0.48793377140391386,0.9999413373497511,9.7506307305769e-05
-0.4878084465577558,-0.4878084465577558,0.9998608774418971,9.628954489654292e-05
-0.48773931786345204,-0.48773931786345204,0.9999685299636634,0.00010413835929510133
-0.48762228916675665,-0.48762228916675665,0.9999711147795285,9.36792332633517e-05
-0.4874468623645953,-0.4874468623645953,1.0002276903333194,9.59345185463677e-05
-0.4873375474489876,-0.4873375474489876,0.9999864224739987,9.973427291652374e-05
-0.487194846678176,-0.487194846678176,1.0000331704503307,0.00010280690179056601
-0.48705536981797193,-0.48705536981797193,1.0000995393161678,9.62150974610381e-05
-0.4869398911738244,-0.4869398911738244,0.9997928240407392,9.697568676036013e-05
-0.4867858934332617,-0.4867858934332617,1.000043969702205,9.708716696316969e-05
-0.4866999019861396,-0.4866999019861396,1.0001804092349744,9.700046733768793e-05
-0.4865622453966353,-0.4865622453966353,1.0000326027516617,9.822216092403608e-05
-0.4863863654005399,-0.4863863654005399,1.0000599047727792,9.586817401796118e-05
-0.4862519274814986,-0.4862519274814986,1.000039351519241,9.70112668740612e-05
-0.4861640353774419,-0.4861640353774419,0.9999761919684357,9.626060625381087e-05
-0.4860407094354741,-0.4860407094354741,0.999923658287394,9.576210161841223e-05
-0.48590292453445727,-0.48590292453445727,1.000055539559672,9.771775864265588e-05
-0.4857847997751378,-0.4857847997751378,0.9998729231180248,9.771863296206213e-05
-0.4856520439752785,-0.4856520439752785,1.0000991278019256,9.921120709850547e-05
-0.48551159871713023,-0.48551159871713023,0.9999053052371607,9.657160050310397e-05
-0.48538168576196766,-0.48538168576196766,1.0000170891897089,9.80634225918905e-05
-0.48528854276592026,-0.48528854276592026,1.000084859239625,0.00010181957588874673
-0.48513974117522596,-0.48513974117522596,0.9998886346573878,9.76716993985348e-05
-0.48499454488992344,-0.48499454488992344,1.0000756556201003,9.672072426813467e-05
-0.48487596783597836,-0.48487596783597836,1.0001662926002468,9.625077876562745e-05
-0.48478474976727737,-0.48478474976727737,0.9999969962150145,9.858347136467609e-05
-0.4845849092511344,-0.4845849092511344,1.0000324994868617,9.770099310030967e-05
-0.4843776988629543,-0.4843776988629543,1.0000900308313443,9.492978185212044e-05
-0.48430716570728694,-0.48430716570728694,1.0000436053407231,9.842544897597316e-05
-0.4841329818336817,-0.4841329818336817,1.0000171483310816,9.785089002652466e-05
-0.48394595936188123,-0.48394595936188123,0.9999792388422477,9.954974788440427e-05
-0.4838397140687448,-0.4838397140687448,1.0000404201284234,9.63315158451838e-05
-0.4837130033723952,-0.4837130033723952,1.0000435290622363,9.882941546587743e-05
-0.4836460458507645,-0.4836460458507645,1.0000801482679982,9.574262275109816e-05
-0.4835687740946014,-0.4835687740946014,1.000118777955162,9.439967111107599e-05
-0.4833955179143231,-0.4833955179143231,0.9999736726360204,9.592456105474135e-05
-0.483292191511282,-0.483292191511282,1.0000178343167871,9.933302899061186e-05
-0.4831954779539956,-0.4831954779539956,1.0000533080057405,9.89258381458921e-05
-0.48306265066858034,-0.48306265066858034,0.99998556727547,9.653939355315291e-05
-0.4829096884772298,-0.4829096884772298,1.0000811435616141,9.51204380340318e-05
-0.48283206157866515,-0.48283206157866515,0.9999884351877315,9.699426493990835e-05
-0.4826610473464825,-0.4826610473464825,1.0000623103892905,9.718571298384697e-05
-0.482499318565533,-0.482499318565533,0.9998820728419391,9.911541863124428e-05
-0.48239019137618017,-0.48239019137618017,1.0000397013609459,9.974094851579444e-05
-0.4822486051991291,-0.4822486051991291,0.9999939808739391,9.729634913070395e-05
-0.4820967598330753,-0.4820967598330753,0.9999920811837215,9.541921173929824e-05
-0.48199664297426353,-0.48199664297426353,0.9998705244930134,9.759994251578335e-05
-0.4818402630386117,-0.4818402630386117,1.0000947844040382,0.0001014718428839169
-0.48172675666428405,-0.48172675666428405,0.9999059606095502,9.60018154809147e-05
-0.4816142182033218,-0.4816142182033218,1.0000544477948115,9.609413264332984e-05
-0.48146021565771663,-0.48146021565771663,0.9999726432448257,9.777980514875115e-05
-0.4813155490599456,-0.4813155490599456,1.0001641933130754,9.594136104734778e-05
-0.48117451779326076,-0.48117451779326076,1.0000490657592935,9.588572823451895e-05
-0.4810246919885685,-0.4810246919885685,1.0001875576381327,9.593986323960093e-05
-0.4808179490850307,-0.4808179490850307,1.0001547210597708,9.701894964800941e-05
-0.48062189340780603,-0.48062189340780603,0.9999628947343051,9.749684955785587e-05
-0.4804552180430619,-0.4804552180430619,1.0001151581884038,0.00010025836179983787
-0.48034851513875765,-0.48034851513875765,0.9999659717733186,9.769252157492058e-05
-0.4802478836856608,-0.4802478836856608,0.9999282818708947,9.416656635233022e-05
-0.48009147321863566,-0.48009147321863566,1.0000542108437047,9.593266254858673e-05
-0.4799730484992324,-0.4799730484992324,0.9999631793600561,0.00010035056280766899
-0.4798849224622245,-0.4798849224622245,0.9999476625789099,0.00010101800577964033
-0.4796740393154323,-0.4796740393154323,1.0002806777236213,9.738049038914629e-05
-0.4794973442425544,-0.4794973442425544,1.0000009405080692,9.690705652610659e-05
-0.479384166959062,-0.479384166959062,1.0001989495755974,9.637022500774312e-05
-0.47922344943217465,-0.47922344943217465,1.000050476385946,0.0001009375179370581
-0.47904176679076044,-0.47904176679076044,1.000118705941548,9.573642109241852e-05
-0.47892192152066854,-0.47892192152066854,1.0000066329208772,9.601895957875517e-05
-0.4788385275816836,-0.4788385275816836,1.0000503804361442,9.645463219794164e-05
-0.47870986437628743,-0.47870986437628743,0.999909287650621,9.992698951428193e-05
-0.47860561975321614,-0.47860561975321614,1.0001193262298087,9.70275034241361e-05
-0.4784771742124576,-0.4784771742124576,0.9999194874341161,9.592313134309249e-05
-0.4783569718230865,-0.4783569718230865,1.0001054505991125,9.94108180943477e-05
-0.4782598258258076,-0.4782598258258076,0.9998586122221387,9.542943198375471e-05
-0.4781694171113486,-0.4781694171113486,1.0000034467969108,9.596834854354316e-05
-0.47806100857051204,-0.47806100857051204,1.00006652751336,9.681974181750008e-05
-0.47798525997714025,-0.47798525997714025,1.0003095793719985,0.00010223965632310094
-0.47787443489796716,-0.47787443489796716,0.9999495161554902,9.798577196270257e-05
-0.4776869510526012,-0.4776869510526012,1.00004526583303,9.68862385119056e-05
-0.4776052433378936,-0.4776052433378936,0.9999731873361879,9.596845969843966e-05
-0.47751988584495847,-0.47751988584495847,1.0000454216992467,9.726578682905818e-05
-0.4773536446504295,-0.4773536446504295,1.0001047232179192,9.941197015670756e-05
-0.4770805375395867,-0.4770805375395867,0.9999019309017079,9.578309442723621e-05
-0.4769969836779637,-0.4769969836779637,0.9998864537388196,9.62285594055939e-05
-0.4768581145384815,-0.4768581145384815,0.9999768980701566,9.816734967629923e-05
-0.47662219287522023,-0.47662219287522023,0.9999147262186799,9.535728331308008e-05
-0.4764889296558977,-0.4764889296558977,1.0000065833695762,9.532489068073233e-05
-0.4763830161529768,-0.4763830161529768,0.9999694866796913,9.873786447744116e-05
-0.4763103135446727,-0.4763103135446727,0.9999728696514392,9.56981790893854e-05
-0.47616232012442194,-0.47616232012442194,0.9999243270020726,9.652670354073624e-05
-0.47606007622380275,-0.47606007622380275,0.999788753539063,9.489955832010774e-05
-0.47593672117945973,-0.47593672117945973,0.9999944121843825,0.00010099649190223798
-0.47576843590068163,-0.47576843590068163,0.9999621775323952,9.612332109059667e-05
-0.47559725594255725,-0.47559725594255725,1.0000300033325735,9.597652821506277e-05
-0.4754665190259402,-0.4754665190259402,0.9999862231162149,9.607127688694734e-05
-0.47528193157268106,-0.47528193157268106,0.9999182627937369,9.78922820709198e-05
-0.47516463947613374,-0.47516463947613374,1.0000541565627379,9.999343728564212e-05
-0.47504875694066867,-0.47504875694066867,1.0000645898470408,9.625520968191099e-05
-0.4749099704873515,-0.4749099704873515,0.9998666333730576,9.689538289131757e-05
-0.47479238851810807,-0.47479238851810807,1.0000366007296506,9.593777127205722e-05
-0.474697068988462,-0.474697068988462,1.0000037821258618,9.975015975065167e-05
-0.4745707110065268,-0.4745707110065268,1.0000714271809605,0.0001014721210519505
-0.474424648812419,-0.474424648812419,1.0000996346806383,9.616222503693918e-05
-0.47431056173008984,-0.47431056173008984,1.000063444084827,0.00010034582052262477
-0.47418610705208264,-0.47418610705208264,0.9999138152721283,9.72203047848936e-05
-0.4740372917418426,-0.4740372917418426,1.0000987615838997,9.8202888616627e-05
-0.47390172395680563,-0.47390172395680563,1.0000037753667947,9.542181782838981e-05
-0.4737679004698293,-0.4737679004698293,0.9998996225467336,9.580461687110347e-05
-0.47354480287540357,-0.47354480287540357,1.0001044229211877,9.609123413495479e-05
-0.4733606407236948,-0.4733606407236948,0.9998445039023457,9.786229273005276e-05
-0.4732380639972689,-0.4732380639972689,0.9998437311879675,9.79297540381227e-05
-0.47309773685992695,-0.47309773685992695,1.0000030132649598,0.00010183500489020971
-0.4729711066436721,-0.4729711066436721,0.9998590377550121,9.437247257002658e-05
-0.4728601579205133,-0.4728601579205133,1.0001365049720083,9.612576554544403e-05
-0.4727610396228556,-0.4727610396228556,0.9998715605206817,9.883917923064296e-05
-0.47267448599886847,-0.47267448599886847,1.0001376226552814,9.982455257795447e-05
-0.4725529699513572,-0.4725529699513572,0.9998777829529125,0.00010135630247188659
-0.47235029702133036,-0.47235029702133036,1.0000531848701537,9.642267302024387e-05
-0.47218578094762054,-0.47218578094762054,0.9998602402917065,9.978712831026026e-05
-0.47211456225049914,-0.47211456225049914,0.999956500799674,9.700194647531623e-05
-0.47202805591296054,-0.47202805591296054,1.0000853955374116,9.370292347058229e-05
-0.47190533739267265,-0.47190533739267265,0.9999797080043429,9.944296303059917e-05
-0.47171694598000613,-0.47171694598000613,1.0000516184463515,9.634859765348774e-05
-0.47161926240223695,-0.47161926240223695,0.9998667581586597,9.477453841112585e-05
-0.47153121611409005,-0.47153121611409005,1.0000287107065564,9.6326127875973e-05
-0.47137536906666355,-0.47137536906666355,0.9999503185274998,0.0001003842550553465
-0.47123394991431267,-0.47123394991431267,1.0001179045617161,9.719140232220195e-05
-0.4710938126758265,-0.4710938126758265,1.0000731393141753,9.921215174030698e-05
-0.47097348744791817,-0.47097348744791817,1.0000262651514862,9.60245652895441e-05
-0.47087996131667753,-0.47087996131667753,1.000025301463302,9.502477239633734e-05
-0.47079040300523045,-0.47079040300523045,0.9998274622826484,9.93249702060418e-05
-0.4707063265959732,-0.4707063265959732,1.0001122889321266,0.0001000867967661439
-0.47062612357767647,-0.47062612357767647,1.0001552175854038,9.893837939158672e-05
-0.47047291674170993,-0.47047291674170993,0.9999985606429652,9.523172868986719e-05
-0.4704076535155764,-0.4704076535155764,1.0000678445115074,9.784050717980518e-05
-0.47033412924720325,-0.47033412924720325,1.000022573609715,9.524769229339056e-05
-0.4702554431445606,-0.4702554431445606,1.0001638966124151,9.881341038823374e-05
-0.47015634119379685,-0.47015634119379685,1.0001470500718779,0.00010349509881526799
-0.4699813686645939,-0.4699813686645939,0.9999181420962259,9.536515294592435e-05
-0.4698145153139194,-0.4698145153139194,0.999907243920527,9.722749952084447e-05
-0.46971401486516695,-0.46971401486516695,1.0000548303677783,9.652819782905851e-05
-0.46962366821826435,-0.46962366821826435,1.0000893965232005,9.687869686226145e-05
-0.46945176735316635,-0.46945176735316635,1.0000279759155382,9.636223945080612e-05
-0.4692635476261785,-0.4692635476261785,0.9998609202946265,9.538330010828663e-05
-0.4691191185163916,-0.4691191185163916,1.0001005508370464,9.740548067482925e-05
-0.46903494657526607,-0.46903494657526607,0.9999956903895308,9.540142057579772e-05
-0.4688903431422659,-0.4688903431422659,0.9999652852025627,9.692788275945417e-05
-0.4687539785503759,-0.4687539785503759,0.999838688504231,9.48545799313101e-05
-0.46864720326193493,-0.46864720326193493,0.9997054426073702,0.00010190058705242963
-0.46854036089789586,-0.46854036089789586,0.9999741537813028,9.619184231301873e-05
-0.4683544843319396,-0.4683544843319396,1.0000048528083159,9.665780576738265e-05
-0.46823686809584614,-0.46823686809584614,1.000001873540959,9.54703403762555e-05
