time,time,flux,flux_err
-0.4991547457854419,-0.4991547457854419,0.9999077886374635,5.517081416710227e-05
-0.49792690649458865,-0.49792690649458865,0.9999905259453579,5.498789729114345e-05
-0.49668607989224256,-0.49668607989224256,0.9999282764705781,5.5069378688839276e-05
-0.49428407025273674,-0.49428407025273674,0.9999135811571902,5.495784112213242e-05
-0.4924436519075243,-0.4924436519075243,1.000169537458983,5.0177371654795885e-05
-0.4914253464987269,-0.4914253464987269,1.000024658205572,5.018060268178802e-05
-0.489944721248321,-0.489944721248321,0.9999320866787504,5.567496524590435e-05
-0.4888865905719285,-0.4888865905719285,0.9999001675323024,5.0183733520846504e-05
-0.48762223825469847,-0.48762223825469847,1.0000335241627594,5.018359792401296e-05
-0.4861487309608492,-0.4861487309608492,0.999891498249816,5.038752515984736e-05
-0.48535358412627827,-0.48535358412627827,1.0000334984313581,5.0233548586438054e-05
-0.4834001095339772,-0.4834001095339772,1.0000496580031448,5.0172476304009803e-05
-0.48166667943587527,-0.48166667943587527,0.9999742508657847,5.016791781626e-05
-0.48024594962771516,-0.48024594962771516,1.0000417089744764,5.0181686331984693e-05
-0.47875154530411235,-0.47875154530411235,1.000018123007718,6.246845172230154e-05
-0.4775802196461882,-0.4775802196461882,1.0000917859485017,5.0182356353623776e-05
-0.4761977417751041,-0.4761977417751041,0.9999596697341329,5.018754947095886e-05
-0.47455085261972274,-0.47455085261972274,0.9998501119553401,5.120157332225907e-05
-0.47368279685470044,-0.47368279685470044,1.0000043223107289,5.019985569235381e-05
-0.4719077654503053,-0.4719077654503053,0.9999962456487417,5.0169768678022865e-05
-0.4700676821019442,-0.4700676821019442,1.0001021515572055,5.0174622166934343e-05
-0.468959213927883,-0.468959213927883,0.9999840990760911,5.017856289542707e-05
-0.4676335462587303,-0.4676335462587303,1.0000176888239027,5.017685506446635e-05
-0.4662948649893224,-0.4662948649893224,0.9999973582860274,5.0179470701170974e-05
-0.46470939674545664,-0.46470939674545664,0.9999710286540916,5.022422039079812e-05
-0.4631531678809552,-0.4631531678809552,0.9999310042370333,5.017784429748412e-05
-0.46197374554903947,-0.46197374554903947,0.9999847543436309,5.019074965631084e-05
-0.46029347257790504,-0.46029347257790504,0.9999192512285043,5.0167231810658846e-05
-0.45856501996022414,-0.45856501996022414,1.0000273636539856,5.0184080532569063e-05
-0.45738540759484747,-0.45738540759484747,1.0000079797682473,5.016893412925549e-05
-0.45617918126663426,-0.45617918126663426,0.9999449652576489,5.0170545176392314e-05
-0.4549222131136048,-0.4549222131136048,1.0000077617565153,5.018886756391886e-05
-0.45364969191432464,-0.45364969191432464,0.9999670448647959,5.0183685889730365e-05
-0.45189209879463305,-0.45189209879463305,0.9999285566024847,5.0290954990843154e-05
-0.4511354830596247,-0.4511354830596247,1.00001801190773,5.0178043548213795e-05
-0.4495594028332562,-0.4495594028332562,0.9999714944131688,5.017664024992497e-05
-0.44721151987687335,-0.44721151987687335,0.9999761422585882,5.017480442792972e-05
-0.4454329291613249,-0.4454329291613249,1.0000272365356462,5.0164302278683586e-05
-0.4445864200541109,-0.4445864200541109,0.9999723737352489,5.0185221680982864e-05
-0.44312271073140436,-0.44312271073140436,1.0000120451043233,5.019473276996434e-05
-0.44234239652578256,-0.44234239652578256,0.9999839502151187,5.355388161125237e-05
-0.44087169268823345,-0.44087169268823345,0.9999849625158325,5.0183046800033836e-05
-0.4398755004374834,-0.4398755004374834,1.0000842223186794,5.0270720847246035e-05
-0.4384423709627299,-0.4384423709627299,1.0000260806655041,5.0176052629405e-05
-0.43727159506524915,-0.43727159506524915,0.9999254037307915,5.025507905425561e-05
-0.4355667641742912,-0.4355667641742912,1.000094537627098,5.017064957285838e-05
-0.4337786356409197,-0.4337786356409197,0.9999172082264283,5.016960838171102e-05
-0.4322406428342219,-0.4322406428342219,0.9998441654366541,5.017661506747273e-05
-0.4312996390945045,-0.4312996390945045,0.9999696737491917,5.891864626803731e-05
-0.42993390138362886,-0.42993390138362886,0.9999900892556468,5.0189535066114405e-05
-0.42891328665064066,-0.42891328665064066,1.0000856576439645,5.018714625760689e-05
-0.4272647464618785,-0.4272647464618785,0.9998990625884211,5.070236247768966e-05
-0.4263962161974632,-0.4263962161974632,1.0001341169797908,5.0220430957294445e-05
-0.42461822000695976,-0.42461822000695976,1.000058459582941,5.0171293039994876e-05
-0.4227855303674005,-0.4227855303674005,0.9998970778994497,5.017221799719112e-05
-0.42167392943883897,-0.42167392943883897,1.0000846420536262,5.0181275984087545e-05
-0.4201822954346426,-0.4201822954346426,0.9996711545360963,7.152810242588129e-05
-0.41900892220874086,-0.41900892220874086,0.999961057027343,5.018204882394616e-05
-0.41732173864365907,-0.41732173864365907,1.000077424105737,5.0181249014157404e-05
-0.4157229098120297,-0.4157229098120297,0.9999664514302996,5.018129636918993e-05
-0.4143509403998905,-0.4143509403998905,0.9999230987341825,5.018637948931184e-05
-0.412617764109018,-0.412617764109018,0.9999620699987986,5.0171510070783683e-05
-0.4111150589727913,-0.4111150589727913,1.0000852536101115,5.017742268057701e-05
-0.4097440387784445,-0.4097440387784445,1.0000917888979024,5.0170795588651446e-05
-0.40875420921147454,-0.40875420921147454,0.9999905651642139,5.018489352940545e-05
-0.40695143976263354,-0.40695143976263354,0.9999780448965307,5.017601400706022e-05
-0.40582248907594476,-0.40582248907594476,1.0000486168085516,5.018283812867242e-05
-0.4045813708704372,-0.4045813708704372,0.9999877798490477,5.018022917625798e-05
-0.40365312229696426,-0.40365312229696426,0.9999181076136304,5.2169687752339496e-05
-0.4020636489207391,-0.4020636489207391,0.9999464222591662,5.016895147065772e-05
-0.4002033871336607,-0.4002033871336607,0.9999906066564279,5.018233173775234e-05
-0.39881180448937814,-0.39881180448937814,0.9999986529721155,5.016558990956725e-05
-0.3976088259165408,-0.3976088259165408,0.9999433719318412,5.016497893265178e-05
-0.39648682112747335,-0.39648682112747335,1.0000158579510725,5.020830591368504e-05
-0.395247365328396,-0.395247365328396,0.9999955394652223,5.01805636041159e-05
-0.3936121240243665,-0.3936121240243665,0.9999015406632855,5.042607356076205e-05
-0.39291786095345743,-0.39291786095345743,1.0000072482466258,5.0184191997378905e-05
-0.39126556108676597,-0.39126556108676597,0.9999971127518806,5.0193298522044045e-05
-0.3903924875172379,-0.3903924875172379,1.000007949760084,5.0295884721262165e-05
-0.38828823124131306,-0.38828823124131306,1.0000720931292812,5.017262920306335e-05
-0.3865865130494058,-0.3865865130494058,0.9999506211354975,5.017404694849589e-05
-0.3855681105342228,-0.3855681105342228,1.0000420219438029,5.0180835555881555e-05
-0.38408800558900114,-0.38408800558900114,0.9998316655865477,5.5961685768902515e-05
-0.3830291386817407,-0.3830291386817407,0.999965236487537,5.018509515389696e-05
-0.3817656106148206,-0.3817656106148206,0.9999545438765081,5.0184564129233194e-05
-0.38029123151209204,-0.38029123151209204,0.9999037940641415,5.0412458413197e-05
-0.3794965763008804,-0.3794965763008804,0.9999017325004201,5.023022938822044e-05
-0.3775432184062083,-0.3775432184062083,0.9999699003390511,5.0170569371951e-05
-0.375809007211501,-0.375809007211501,1.000033788230121,5.016997624771349e-05
-0.374388742341398,-0.374388742341398,0.9999202344637791,5.017818476570334e-05
-0.37289462152475605,-0.37289462152475605,0.999883144745669,6.285915862419364e-05
-0.3717230840557022,-0.3717230840557022,0.9999611465178784,5.0180871719344546e-05
-0.370340465780464,-0.370340465780464,1.0000035462376844,5.018604701457687e-05
-0.36869402069278295,-0.36869402069278295,1.0000813110941598,5.128165429653061e-05
-0.3678254923252098,-0.3678254923252098,0.9999691059428137,5.019840139243213e-05
-0.366051054905256,-0.366051054905256,0.9999105637215593,5.0169353225134946e-05
-0.3642101500037825,-0.3642101500037825,0.9998575060271202,5.0168535231518026e-05
-0.3631020293556503,-0.3631020293556503,1.0000964156443504,5.018073785933035e-05
-0.3617761639303353,-0.3617761639303353,1.0000880997864878,5.017247930714958e-05
-0.36043775481011836,-0.36043775481011836,0.9999615317553875,5.018028209179795e-05
-0.3587444072494691,-0.3587444072494691,0.9999523223692997,5.017774543634032e-05
-0.35715554041889847,-0.35715554041889847,1.0000208015746703,5.0183242556064166e-05
-0.3557744623554754,-0.3557744623554754,1.0000119940120427,5.018587495939184e-05
-0.35404922307134257,-0.35404922307134257,1.0000651838106074,5.01741694260108e-05
-0.3525454395719862,-0.3525454395719862,1.000039588679875,5.017769443910051e-05
-0.3511716270018951,-0.3511716270018951,1.0000005259829492,5.017075984032164e-05
-0.350181561592035,-0.350181561592035,1.0000471071614092,5.0179571890936376e-05
-0.34870826357146145,-0.34870826357146145,0.9999203699916166,5.018421754568919e-05
-0.34741674500910447,-0.34741674500910447,0.9999848239083118,5.017487127687246e-05
-0.34598037098548956,-0.34598037098548956,1.0001436269165196,5.030670902338135e-05
-0.3448928759447881,-0.3448928759447881,0.9999938274568493,5.018469530746244e-05
-0.34327614887006347,-0.34327614887006347,0.9999576053607562,5.017261260565482e-05
-0.3410011838255741,-0.3410011838255741,1.0000214329106263,5.0173397411638986e-05
-0.33935686385884767,-0.33935686385884767,0.9998377805158732,5.015846262793103e-05
-0.33854524595444674,-0.33854524595444674,0.9999725331447274,5.018553502759898e-05
-0.336996638985147,-0.336996638985147,1.000000715159604,5.0187680343929325e-05
-0.3361034536734223,-0.3361034536734223,0.9999729856686498,5.375934145196531e-05
-0.3346007289852423,-0.3346007289852423,1.0000274492928396,5.0185575570749944e-05
-0.3333492632533307,-0.3333492632533307,0.999966017867159,5.028136767753961e-05
-0.3323077041466604,-0.3323077041466604,1.0000061493428773,5.025443067935844e-05
-0.3307010390461073,-0.3307010390461073,1.0001118974100147,5.017845385496085e-05
-0.3289490820869105,-0.3289490820869105,1.0000459494828071,5.016543168510128e-05
-0.3275569265126251,-0.3275569265126251,0.9999473898159918,5.0174932256017864e-05
-0.3260498114337679,-0.3260498114337679,0.9999256136310359,5.016965382689521e-05
-0.3252024088171311,-0.3252024088171311,0.9999526491462453,5.929691474801649e-05
-0.3233262481415295,-0.3233262481415295,1.0000150242281325,5.017592641487797e-05
-0.32205990133516027,-0.32205990133516027,1.0000563818129635,5.076285537618211e-05
-0.32101855319342576,-0.32101855319342576,0.999884317981653,5.020946784537788e-05
-0.319497386078001,-0.319497386078001,0.9999465178915574,5.017585909620043e-05
-0.31804146810391104,-0.31804146810391104,0.9999382241554411,5.017180181523803e-05
-0.3165406655789411,-0.3165406655789411,1.0000714166495122,5.0176978380491974e-05
-0.3150936827980331,-0.3150936827980331,0.9999618057592313,5.0175597491961045e-05
-0.3139616694606957,-0.3139616694606957,1.000035629842611,5.0185885166536065e-05
-0.3120298722213192,-0.3120298722213192,0.9999278782547144,5.018377417099226e-05
-0.3103132514275785,-0.3103132514275785,1.0000461853355682,5.0183148730693265e-05
-0.3092523751307453,-0.3092523751307453,0.9999083985230864,5.019018522171887e-05
-0.3074840124572802,-0.3074840124572802,1.0000047978507685,5.0168028670634075e-05
-0.3056349002443312,-0.3056349002443312,1.0000173773737038,5.017470762107698e-05
-0.3045302500846446,-0.3045302500846446,0.9999744951904772,5.017631609781502e-05
-0.30320241262379566,-0.30320241262379566,0.9999409052138049,5.0174461178307814e-05
-0.3018667175936571,-0.3018667175936571,0.9999974093750097,5.0180392277113784e-05
-0.30050841039628723,-0.30050841039628723,0.999988018431495,5.0184092762398416e-05
-0.2989740822558815,-0.2989740822558815,1.0000257650526656,5.0232059754016435e-05
-0.29834988483053165,-0.29834988483053165,0.9999978675449894,5.018088910702222e-05
-0.296413985289837,-0.296413985289837,1.000037107535571,5.01748351623284e-05
-0.2947446533056791,-0.2947446533056791,1.0000677498070285,5.0171100130299456e-05
-0.29324419908589333,-0.29324419908589333,1.0000264797701108,5.0178266007118696e-05
-0.29191262496460696,-0.29191262496460696,0.9999377028678478,5.0169183219006116e-05
-0.2909985270925972,-0.2909985270925972,0.999985247400937,5.020167023750084e-05
-0.28951178979405084,-0.28951178979405084,1.00004590764161,5.01763850757474e-05
-0.2884606225132302,-0.2884606225132302,0.9999910171105981,5.230263719395042e-05
-0.2871851104377129,-0.2871851104377129,1.0000602090388242,5.018628976125824e-05
-0.2857263601763407,-0.2857263601763407,0.9999570896890264,5.02061546327533e-05
-0.28492284830717834,-0.28492284830717834,0.9999892508978651,5.0285685274184305e-05
-0.28299553063043276,-0.28299553063043276,1.0000754630903081,5.043886971209041e-05
-0.2813133498246316,-0.2813133498246316,0.9999713773749012,5.016904546847072e-05
-0.28015957476673065,-0.28015957476673065,0.9999575287795495,5.0181717508868413e-05
-0.27869139154354344,-0.27869139154354344,0.9999949679665576,5.0184279584674686e-05
-0.27790394179028227,-0.27790394179028227,0.9999347939284379,5.62540218401953e-05
-0.2761526169684657,-0.2761526169684657,0.999958779588759,5.017991343527465e-05
-0.27509079386218216,-0.27509079386218216,1.000115020490296,5.044637784927393e-05
-0.27386303461535133,-0.27386303461535133,0.9999594174192531,5.022620089926905e-05
-0.2725004060885112,-0.2725004060885112,0.9999546276735227,5.017440927480183e-05
-0.2707534794601088,-0.2707534794601088,0.999943930542195,5.017330559270334e-05
-0.2692536129070504,-0.2692536129070504,0.9999239912216478,5.017579204009464e-05
-0.26780975251676864,-0.26780975251676864,0.9999253409932611,5.017501248112717e-05
-0.26680986891078645,-0.26680986891078645,0.9998615229213966,6.323168294200589e-05
-0.26510220287018454,-0.26510220287018454,1.0000335771064206,5.017913339401674e-05
-0.26380616536043816,-0.26380616536043816,1.0000624277516226,5.136206597338297e-05
-0.2625777466237196,-0.2625777466237196,1.0000411360799586,5.018782203344369e-05
-0.2612113578339631,-0.2612113578339631,0.9999819185264865,5.018914283066785e-05
-0.2594726909737801,-0.2594726909737801,0.999987581629045,5.0171871798681305e-05
-0.2579708373436006,-0.2579708373436006,1.0001233816224642,5.017674866526037e-05
-0.25660660580615513,-0.25660660580615513,0.9999089335274098,5.0167956539668067e-05
-0.2556078696034092,-0.2556078696034092,0.9998792535709328,5.018154889501577e-05
-0.25381082292587964,-0.25381082292587964,0.9999672322959035,5.0175585225020564e-05
-0.2520862275880063,-0.2520862275880063,1.0001171449983532,5.019247776148578e-05
-0.2510660412888683,-0.2510660412888683,0.9999685325720126,5.018316077847263e-05
-0.24912548911452176,-0.24912548911452176,0.9999801386295605,5.017535181850958e-05
-0.2474331288394751,-0.2474331288394751,1.0001081329193038,5.017607086777358e-05
-0.24622664605412864,-0.24622664605412864,1.0000782005325797,5.017485695603993e-05
-0.24479086276260204,-0.24479086276260204,0.9999550600127481,5.016510093813818e-05
-0.24397376484848793,-0.24397376484848793,0.9999863249551473,5.018606243755202e-05
-0.24222418104181997,-0.24222418104181997,1.0000466627544218,5.0177869902420663e-05
-0.24080684734726673,-0.24080684734726673,1.0000788561886627,5.031877715847425e-05
-0.23989501757241669,-0.23989501757241669,0.999971055662814,5.0183236147508026e-05
-0.23835054923329152,-0.23835054923329152,0.9999790144536688,5.017337230422559e-05
-0.23669143292790978,-0.23669143292790978,1.0000594478516434,5.0178587251522116e-05
-0.23474708154026303,-0.23474708154026303,1.0000273075767914,5.0174229622521136e-05
-0.2332664054585621,-0.2332664054585621,0.9999438766316466,5.016849479358592e-05
-0.23205887205258477,-0.23205887205258477,0.9999976445363042,5.019570429694698e-05
-0.23086694300363889,-0.23086694300363889,1.0000761037882655,5.3969175356570076e-05
-0.2295078251612722,-0.2295078251612722,1.0000428021077776,5.019206121529173e-05
-0.2284873751021223,-0.2284873751021223,0.9999430267527698,5.018278838480844e-05
-0.2268365731142694,-0.2268365731142694,1.0000633502461869,5.028055571054265e-05
-0.22596529667862342,-0.22596529667862342,0.9999792967388087,5.0252247908102805e-05
-0.2241826847573975,-0.2241826847573975,0.9999278185594564,5.016806025579138e-05
-0.22230299295115402,-0.22230299295115402,0.9999861598033093,5.017649940576578e-05
-0.22101803475816267,-0.22101803475816267,1.0000295104634218,5.0170595897451096e-05
-0.21975000806778552,-0.21975000806778552,1.000086637286873,5.9672118982589786e-05
-0.21858020528161431,-0.21858020528161431,0.9998971995901458,5.018143262566085e-05
-0.21719871208406402,-0.21719871208406402,0.9999235172497792,5.0184692865009974e-05
-0.21555043154803571,-0.21555043154803571,0.9999883035200703,5.0792060265840886e-05
-0.21468222567564227,-0.21468222567564227,1.000072864217264,5.021712221731382e-05
-0.2129047769049066,-0.2129047769049066,1.0000279051168164,5.016913377602119e-05
-0.21107044401869643,-0.21107044401869643,1.0000038013147758,5.017453469603468e-05
-0.20995953957171878,-0.20995953957171878,0.9999089972948019,5.0176777912329654e-05
-0.20863525549357292,-0.20863525549357292,0.999920944476964,5.017281126257489e-05
-0.20729467799683335,-0.20729467799683335,1.000011664221519,5.0181390242167614e-05
-0.2056062618881697,-0.2056062618881697,0.9998996073369325,5.018024714124222e-05
-0.20400942568376196,-0.20400942568376196,0.9999782004322448,5.018195898562975e-05
-0.20263563570624682,-0.20263563570624682,1.0000719886468055,5.0188601977607954e-05
-0.20090404545189813,-0.20090404545189813,1.0000391032865665,5.017448334789786e-05
-0.199401125949953,-0.199401125949953,1.000016789094063,5.017426257150196e-05
-0.19802926569391274,-0.19802926569391274,1.000020874564571,5.017656053634416e-05
-0.19703995057134308,-0.19703995057134308,0.9999095310526476,5.017786052783998e-05
-0.19556680956447964,-0.19556680956447964,0.9999894546984386,5.018546709095703e-05
-0.1944486148757278,-0.1944486148757278,1.000068590494521,5.017951436515738e-05
-0.19289126784206018,-0.19289126784206018,1.0000156253234673,5.024114413213082e-05
-0.1921053201185714,-0.1921053201185714,0.9999488409870352,5.018779550624565e-05
-0.19018388212207354,-0.19018388212207354,0.999902807433337,5.016640251179182e-05
-0.18827595336260855,-0.18827595336260855,0.9999609985854713,5.0182611935664665e-05
-0.18674250415642746,-0.18674250415642746,1.0000049982815165,5.017193160874397e-05
-0.18575140751490835,-0.18575140751490835,1.0000970856416502,5.0179662112935316e-05
-0.18444726771267597,-0.18444726771267597,0.9999790508715751,5.020033467674748e-05
-0.183468438708951,-0.183468438708951,0.9999717821522021,5.2421211584106184e-05
-0.18187348369756365,-0.18187348369756365,1.0000183044594526,5.0186485285900756e-05
-0.18087414918045397,-0.18087414918045397,1.00007746818029,5.0222179565147177e-05
-0.17944313797415817,-0.17944313797415817,1.000088488308028,5.017798166458585e-05
-0.17827358284048386,-0.17827358284048386,1.0001312924216177,5.0281383897552326e-05
-0.1761778203115682,-0.1761778203115682,0.9999948318687318,5.017365980709729e-05
-0.17469729117074168,-0.17469729117074168,0.9999924407192722,5.0169642993955254e-05
-0.1734881309712364,-0.1734881309712364,0.9999458725007259,5.018405208453998e-05
-0.17229793391306886,-0.17229793391306886,1.0000143025648809,5.655921396273841e-05
-0.17093488205428004,-0.17093488205428004,0.9998839680057101,5.0186689987304526e-05
-0.16991433716393659,-0.16991433716393659,0.9999639928526353,5.0182139883045226e-05
-0.16826487561775139,-0.16826487561775139,1.0000228817937016,5.046045210905179e-05
-0.167395215601573,-0.167395215601573,1.0000111700742376,5.022986316395318e-05
-0.16561530968465377,-0.16561530968465377,1.00004922556267,5.016900858232641e-05
-0.16378837405354715,-0.16378837405354715,0.999950279723171,5.0170453782909824e-05
-0.16267433075045118,-0.16267433075045118,1.0000277910175062,5.0181978410074184e-05
-0.16118077311039086,-0.16118077311039086,1.0000408881506444,6.357462092303084e-05
-0.1600088167004287,-0.1600088167004287,0.9999150259344505,5.017937943256626e-05
