time,time,flux,flux_err
-0.49993151800056995,-0.49993151800056995,0.9999498725118108,0.00026067100474274827
-0.4997992299807568,-0.4997992299807568,0.9994857036790091,0.000279557838729407
-0.499693809976452,-0.499693809976452,0.9999337302240463,0.00024223144036099412
-0.4996536114194896,-0.4996536114194896,0.9998953136617313,0.00025443315261224465
-0.4995133654912934,-0.4995133654912934,1.0000065804863856,0.0002611029470210364
-0.4993819373106817,-0.4993819373106817,1.0000599036982791,0.00024020354029106534
-0.49927570622821804,-0.49927570622821804,1.0001897850796335,0.00025133234748305454
-0.49912575698981526,-0.49912575698981526,1.0001819212726606,0.000260381047495468
-0.4990256486227736,-0.4990256486227736,1.0001702150671903,0.00023673425994773646
-0.4989189280720893,-0.4989189280720893,0.9999184402979286,0.00023591355140256302
-0.49881749907799533,-0.49881749907799533,1.0000735829329694,0.00025889719718818566
-0.49862970047106503,-0.49862970047106503,1.0001585640157633,0.00025393859986317367
-0.4984484756307211,-0.4984484756307211,1.0002989973665595,0.00024765608073560496
-0.4983239637949737,-0.4983239637949737,0.9998294315031062,0.0002462059233248184
-0.498216767582926,-0.498216767582926,0.9998478604275046,0.00023173269116917973
-0.4981126768630929,-0.4981126768630929,0.999793624046527,0.0002812842786408561
-0.49797557638958095,-0.49797557638958095,1.0002537125796458,0.0002384298512518765
-0.4979035819094861,-0.4979035819094861,1.0001976788895455,0.00024129381847491326
-0.4977528709860053,-0.4977528709860053,0.9999696868456708,0.0002521987581673177
-0.49756373101845386,-0.49756373101845386,1.0000855408079978,0.00023770049817143372
-0.4974681284831604,-0.4974681284831604,1.000457367906845,0.00025035174204572684
-0.49738301821053027,-0.49738301821053027,0.9996706633654144,0.0002538677982780929
-0.49728426354122346,-0.49728426354122346,1.000420813967676,0.00026101642383086383
-0.4971363169664983,-0.4971363169664983,0.9998835778598301,0.0002545560428607222
-0.49696748415008185,-0.49696748415008185,0.9999630509459798,0.00025632081136232724
-0.49683259550656655,-0.49683259550656655,1.0001491228666874,0.00025267898455489973
-0.4967731175245717,-0.4967731175245717,0.9997478525779631,0.00024256842641911638
-0.49663947451626883,-0.49663947451626883,0.9998282470552529,0.00023446964481888547
-0.4965128664043732,-0.4965128664043732,0.9996600493649483,0.00022978571990466006
-0.49642334890086204,-0.49642334890086204,0.9996650231046008,0.00024069708464239067
-0.4963164227781817,-0.4963164227781817,1.000286035424366,0.00026226714285068023
-0.4962025542976335,-0.4962025542976335,0.9996663579892081,0.00024054717565137143
-0.4961079661297845,-0.4961079661297845,0.9999835398930973,0.00024516120972402876
-0.49600136518711224,-0.49600136518711224,0.9995489453359067,0.0002623110737169192
-0.4958482303452911,-0.4958482303452911,0.99998387262102,0.00024841728882074436
-0.49563494768808597,-0.49563494768808597,0.9998267512662913,0.0002429174895524909
-0.4954132085607853,-0.4954132085607853,1.0003193243190145,0.0002539491827137694
-0.49529682129796126,-0.49529682129796126,0.9997462908798541,0.000240483740383695
-0.4951458142895717,-0.4951458142895717,0.9998992646723615,0.00024394393745385442
-0.4950490346265724,-0.4950490346265724,0.9996449266140605,0.00023660498151095933
-0.4949610798881622,-0.4949610798881622,0.9995774834133104,0.00024798636417667954
-0.49478552469227,-0.49478552469227,0.9999165744111753,0.00026116667298440503
-0.49462460266659036,-0.49462460266659036,1.0001579480762828,0.00025495912704789415
-0.49450898259819953,-0.49450898259819953,1.0001109782678266,0.0002380730691336643
-0.4944248958694516,-0.4944248958694516,1.0002990146969397,0.000267365065048824
-0.4943005944311153,-0.4943005944311153,1.0000899890463375,0.00023398087548678735
-0.4942117340833647,-0.4942117340833647,1.000068563871899,0.0002390564916854748
-0.49402258052432446,-0.49402258052432446,0.9998194317659967,0.00024257602201477107
-0.4939164122537477,-0.4939164122537477,0.9996536672000012,0.0002474109701818391
-0.4938488283922197,-0.4938488283922197,1.0000126890232441,0.0002507910568058429
-0.4935941498260945,-0.4935941498260945,1.0003629581383884,0.00023997554833101565
-0.4934439003409352,-0.4934439003409352,1.0001045010622582,0.00023698195479389972
-0.49328011785109993,-0.49328011785109993,1.0002377810770982,0.00023741509401793825
-0.4931525169260567,-0.4931525169260567,1.0000488083824843,0.00026189748045554376
-0.4929643181909341,-0.4929643181909341,1.0001824245686186,0.0002704592450644385
-0.49284429831895976,-0.49284429831895976,0.9999177735769231,0.0002346070577313055
-0.4927356386964675,-0.4927356386964675,1.0003188144350523,0.00023179823082013505
-0.492679491097806,-0.492679491097806,1.0004618597869859,0.00022873553407374105
-0.4925987027731026,-0.4925987027731026,0.9999577563725829,0.00024931816678863537
-0.4925468218745664,-0.4925468218745664,0.9999701225011769,0.0002567036214546584
-0.4924255115998676,-0.4924255115998676,1.0003203310972704,0.00024120214620973433
-0.4923153683746932,-0.4923153683746932,1.0001991135840171,0.0002518985841975017
-0.4921859774825862,-0.4921859774825862,0.9999941149443206,0.00024102584420245704
-0.49211080801615026,-0.49211080801615026,0.9996655839162439,0.00024154535934943228
-0.49201251076883634,-0.49201251076883634,1.0001439432939596,0.00021905010935652848
-0.49192851246043573,-0.49192851246043573,1.0002522173325947,0.0002493930723934998
-0.4918410616228357,-0.4918410616228357,1.0001176278047215,0.0002543763575208922
-0.49173015501291956,-0.49173015501291956,1.0001030003113982,0.0002311387604588688
-0.4916296289913589,-0.4916296289913589,0.9999502522969512,0.00024518629928780547
-0.4913470032857731,-0.4913470032857731,0.9998001034139172,0.0002454240187451372
-0.4911679412733065,-0.4911679412733065,1.000170424028237,0.0002467072652102062
-0.4910393406113144,-0.4910393406113144,1.0004019131181832,0.000270128605097979
-0.49090771839837544,-0.49090771839837544,1.0001103861041254,0.00025166904219512385
-0.49084045910276475,-0.49084045910276475,1.0000986087457187,0.0002606253855452281
-0.49065496600815095,-0.49065496600815095,0.9997741813196189,0.00023906772343303302
-0.4905126344878227,-0.4905126344878227,1.0003105601052247,0.0002402925381128696
-0.4903069476305973,-0.4903069476305973,0.9998328740046599,0.00024018620368578504
-0.49019899932609406,-0.49019899932609406,0.9998721608895039,0.00025805268607867357
-0.49004965626227204,-0.49004965626227204,1.0002908034718048,0.0002714524659712486
-0.4898938731697854,-0.4898938731697854,1.0004287375392833,0.00024544225872624075
-0.4897944707860006,-0.4897944707860006,1.0002737815420177,0.00024924469613515725
-0.4896849596698303,-0.4896849596698303,0.999818588044401,0.00023973723383188556
-0.48953910163545516,-0.48953910163545516,0.9999940224957522,0.00024384156343748627
-0.48941979303199334,-0.48941979303199334,1.0000764091025016,0.00025110634192394913
-0.48926177563262174,-0.48926177563262174,0.9996696001547667,0.0002443910378644984
-0.4891559423820581,-0.4891559423820581,1.0001532283074481,0.0002482131916918003
-0.48902511871419846,-0.48902511871419846,0.9999758030556943,0.00025752977712719007
-0.48893597918213344,-0.48893597918213344,0.9998057257422763,0.00022960055305158716
-0.48887024948489854,-0.48887024948489854,0.9999759724847946,0.0002666884712361079
-0.4887908331147628,-0.4887908331147628,0.9998933433910354,0.00025835015355989583
-0.48864060502673967,-0.48864060502673967,1.000058430787677,0.00026298321363029385
-0.4884803282446228,-0.4884803282446228,0.9999268808840969,0.00023681534268420187
-0.4883285126823466,-0.4883285126823466,0.9997952255871609,0.000246173120547489
-0.488230791859678,-0.488230791859678,0.9997778953814034,0.00023122257223591033
-0.48809558173816187,-0.48809558173816187,0.9998152266055393,0.0002463782089352094
-0.48800929241115226,-0.48800929241115226,0.9996802091343554,0.00023993314731298883
-0.48789089943747965,-0.48789089943747965,0.999975600863956,0.00023365314459942253
-0.4876912664389238,-0.4876912664389238,0.9998982309104691,0.00024404808658185181
-0.48761562228319233,-0.48761562228319233,1.0001152433728335,0.00025371498946541107
-0.4875121339748148,-0.4875121339748148,0.9997366229251925,0.00023207650921656928
-0.4874116098508239,-0.4874116098508239,1.0000329830602817,0.0002543657088304302
-0.4873090123932343,-0.4873090123932343,1.0002333265156136,0.0002551300224745158
-0.4872081548179267,-0.4872081548179267,0.9995627742628164,0.0002435488575070456
-0.48712343379738743,-0.48712343379738743,1.0002316286176596,0.00024970197312428803
-0.48707596949825527,-0.48707596949825527,1.000133043607251,0.00024560977342454103
-0.4869619422330288,-0.4869619422330288,0.9999886873620729,0.0002450619194479229
-0.4867946960381232,-0.4867946960381232,1.0000007256448065,0.0002519587602810568
-0.48667010265635324,-0.48667010265635324,0.9999353471547276,0.0002484837030051418
-0.4866071515483782,-0.4866071515483782,0.9998107246889802,0.00024516786326783755
-0.4865356799156871,-0.4865356799156871,1.000134260014846,0.0002317193956338781
-0.48639785451232453,-0.48639785451232453,0.999991673389907,0.00024360063154126222
-0.4862811264465563,-0.4862811264465563,0.9999223269974667,0.0002507551892830398
-0.48607164263084995,-0.48607164263084995,0.9999753430634948,0.00024342359047947482
-0.4859539004857652,-0.4859539004857652,1.000357644157616,0.0002391037197238245
-0.48583908811269794,-0.48583908811269794,1.0001472097745359,0.00025574883412598153
-0.4857718758576084,-0.4857718758576084,1.0002650882751012,0.00023276245618904554
-0.4856858056940837,-0.4856858056940837,1.0002551667321251,0.00023563048587931586
-0.48558687171607745,-0.48558687171607745,0.9997594936861536,0.000243085173478247
-0.4854824254725827,-0.4854824254725827,1.0000041895159926,0.00024480660073184564
-0.48534616125398317,-0.48534616125398317,0.9998988772361578,0.00024998109067476363
-0.48519332572468554,-0.48519332572468554,0.9999694105640072,0.0002445270537682587
-0.48511168444529174,-0.48511168444529174,1.0001158760557467,0.00024964613169869705
-0.4849980646657059,-0.4849980646657059,0.9998010373894312,0.00022948036314510216
-0.4848427788034314,-0.4848427788034314,0.9995795464961539,0.0002606474484159836
-0.4846434280538233,-0.4846434280538233,0.9997646518527219,0.0002316208447195329
-0.4845304636954097,-0.4845304636954097,0.999982221337454,0.0002547119411124225
-0.4844089168473147,-0.4844089168473147,1.0002807310227593,0.0002432486185933986
-0.48426507106632927,-0.48426507106632927,0.9999483858585485,0.0002575983153875471
-0.4840949910401832,-0.4840949910401832,1.0002073306448673,0.00025132604160252623
-0.4838539108110126,-0.4838539108110126,1.0001862300291382,0.00025387271652085235
-0.48379729013249745,-0.48379729013249745,1.0003432569335375,0.00024415080617930013
-0.4836595537257381,-0.4836595537257381,0.9997131983489048,0.0002643466520022389
-0.4835724200413097,-0.4835724200413097,0.9999165379764774,0.0002410392256196519
-0.48346320282726085,-0.48346320282726085,1.0001423306719295,0.00025516454269345425
-0.48334220914985054,-0.48334220914985054,1.0001553656581863,0.0002446561575482749
-0.48324024788453246,-0.48324024788453246,0.9999969671226863,0.0002289286577713295
-0.4830822781077586,-0.4830822781077586,1.0001709962348588,0.00022993407395758268
-0.4829391262552235,-0.4829391262552235,1.0000335070078799,0.00024162629135793164
-0.48279293142841195,-0.48279293142841195,0.999933929703009,0.00025868611233132767
-0.4826793793967227,-0.4826793793967227,0.9997676683160128,0.0002600784866907457
-0.48256103447056375,-0.48256103447056375,0.9997947104385616,0.00023687117281681328
-0.48242785480979367,-0.48242785480979367,0.999428075250578,0.00025666284445227124
-0.48234600709110964,-0.48234600709110964,0.9998906901198417,0.0002442478872219011
-0.4822207807272207,-0.4822207807272207,0.9998226605225332,0.0002536207071765561
-0.48213229659595525,-0.48213229659595525,0.9996949794273308,0.00023920806905511775
-0.48205510950356256,-0.48205510950356256,0.9997578965322432,0.0002564231039122502
-0.481973353002104,-0.481973353002104,0.9999561843477413,0.0002461733476252534
-0.48190413146512584,-0.48190413146512584,0.9999785435228878,0.0002524109514798924
-0.48182462811237203,-0.48182462811237203,0.9997870529355719,0.00022901756905430878
-0.4816516808088636,-0.4816516808088636,0.9993998694078126,0.00026432979646790486
-0.4815537406509975,-0.4815537406509975,0.999637293832872,0.00026110041880053934
-0.48139721454354,-0.48139721454354,0.9999577389620218,0.00024639155367094746
-0.4812836258817697,-0.4812836258817697,0.9997345419192316,0.00023483462107563163
-0.4811831172264647,-0.4811831172264647,1.0000989866899097,0.0002484944692100636
-0.4809892015182413,-0.4809892015182413,1.0001481347102472,0.0002537240099812052
-0.48086306362820325,-0.48086306362820325,0.9998108019561613,0.00023872806062184712
-0.48072171031089966,-0.48072171031089966,1.000269180308195,0.0002465738918831125
-0.4806591174914502,-0.4806591174914502,0.9998056398047194,0.00024241792154082635
-0.48057120564044453,-0.48057120564044453,0.9998537073372489,0.000262703929609852
-0.48048727530403995,-0.48048727530403995,1.000700218529462,0.00024877391993236275
-0.4803588351380313,-0.4803588351380313,0.9996087201266507,0.00024385729976409768
-0.4802169606118696,-0.4802169606118696,0.9998498222240387,0.0002626807766681893
-0.4800854781147791,-0.4800854781147791,0.9997683677643708,0.0002365093302129523
-0.4799712531588739,-0.4799712531588739,0.9997443449443691,0.00024248105378911304
-0.47986568217747844,-0.47986568217747844,0.9998386335639168,0.0002543498184165136
-0.4798298130830517,-0.4798298130830517,0.9999939079011273,0.0002508250257641195
-0.4797048253531102,-0.4797048253531102,0.9999037569605355,0.0002396794963686611
-0.47955167418404016,-0.47955167418404016,1.000032757213775,0.0002512709591800265
-0.4794193854642799,-0.4794193854642799,1.0005234868333404,0.0003165948981977257
-0.4793139470886672,-0.4793139470886672,0.9999901607493955,0.0002460536010559006
-0.4792264212446753,-0.4792264212446753,1.000403367850651,0.000244325335029677
-0.4791216469253413,-0.4791216469253413,0.9999958271846368,0.0002246565113219317
-0.4788752298394684,-0.4788752298394684,1.0002807413735206,0.0002285796009787651
-0.47875790286925624,-0.47875790286925624,1.000092505307812,0.0002341806772286087
-0.47863678739522586,-0.47863678739522586,0.9998120521702021,0.0002565764065454629
-0.4785138517152518,-0.4785138517152518,1.0000280925164513,0.00024164907165582058
-0.4784327859786572,-0.4784327859786572,0.9999835424058215,0.0002614157555985052
-0.4783167504472658,-0.4783167504472658,0.9996377345849974,0.000235737431584072
-0.4782306446344592,-0.4782306446344592,0.9996876836459261,0.0002459423198808207
-0.4781403715140186,-0.4781403715140186,1.0002602784577885,0.00023574498746112057
-0.4779275629931362,-0.4779275629931362,0.9999748345904601,0.0002455469816359564
-0.4778505363938166,-0.4778505363938166,1.0001720447325695,0.0002640214970887196
-0.4776780850690557,-0.4776780850690557,1.0000158109398212,0.00024996771777399
-0.47753996123501563,-0.47753996123501563,0.9995745576983399,0.0002512900836484329
-0.47738438337401023,-0.47738438337401023,1.0002578422996333,0.00023248049280924493
-0.47722183853329625,-0.47722183853329625,0.9999408310529667,0.0002551689508486222
-0.4770836297015194,-0.4770836297015194,1.0001739005911383,0.00025749197644884744
-0.47698893066844905,-0.47698893066844905,1.0000086696133224,0.0002574021380846078
-0.4768197008146672,-0.4768197008146672,0.9999246234554191,0.00025021352084069414
-0.47672905716462993,-0.47672905716462993,0.9999469094773279,0.00023953388204388262
-0.47665328829025383,-0.47665328829025383,1.0000484625580714,0.00024151750585347373
-0.47656323811679613,-0.47656323811679613,1.000295105250969,0.0002298788416961657
-0.4764872180210659,-0.4764872180210659,0.9999999921583596,0.0002316647103293875
-0.4764097984880209,-0.4764097984880209,1.0001893817647292,0.00024637131986787405
-0.47635603852104397,-0.47635603852104397,1.0001469297128633,0.00023913521540152677
-0.47615797966427637,-0.47615797966427637,1.0003487802463522,0.00023095707105528197
-0.4759933978522895,-0.4759933978522895,1.0002025756151167,0.0002536805225947775
-0.47577678569359705,-0.47577678569359705,1.0001173863884707,0.00024301514646683794
-0.4756708910135785,-0.4756708910135785,1.0001503436552823,0.00022887710509256562
-0.47558831074275076,-0.47558831074275076,0.9996447941739953,0.00024620918455604764
-0.4754982534534065,-0.4754982534534065,1.0000084646631309,0.00026403647501393323
-0.47535248029744254,-0.47535248029744254,0.9999989989630578,0.0002644501736719668
-0.4752327685040655,-0.4752327685040655,0.9997470362043014,0.00025126878523764684
-0.475107789968024,-0.475107789968024,1.0001881139914641,0.0002435555532869415
-0.4750051151844673,-0.4750051151844673,0.999831533934638,0.00024940922069231026
-0.47494139897753485,-0.47494139897753485,1.0001115562123033,0.00025435564252570956
-0.4749065655109007,-0.4749065655109007,1.0000192191830661,0.0002547117871099246
-0.4747313288069563,-0.4747313288069563,0.999794519094578,0.0002558657061094647
-0.4746242142515257,-0.4746242142515257,1.0001295304372126,0.0002427759865474762
-0.4744993007683661,-0.4744993007683661,0.9999380394512803,0.00025729319073953394
-0.47435490770149047,-0.47435490770149047,0.999743921110683,0.00023540176598185088
-0.47424930215929634,-0.47424930215929634,1.0000789864535773,0.0002407557821377007
-0.47415507297264414,-0.47415507297264414,1.0002230195112873,0.0002423300024929602
-0.47402517752198037,-0.47402517752198037,1.0001808688678318,0.0002554178708660778
-0.4738060826843139,-0.4738060826843139,0.9998870965588926,0.0002414164565365603
-0.4736825030471664,-0.4736825030471664,0.9999415692466085,0.0002455363828632088
-0.4736027080885833,-0.4736027080885833,1.0000479917048097,0.0002566183260363364
-0.47350168535194825,-0.47350168535194825,0.9999791536485946,0.0002352827186939415
-0.4734024610137567,-0.4734024610137567,1.000180986258338,0.0002629133015051822
-0.4732557039329549,-0.4732557039329549,1.000062126973384,0.0002582351172087928
-0.473167623594054,-0.473167623594054,0.9997095744817432,0.000238050084759162
-0.47299156683147886,-0.47299156683147886,0.9998982539290159,0.00025516716322617026
-0.4728011411847547,-0.4728011411847547,1.0003121961200216,0.00023838490849526324
-0.47270880137220955,-0.47270880137220955,1.000175107385044,0.00025860383713225907
-0.47264032418606805,-0.47264032418606805,0.99990283571078,0.0002423359391255897
-0.4725504901842214,-0.4725504901842214,0.9995898261519258,0.0002608182871588539
-0.47243839359434786,-0.47243839359434786,1.0002287751993197,0.0002355412485385335
-0.4723189583979547,-0.4723189583979547,1.0000157132256116,0.00026229119838804677
-0.47216358231089545,-0.47216358231089545,0.9999061998461908,0.0002408614787594877
-0.47205925328307785,-0.47205925328307785,0.9999714653666409,0.00025596546204398606
-0.47196071430516895,-0.47196071430516895,1.0000542006658715,0.00024030716210010484
-0.47182975547912065,-0.47182975547912065,1.0001466137550454,0.0002364041065170114
-0.4716823353111977,-0.4716823353111977,1.0002676820490572,0.000231161477254056
-0.4715414968348341,-0.4715414968348341,0.999755785737724,0.0002664379788350361
-0.4714423854951747,-0.4714423854951747,0.9995404833531787,0.00024304537446492757
-0.47136239866667895,-0.47136239866667895,1.000015311324646,0.0002514253594838005
-0.4712321239087032,-0.4712321239087032,1.0001477899045679,0.00025529929677764907
-0.4711081453773659,-0.4711081453773659,0.9998849689692394,0.00023944446846496935
-0.47093655733042394,-0.47093655733042394,1.0001650072401482,0.0002473593329450567
-0.470734894569614,-0.470734894569614,0.9998161429647912,0.00023338249733682517
-0.47060706113989,-0.47060706113989,0.9998292500720456,0.0002546036704634622
-0.47043996274878735,-0.47043996274878735,1.0001315245758782,0.0002440561104032745
-0.4703242978081107,-0.4703242978081107,1.0001805732883553,0.00023261005539652437
