time,time,flux,flux_err
-0.49912819392170604,-0.49912819392170604,0.9999416276236447,0.0001487743833250391
-0.49735386640041196,-0.49735386640041196,1.0000804338559768,0.00014878783559411744
-0.4955322234134485,-0.4955322234134485,1.0000120067557445,0.0001487887115752668
-0.4938626790035528,-0.4938626790035528,0.9998835834731695,0.00013589697226214903
-0.49235688490794016,-0.49235688490794016,1.0000299088414384,0.00013562615170228265
-0.4908986487273239,-0.4908986487273239,1.0000014832568425,0.0001359613919169575
-0.4893771684756928,-0.4893771684756928,0.9999154644188447,0.00013591352830936472
-0.48792106803905994,-0.48792106803905994,0.9999787906654127,0.00013565023109269494
-0.4864060606786154,-0.4864060606786154,1.000070946719932,0.00013599720509877892
-0.4848703661298771,-0.4848703661298771,0.9999348294125786,0.0001359339215918699
-0.48334330488739286,-0.48334330488739286,0.9999191713548582,0.00013567012036296925
-0.4816683407819312,-0.4816683407819312,0.9999375643464404,0.00013567372529045028
-0.4801107598034321,-0.4801107598034321,0.9999363003320447,0.00013598968584320638
-0.47862360042623775,-0.47862360042623775,0.9999716893097382,0.0001356735407164969
-0.4771697669797447,-0.4771697669797447,1.0000002221147775,0.00013592368940690928
-0.4756749506751987,-0.4756749506751987,1.0001041760007756,0.00013597617285869348
-0.47418778408563184,-0.47418778408563184,0.9999663123074471,0.00013563155721243056
-0.4727197438018834,-0.4727197438018834,1.000045424634957,0.00013587660832987733
-0.47109719722495813,-0.47109719722495813,0.9999557011534741,0.00013589643649671257
-0.4696466027140218,-0.4696466027140218,0.9999404773271225,0.00013580763109665312
-0.46819055818008337,-0.46819055818008337,0.9999815300389606,0.00013558206674434622
-0.46662590177232915,-0.46662590177232915,1.0000210886281016,0.0001358674735652074
-0.46513980097972196,-0.46513980097972196,1.000078242383102,0.00013577579795920854
-0.46371925563164496,-0.46371925563164496,1.000108643607491,0.00013558776161434245
-0.46211526504350786,-0.46211526504350786,0.9999223279451661,0.0001355810869801797
-0.4606641758973353,-0.4606641758973353,1.0000407383951828,0.00013583707202402065
-0.459213534200012,-0.459213534200012,0.9999641730514905,0.00013578133232285534
-0.4576510600469419,-0.4576510600469419,1.000168899912582,0.0001356290474693346
-0.45622836737590544,-0.45622836737590544,0.9997224709533683,0.00013581073570797551
-0.45477770600688816,-0.45477770600688816,1.0000848639995632,0.0001358085411254705
-0.4532152445034626,-0.4532152445034626,1.0000125348023001,0.00013561857322684373
-0.4517925589829531,-0.4517925589829531,1.0000646698230402,0.00013586424142074264
-0.4503418779565095,-0.4503418779565095,1.0000330411694465,0.00013580423689725198
-0.44877942912892765,-0.44877942912892765,0.9998803455388992,0.00013560839138091933
-0.44735675071374315,-0.44735675071374315,1.0000386575787492,0.00013581393897681265
-0.4458563687706828,-0.4458563687706828,1.0000168954770123,0.00013578919552321932
-0.44430812731339986,-0.44430812731339986,1.000285352991562,0.00013560820288371423
-0.4428499693626463,-0.4428499693626463,1.000002708267607,0.00013583444352185302
-0.44139924900704275,-0.44139924900704275,0.9999996080389313,0.00013576720036310403
-0.4398652149438306,-0.4398652149438306,1.0000410409462177,0.00013558720918443337
-0.43834318813288176,-0.43834318813288176,0.9999341304454408,0.00013581644308024716
-0.43689244811751565,-0.43689244811751565,1.0000453581112594,0.00013579986614623463
-0.43540101078249904,-0.43540101078249904,0.9999433210442433,0.000135605380610433
-0.4339073802586654,-0.4339073802586654,1.000179514572873,0.00013585120493868677
-0.4324566205787391,-0.4324566205787391,0.9999595681639984,0.000135796915401981
-0.43096519606232847,-0.43096519606232847,0.9999365116509699,0.00013560654548051422
-0.42947157250342227,-0.42947157250342227,0.9999682650900172,0.00013582701674553317
-0.42800659852160267,-0.42800659852160267,1.0000624408199243,0.00013579138302034923
-0.4264938948987833,-0.4264938948987833,0.9999868712696808,0.0001355933730873112
-0.42496479165442336,-0.42496479165442336,0.999970112122794,0.00013582286861567297
-0.42351399265486406,-0.42351399265486406,1.000064604759538,0.0001358128513329183
-0.4220580805093846,-0.4220580805093846,1.0000920515340055,0.00013560100598548466
-0.4204934972725766,-0.4204934972725766,0.9998695094592644,0.0001358282421878182
-0.41900719172248274,-0.41900719172248274,1.000157830851781,0.00013580910071521663
-0.41748741612314005,-0.41748741612314005,0.9996820161230607,0.00013556825372547997
-0.4159938135161781,-0.4159938135161781,1.0000703196812009,0.00013584571150779772
-0.4144294171537524,-0.4144294171537524,1.0000596737492249,0.00013582450200858265
-0.41297036565656525,-0.41297036565656525,0.9998623074660593,0.00013586084484087368
-0.4114405161304148,-0.4114405161304148,1.0002936413943342,0.00013563701431016344
-0.40928201448957113,-0.40928201448957113,1.0004118770983552,0.0001354181319531543
-0.4074527484831151,-0.4074527484831151,0.999729273506056,0.00013592486119475794
-0.4059795337847902,-0.4059795337847902,0.9985847141550789,0.00013588125934244817
-0.4044567715308062,-0.4044567715308062,0.9960232079331408,0.0001354527093488005
-0.40294189656810886,-0.40294189656810886,0.997377615595591,0.00013581219810552273
-0.401476804496599,-0.401476804496599,0.994494395635684,0.00013564923372671574
-0.3999499841808813,-0.3999499841808813,0.993976099126771,0.00013534396470826266
-0.3984918949180042,-0.3984918949180042,0.9967492339839892,0.00013578787843852717
-0.39704097794056,-0.39704097794056,0.994141282996563,0.0001356262697299293
-0.3955141707528469,-0.3955141707528469,0.9939304987684258,0.00013533546885998872
-0.3940560881407521,-0.3940560881407521,0.9970922760824898,0.00013582440352532938
-0.39260515150829745,-0.39260515150829745,0.9941637084889934,0.00013562640543953437
-0.3910783574770562,-0.3910783574770562,0.9945169687904871,0.000135369583696568
-0.38962028148961847,-0.38962028148961847,0.9972615911333771,0.00013582275506399528
-0.38816932519261516,-0.38816932519261516,0.9953809021098747,0.00013567729298624072
-0.38664254437022694,-0.38664254437022694,0.9974523017790101,0.0001355307049383261
-0.38518447496223873,-0.38518447496223873,0.9996072952245436,0.00013595491205962545
-0.38373349899592313,-0.38373349899592313,1.0002365212940219,0.00013595510570726634
-0.3822067314180629,-0.3822067314180629,0.9999041604604784,0.00013567312739917026
-0.3807486685537981,-0.3807486685537981,1.0000496633002967,0.00013597776102258378
-0.3792976729276688,-0.3792976729276688,1.000234183694473,0.00013593268150839641
-0.3777709186229856,-0.3777709186229856,0.9997234011649974,0.0001356563462492466
-0.37631286225725374,-0.37631286225725374,1.000150370818631,0.0001359631267680302
-0.37486184697604585,-0.37486184697604585,0.9999722866312414,0.0001358891949295868
-0.37333510598016917,-0.37333510598016917,0.9999199576865896,0.00013565848751698043
-0.37187705609392196,-0.37187705609392196,0.9999548231667635,0.0001359239641265942
-0.37042602115295153,-0.37042602115295153,0.9999887651867712,0.00013587984109984504
-0.368768440496126,-0.368768440496126,1.0002139470024916,0.000135922326665462
-0.36680248902874835,-0.36680248902874835,1.0001971107419858,0.00013593836670390796
-0.365205600970512,-0.365205600970512,0.9998566058184715,0.00013592375367894757
-0.36371826621389686,-0.36371826621389686,0.9989220888808777,0.00013561256831218796
-0.36222861380849736,-0.36222861380849736,0.9961921471421732,0.0001357025839200749
-0.36076979511174156,-0.36076979511174156,0.9950070756318576,0.00013566946634539027
-0.3592824540850586,-0.3592824540850586,0.9975558354963112,0.00013556046099249449
-0.3577927883494283,-0.3577927883494283,0.9948233333251707,0.00013563503228319069
-0.3563339893838872,-0.3563339893838872,0.9947999166150661,0.00013567510706811748
-0.35479696162507823,-0.35479696162507823,0.9973602523505839,0.00013554717161188174
-0.35332147695145866,-0.35332147695145866,0.9949685286331418,0.0001356567477269787
-0.35182721164253505,-0.35182721164253505,0.9955788256025524,0.00013571470844620323
-0.3503398581851457,-0.3503398581851457,0.9978599294686138,0.00013557989312521288
-0.34888565175892267,-0.34888565175892267,0.9962659312729887,0.00013571708504710162
-0.3473914061859375,-0.3473914061859375,0.996644824812412,0.00013575177983594304
-0.3458756577001679,-0.3458756577001679,0.998739045530113,0.00013561279191255806
-0.3443575616760313,-0.3443575616760313,0.9993993473081968,0.00013585853097182243
-0.3423901598291025,-0.3423901598291025,1.0000180501254314,0.00013543850418985283
-0.34015829362210753,-0.34015829362210753,0.9999670682708665,0.00013540176382233803
-0.3379543620275115,-0.3379543620275115,1.0000341546353861,0.00013543092258931053
-0.3357224762154544,-0.3357224762154544,1.0001210824006033,0.0001354179208381484
-0.33351856441393013,-0.33351856441393013,0.9998705060696238,0.00013543674648674317
-0.3312866590134547,-0.3312866590134547,0.9999384806623348,0.00013542726952311984
-0.32908276699782846,-0.32908276699782846,1.0000519769810672,0.00013547165696527669
-0.3268508420041769,-0.3268508420041769,1.0001264885812398,0.0001354692752090026
-0.32464696976969665,-0.32464696976969665,1.0000102012086356,0.00013552525880517453
-0.32241502518525067,-0.32241502518525067,0.9996087625451404,0.00013548158462061276
-0.3202111727343436,-0.3202111727343436,0.9946928500613763,0.00013525050688175001
-0.3179792085614963,-0.3179792085614963,0.994817379552603,0.00013522889868814207
-0.31577537589886334,-0.31577537589886334,0.9919243427785318,0.00013509382353556733
-0.31354339212808213,-0.31354339212808213,0.9944355788139557,0.00013521538713404742
-0.31133957924658945,-0.31133957924658945,0.9914283305640025,0.0001350852847786779
-0.30910757590166893,-0.30910757590166893,0.99437196877008,0.0001352045771317927
-0.3069037827942168,-0.3069037827942168,0.9922309090023165,0.0001351362797749258
-0.3046717598680061,-0.3046717598680061,0.9956366198613541,0.00013529612828857874
-0.3023970128554311,-0.3023970128554311,0.9960044356360166,0.00013537372605523676
-0.3001294834881264,-0.3001294834881264,0.9999963313591858,0.0001355358630446349
-0.2979612167885364,-0.2979612167885364,1.0003849412234627,0.0001355637608915793
-0.2956936678375882,-0.2956936678375882,1.0002085647514012,0.0001354908592757085
-0.2935254209120103,-0.2935254209120103,1.0000782436861457,0.00013546471538108696
-0.291257852377413,-0.291257852377413,0.9997202263485189,0.00013542647870047397
-0.2890896252329867,-0.2890896252329867,1.0000419137032592,0.00013544886937781289
-0.2868220371123414,-0.2868220371123414,1.0001081635674598,0.00013545028245138142
-0.2846538297419386,-0.2846538297419386,0.9999305837602174,0.00013542950804398363
-0.28238622203764974,-0.28238622203764974,1.0000534922490765,0.000135435792350985
-0.28021803444362375,-0.28021803444362375,0.9999228201969823,0.00013543795542183572
-0.2779504071437998,-0.2779504071437998,1.0001169679473638,0.0001354417076902073
-0.27578223933572305,-0.27578223933572305,0.9999120575797231,0.0001354397178956134
-0.2735145924641074,-0.2735145924641074,1.000085154868733,0.00013545027962025817
-0.271346444415758,-0.271346444415758,0.9999358454223571,0.00013546493365453684
-0.2690220002964054,-0.2690220002964054,0.9998928395185871,0.0001354468089629864
-0.2668041915648189,-0.2668041915648189,1.0001027547826722,0.0001354628845887004
-0.2645719915695167,-0.2645719915695167,0.9999737261610597,0.00013543907917860112
-0.2623116193638907,-0.2623116193638907,1.0000356124733305,0.0001354530693060028
-0.2600652053760541,-0.2600652053760541,1.0001260448146612,0.0001354422250224164
-0.2577267836622923,-0.2577267836622923,0.99984312962931,0.0001354455361899904
-0.2555584193753191,-0.2555584193753191,0.999878988046756,0.0001354399653956
-0.2532838923112365,-0.2532838923112365,1.0000245499721854,0.00013547504994428913
-0.25112260564743566,-0.25112260564743566,0.9999850863872375,0.00013544631590829188
-0.2488480983526074,-0.2488480983526074,1.0000967662380298,0.00013548264918049433
-0.24668679210993788,-0.24668679210993788,1.0000066191686592,0.00013544244479566796
-0.24441230458201063,-0.24441230458201063,0.9998252681300833,0.00013546295801338012
-0.24225097875802817,-0.24225097875802817,1.0000677174198682,0.00013545110412487834
-0.23990176794030163,-0.23990176794030163,1.000026704844195,0.0001354605609823076
-0.23774086733611738,-0.23774086733611738,1.000051455516798,0.00013549713704382623
-0.23540208002441432,-0.23540208002441432,0.9999247073498561,0.0001354717121646944
-0.23319861595813904,-0.23319861595813904,0.999969273743817,0.00013551115944066314
-0.23088819789005582,-0.23088819789005582,1.0001578471133243,0.00013551985216051445
-0.22854990668006395,-0.22854990668006395,0.9998999484475005,0.00013552230673221226
-0.22635302433749302,-0.22635302433749302,1.0000230545301465,0.00013553327279031013
-0.22411411377797208,-0.22411411377797208,0.9999429566673733,0.00013552609004310572
-0.22188172582474977,-0.22188172582474977,0.9999852854935372,0.00013553224002508848
-0.21957186298057535,-0.21957186298057535,1.0000050273857632,0.0001354850204043871
-0.21738203868939082,-0.21738203868939082,0.9999976327854366,0.00013547779208314363
-0.21498314799500234,-0.21498314799500234,1.0001205478878847,0.00013546127070610475
-0.21272299719892657,-0.21272299719892657,1.0000684643876077,0.00013543923776852078
-0.2103557106776009,-0.2103557106776009,1.0000300929257286,0.00013544928682581147
-0.20807428725696014,-0.20807428725696014,0.9998762042781777,0.0001354426027800067
-0.20574246640799174,-0.20574246640799174,0.9998779157561453,0.0001354660530921242
-0.20328363342845818,-0.20328363342845818,1.0001291940794332,0.00013551104159093797
-0.20108663990640138,-0.20108663990640138,1.0002411656971695,0.00013554231394707667
-0.1987445272091975,-0.1987445272091975,0.9999188321556627,0.00013555998726075068
-0.1954797780845638,-0.1954797780845638,1.0001150512235368,0.0001355831096803988
-0.19317315152856623,-0.19317315152856623,1.000030840888871,0.00013557570293262528
-0.19093438877923177,-0.19093438877923177,0.9999858617583992,0.00013558255329566181
-0.18873024324468587,-0.18873024324468587,0.9997835183412749,0.00013554935014033507
-0.1863921394143631,-0.1863921394143631,1.0000248352268142,0.00013556504176746097
-0.18423055753229392,-0.18423055753229392,1.00015838447755,0.00013555508665527121
-0.18195634827549725,-0.18195634827549725,0.9999968530537536,0.00013555071559602006
-0.17979474682643967,-0.17979474682643967,0.9997918467466974,0.00013552599979059225
-0.17752055733175212,-0.17752055733175212,1.0001031000828384,0.00013556388710130892
-0.1753589363085723,-0.1753589363085723,1.0001443880982912,0.00013555182448171836
-0.1730847665641079,-0.1730847665641079,0.9998424737206669,0.00013555054550095215
-0.17092312598582,-0.17092312598582,1.000030648393293,0.0001355397307656706
-0.1686489759725589,-0.1686489759725589,0.9999151653734607,0.00013554968847809674
-0.16648731583203472,-0.16648731583203472,1.000172422882254,0.00013553059644012737
-0.16421318558562917,-0.16421318558562917,0.9999563836766712,0.0001355384077480201
-0.16205150587332467,-0.16205150587332467,1.0000902761530166,0.0001355330468033506
-0.15977739537243565,-0.15977739537243565,0.9998753724179303,0.00013553875763321456
-0.15796797608749671,-0.15796797608749671,1.0000310753555595,0.0001352219994287052
-0.15647735341652264,-0.15647735341652264,0.9999264279902157,0.00013537098255676344
-0.15498415583612654,-0.15498415583612654,1.0000126291398717,0.0001352222706972562
-0.15353216396104585,-0.15353216396104585,0.9999831261220626,0.00013520432659138153
-0.1520415524572627,-0.1520415524572627,0.9999334509486039,0.00013536947761882636
-0.15054836356936221,-0.15054836356936221,1.0000636860229475,0.00013521800964128266
-0.14909635215821596,-0.14909635215821596,1.000146931635481,0.00013521948832657574
-0.14760575175263285,-0.14760575175263285,0.999797264617644,0.0001353571960151178
-0.14611257162860056,-0.14611257162860056,1.0001036933166916,0.00013522878287071009
-0.14466054068614084,-0.14466054068614084,0.9999973159668029,0.0001352057304697079
-0.1431699513073738,-0.1431699513073738,1.0000050375310363,0.00013536647593018032
-0.1416767800162063,-0.1416767800162063,0.999987781450665,0.0001352323066590865
-0.14022472954720228,-0.14022472954720228,0.999936401649609,0.00013522187601079357
-0.1387341511095997,-0.1387341511095997,0.9999909471379536,0.00013535797173481865
-0.13724098872266383,-0.13724098872266383,1.0000443413125866,0.0001352413461324481
-0.13578891871760562,-0.13578891871760562,1.0000334398353188,0.00013523115393379839
-0.13429835117117364,-0.13429835117117364,0.9999649341738905,0.00013536035942384692
-0.1328051977313578,-0.1328051977313578,1.0000046515257526,0.0001352444835568929
-0.13135310819971552,-0.13135310819971552,0.9999844785757027,0.00013523550295929773
-0.12986255146596476,-0.12986255146596476,1.0000464077681654,0.00013537537332310368
-0.12836940706838504,-0.12836940706838504,1.000018017411839,0.0001352535050851719
-0.1268676165035913,-0.1268676165035913,1.0000589095257388,0.0001352403754956672
-0.1253557784528027,-0.1253557784528027,0.9998907928485059,0.00013537165052614382
-0.12389812991921759,-0.12389812991921759,0.9999544092529744,0.0001352452234633563
-0.12233954098114168,-0.12233954098114168,1.0001707050022688,0.00013524992777183236
-0.12084630490405175,-0.12084630490405175,0.9998539395008962,0.00013524136094442585
-0.11936567765659448,-0.11936567765659448,0.9998968874856787,0.00013536438971178778
-0.11783275783348017,-0.11783275783348017,1.0001180579639386,0.0001352532569010014
-0.1163111520749112,-0.1163111520749112,0.9999004166230658,0.0001352630191067477
-0.11478083430473021,-0.11478083430473021,1.0002717723334742,0.00013540668321393182
-0.113287721043514,-0.113287721043514,1.0000573240904396,0.00013528901588569751
-0.11178586407750117,-0.11178586407750117,0.9997368528643591,0.00013527322378947205
-0.11012943621514068,-0.11012943621514068,0.9999221050520066,0.00013529889190963513
-0.10848997026993742,-0.10848997026993742,0.9998457287514851,0.00013530375521911172
-0.10688156518538108,-0.10688156518538108,1.0001490183860027,0.00013541541496922853
-0.10530330040248259,-0.10530330040248259,0.9999975486090266,0.00013530682580802788
-0.10381560299218222,-0.10381560299218222,1.000048691034743,0.00013528492392098985
-0.1022896251573286,-0.1022896251573286,0.9999808375528174,0.00013538617651392114
-0.10083202478574549,-0.10083202478574549,1.0000765877723037,0.00013530107591435675
-0.09934430785364157,-0.09934430785364157,0.9998449475497108,0.00013526475235914773
-0.09785382716299865,-0.09785382716299865,1.0000430296177916,0.00013537533729524918
-0.09639623621918644,-0.09639623621918644,1.00003896219051,0.00013529177146014823
-0.09490849976054391,-0.09490849976054391,0.9999856979936499,0.00013527212447167464
-0.09341802941614219,-0.09341802941614219,1.0001220731270994,0.00013537594386967854
-0.091960447940545,-0.091960447940545,1.0000578066933024,0.0001352915700638852
-0.09047269194819592,-0.09047269194819592,1.0000871385910923,0.00013528942782427703
-0.08898223189535201,-0.08898223189535201,0.9999810366196232,0.0001353807550466434
-0.08752465993316605,-0.08752465993316605,0.9999022674891321,0.00013532162978779487
-0.08603688440474003,-0.08603688440474003,0.9999243331000617,0.00013530565147767092
-0.08454643459111821,-0.08454643459111821,1.0001086664924823,0.00013540161287452676
-0.08308887218755104,-0.08308887218755104,0.999839561435231,0.000135325772866582
-0.08160107713019897,-0.08160107713019897,1.0001996780760567,0.00013532437985394288
-0.0801106375105121,-0.0801106375105121,0.9999403825282606,0.0001354027843162277
-0.0786034043368204,-0.0786034043368204,1.0000212429991366,0.00013534407056542706
-0.07712978414992903,-0.07712978414992903,0.999949082079039,0.0001353194254181973
-0.07560386868532305,-0.07560386868532305,1.0001632640468545,0.00013539447544969418
-0.07414632554180116,-0.07414632554180116,0.9999515972763158,0.00013533923543996228
