time,time,flux,flux_err
-0.49990978657903423,-0.49990978657903423,1.0000921562967828,0.0001466701410689331
-0.49981265385334456,-0.49981265385334456,0.9999592155121926,0.00014155713758249938
-0.4996372264128392,-0.4996372264128392,0.9999432779624243,0.00013925772171808655
-0.49941826065272227,-0.49941826065272227,1.0002199897093191,0.00014338484578531414
-0.4991658150749572,-0.4991658150749572,0.9999291194438552,0.00012949640724431221
-0.49904716509990976,-0.49904716509990976,0.9999299779851512,0.00014138660537802182
-0.49896676095959264,-0.49896676095959264,1.0001312819692465,0.00014170454327540961
-0.49885386950481914,-0.49885386950481914,0.9999023994941426,0.00012976680653481232
-0.498711955408362,-0.498711955408362,1.000050502712164,0.00012843819981808014
-0.49848075227928346,-0.49848075227928346,0.9999568598183897,0.0001399877740709338
-0.4983282358145516,-0.4983282358145516,0.9998726635439708,0.00013001135818626933
-0.49816306766224444,-0.49816306766224444,1.000000919980338,0.00013126401313476744
-0.4980048308381811,-0.4980048308381811,0.9999192414515636,0.0001301073374937104
-0.49777641537366435,-0.49777641537366435,0.9999388157591094,0.00013980566874358246
-0.49761072767869335,-0.49761072767869335,1.0000197025129136,0.0001316175995940304
-0.4974689429735008,-0.4974689429735008,1.0000055930125082,0.000128445946496786
-0.49733883360386244,-0.49733883360386244,0.9999212669647577,0.00014046896152146126
-0.49724822549396774,-0.49724822549396774,1.0001851192281717,0.00013213543523682907
-0.4971353227345389,-0.4971353227345389,0.9999928220123897,0.00013668325115161583
-0.4969339024821238,-0.4969339024821238,1.0001906611706437,0.00012868913175536264
-0.4968345581641188,-0.4968345581641188,1.0000966365799382,0.0001406735388576566
-0.4966875947327935,-0.4966875947327935,0.9999491009698452,0.00012895955199652932
-0.4965154875499138,-0.4965154875499138,1.000101535395244,0.00015282411881119084
-0.49634287521912485,-0.49634287521912485,0.9999059603951894,0.00014037377527315864
-0.49629643255029804,-0.49629643255029804,1.0002353554505896,0.00013098175039477674
-0.49621472369908587,-0.49621472369908587,0.9999870652099292,0.00012832788528098797
-0.4961384881287813,-0.4961384881287813,0.9999562375439022,0.00012443969419281847
-0.49603330655299943,-0.49603330655299943,1.00018111651625,0.00014131633203007512
-0.49589020033017733,-0.49589020033017733,1.0000715678946486,0.00012658780016711779
-0.4957676449295832,-0.4957676449295832,1.0000645082108182,0.00014408743893983963
-0.49562282633269206,-0.49562282633269206,1.000013715323243,0.0001309000199681477
-0.49553487027878873,-0.49553487027878873,0.9999711889925343,0.00013936097967002484
-0.4954289148110547,-0.4954289148110547,0.9999198175032756,0.00012922711083481758
-0.4953324890026124,-0.4953324890026124,1.0001160386269665,0.0001232498364705087
-0.49527049441530835,-0.49527049441530835,0.999900609296825,0.000128085021603824
-0.4952054481509549,-0.4952054481509549,1.0000756201635776,0.00013888357402283186
-0.49506480265335995,-0.49506480265335995,0.9999713644835616,0.00012965320037619884
-0.49494657388422636,-0.49494657388422636,1.0001122513198244,0.00013711005339166454
-0.4948345691904251,-0.4948345691904251,1.0002671243626058,0.00013116715530608666
-0.4947038864411297,-0.4947038864411297,1.0000270264569557,0.00012699805068569917
-0.49460207438314685,-0.49460207438314685,1.0000630976391993,0.0001275670315182377
-0.49449114866874877,-0.49449114866874877,1.0000022291790138,0.00012721747112156233
-0.4944099140819162,-0.4944099140819162,1.0000667207259777,0.00013964545355388437
-0.49426566648908193,-0.49426566648908193,1.0001242752514825,0.00012768202572650722
-0.49417803539763555,-0.49417803539763555,0.999997116948717,0.00013886093005480285
-0.4940775680872321,-0.4940775680872321,0.9998198464343389,0.0001273459349331738
-0.49391341765294783,-0.49391341765294783,1.0000196667022723,0.00014013937938690463
-0.49373767883807884,-0.49373767883807884,1.0000843511766362,0.00013018258303617463
-0.4936470861946873,-0.4936470861946873,0.9999355383337883,0.0001300896398793944
-0.4934183242199651,-0.4934183242199651,1.0002438146860553,0.00013989070185582597
-0.4932966909298557,-0.4932966909298557,0.9999252289156958,0.0001679021871565013
-0.49316539859355546,-0.49316539859355546,0.9999876556415588,0.0001287663155334263
-0.49303380946148534,-0.49303380946148534,0.9998105440501309,0.00012986891244748633
-0.4928610255017702,-0.4928610255017702,0.9997954271918733,0.00014148234435084432
-0.49271002568493716,-0.49271002568493716,0.9998429399306609,0.00013845738261228003
-0.49255916582696957,-0.49255916582696957,0.9999824414371439,0.00012809654387108192
-0.49240261891900444,-0.49240261891900444,1.0002132145645677,0.00013731610731703827
-0.4923061162429804,-0.4923061162429804,1.0000857506654346,0.00014841021218333223
-0.4921657929931825,-0.4921657929931825,1.000223599732879,0.00014085547003469783
-0.49202416323532816,-0.49202416323532816,1.0000278780448397,0.00012987953859344099
-0.4919254518317757,-0.4919254518317757,1.0000207783825477,0.00012939268676049866
-0.49175222672420205,-0.49175222672420205,0.9999700921234964,0.00014256876753516792
-0.4916248752386309,-0.4916248752386309,0.9999863593730719,0.00013973942811306044
-0.49148422402286085,-0.49148422402286085,1.0000530683914561,0.0001413487482829939
-0.49134063780511494,-0.49134063780511494,0.9997707208932851,0.00012942280323753556
-0.4911999318741437,-0.4911999318741437,1.000132462665711,0.00014042339416240875
-0.49103046549789725,-0.49103046549789725,1.0000037383740246,0.00015153663854452308
-0.49094597927469297,-0.49094597927469297,1.0001294792820397,0.0001408105735451085
-0.49082239926137844,-0.49082239926137844,1.0000963936581078,0.00013015469253408393
-0.4907057763251942,-0.4907057763251942,1.0002606630490711,0.00014100142721349323
-0.49051591571987957,-0.49051591571987957,1.000152424818979,0.00014934991063773385
-0.49042672875584686,-0.49042672875584686,0.9999273780333086,0.00013892982928089144
-0.49033503019963975,-0.49033503019963975,0.9999706499552532,0.00014161168490665367
-0.4902423065432231,-0.4902423065432231,0.9999295531535441,0.00013788009976045638
-0.4900834776184638,-0.4900834776184638,0.9999908314888935,0.00012923238873558204
-0.4898645115950785,-0.4898645115950785,1.0000986608284892,0.0001494071745564702
-0.4897625910132774,-0.4897625910132774,1.0000773508374639,0.00014096969216779222
-0.489692380962515,-0.489692380962515,1.0000853211724359,0.00013957157179071328
-0.489584852266853,-0.489584852266853,0.9999607865752239,0.0001263668161428216
-0.4894212009632611,-0.4894212009632611,1.00015699655926,0.0001273271403698575
-0.48938414920921786,-0.48938414920921786,1.000107678169214,0.00014298960242310396
-0.4892701400982332,-0.4892701400982332,0.9999753477565168,0.0001383196106535942
-0.48916654274216853,-0.48916654274216853,0.9998384484064907,0.00014951175390051906
-0.4890902287857898,-0.4890902287857898,0.9999624348467784,0.00012819161682364578
-0.48893055717489914,-0.48893055717489914,1.000067584193934,0.00012877214585223926
-0.4888201678273617,-0.4888201678273617,1.000138228009813,0.00014177588779305564
-0.4887103393753932,-0.4887103393753932,1.0000102460450695,0.000126769773440508
-0.48863417343673066,-0.48863417343673066,1.0000708599095003,0.00015109378771885963
-0.4885705960688938,-0.4885705960688938,0.9999465377073988,0.00013822188710295463
-0.48845898600047805,-0.48845898600047805,1.0001263518652512,0.00013006254933043996
-0.488330126535584,-0.488330126535584,1.000303907241213,0.00012606239725504803
-0.48819592393338096,-0.48819592393338096,1.0002557885853642,0.00012737891711728057
-0.4880931205494562,-0.4880931205494562,1.00009499608434,0.00014358884403777088
-0.4880056549089204,-0.4880056549089204,1.0000154113294806,0.00013117275570930897
-0.48789209150636453,-0.48789209150636453,1.0001187488587067,0.00012660404367791905
-0.4877478394562786,-0.4877478394562786,1.000053120977097,0.0001274509996099782
-0.487622891117644,-0.487622891117644,1.000031529446161,0.00013222397938301135
-0.48747370422643144,-0.48747370422643144,0.9998337069264653,0.00014188277214366454
-0.48734415404105674,-0.48734415404105674,1.0000917372762115,0.0001307870926362535
-0.48721565164159986,-0.48721565164159986,1.0000671924044338,0.00013013039136523802
-0.48710458438945353,-0.48710458438945353,1.0000657996263498,0.00012824481129355075
-0.4870664445152215,-0.4870664445152215,0.9999329674407985,0.0001305404689215534
-0.4870103131499491,-0.4870103131499491,1.0000093499042424,0.0001442091900007128
-0.48695318222453354,-0.48695318222453354,1.0000936135639673,0.00012985853896116723
-0.4868491152119532,-0.4868491152119532,1.000096171437708,0.00013047784105011962
-0.4867246974456066,-0.4867246974456066,0.999851477396956,0.0001283956732277246
-0.48659956852570757,-0.48659956852570757,0.9997620208624364,0.00012751237869683228
-0.48647759611994845,-0.48647759611994845,0.9999755559548491,0.00014600175906255176
-0.48640545305752314,-0.48640545305752314,1.0000593091202146,0.00013039106030150198
-0.486297152323823,-0.486297152323823,0.9999008563341002,0.00013258707353860878
-0.4861353570195206,-0.4861353570195206,1.000183445713351,0.00013083953906529503
-0.48598238999620663,-0.48598238999620663,0.9999872762466065,0.00013898280538177476
-0.48587390354441595,-0.48587390354441595,1.0001437256049914,0.00013083316209957588
-0.4857944970703102,-0.4857944970703102,1.0000142324164334,0.00012908794108451403
-0.48567529118372477,-0.48567529118372477,1.0001246071578715,0.00013813803903016435
-0.48552197521494234,-0.48552197521494234,0.9999356225804018,0.00013302329354105669
-0.48536767532932573,-0.48536767532932573,0.9999880641663734,0.0001280691153871097
-0.48524320873693794,-0.48524320873693794,0.9999900092835292,0.00013453964571137085
-0.48510807726197525,-0.48510807726197525,0.9998863706954954,0.00012794785607816392
-0.48505216402190854,-0.48505216402190854,1.0002091363257726,0.0001435321666426774
-0.4849230696556333,-0.4849230696556333,1.0000569842961746,0.00012986222997845778
-0.48477018943813166,-0.48477018943813166,0.9999973930282234,0.00012896836237732173
-0.4846153550832241,-0.4846153550832241,0.9999096452417451,0.00013167980287147161
-0.4844923080134322,-0.4844923080134322,1.0001070551597997,0.000131785773866194
-0.4844040366595436,-0.4844040366595436,0.999919915155227,0.00014170055503259524
-0.4843089923509979,-0.4843089923509979,1.000009131754894,0.0001405967921292559
-0.48423845172146684,-0.48423845172146684,0.9999850522566291,0.00012746627796665023
-0.48406686002126664,-0.48406686002126664,1.0001344188494854,0.00012665552412745169
-0.4839694191730814,-0.4839694191730814,0.9999257123718154,0.00012961764238157296
-0.48385934225298116,-0.48385934225298116,1.0000734479442175,0.00013005208651052245
-0.48376842991056035,-0.48376842991056035,0.9999854868604293,0.0001393747986820238
-0.4836676153674489,-0.4836676153674489,0.9999182584066979,0.00013268834493970923
-0.48356360638790646,-0.48356360638790646,1.0003004852874828,0.00012862019487701746
-0.4834375309961615,-0.4834375309961615,1.0000281619659923,0.00013467052724912284
-0.48327581906487466,-0.48327581906487466,1.0000021239154728,0.00012955101803272212
-0.4831847788002051,-0.4831847788002051,0.999982884379326,0.0001315413653820097
-0.48305748498605683,-0.48305748498605683,1.0000018455248358,0.00013390106961686158
-0.4829693654864968,-0.4829693654864968,1.0000589895862175,0.0001280911183567693
-0.4828870297584217,-0.4828870297584217,1.000154735779243,0.00013512309681878418
-0.4827387715580699,-0.4827387715580699,0.9999445570862322,0.000128961137057815
-0.48263443537871353,-0.48263443537871353,0.9999725378579848,0.00013336736469266296
-0.48247768299188465,-0.48247768299188465,0.999979034820482,0.00012919204075571405
-0.48224173757917016,-0.48224173757917016,1.0001911913351496,0.00012476988982956593
-0.48211505151339223,-0.48211505151339223,0.9998440095449572,0.00014389087496731394
-0.48194687867508035,-0.48194687867508035,0.9998601692615013,0.00013169517122858023
-0.481766372545826,-0.481766372545826,1.0000011877367814,0.00012647106212063355
-0.4815561563023948,-0.4815561563023948,0.9999896419493769,0.00013948509527396635
-0.4813515060443024,-0.4813515060443024,1.0000636903046431,0.00013398223930237657
-0.48120565645513125,-0.48120565645513125,1.0001229000324172,0.0001262627486534824
-0.4810580455647141,-0.4810580455647141,0.9999673934102997,0.00013714240322327753
-0.4808942388430296,-0.4808942388430296,0.9999889990755104,0.00013057549729393977
-0.4806745236805,-0.4806745236805,1.00004887911877,0.00013175221172976795
-0.48054635918233546,-0.48054635918233546,1.0001628376170006,0.00013815668694466032
-0.48044164933380673,-0.48044164933380673,1.0000130702784915,0.00012561127473783348
-0.48033218371347175,-0.48033218371347175,1.0000564564064418,0.0001277278023318318
-0.48016218387274423,-0.48016218387274423,0.9999683460921988,0.00014210801886087331
-0.48004174813395367,-0.48004174813395367,0.9999672924375463,0.0001384244705118556
-0.4799548212758964,-0.4799548212758964,0.9999460007274863,0.0001273458210310944
-0.4798253579712764,-0.4798253579712764,1.0000573506976913,0.00012976518172042647
-0.47971478932304307,-0.47971478932304307,1.0000295887409112,0.00014406819213341895
-0.47959890694764906,-0.47959890694764906,1.0000187556503128,0.00013080975873046752
-0.4794980593964283,-0.4794980593964283,1.0000270603856596,0.00014100517018708335
-0.47941858084959676,-0.47941858084959676,0.9999301616726346,0.00013137423869274574
-0.47931949888152303,-0.47931949888152303,0.9999253729664532,0.0001283597048023826
-0.47914797461126,-0.47914797461126,1.0001275421261346,0.00012563674556668596
-0.47901776450526085,-0.47901776450526085,0.999974670499437,0.0001345386037511966
-0.4789504518790636,-0.4789504518790636,0.9998942888313694,0.000139429498931829
-0.4788617841906671,-0.4788617841906671,1.0003120162029444,0.0001341274152300768
-0.47870731964358126,-0.47870731964358126,1.000127691659592,0.0001401256990610612
-0.47861739580112045,-0.47861739580112045,1.000230069026978,0.0001284137760670948
-0.47844986636773684,-0.47844986636773684,1.0001036224771136,0.00012580694644183182
-0.47837052555405535,-0.47837052555405535,1.0000804319307464,0.00012922625386344418
-0.4782476739892445,-0.4782476739892445,0.9999218149957703,0.00012573723483331716
-0.47816693922140985,-0.47816693922140985,1.0000861529051837,0.00013644595966315597
-0.47804108895652464,-0.47804108895652464,0.9999201535959212,0.00014287923157375865
-0.4779290254591615,-0.4779290254591615,1.0000787177153678,0.00012830229058885388
-0.477827356011403,-0.477827356011403,0.9999686867234014,0.00012564366007689935
-0.47770891769832813,-0.47770891769832813,1.000319414069089,0.00012582694693891028
-0.47762976605445145,-0.47762976605445145,0.9999781041147043,0.00014064700367450873
-0.4775446923726122,-0.4775446923726122,1.0001363496014357,0.00012798480313765682
-0.47741965395616714,-0.47741965395616714,1.0001615245429771,0.00014024668420128397
-0.4773269270270248,-0.4773269270270248,0.9997125624154641,0.0001315528045388752
-0.4771509193466045,-0.4771509193466045,1.000002032707226,0.0001256176637800332
-0.4770517334152828,-0.4770517334152828,0.9998984921105759,0.00014040080819215374
-0.47689600259327564,-0.47689600259327564,1.000034016465976,0.00014112560902343653
-0.4767259914791794,-0.4767259914791794,1.0002791103398097,0.00012684425975872032
-0.4765533335186774,-0.4765533335186774,0.9999784746966591,0.00013890170664736392
-0.47639016885950697,-0.47639016885950697,1.0000159368802923,0.00015109865059261766
-0.47619337836440534,-0.47619337836440534,1.0000009141476138,0.00013033724715483757
-0.4760324014736398,-0.4760324014736398,1.0002321284000708,0.0001415383026474165
-0.47591556997358564,-0.47591556997358564,1.0000283137043309,0.000142173065662379
-0.4758024928101804,-0.4758024928101804,0.999904262398086,0.0001273211263143033
-0.47566850508810604,-0.47566850508810604,0.9999035779755626,0.00012863942523404004
-0.475541476446233,-0.475541476446233,1.0000391653158716,0.00013062600905583096
-0.47542274834413545,-0.47542274834413545,1.0001560102393547,0.00014004925410451185
-0.4752782213538012,-0.4752782213538012,1.0000944855158844,0.00012999648497464235
-0.47515366005027315,-0.47515366005027315,0.9998512995561795,0.00013940195733498398
-0.475088184553897,-0.475088184553897,1.0001750351634975,0.00012847998493913977
-0.47495238971023357,-0.47495238971023357,0.9999065374206945,0.00013359955006730183
-0.47483131867120393,-0.47483131867120393,0.9999359089493703,0.00015277579149706083
-0.4746952164037793,-0.4746952164037793,1.000071048114198,0.0001389446259814973
-0.47457480431257865,-0.47457480431257865,1.0001636154254105,0.00013007319512668608
-0.4743642721354263,-0.4743642721354263,1.000036183019534,0.00013834764166289467
-0.47419415477561416,-0.47419415477561416,0.9998670208755144,0.00014166269229830657
-0.47410565063983084,-0.47410565063983084,1.0000824526587007,0.000141059142788189
-0.47402475197959576,-0.47402475197959576,0.9999994600885049,0.00013970928788154094
-0.4739203020581044,-0.4739203020581044,0.9998139974090273,0.00014008295519380587
-0.4737561556605215,-0.4737561556605215,0.9999933749533932,0.00012673204159730872
-0.47361759828636424,-0.47361759828636424,0.9997888409774023,0.00013730920951479972
-0.4735328252420004,-0.4735328252420004,0.9999134973504026,0.00013982489046827999
-0.4734759675375244,-0.4734759675375244,1.0001254730470426,0.00012620149934672043
-0.473376618445036,-0.473376618445036,0.9998340770089728,0.00013947706269453266
-0.4732092160709726,-0.4732092160709726,1.0001130365439805,0.00012960278996851601
-0.4730978234343638,-0.4730978234343638,1.0000577822670398,0.00013201019146455813
-0.4730026950957836,-0.4730026950957836,0.999789502490035,0.00014818217081337637
-0.4729011376366543,-0.4729011376366543,1.000083080048411,0.00014060380878544573
-0.47282303265237713,-0.47282303265237713,1.000048349336769,0.00013980742062557854
-0.4725915597489802,-0.4725915597489802,1.0000949562766301,0.0001300571700666484
-0.47252861437300453,-0.47252861437300453,0.9999682139365087,0.00015050848618057615
-0.47241190605782324,-0.47241190605782324,0.9999878360924871,0.0001296189656980658
-0.47235294257843635,-0.47235294257843635,1.0001940786975148,0.00015100643002843834
-0.4722530616854783,-0.4722530616854783,1.000070605877001,0.0001297462523171205
-0.4720690763781022,-0.4720690763781022,1.0000795145717103,0.00012963381280457965
-0.4719319904499571,-0.4719319904499571,0.9998204832432933,0.0001381012786244536
-0.4718163359138998,-0.4718163359138998,1.0000778428925092,0.00014939923267269864
-0.4717618013426545,-0.4717618013426545,1.0000767107833721,0.00012944047684860426
-0.4716580298038025,-0.4716580298038025,1.0000618177625418,0.00013986504288322326
-0.4715018364513526,-0.4715018364513526,0.9999414410858554,0.0001276066250782191
-0.47136955649111767,-0.47136955649111767,0.9999412255239708,0.0001259656128410711
-0.4712937557451369,-0.4712937557451369,0.9998843705810557,0.00013101894494235887
-0.47124009794788435,-0.47124009794788435,0.9998238659337557,0.00014264136234865183
-0.47114455780319986,-0.47114455780319986,0.9997296716561902,0.00013401581252232356
-0.47106215880194213,-0.47106215880194213,0.9998188035408171,0.00012651774082632166
-0.47096105747987166,-0.47096105747987166,0.999893054914771,0.00012851207764073076
-0.47082802972581705,-0.47082802972581705,0.999885426511856,0.00012763328730492517
-0.47074155260052064,-0.47074155260052064,1.000294514859249,0.0001424753386233135
-0.4706123045150889,-0.4706123045150889,0.9999785733054466,0.00012748754771372916
-0.47052092499579884,-0.47052092499579884,1.0000617846341715,0.00013066466305507654
-0.47040104285333656,-0.47040104285333656,1.0002247408748708,0.00012939255265449133
-0.4702537983946968,-0.4702537983946968,1.0001544507887696,0.0001317189083625804
-0.47020987028954553,-0.47020987028954553,1.0002733305804543,0.0001327378351709214
-0.47015858540835326,-0.47015858540835326,0.9999817557090737,0.00013959035680023732
