time,time,flux,flux_err
-0.49945356514508604,-0.49945356514508604,1.000049152892958,8.65374793579709e-05
-0.4984012451059243,-0.4984012451059243,1.0000063749195687,8.666947081026699e-05
-0.4979799676337279,-0.4979799676337279,0.9999608058568384,8.663472586221525e-05
-0.496941083369893,-0.496941083369893,1.00003540409374,8.659658230766637e-05
-0.494865898975695,-0.494865898975695,0.999897808372505,8.658287519086155e-05
-0.4937634357884235,-0.4937634357884235,0.9999932128720401,8.673030328829818e-05
-0.4926103805701132,-0.4926103805701132,0.9999243435738482,8.670560398362978e-05
-0.49170217752980533,-0.49170217752980533,1.0000569870279947,8.672476958717387e-05
-0.48982083880036953,-0.48982083880036953,1.0000463375382496,8.661749992433784e-05
-0.4886460382302175,-0.4886460382302175,0.9999963918824207,8.678842972522254e-05
-0.487295485453069,-0.487295485453069,0.9999325846704998,8.677750487270251e-05
-0.48661732185282747,-0.48661732185282747,1.0001403424705841,8.674495501725009e-05
-0.48488572334317726,-0.48488572334317726,1.0000663943030195,8.724188625376788e-05
-0.4836312332401576,-0.4836312332401576,0.9999198303349071,8.674364157920465e-05
-0.48256862360576636,-0.48256862360576636,0.9999254903235645,8.672775528981112e-05
-0.48132099387439664,-0.48132099387439664,0.9998823614713693,8.680501260436787e-05
-0.47993124449203606,-0.47993124449203606,0.9999927873904442,8.683693335190606e-05
-0.4789392268539814,-0.4789392268539814,0.9998972311926202,8.654052835308358e-05
-0.47699022304950633,-0.47699022304950633,0.9998210255867089,8.679918522909504e-05
-0.4748463263713347,-0.4748463263713347,0.9999809954135838,8.670533546437258e-05
-0.47405352687346747,-0.47405352687346747,1.0001317467178947,8.656078715389431e-05
-0.4724533881053503,-0.4724533881053503,0.9999573176395831,8.675267898746654e-05
-0.4703855585066776,-0.4703855585066776,0.9998304990540696,8.661051303424733e-05
-0.4697272095254448,-0.4697272095254448,0.9999451157049828,8.6632425879139e-05
-0.46852676332491683,-0.46852676332491683,0.9998760178660117,8.676404584904022e-05
-0.46643681252753594,-0.46643681252753594,0.9997738027688969,8.652477852352619e-05
-0.46490134128471255,-0.46490134128471255,0.9999336752439989,8.690703421503537e-05
-0.4635224809826468,-0.4635224809826468,1.000113329570587,8.654916357434149e-05
-0.46209953176876295,-0.46209953176876295,1.0000567174727368,8.677293812010562e-05
-0.46023264470277353,-0.46023264470277353,0.9998240968157269,8.667138404066296e-05
-0.45948147628078007,-0.45948147628078007,0.9999716896271883,8.649817244530902e-05
-0.45817716936726355,-0.45817716936726355,0.9999559083088126,8.675845875532817e-05
-0.45711651521123714,-0.45711651521123714,1.0000061317003408,8.649083713870224e-05
-0.45567426180641635,-0.45567426180641635,1.0001657779562403,8.673814530104108e-05
-0.4543431731282908,-0.4543431731282908,0.9999534806801943,8.67949284861419e-05
-0.4528155846812297,-0.4528155846812297,1.0000877372129777,8.649257908229978e-05
-0.4515755389496917,-0.4515755389496917,0.9999481559512124,8.664525806203032e-05
-0.45089881479361793,-0.45089881479361793,0.9999771349567717,8.657762390741231e-05
-0.4495388771494618,-0.4495388771494618,0.9999293836365142,8.676386441986499e-05
-0.44783860939351144,-0.44783860939351144,1.0001515233369016,8.65626515495293e-05
-0.4466213031046209,-0.4466213031046209,1.0000494380822746,8.659735875048994e-05
-0.44572886664391265,-0.44572886664391265,0.9999071189992437,8.677518609053725e-05
-0.44451214662185523,-0.44451214662185523,1.0000248000356353,8.678460768876728e-05
-0.44375351516209777,-0.44375351516209777,0.9999575450923268,8.667668694609801e-05
-0.4418870845271158,-0.4418870845271158,0.9999030118250101,8.680569262218398e-05
-0.44044730988680386,-0.44044730988680386,1.0001198828500173,8.643738644226279e-05
-0.4390221147586999,-0.4390221147586999,0.9998972312053145,8.651764373416409e-05
-0.4374375327468442,-0.4374375327468442,0.9999824276106889,8.657542787041084e-05
-0.4365316412462562,-0.4365316412462562,0.9998374178479434,8.658835131470063e-05
-0.43543523445987375,-0.43543523445987375,0.9998785789375155,8.660773387547607e-05
-0.4337657432544802,-0.4337657432544802,1.000132528545019,8.675978636864684e-05
-0.43216493455547605,-0.43216493455547605,1.000139231803793,8.664237817709171e-05
-0.43117871064750946,-0.43117871064750946,1.000061874873469,8.672775560181515e-05
-0.4296783032179519,-0.4296783032179519,1.0000004036452887,8.675122188835987e-05
-0.42768671463854846,-0.42768671463854846,1.0000590762416741,8.654869020198413e-05
-0.4266605521370366,-0.4266605521370366,0.9999468477621022,8.677846824958708e-05
-0.42539705215531287,-0.42539705215531287,0.999923297552319,8.666411999342891e-05
-0.4242467526899418,-0.4242467526899418,0.9999794848017526,8.656694959697065e-05
-0.42271326176269214,-0.42271326176269214,1.0000095020990054,8.725240286977163e-05
-0.4215273296853411,-0.4215273296853411,0.9999564334550177,8.649378635607966e-05
-0.4202659393165959,-0.4202659393165959,0.9999816490200238,8.670734456679805e-05
-0.4190059305408795,-0.4190059305408795,1.0001925581950935,8.685012337549912e-05
-0.4171849666949129,-0.4171849666949129,1.0000816808941937,8.655088554318556e-05
-0.4153490427888755,-0.4153490427888755,0.999977297188809,8.679341504780253e-05
-0.41320953423637546,-0.41320953423637546,0.9998831060262269,8.67065879805325e-05
-0.4122380792010517,-0.4122380792010517,0.9999792975392943,8.670066091437788e-05
-0.4105503598759242,-0.4105503598759242,1.0000651397191733,8.6612559901114e-05
-0.4084186760301236,-0.4084186760301236,0.9999177751790151,8.66061037352381e-05
-0.4073954891617177,-0.4073954891617177,0.9998999373323686,8.673381965085003e-05
-0.405623044535605,-0.405623044535605,0.9999282962511777,8.656878394440606e-05
-0.4038998234391329,-0.4038998234391329,1.0000981264421405,8.697233768544755e-05
-0.40249711957440015,-0.40249711957440015,0.9999983191722261,8.668159813721537e-05
-0.4013966171623906,-0.4013966171623906,1.0000297965429716,8.661183947872002e-05
-0.3998434189350519,-0.3998434189350519,1.0000460742754549,8.67610459239792e-05
-0.39810654422471997,-0.39810654422471997,1.0001214857571612,8.666083909433456e-05
-0.3970649021510326,-0.3970649021510326,0.9998165950433722,8.670120954254569e-05
-0.39520035656460095,-0.39520035656460095,0.9999312620069147,8.668498405008545e-05
-0.39404010249272686,-0.39404010249272686,0.9999703229812361,8.665530465498718e-05
-0.39347549345111477,-0.39347549345111477,1.000033651544031,8.652891134374755e-05
-0.392060973669868,-0.392060973669868,0.999981959595204,8.657617729500557e-05
-0.39011586329725106,-0.39011586329725106,0.9999773264921215,8.663578391939817e-05
-0.38911809563360295,-0.38911809563360295,1.000013999467837,8.671658991577994e-05
-0.38775002702968775,-0.38775002702968775,1.0000097272601747,8.682028587168956e-05
-0.385946285391401,-0.385946285391401,1.0001325507170842,8.65868981879735e-05
-0.38475270486451335,-0.38475270486451335,0.9999453953328977,8.674265587274318e-05
-0.3839629213878652,-0.3839629213878652,1.000070574881872,8.67416945201407e-05
-0.38263548208997233,-0.38263548208997233,0.9998595397775112,8.67213587783218e-05
-0.38127558826308816,-0.38127558826308816,0.9998534280385165,8.671991415513658e-05
-0.3798483150887478,-0.3798483150887478,1.000045649072589,8.740383437492537e-05
-0.37863618531846444,-0.37863618531846444,1.0000945523389742,8.662903150766745e-05
-0.3775317214502138,-0.3775317214502138,1.0000191347518905,8.67247277478936e-05
-0.3764946234274248,-0.3764946234274248,1.0000152097223438,8.683658491659361e-05
-0.3754251665195625,-0.3754251665195625,0.999969627154135,8.662307782959601e-05
-0.37452433839280275,-0.37452433839280275,1.0001187841695995,8.656749165311839e-05
-0.37272720861583364,-0.37272720861583364,1.0001013713043012,8.68078257547073e-05
-0.37102520236730924,-0.37102520236730924,1.0000736506299368,8.67383984104256e-05
-0.370263052835071,-0.370263052835071,1.0000516422097516,8.668640561254155e-05
-0.36894473472930256,-0.36894473472930256,1.0001874736022376,8.681613310034101e-05
-0.3668550300280913,-0.3668550300280913,0.9999381540305116,8.656639376482741e-05
-0.36567301661416424,-0.36567301661416424,0.9999026648548235,8.654945274279066e-05
-0.3642640320642386,-0.3642640320642386,1.0000508961632473,8.677211893540467e-05
-0.36224593040824404,-0.36224593040824404,1.0000986718004208,8.649250294451516e-05
-0.3610783570802596,-0.3610783570802596,0.9999860439676264,8.699964502542062e-05
-0.35972945267203615,-0.35972945267203615,0.9998683909241292,8.654245466218332e-05
-0.35848503565503054,-0.35848503565503054,1.0000121832698299,8.66429397337385e-05
-0.35659264256901224,-0.35659264256901224,1.000188044272056,8.671920215497191e-05
-0.3555179416449391,-0.3555179416449391,1.0000508705025137,8.662156164400802e-05
-0.3546578274930653,-0.3546578274930653,1.0000589240271966,8.658468032152744e-05
-0.35340587299360776,-0.35340587299360776,1.0000445359282737,8.676556234098426e-05
-0.3522189612413058,-0.3522189612413058,1.0000672184643566,8.661372935602958e-05
-0.3510395586643426,-0.3510395586643426,1.0000062899151072,8.665000555223709e-05
-0.3491794483517879,-0.3491794483517879,1.0001155734654867,8.686737967310519e-05
-0.34784556971717395,-0.34784556971717395,1.000089366562917,8.649766603507397e-05
-0.3469171902812377,-0.3469171902812377,0.999932818735348,8.66862269581134e-05
-0.34621637734380784,-0.34621637734380784,1.000125302854769,8.657822501804319e-05
-0.3443932750815293,-0.3443932750815293,1.0000970806167175,8.667947993658163e-05
-0.34295325149578276,-0.34295325149578276,0.9998488532429667,8.659058671740233e-05
-0.34153404654716724,-0.34153404654716724,1.0000068394517334,8.669676401217996e-05
-0.3400588891010557,-0.3400588891010557,1.0000353903480685,8.671894159622396e-05
-0.33888407904887574,-0.33888407904887574,1.0000114330496803,8.666499173599812e-05
-0.3369354588321585,-0.3369354588321585,0.9999870016275837,8.66514085629522e-05
-0.33568918795645003,-0.33568918795645003,0.9999880358079446,8.64459004903635e-05
-0.3337382356483431,-0.3337382356483431,0.9999961136355147,8.666568644163373e-05
-0.3326268627766694,-0.3326268627766694,0.9999411088089669,8.667385000433561e-05
-0.3321118253064924,-0.3321118253064924,0.9999445877049171,8.65562898742866e-05
-0.33137924693510284,-0.33137924693510284,1.0002088762664765,8.67155724188812e-05
-0.3301236474129837,-0.3301236474129837,0.9999878070054813,8.676844830482361e-05
-0.3285638081448269,-0.3285638081448269,0.9999395285276256,8.651262294425746e-05
-0.3271751921696705,-0.3271751921696705,1.0001042162177518,8.668953081156751e-05
-0.3259535124991089,-0.3259535124991089,1.000038744684471,8.685914070718857e-05
-0.32460069763619687,-0.32460069763619687,0.9999080939840654,8.658263458413893e-05
-0.3231378948716156,-0.3231378948716156,0.9999963441645849,8.667851201703828e-05
-0.3223978428533883,-0.3223978428533883,0.9999441899223493,8.67773715125012e-05
-0.3211846798309125,-0.3211846798309125,0.9999960776991952,8.65443313025321e-05
-0.320456439924601,-0.320456439924601,1.000057115595768,8.664927772491238e-05
-0.3186270686586795,-0.3186270686586795,1.0000559048917457,8.725820262698152e-05
-0.3175190433168609,-0.3175190433168609,1.0000325143612392,8.65748698279476e-05
-0.3163123827427626,-0.3163123827427626,0.9999538609406203,8.674980798030081e-05
-0.315401825018489,-0.315401825018489,0.9999903348140006,8.671745439089754e-05
-0.3135287387820426,-0.3135287387820426,1.0000284455234172,8.676840458727047e-05
-0.3115936125774169,-0.3115936125774169,1.0000081542746142,8.670599909295372e-05
-0.3089469531601935,-0.3089469531601935,1.0000838355398287,8.6713797819991e-05
-0.30778046067425746,-0.30778046067425746,1.00000876955969,8.683414797599096e-05
-0.3057763111202803,-0.3057763111202803,0.9999458640757718,8.649638203607086e-05
-0.3040804127747833,-0.3040804127747833,1.0000317411761062,8.656210421283816e-05
-0.30313325189345053,-0.30313325189345053,0.9999988222369287,8.673820284588001e-05
-0.30076143783298903,-0.30076143783298903,0.9998982594747267,8.659268507827255e-05
-0.2989076895537437,-0.2989076895537437,1.0000228954615689,8.692973779733323e-05
-0.29724675568722886,-0.29724675568722886,0.999931139677282,8.66270106615364e-05
-0.2959625765113742,-0.2959625765113742,1.0001393719428129,8.681430441778944e-05
-0.2940225750564423,-0.2940225750564423,0.9999697428151144,8.683726068446458e-05
-0.2931602557466249,-0.2931602557466249,0.999890211690263,8.655113717824787e-05
-0.2913036125799408,-0.2913036125799408,0.9998872372270728,8.666849512557699e-05
-0.2898770720603352,-0.2898770720603352,1.0000727218697618,8.667401406355126e-05
-0.28937136284148435,-0.28937136284148435,1.0000718551953331,8.660717170420833e-05
-0.28799815153251984,-0.28799815153251984,1.000080022991932,8.657686106538625e-05
-0.28613701925132773,-0.28613701925132773,1.000046724492383,8.65933726031972e-05
-0.2850674276473001,-0.2850674276473001,1.0000682786084985,8.672694073110418e-05
-0.2837331791211909,-0.2837331791211909,0.9999406050787005,8.679938173941918e-05
-0.28216479822658586,-0.28216479822658586,1.0000218652322814,8.658148278491119e-05
-0.28081377356502346,-0.28081377356502346,0.9999450957688198,8.672188462038846e-05
-0.2797653201087087,-0.2797653201087087,1.000141889785734,8.678398066236898e-05
-0.27832533372857143,-0.27832533372857143,0.9999639146056379,8.676066257515794e-05
-0.27661993283763875,-0.27661993283763875,0.99993170056088,8.729625819156897e-05
-0.27533035181622834,-0.27533035181622834,1.0000275331090849,8.682387493829627e-05
-0.2741541000701545,-0.2741541000701545,1.0001047827421048,8.657208606413306e-05
-0.2724557869063574,-0.2724557869063574,1.0000512907165906,8.67967772110398e-05
-0.2712750168990169,-0.2712750168990169,1.0000533230909796,8.676303962264349e-05
-0.2701303385416395,-0.2701303385416395,1.0000909189689904,8.658708915625209e-05
-0.26775668549598775,-0.26775668549598775,1.000107756416789,8.680218084403289e-05
-0.26645771350522407,-0.26645771350522407,0.9999498444088241,8.672558808309089e-05
-0.2657202452835918,-0.2657202452835918,0.9998815228477497,8.666424315424256e-05
-0.26442919452965724,-0.26442919452965724,0.9998931470277647,8.680890080906018e-05
-0.26254162026307315,-0.26254162026307315,1.0000073873622302,8.655341998719399e-05
-0.2612660749633505,-0.2612660749633505,0.9999790354199012,8.662311925698128e-05
-0.25989872263089636,-0.25989872263089636,0.9999318991704417,8.671560247155874e-05
-0.2582897907021106,-0.2582897907021106,1.0000398297725008,8.644412841666684e-05
-0.2570625575965096,-0.2570625575965096,1.0000846718227137,8.705940462118848e-05
-0.2557197643967811,-0.2557197643967811,0.9999125351833985,8.661795015785025e-05
-0.2542230323058902,-0.2542230323058902,0.9998741019189998,8.663467523608863e-05
-0.2526957415502693,-0.2526957415502693,1.000047253666437,8.672998962455275e-05
-0.2512736586177198,-0.2512736586177198,0.9999982832058711,8.662790145110251e-05
-0.25006142641577755,-0.25006142641577755,0.9999886464180137,8.671946032162454e-05
-0.2488870643588598,-0.2488870643588598,1.0000481806625403,8.664777313704246e-05
-0.24747642813963466,-0.24747642813963466,1.0000357461822427,8.660630944364904e-05
-0.24647393857958377,-0.24647393857958377,1.000030739478169,8.667621285629148e-05
-0.24469104046365828,-0.24469104046365828,1.000006985979581,8.68375070457813e-05
-0.24356856738304486,-0.24356856738304486,0.9998137918631459,8.645115741905199e-05
-0.2426550532625697,-0.2426550532625697,0.9999956015680562,8.668292358594936e-05
-0.2422057520241651,-0.2422057520241651,1.000068888929365,8.659779147025698e-05
-0.2401631559645466,-0.2401631559645466,1.0000969663557484,8.669442525459653e-05
-0.2387599872192368,-0.2387599872192368,1.000054956342026,8.667932375094642e-05
-0.23754934675234834,-0.23754934675234834,1.0001158071982243,8.670161888925088e-05
-0.23598667400074191,-0.23598667400074191,0.9999855838158747,8.677916081478734e-05
-0.234963656016771,-0.234963656016771,1.000117256039318,8.65561939406971e-05
-0.23328222105192253,-0.23328222105192253,1.0000515913098507,8.678617594207674e-05
-0.23215448490154814,-0.23215448490154814,1.0001457658255766,8.652413191536666e-05
-0.23069659039974794,-0.23069659039974794,1.0002033229715377,8.64898502038791e-05
-0.22887347821888399,-0.22887347821888399,1.0000701656055822,8.66507756521132e-05
-0.22810928360995603,-0.22810928360995603,0.9999714034697498,8.666852477104964e-05
-0.2272055015921069,-0.2272055015921069,1.0000480870613515,8.661595936723509e-05
-0.22586019266600488,-0.22586019266600488,0.9999251580243274,8.676610858198816e-05
-0.22430203674812219,-0.22430203674812219,1.0000114004253702,8.651028454635405e-05
-0.22308480961146415,-0.22308480961146415,1.0000410033633125,8.667412219167322e-05
-0.22194428041766515,-0.22194428041766515,1.0001502953871848,8.679516835192974e-05
-0.22035829211818053,-0.22035829211818053,0.999973874599851,8.659609781540783e-05
-0.2190828287122713,-0.2190828287122713,1.000057273750712,8.663946744611233e-05
-0.2179637047716824,-0.2179637047716824,0.9999905600231184,8.665394850211557e-05
-0.21679146144088007,-0.21679146144088007,0.9999404528345417,8.669394267475251e-05
-0.21533379079482984,-0.21533379079482984,1.0000711681193546,8.66627389156138e-05
-0.21403779000393114,-0.21403779000393114,0.9999373470000956,8.729807668614404e-05
-0.21247129009716445,-0.21247129009716445,0.9999612602482888,8.662041358997979e-05
-0.21088335407112027,-0.21088335407112027,0.9999922158462086,8.685026095437498e-05
-0.20925115138525144,-0.20925115138525144,0.9999982311842999,8.667787669879087e-05
-0.2075273994865711,-0.2075273994865711,1.0000189620646793,8.669641497810257e-05
-0.20566753804378096,-0.20566753804378096,1.0000368159030422,8.65854148527488e-05
-0.20452607949773666,-0.20452607949773666,1.000028150445343,8.676347552017068e-05
-0.2035088022079435,-0.2035088022079435,1.000108038687791,8.667680335900311e-05
-0.2020246867046808,-0.2020246867046808,0.9999139519902203,8.66187678992228e-05
-0.20024393634739682,-0.20024393634739682,1.000032295153922,8.655908407838834e-05
-0.19946886910693137,-0.19946886910693137,1.0000975000956098,8.670442255855998e-05
-0.19789144452151958,-0.19789144452151958,1.0000391700320306,8.663197209838445e-05
-0.19608673288894352,-0.19608673288894352,0.999889577528792,8.6584227145181e-05
-0.19464499875539332,-0.19464499875539332,0.9999265764610857,8.693078914735863e-05
-0.1929847196188348,-0.1929847196188348,0.9998933754850873,8.662610213474193e-05
-0.19131742600657162,-0.19131742600657162,0.9997818700375524,8.675418084731742e-05
-0.18950348717407905,-0.18950348717407905,0.9999535477594188,8.65496565295913e-05
-0.18781719846156192,-0.18781719846156192,0.9999771875618659,8.672816306793868e-05
-0.1860122843667341,-0.1860122843667341,1.0000020024444352,8.666178407268929e-05
-0.18532246375398245,-0.18532246375398245,1.0000690096509273,8.659699205668534e-05
-0.1836623740484356,-0.1836623740484356,1.0000692320914117,8.663255523434355e-05
-0.18161336216362542,-0.18161336216362542,0.9999416284656821,8.672265328575445e-05
-0.18061935816076585,-0.18061935816076585,0.9999560812486612,8.671956431127481e-05
-0.17922268589463783,-0.17922268589463783,1.0001355519633175,8.682917254084792e-05
-0.17769065071915974,-0.17769065071915974,0.9998579715427145,8.651322029170025e-05
-0.17632145072566346,-0.17632145072566346,1.0000554502846057,8.668521487460537e-05
-0.17512113823831896,-0.17512113823831896,0.9999221770246107,8.6808417995318e-05
-0.17399505920839148,-0.17399505920839148,0.9999609844954567,8.67501839866106e-05
-0.17290403896695353,-0.17290403896695353,1.00012024699416,8.670000670695923e-05
-0.17174075695002103,-0.17174075695002103,1.0000282038332173,8.676592863617838e-05
-0.17080344543792308,-0.17080344543792308,1.0000292426371618,8.667571312429945e-05
-0.16958465739662643,-0.16958465739662643,1.0001900386438405,8.667057561011072e-05
-0.1681450553573086,-0.1681450553573086,1.0000074182671645,8.67961635928029e-05
-0.16701190352323464,-0.16701190352323464,0.9999719758763288,8.675690772900297e-05
