time,time,flux,flux_err
-0.4998496661925553,-0.4998496661925553,1.0000056941527948,0.0001146868813354315
-0.4996046946222729,-0.4996046946222729,1.0000110342325215,0.000114151421914177
-0.49941439391768655,-0.49941439391768655,1.0001999695118389,0.0001031568728270563
-0.49914342948468404,-0.49914342948468404,1.0002220901996597,0.00010439257223247074
-0.499015155093366,-0.499015155093366,0.9999176644895899,0.00010552967615514968
-0.4988412570899527,-0.4988412570899527,0.9999659995338801,0.00010390586824617057
-0.4987579079795978,-0.4987579079795978,0.9998197657301976,0.0001028811898934684
-0.4986568536172854,-0.4986568536172854,1.0000533097578586,0.00010124383032760877
-0.4985639788246772,-0.4985639788246772,0.9999724121738247,0.00010129121582834907
-0.4984641696435574,-0.4984641696435574,0.9999700309430283,0.00010874036986477332
-0.49839976165312694,-0.49839976165312694,1.0000319270626299,0.00010300312625632227
-0.4983202169962169,-0.4983202169962169,0.9999669051276904,0.00010283376741686242
-0.49823574226466005,-0.49823574226466005,0.9999865038838391,0.00010226964303141103
-0.4981681567398482,-0.4981681567398482,1.000035627845479,0.00010099344281320046
-0.49802364893621415,-0.49802364893621415,0.9999573279718137,0.0001062253086024523
-0.49788112088499475,-0.49788112088499475,0.9999363223663101,0.00010700382748140946
-0.4977265822228219,-0.4977265822228219,1.0000051587659766,0.00010355728842780017
-0.4976337547705043,-0.4976337547705043,0.9999874755930328,0.00010362672286621769
-0.4975943980869488,-0.4975943980869488,0.9999944966735805,0.00010562705850040825
-0.49742526341287885,-0.49742526341287885,0.9999612917589129,0.00010293713626425165
-0.497324558418768,-0.497324558418768,1.0002005950846269,0.00010517330644739151
-0.4971592330744897,-0.4971592330744897,0.9998605436540327,0.0001025713649666145
-0.4969870092005294,-0.4969870092005294,0.9999284229909213,0.00010449375070012224
-0.4968909526607604,-0.4968909526607604,1.000021555422115,0.00010285503171620891
-0.49652745243074603,-0.49652745243074603,1.0000738575296748,0.00010339084608732504
-0.49626328031445155,-0.49626328031445155,1.0001458008640924,0.00010654553233382194
-0.49619448040321,-0.49619448040321,0.9999087890337423,0.00010479692263963587
-0.4960437094778172,-0.4960437094778172,0.9999455528895513,0.00010263183565386235
-0.49598097636626337,-0.49598097636626337,1.000027817996608,0.00010320956553657668
-0.4958451659185812,-0.4958451659185812,1.0000200309280047,0.00010138110741848303
-0.49570244305577943,-0.49570244305577943,0.9998495588969822,0.00010233007009166989
-0.4956251308649371,-0.4956251308649371,1.000046971671949,0.00010414942624119652
-0.49548388911716756,-0.49548388911716756,1.000024778790505,0.00010572982254811849
-0.49536352577488285,-0.49536352577488285,1.0000849436248977,0.00010361912467431594
-0.4951927857757255,-0.4951927857757255,0.9998746300612332,0.00010342276586589826
-0.49505558891178225,-0.49505558891178225,1.000116569088675,0.00010227693612963507
-0.49495081218119596,-0.49495081218119596,1.000150529243888,0.00010477052686286788
-0.4948690610792255,-0.4948690610792255,0.9998369156584909,0.00010430339093175236
-0.49480309039063286,-0.49480309039063286,1.0000020666877227,0.00010508724870685006
-0.4947204689589853,-0.4947204689589853,1.0000663812419948,0.00010193751467802593
-0.49456327094958397,-0.49456327094958397,0.9999069950630318,0.00010722050566291099
-0.49437316791518243,-0.49437316791518243,1.000092284609669,0.00010103759702656694
-0.49420600198573084,-0.49420600198573084,1.0000674563140213,0.0001026319181548773
-0.4941103056364227,-0.4941103056364227,1.000067172601808,0.00010479575374518861
-0.4939674142486183,-0.4939674142486183,0.9999970673690328,0.00010226620662506143
-0.4936836241206038,-0.4936836241206038,0.99991016060582,0.00010314402328418194
-0.4935093506835983,-0.4935093506835983,0.9999397918332104,0.00010695052841884703
-0.4933465274640184,-0.4933465274640184,0.9999397015027078,0.00010422508181556279
-0.49321150104515254,-0.49321150104515254,0.9999639068416138,0.00010277873988392885
-0.4930689021231956,-0.4930689021231956,1.0000227572653642,0.00010373881092014272
-0.4928571127347823,-0.4928571127347823,1.000146014986287,0.00010432692971851586
-0.4927277273571235,-0.4927277273571235,0.9999499726630041,0.00010520972670685354
-0.4925582801311975,-0.4925582801311975,0.9999933871522068,0.00010118730119766961
-0.49243086339265574,-0.49243086339265574,1.0001546696827113,0.00010129131875033746
-0.49229502661910374,-0.49229502661910374,1.0000206334621495,0.00010472301927727688
-0.49225147349498,-0.49225147349498,0.9999980996013826,0.00010332797576149134
-0.49218077278419514,-0.49218077278419514,0.9999135086621612,0.00010326471635451788
-0.49212543795947566,-0.49212543795947566,1.0001746057793783,0.00010757287285221301
-0.49205135447991777,-0.49205135447991777,1.0001312316413635,0.00010416259429459861
-0.49198476081219267,-0.49198476081219267,0.9999513319432314,0.0001036681594412509
-0.4918901626864681,-0.4918901626864681,1.0000839015546155,0.00010428069525077173
-0.4918217338738032,-0.4918217338738032,1.0000425794190515,0.00010406573078217827
-0.4917551812606689,-0.4917551812606689,1.0000177131979775,0.00010384850197632276
-0.4916439766609983,-0.4916439766609983,0.999913022039473,0.00010276915120674196
-0.4915066869973089,-0.4915066869973089,0.9998823594625923,0.000103127147591987
-0.49137551320018247,-0.49137551320018247,1.0001447562672365,0.00010177871498796715
-0.49130093379862955,-0.49130093379862955,1.0000158368881145,0.00010528248500534052
-0.49108340127131667,-0.49108340127131667,0.9998522478246432,0.00010496834726063368
-0.490901706762088,-0.490901706762088,1.0000449780939193,0.00010475287240696266
-0.4906969818854122,-0.4906969818854122,1.000106370369703,0.00010377054534990314
-0.4905494640035613,-0.4905494640035613,0.9999952408009353,0.00010474999380384015
-0.4903636657007155,-0.4903636657007155,0.9999416216628688,0.00010341293694928308
-0.4901975736225722,-0.4901975736225722,0.9999157410751979,0.00010491325918959783
-0.48999778375582537,-0.48999778375582537,0.9999744099380315,0.0001054501505312604
-0.489888630763744,-0.489888630763744,1.0000967062029784,0.0001051153231380249
-0.4897183606066392,-0.4897183606066392,0.9999521508890746,0.00010388304112601695
-0.4896525597592699,-0.4896525597592699,1.000005693834621,0.00010469903420439693
-0.4895819940516958,-0.4895819940516958,1.000113655361784,0.00010302151829225063
-0.48948066692537395,-0.48948066692537395,0.9999887986868311,0.00010062961549070163
-0.48938533004475177,-0.48938533004475177,1.0001474174076712,0.00010700439340178194
-0.48929607430691247,-0.48929607430691247,0.9999233827050945,0.00010492124361567839
-0.48921875317610103,-0.48921875317610103,0.9997895724386355,0.00010542485144342754
-0.4891223399041337,-0.4891223399041337,1.000000883420516,0.00010227702943963561
-0.4890476619140827,-0.4890476619140827,1.0000518361024116,0.00010038911892953277
-0.4888324302941328,-0.4888324302941328,0.9999591679845826,0.00010667067536390417
-0.4886726053970051,-0.4886726053970051,1.0000637965554173,0.00010594896701177489
-0.488551607086265,-0.488551607086265,0.9999819508494671,0.00010472224136540388
-0.48850463111448333,-0.48850463111448333,0.9998718947142864,0.0001046473480696933
-0.4883505675228662,-0.4883505675228662,0.9998964143798329,0.00010154900901092312
-0.48825686775453503,-0.48825686775453503,1.0000620815971675,0.00010558878426826179
-0.4881339576553728,-0.4881339576553728,0.999945490208258,0.00010423794474128561
-0.48799050618181355,-0.48799050618181355,1.0000022288657822,0.0001010388111479235
-0.4878220560502086,-0.4878220560502086,1.0000591130407983,0.0001056580347880253
-0.48771417492534963,-0.48771417492534963,1.0001055768798301,0.00010197651704729437
-0.48720810777449514,-0.48720810777449514,1.000154287268495,0.00010495713970883173
-0.48710091161337915,-0.48710091161337915,0.9999177857203507,0.0001045888013873783
-0.48695545224036324,-0.48695545224036324,0.99978135413168,0.00010252378159458875
-0.4868969606075552,-0.4868969606075552,0.9999799368547919,0.00010138753535312306
-0.48680425947823097,-0.48680425947823097,1.0000880262562357,0.00010200367659950389
-0.48668361156087486,-0.48668361156087486,0.9998143624939907,0.00010144884251944217
-0.48656890124693747,-0.48656890124693747,0.9999686216366935,0.00010180694515771471
-0.48648154849361164,-0.48648154849361164,0.9998811978068929,0.00010395175023907794
-0.4863180568878306,-0.4863180568878306,1.0000170229619982,0.00010455504370290008
-0.4862116615709965,-0.4862116615709965,0.9999094655161681,0.00010371501243462377
-0.4860026789305266,-0.4860026789305266,1.000085015368413,0.00010343395596726058
-0.48592227334156635,-0.48592227334156635,0.999934506965225,0.00010114498577455359
-0.4858500521615497,-0.4858500521615497,1.0000027528250899,0.00010271071040053074
-0.4857716296763101,-0.4857716296763101,0.9997872693388687,0.00010405027414874341
-0.4857228914814186,-0.4857228914814186,1.0001033323739574,0.00010448699337924048
-0.48566255637560973,-0.48566255637560973,1.0000104836769252,0.00010367623189738275
-0.48558224297594277,-0.48558224297594277,0.9999328227912601,0.0001022824951763388
-0.48540567760719566,-0.48540567760719566,1.000106088110361,0.00010306180056342555
-0.4852020400649053,-0.4852020400649053,0.9999504090882331,0.00010268172068420464
-0.48505542754210185,-0.48505542754210185,1.0000486920924163,0.0001018776695905546
-0.4849625997398107,-0.4849625997398107,1.0000529398855371,0.0001026639530908565
-0.4846950824634405,-0.4846950824634405,0.9999221383179713,0.00010435761647583596
-0.48447607437265106,-0.48447607437265106,0.9999048451126289,0.00010458802318579475
-0.4843431109373341,-0.4843431109373341,0.9999093093049387,0.00010425384129731987
-0.4841749646664539,-0.4841749646664539,1.00007909288116,0.00010378419761644965
-0.4839962161895528,-0.4839962161895528,0.9999709212186488,0.00010225413921519477
-0.4838436205238395,-0.4838436205238395,1.0000655724541463,0.00010254007906978887
-0.48367563638385036,-0.48367563638385036,0.9999871138279774,0.00010363881138145585
-0.4835559950042807,-0.4835559950042807,0.9998651715935605,0.00010468003865757285
-0.48341218050554746,-0.48341218050554746,1.0000104721345997,0.00010201564137909064
-0.4832758340788132,-0.4832758340788132,1.0000777401491932,0.00010089414948303156
-0.48315619077402516,-0.48315619077402516,1.00015712379481,0.00010420600272017602
-0.48310553023184183,-0.48310553023184183,1.000206235645481,0.00010367429026096833
-0.483037969590805,-0.483037969590805,1.0000377031671353,0.00010515634833478844
-0.4829862877544656,-0.4829862877544656,1.0000440840812808,0.00010633019094214604
-0.48288803665564045,-0.48288803665564045,1.0000557108453125,0.0001031703765749824
-0.48282025354128566,-0.48282025354128566,1.0000861607748328,0.00010432522421088502
-0.4827348171915219,-0.4827348171915219,1.0000079347065942,0.00010493454155272154
-0.48267850872362034,-0.48267850872362034,0.9999298623053144,0.00010196211432573724
-0.48261066783452405,-0.48261066783452405,1.0000827773906618,0.00010469545782220765
-0.48249388220356193,-0.48249388220356193,1.0000371767799223,0.00010046189908370828
-0.4823864388257789,-0.4823864388257789,1.0000221299592382,0.00010305173834540004
-0.4822702599223703,-0.4822702599223703,0.9999468651032123,0.00010387364569212722
-0.48219706370218773,-0.48219706370218773,0.9999133931440751,0.0001040118148279278
-0.4820657960110111,-0.4820657960110111,0.999941655603046,0.00010629598442074998
-0.48193260152766015,-0.48193260152766015,0.9998628904433703,0.00010475282379622311
-0.4817705747045693,-0.4817705747045693,0.999857798479991,0.00010486626532707239
-0.48157431768559034,-0.48157431768559034,0.9999720603804656,0.00010461713610966266
-0.48146653829680874,-0.48146653829680874,1.0000565769026923,0.00010506712078136392
-0.48131948409354663,-0.48131948409354663,1.0000669623030474,0.00010323983986081983
-0.4812256607416202,-0.4812256607416202,1.0000239063597307,0.00010318884909968713
-0.48113097468885824,-0.48113097468885824,1.000148877580309,0.00010770406662763764
-0.4809476045695192,-0.4809476045695192,0.9999472801214235,0.00010508273772776333
-0.48082539877068486,-0.48082539877068486,1.0000600276121698,0.00010511235099328383
-0.48063376854261153,-0.48063376854261153,1.0000439619089014,0.0001036212270669881
-0.4805660795784206,-0.4805660795784206,0.9999135357984429,0.00010404802138132093
-0.48048992491603715,-0.48048992491603715,1.0000720295938132,0.00010728053422382891
-0.4803787487777299,-0.4803787487777299,1.0001981095867207,0.00010080210167236206
-0.4802874049630191,-0.4802874049630191,1.000156503509579,0.0001057028656504815
-0.4801889716429287,-0.4801889716429287,0.9998693119732602,0.00010580206995788656
-0.4800861187366536,-0.4800861187366536,0.9999396705352313,0.00010462570222420182
-0.4800080868932127,-0.4800080868932127,0.9999619139782567,0.00010362411826693682
-0.47992422621828157,-0.47992422621828157,1.0000762713955889,0.00010011568057751374
-0.4797524638772302,-0.4797524638772302,0.9999734815826796,0.00010594046882017846
-0.47955597252730514,-0.47955597252730514,1.000103270182801,0.00010544796869508879
-0.47941491903475253,-0.47941491903475253,1.0000219522227776,0.00010568779558801306
-0.47938197694602425,-0.47938197694602425,0.9999016914215678,0.00010413186425290092
-0.4792225115612382,-0.4792225115612382,1.000018573648719,0.00010430922315124292
-0.47911221105387086,-0.47911221105387086,1.0002355892269175,0.00010427952356997768
-0.4789349391568976,-0.4789349391568976,0.9999251031852596,0.00010253592517629043
-0.47871168708152256,-0.47871168708152256,1.0000356838149362,0.00010591371605762853
-0.4786176783607516,-0.4786176783607516,0.9999377955159845,0.00010227879689072437
-0.47822142679651736,-0.47822142679651736,1.0000226016320783,0.000101662807283238
-0.47804218680248595,-0.47804218680248595,0.9999599372181598,0.00010640863344933639
-0.4779636481121997,-0.4779636481121997,1.0000824335268723,0.00010284268462961482
-0.4777997198361845,-0.4777997198361845,1.0000098578746197,0.00010265866622253906
-0.47770292892455474,-0.47770292892455474,0.9999605742680509,0.00010180131707510185
-0.4775526232471748,-0.4775526232471748,0.9999151489514642,0.00010150613984153032
-0.47742769301039517,-0.47742769301039517,1.0001058118219142,0.00010405857824753526
-0.47734937075074413,-0.47734937075074413,0.9999016744640967,0.00010300470318249779
-0.47722916658967734,-0.47722916658967734,0.9999562201155306,0.00010460308530601476
-0.4771115903880855,-0.4771115903880855,0.9998451441835712,0.00010281851517336614
-0.47692844212433555,-0.47692844212433555,1.00000282749297,0.00010724085115919869
-0.4768110416604031,-0.4768110416604031,0.9999439568853244,0.00010195828790414291
-0.47675802533776734,-0.47675802533776734,1.0001813352033102,0.00010276694461193777
-0.4766629504672892,-0.4766629504672892,1.0000216103937416,0.00010459122285797847
-0.47661504484640316,-0.47661504484640316,0.9999620968303704,0.00010564580210698281
-0.47654422072300806,-0.47654422072300806,0.9999614448645436,0.0001015428500669642
-0.4764397904553334,-0.4764397904553334,0.9999457962411118,0.0001072224845304435
-0.4762591999009601,-0.4762591999009601,1.0000451641828296,0.00010437361846613586
-0.47606718307724805,-0.47606718307724805,1.0000516286279073,0.00010405071773009547
-0.47593608527968173,-0.47593608527968173,1.000079038284166,0.00010116167958119023
-0.47588794283074093,-0.47588794283074093,0.9999976039109899,0.00010317883464815828
-0.47567823313802365,-0.47567823313802365,1.0001105770591878,0.00010225663848784919
-0.4753515242831782,-0.4753515242831782,1.0000462596993578,0.00010451802825603813
-0.4752387975815509,-0.4752387975815509,1.0001686788959003,0.0001053043424900055
-0.47509561312472215,-0.47509561312472215,1.0001061982129689,0.00010302922455496743
-0.47494412374289824,-0.47494412374289824,1.0000466464237054,0.00010221924703167958
-0.4747366320916626,-0.4747366320916626,0.999902477350725,0.00010484740182540759
-0.4745282493589912,-0.4745282493589912,0.9999923315844587,0.0001040284038650516
-0.47440511730819707,-0.47440511730819707,1.00008568644825,0.0001040572067484373
-0.4742178920627339,-0.4742178920627339,0.9999343182260605,0.00010054440299381238
-0.4740578237659065,-0.4740578237659065,0.9998362865677821,0.00010371910579537851
-0.473998119503085,-0.473998119503085,0.999940901853719,0.0001053874353769546
-0.47392783110481107,-0.47392783110481107,0.9998614376390821,0.00010571946867466368
-0.47385658377897927,-0.47385658377897927,0.9999669215254577,0.00010578633429395776
-0.47375458432288725,-0.47375458432288725,1.0000560147898778,0.00010294044799045692
-0.4737045133850188,-0.4737045133850188,0.9998783795312367,0.00010326149223686698
-0.47361386718039283,-0.47361386718039283,0.9998629708275569,0.00010269930376769131
-0.47356584321241824,-0.47356584321241824,0.9999933586405678,0.00010449762730771757
-0.47350041142417465,-0.47350041142417465,0.9999009874616709,0.00010343542661624616
-0.47336874458487727,-0.47336874458487727,1.0000123050502967,0.00010279670180784468
-0.473234694533312,-0.473234694533312,0.9998864811471628,0.00010566956793320044
-0.47312609790387794,-0.47312609790387794,1.0000778779784931,0.00010301692711709566
-0.47303538577762083,-0.47303538577762083,1.0000386052814592,0.0001038129695981002
-0.4728542662793188,-0.4728542662793188,0.9999921346738858,0.00010224906073305734
-0.4727795619801327,-0.4727795619801327,1.000082606619497,0.00010487154117640861
-0.4725682513024367,-0.4725682513024367,0.9998833637415409,0.00010741534764977968
-0.47244933441470494,-0.47244933441470494,0.9999646152366883,0.00010597454073695471
-0.47234169586881763,-0.47234169586881763,0.9999934349133118,0.00010503707787391084
-0.47219996531785,-0.47219996531785,1.0001378373001033,0.00010316659393656167
-0.4721014399961859,-0.4721014399961859,1.0000516484207433,0.00010316444376590274
-0.4720312634206493,-0.4720312634206493,1.0000621741213547,0.000106032526338931
-0.47184845129668246,-0.47184845129668246,0.9998703930662156,0.00010589801263141059
-0.4717100844238303,-0.4717100844238303,0.9998946972179994,0.00010455746214186187
-0.4716334632699727,-0.4716334632699727,0.9999599556534123,0.00010791019565302652
-0.47149522769759644,-0.47149522769759644,0.9999741811105161,0.00010409560228170933
-0.47144306957052323,-0.47144306957052323,1.0000033702850526,0.0001027781750707304
-0.47137683863547863,-0.47137683863547863,0.9999744547729916,0.00010264984463168947
-0.47129176691523755,-0.47129176691523755,1.000171213503998,0.00010292374218635949
-0.4711953754005663,-0.4711953754005663,0.9999774231880675,0.00010137555225523804
-0.47113508126931264,-0.47113508126931264,1.000182741338699,0.00010768608310862602
-0.47104445827790187,-0.47104445827790187,1.0002562889648339,0.00010510782560946326
-0.4709463571132801,-0.4709463571132801,1.000125324870484,0.00010342311723461918
-0.4708729526872048,-0.4708729526872048,1.000132723283991,0.00010250992559192153
-0.4707823390599515,-0.4707823390599515,1.0000813784827733,0.00010139649045859032
-0.4705905290087685,-0.4705905290087685,1.0000917986498343,0.00010695776035548825
-0.4704131841855997,-0.4704131841855997,1.0000995379556596,0.00010620913666583814
-0.47028768225500245,-0.47028768225500245,1.0000363307826428,0.0001059036840421483
-0.47024458493906424,-0.47024458493906424,0.9998454671526611,0.00010266705576382495
-0.47009096313195187,-0.47009096313195187,1.0000400851253615,0.0001034243712685057
-0.4700144364127482,-0.4700144364127482,1.000071405387946,0.00010590592588821072
-0.4698863313788024,-0.4698863313788024,0.9999610722169878,0.000103972636255167
-0.4697140321950428,-0.4697140321950428,1.0000337869902924,0.00010384277625498518
-0.46957702795189105,-0.46957702795189105,0.9999786761870235,0.00010582382464844409
-0.46943571981755666,-0.46943571981755666,1.0001506200049346,0.00010093800722659656
-0.4690349415795936,-0.4690349415795936,0.9999742171074935,0.00010411681890878007
-0.4688934990903363,-0.4688934990903363,1.0000128123421352,0.00010547956736655728
