time,time,flux,flux_err
-0.499566814291029,-0.499566814291029,0.9998681058480752,8.982319939455578e-05
-0.4984125307768409,-0.4984125307768409,1.0000002808511987,8.986344247389356e-05
-0.49787179725681197,-0.49787179725681197,0.9998892604583846,8.974812315177018e-05
-0.4972927461130894,-0.4972927461130894,1.00003854211884,8.962790086754999e-05
-0.4964524201066524,-0.4964524201066524,1.0000833075753195,8.985609161838083e-05
-0.49579924962090444,-0.49579924962090444,0.9999598357227735,8.989492407503264e-05
-0.495362028702948,-0.495362028702948,0.9997914596770217,8.969420903784964e-05
-0.49457469567423684,-0.49457469567423684,1.0001475246445857,9.463750246812965e-05
-0.4934557684857282,-0.4934557684857282,0.999950824748392,8.988852937440133e-05
-0.493003888012754,-0.493003888012754,1.0001174739510648,8.971968328927465e-05
-0.4923074516489578,-0.4923074516489578,1.0000588802941117,8.937063488886851e-05
-0.49122882035080695,-0.49122882035080695,1.0000097593099473,8.995315586458736e-05
-0.4903265702443605,-0.4903265702443605,1.0000555667201687,8.971566663133419e-05
-0.4895423689049494,-0.4895423689049494,1.0002956278598458,8.955076842734008e-05
-0.48857012137959827,-0.48857012137959827,0.9999622116069462,8.98107140143221e-05
-0.48775198444345735,-0.48775198444345735,1.0001049325013895,8.975485799528124e-05
-0.48732964232112863,-0.48732964232112863,1.000168633971358,8.940158815409138e-05
-0.48627769128070214,-0.48627769128070214,1.0001296787816858,8.980628085972152e-05
-0.4855320568814932,-0.4855320568814932,1.000008565878001,8.982013534386134e-05
-0.48510488630272447,-0.48510488630272447,0.9998592371169913,8.961365422731281e-05
-0.48439963591445123,-0.48439963591445123,0.9999612991719345,8.994997218555045e-05
-0.4834896039224986,-0.4834896039224986,1.0000728683602242,8.944699992320745e-05
-0.4828692375296669,-0.4828692375296669,1.000034419271568,8.977442027406318e-05
-0.4823219017962401,-0.4823219017962401,1.0002193344717996,8.988506098148773e-05
-0.4812379097129451,-0.4812379097129451,1.000106354266039,8.977023178005506e-05
-0.48047236949569194,-0.48047236949569194,0.9999631589409457,8.992805736889259e-05
-0.4798854591332201,-0.4798854591332201,1.0003149850880724,8.949673259333881e-05
-0.47870545600599146,-0.47870545600599146,0.9999573764695396,8.96612757173205e-05
-0.4781744437706948,-0.4781744437706948,1.0000738527779662,8.989484595032997e-05
-0.47771032318487416,-0.47771032318487416,1.0000203955233788,8.96111163746025e-05
-0.4763553547243646,-0.4763553547243646,1.0000833136224536,8.973545274523405e-05
-0.47557482567135595,-0.47557482567135595,1.0002005791506314,8.951554084615661e-05
-0.4748456753943174,-0.4748456753943174,0.9998922862071028,8.9498994504985e-05
-0.4738945809469442,-0.4738945809469442,0.9999668607329883,8.993212242676133e-05
-0.4730766517212032,-0.4730766517212032,0.9998812761135802,8.964611428631875e-05
-0.4722081091516884,-0.4722081091516884,1.000101167012646,8.962306666295785e-05
-0.47133346212285687,-0.47133346212285687,0.9998315125452013,8.98088543253924e-05
-0.4705073719502252,-0.4705073719502252,1.000052102916797,8.973420359468536e-05
-0.46991801607437084,-0.46991801607437084,1.0001379576049465,8.974202550093662e-05
-0.4695093740068842,-0.4695093740068842,1.0000520850328842,8.97390055267523e-05
-0.4686617778010259,-0.4686617778010259,0.9999809664594365,8.960944141868612e-05
-0.4677342987830343,-0.4677342987830343,1.0000222505601986,8.973493305342346e-05
-0.4672080506308703,-0.4672080506308703,1.0000942613212391,9.158331324248922e-05
-0.4663136059622047,-0.4663136059622047,1.0001295163004886,8.961237036072203e-05
-0.46536375351352033,-0.46536375351352033,1.0000297126767559,8.983609045447399e-05
-0.4649567630258389,-0.4649567630258389,0.9999259520086967,8.974915699506553e-05
-0.46430631105104114,-0.46430631105104114,1.0001256538624366,8.968334023274398e-05
-0.46345599292981204,-0.46345599292981204,1.0001245100216405,9.011034124305354e-05
-0.4628461698281171,-0.4628461698281171,1.0000117604115786,8.99382341795501e-05
-0.4623385152342962,-0.4623385152342962,0.999919104746478,9.179613700447344e-05
-0.46107980231245166,-0.46107980231245166,1.000090602616773,8.975925235645484e-05
-0.46041291679648566,-0.46041291679648566,1.0000725134022759,8.968607222901485e-05
-0.4596556367170706,-0.4596556367170706,0.9999242835569122,8.942020709374674e-05
-0.4588015157445625,-0.4588015157445625,1.000046490961283,8.991295334808606e-05
-0.45804791974733233,-0.45804791974733233,0.9999230818425883,8.965348859357061e-05
-0.4572129158012103,-0.4572129158012103,1.0001174455358057,8.945098828430162e-05
-0.4562844188323652,-0.4562844188323652,1.0000201999712413,8.992373133552957e-05
-0.4554473161457281,-0.4554473161457281,1.0000073687458098,8.964057820748065e-05
-0.4545867137843743,-0.4545867137843743,1.0000769135918832,8.962807192800543e-05
-0.4537794612486323,-0.4537794612486323,1.0001011184401813,8.99565368314466e-05
-0.4530336283285578,-0.4530336283285578,0.9999778529739597,9.024185666481406e-05
-0.4523750309279421,-0.4523750309279421,0.9999385119041746,8.971103189474533e-05
-0.4520009766347357,-0.4520009766347357,1.0001211597003339,8.959166414193614e-05
-0.4511827366950456,-0.4511827366950456,1.0000286431783956,9.010858908052824e-05
-0.45043611176661214,-0.45043611176661214,1.0000630235524826,8.94702069996821e-05
-0.4498012934382132,-0.4498012934382132,0.999988439598383,8.987087880296642e-05
-0.44909517033956947,-0.44909517033956947,1.0000678130654488,9.051727705641446e-05
-0.44793960886163403,-0.44793960886163403,1.0000563532483089,8.963659566563922e-05
-0.4474342421592155,-0.4474342421592155,1.0001903771278708,8.9970148947364e-05
-0.44696990437078055,-0.44696990437078055,0.9999757399610889,8.973380161550451e-05
-0.44621675427042645,-0.44621675427042645,0.9999121985158727,8.951545121754385e-05
-0.44528242248197786,-0.44528242248197786,1.0001374237058536,9.00613894828241e-05
-0.4448381099900871,-0.4448381099900871,1.000130136436549,8.972048040635329e-05
-0.44404493391703,-0.44404493391703,1.0001541791891815,9.342898639171183e-05
-0.44292583499336613,-0.44292583499336613,1.000106036242983,8.989174603806705e-05
-0.44248513539205303,-0.44248513539205303,1.000038691188962,8.980751832246572e-05
-0.44178032825439006,-0.44178032825439006,1.000011436249551,8.937671503031385e-05
-0.4406917072941724,-0.4406917072941724,0.9999627864547103,8.996309888253823e-05
-0.44001334470522124,-0.44001334470522124,0.9999756955517881,8.944607147554468e-05
-0.4391666454204824,-0.4391666454204824,0.9999918852626279,8.953576495255859e-05
-0.43818257471866673,-0.43818257471866673,1.0000639740919162,8.988996079511483e-05
-0.43738452525722094,-0.43738452525722094,1.0001951309046224,8.971122479423337e-05
-0.4368827539379708,-0.4368827539379708,0.999934202306701,8.960452299725823e-05
-0.43609629653728915,-0.43609629653728915,1.0000313721476215,8.982382083566789e-05
-0.43515933619855784,-0.43515933619855784,0.9999060970499107,8.95092370168226e-05
-0.4345722097081307,-0.4345722097081307,1.0000451259336345,8.97666607316005e-05
-0.43386144958349177,-0.43386144958349177,0.9999553791221227,8.994251734111614e-05
-0.4329603452963056,-0.4329603452963056,1.0000659228285187,8.945245090233664e-05
-0.432297172966355,-0.432297172966355,0.9998145117660269,8.992114429089512e-05
-0.4317519081494538,-0.4317519081494538,0.9999347909205667,9.005718171536328e-05
-0.4306912193016615,-0.4306912193016615,0.9999758316734484,8.958299113048818e-05
-0.4298917274471023,-0.4298917274471023,0.9998442703166976,8.999284670579044e-05
-0.42940183569517104,-0.42940183569517104,1.0000172791761641,8.974650224776855e-05
-0.4286344684049254,-0.4286344684049254,0.9999399607525158,8.953026671689335e-05
-0.42769287368573716,-0.42769287368573716,1.000075290339674,8.987190103747579e-05
-0.42733509043464435,-0.42733509043464435,0.9999091445046387,8.974848117936713e-05
-0.4267801206660806,-0.4267801206660806,1.0000376810311338,9.60740161051295e-05
-0.4256221630414075,-0.4256221630414075,1.0001146344674765,8.984938230059038e-05
-0.42493238284587276,-0.42493238284587276,0.9999013246846309,8.95773626557601e-05
-0.42425925762945554,-0.42425925762945554,1.0000756958373755,8.935588329220912e-05
-0.4233049277216196,-0.4233049277216196,0.999932439038443,8.974443306445242e-05
-0.4223860443700687,-0.4223860443700687,0.9999980727324305,8.96478739795295e-05
-0.42154027416690953,-0.42154027416690953,0.9998940583311633,8.952986013247579e-05
-0.42056561758072347,-0.42056561758072347,1.0000467340530226,8.988058024323897e-05
-0.41986972632294056,-0.41986972632294056,1.0000959322248226,8.961836628896836e-05
-0.4193067915512074,-0.4193067915512074,1.0003326239779171,8.985669611318527e-05
-0.4187692070074263,-0.4187692070074263,0.999978132888178,8.97145550223497e-05
-0.41778087770362615,-0.41778087770362615,0.9999492003693741,8.962275341414074e-05
-0.4171533166045265,-0.4171533166045265,1.0001221743633828,8.98711669763895e-05
-0.41664246646978426,-0.41664246646978426,1.0001087012542038,8.97906120007689e-05
-0.41586882265473835,-0.41586882265473835,1.0000455783326254,9.122795396568357e-05
-0.41498212745573254,-0.41498212745573254,1.0001722773796542,8.965905295887774e-05
-0.414536141964345,-0.414536141964345,0.9998604014216959,8.974144019338036e-05
-0.4139357120664499,-0.4139357120664499,0.9998261569955122,8.987494297861258e-05
-0.41285103992486255,-0.41285103992486255,1.0000581165585192,8.963031327793795e-05
-0.41226385015615963,-0.41226385015615963,0.9999721700222011,9.000425110955839e-05
-0.4114860304071044,-0.4114860304071044,0.9999648603358684,8.939246292378412e-05
-0.4104837012841017,-0.4104837012841017,1.0001975515688835,8.989502133656017e-05
-0.4099636420069146,-0.4099636420069146,1.0000341674371387,8.972560105803947e-05
-0.4093463463046646,-0.4093463463046646,0.999931077078567,8.960366786400057e-05
-0.4082060313798138,-0.4082060313798138,1.000040660822951,8.972800033022802e-05
-0.4073809307839838,-0.4073809307839838,1.0000598455329723,8.950108689421805e-05
-0.4065210654574912,-0.4065210654574912,0.999939286748674,8.937219130376626e-05
-0.4054945929790847,-0.4054945929790847,1.0000147666369739,9.00116548893076e-05
-0.404547010926035,-0.404547010926035,1.0001258418507037,8.971628393065845e-05
-0.4037587894694298,-0.4037587894694298,1.0001088050457903,8.954270180132212e-05
-0.40280949819643863,-0.40280949819643863,0.999970415453362,8.980889265764456e-05
-0.40208529604933574,-0.40208529604933574,0.9998429745688174,9.003009413749065e-05
-0.40161664613042375,-0.40161664613042375,1.0000339397699172,8.959331769302699e-05
-0.4010121149774932,-0.4010121149774932,1.0001138791418482,8.997758194429833e-05
-0.4000767132929468,-0.4000767132929468,1.0000669629568915,8.945394995264496e-05
-0.3993837806410738,-0.3993837806410738,0.9998699052553974,9.008453023964767e-05
-0.39876271891989745,-0.39876271891989745,1.000209297196528,9.084180763640901e-05
-0.3977102414726687,-0.3977102414726687,0.9999348131368583,8.946825479649691e-05
-0.3970646026413306,-0.3970646026413306,0.999992623831966,8.978513485122172e-05
-0.3966112519585295,-0.3966112519585295,1.0001357907260977,8.984189174161142e-05
-0.39600504209520293,-0.39600504209520293,1.0000813300880182,8.965686147471204e-05
-0.394861320459313,-0.394861320459313,1.000036963215791,9.00300597200049e-05
-0.3944435319666809,-0.3944435319666809,0.9999186557988853,8.97548422056851e-05
-0.39364346858419597,-0.39364346858419597,0.9999945067998889,9.249670454922601e-05
-0.39252874480444006,-0.39252874480444006,1.0000330090537575,9.00768917386133e-05
-0.39206555244309127,-0.39206555244309127,1.0000927547306726,8.988242720281733e-05
-0.3914150790478743,-0.3914150790478743,0.9999540939010665,8.946706785439507e-05
-0.3903913419082528,-0.3903913419082528,1.000188789444581,8.976979251566002e-05
-0.38961397725506686,-0.38961397725506686,1.0000341976356553,8.954338609016928e-05
-0.3886016519878467,-0.3886016519878467,0.9998057631169471,8.943298784825614e-05
-0.3875001706532203,-0.3875001706532203,1.0001128531045214,8.981878360757091e-05
-0.3865751403340255,-0.3865751403340255,1.0001719225434944,8.958832492398958e-05
-0.38599023132046567,-0.38599023132046567,1.0000738365044544,8.975274095099968e-05
-0.38517800043919126,-0.38517800043919126,0.9999381523875028,8.97526735808483e-05
-0.38445025686742157,-0.38445025686742157,1.0000382259595395,9.076769613799777e-05
-0.38398414453695295,-0.38398414453695295,1.000034571741945,8.959101613952308e-05
-0.3833233519093483,-0.3833233519093483,0.9999197544342486,8.993978400873015e-05
-0.38243586239113936,-0.38243586239113936,0.9999174905306484,8.927441399725405e-05
-0.38176628981746036,-0.38176628981746036,1.0002080461452545,9.011083869552095e-05
-0.3812211290016421,-0.3812211290016421,1.0000317084179726,9.026127547223383e-05
-0.3801587825742899,-0.3801587825742899,0.9999323822808565,8.958241884925278e-05
-0.3793637881622999,-0.3793637881622999,1.000002227143647,8.999495049256705e-05
-0.378873702227429,-0.378873702227429,0.9997795999480801,8.968211573070193e-05
-0.37814172007056185,-0.37814172007056185,0.9998359210813843,8.957988667200167e-05
-0.3772622679316555,-0.3772622679316555,1.0000151193691509,9.00640951391256e-05
-0.37691602492850507,-0.37691602492850507,0.9999944632569118,8.973315173593582e-05
-0.3764090294011112,-0.3764090294011112,0.9999945174963862,9.505265913139492e-05
-0.37531168727145997,-0.37531168727145997,0.9999084818403471,8.974450410719194e-05
-0.3746244342088175,-0.3746244342088175,0.9998879054740041,8.967106741588314e-05
-0.3739805394638097,-0.3739805394638097,0.9999028801123824,8.96563830348522e-05
-0.37297613944101615,-0.37297613944101615,1.0000413579627723,8.974175750758993e-05
-0.3720222085088608,-0.3720222085088608,1.0000486905163668,8.963415083914013e-05
-0.3711462158113136,-0.3711462158113136,1.0000244277437107,8.964421465815786e-05
-0.37026908879124676,-0.37026908879124676,1.0000891112977404,8.981473751248171e-05
-0.3693894503099727,-0.3693894503099727,0.9999641406196627,8.954033345569547e-05
-0.3687756687548244,-0.3687756687548244,0.9999581558258803,8.985386890843225e-05
-0.3680615400560782,-0.3680615400560782,0.9998712395529223,8.955486271845211e-05
-0.3671024035313167,-0.3671024035313167,0.9998004464304617,8.959537364526913e-05
-0.36659060245438013,-0.36659060245438013,0.9999829074633066,9.006556169981508e-05
-0.366111146350886,-0.366111146350886,1.000094404592072,8.958810483257965e-05
-0.36515515130013226,-0.36515515130013226,1.0000512601191556,8.957817181899922e-05
-0.36430767260608266,-0.36430767260608266,1.0000626360992402,8.96912884607371e-05
-0.3638989642902743,-0.3638989642902743,0.999918225087909,8.98757647980702e-05
-0.3631095195385569,-0.3631095195385569,1.0000901076674562,8.964573207467219e-05
-0.3619477372005349,-0.3619477372005349,0.9999501239433384,9.003422691852866e-05
-0.361552722381748,-0.361552722381748,0.9998308610144031,8.974062202347182e-05
-0.3604808068870625,-0.3604808068870625,1.0000283690949394,8.94295485957279e-05
-0.35958657195224075,-0.35958657195224075,0.9999346683958027,8.992368492278369e-05
-0.3592796498509415,-0.3592796498509415,0.9999705936600234,8.972816974481192e-05
-0.35830863298033366,-0.35830863298033366,0.9998194414637369,8.941710787998733e-05
-0.3570663561054971,-0.3570663561054971,1.0000342243789606,8.969058297028337e-05
-0.3565418029858847,-0.3565418029858847,0.9999045815790855,8.97164398940799e-05
-0.3555647701934504,-0.3555647701934504,1.000047657940766,8.953580995010078e-05
-0.3547156073676888,-0.3547156073676888,1.0002198665446551,8.986119989838964e-05
-0.3538126785300847,-0.3538126785300847,0.9999165854372419,8.96803339023329e-05
-0.35308158081752483,-0.35308158081752483,0.9999433830790112,8.974850467928484e-05
-0.3521060523424239,-0.3521060523424239,0.999944137350227,8.987440500546462e-05
-0.3514314312269562,-0.3514314312269562,1.0001056635157282,8.97547605250456e-05
-0.35101957066799516,-0.35101957066799516,1.000015681695667,8.958214931447043e-05
-0.3502078837387671,-0.3502078837387671,0.9998965801406946,8.974892237951223e-05
-0.34920313424736377,-0.34920313424736377,0.9998746437867465,8.956771997534354e-05
-0.34863351506865004,-0.34863351506865004,0.9999905565974551,9.16343780508494e-05
-0.3478477081087476,-0.3478477081087476,1.0001594201851016,8.96009486030605e-05
-0.3468263006892812,-0.3468263006892812,1.0000471341125876,8.965578667403162e-05
-0.34637646700866753,-0.34637646700866753,1.000104524750947,8.97566963133859e-05
-0.34578786930505884,-0.34578786930505884,1.0000890148690889,8.98927538578543e-05
-0.344695527193835,-0.344695527193835,1.0000930923701765,8.962562841195357e-05
-0.3441080542652344,-0.3441080542652344,1.0000001653196513,9.001341626175774e-05
-0.3434444976002851,-0.3434444976002851,1.0001358500397388,9.17544514257924e-05
-0.34219186940244983,-0.34219186940244983,1.000112351911992,8.986856538153909e-05
-0.3416436206447543,-0.3416436206447543,0.9998700130690391,8.971150795043724e-05
-0.3408581137351575,-0.3408581137351575,0.9999482521145595,8.937528165929284e-05
-0.3400349940893648,-0.3400349940893648,0.9998996368812424,8.987458144161412e-05
-0.33921970986339145,-0.33921970986339145,1.0000021274527806,8.956674508952137e-05
-0.33836039090601844,-0.33836039090601844,0.9998770247444618,8.92629301828869e-05
-0.33741553565996585,-0.33741553565996585,0.9998992540886874,8.999091602949393e-05
-0.33660296919551913,-0.33660296919551913,1.0001295660374157,8.966642867710085e-05
-0.33575944116309986,-0.33575944116309986,1.0000865941094086,8.954815897371031e-05
-0.3349197155352158,-0.3349197155352158,1.0000176345290772,9.000569021804848e-05
-0.33419628713381827,-0.33419628713381827,0.9999394183881684,9.027330355775514e-05
-0.33360393651018966,-0.33360393651018966,0.9998743426609306,8.985904259190977e-05
-0.33319933761886206,-0.33319933761886206,1.0001350495518628,8.96299148664388e-05
-0.33237023815818245,-0.33237023815818245,0.9998621778361629,8.989628998948118e-05
-0.33156397342754645,-0.33156397342754645,0.9999123853109808,8.955950302136603e-05
-0.3310164012931637,-0.3310164012931637,0.9999882180935046,9.067905985048743e-05
-0.3302291518310085,-0.3302291518310085,1.0000210770398918,8.960975311160107e-05
-0.32905925328304875,-0.32905925328304875,1.0000892545079778,8.982567137624296e-05
-0.3286626497399993,-0.3286626497399993,0.9999282447040159,8.974232903772389e-05
-0.328175573079352,-0.328175573079352,0.9997908102597857,8.989519270658862e-05
-0.3272976330859819,-0.3272976330859819,1.0001607220236892,8.955760192442795e-05
-0.3265364489045169,-0.3265364489045169,0.9999358005306892,8.992586495803784e-05
-0.32602760682129883,-0.32602760682129883,1.000319923470118,9.38086658168912e-05
-0.3250721165248251,-0.3250721165248251,0.9999681352636142,8.962805522326376e-05
-0.3241724877967499,-0.3241724877967499,0.9998465411427272,8.970400401405502e-05
-0.32369465982046675,-0.32369465982046675,0.9999348884432534,8.987639979227924e-05
-0.32292242000548865,-0.32292242000548865,1.0000293395669035,8.93826587836147e-05
-0.32181757402868244,-0.32181757402868244,1.0000602120149742,8.976591968717519e-05
-0.32111349733240785,-0.32111349733240785,0.9999967755717428,8.971720418615661e-05
-0.3203304047601705,-0.3203304047601705,1.000036598813196,8.954429970926974e-05
-0.3193519778738846,-0.3193519778738846,0.9999808458842869,8.980748928177615e-05
-0.3185434051527409,-0.3185434051527409,1.000126984090955,8.975576758515112e-05
-0.31812262112143797,-0.31812262112143797,1.000226081265325,8.938328430911673e-05
-0.31720730591914614,-0.31720730591914614,1.000138027754818,8.998461888098931e-05
-0.31634933085369993,-0.31634933085369993,0.9999992008874852,8.960703213998871e-05
-0.3158888406222104,-0.3158888406222104,1.0000344097904192,8.975371449156149e-05
-0.31517871827527416,-0.31517871827527416,0.9999096186662525,8.994345980959662e-05
-0.3142764980730135,-0.3142764980730135,1.0000584640248376,8.945106276364428e-05
-0.31366292891834746,-0.31366292891834746,1.0000216852047934,8.978265331450494e-05
-0.3131694739568047,-0.3131694739568047,0.9999370055911893,9.00090611400076e-05
