time,time,flux,flux_err
-0.49920725871985877,-0.49920725871985877,1.0000301993564025,0.00021585543476760894
-0.49669062121938623,-0.49669062121938623,1.000055492758009,0.00021628303277078826
-0.4957434476218623,-0.4957434476218623,0.9998171644491496,0.00021659106125178877
-0.4947868943643698,-0.4947868943643698,0.9999134105306731,0.00019686290309448205
-0.4931743135377474,-0.4931743135377474,1.000034521817044,0.00019747541469363177
-0.49211531937035036,-0.49211531937035036,0.9998663688610409,0.000197432210238731
-0.4901078767812578,-0.4901078767812578,1.000089224322409,0.000197289454599235
-0.4892993680638028,-0.4892993680638028,0.9998769425982822,0.00019688135139346425
-0.4882755383114272,-0.4882755383114272,0.9996258013927705,0.00019682229674364326
-0.48680094981755245,-0.48680094981755245,1.0001553097442568,0.00019745187140275648
-0.48579901681077897,-0.48579901681077897,1.0000377980727397,0.00019734789351555636
-0.4836767490436614,-0.4836767490436614,0.9996072377531575,0.00019717488336182043
-0.48294064949513993,-0.48294064949513993,0.9996819048777562,0.00019686229391217895
-0.48093829608333183,-0.48093829608333183,0.9997985365400883,0.000197407938620074
-0.4797797631843423,-0.4797797631843423,0.9999040938075435,0.00019725708707842975
-0.4788034288452764,-0.4788034288452764,0.9998606061545978,0.00019717062468110666
-0.47713923878836795,-0.47713923878836795,1.0000572871304065,0.00019716521996142157
-0.47645653595463955,-0.47645653595463955,0.9999170512749209,0.00019698207927043929
-0.4748744489508681,-0.4748744489508681,1.0000532299328415,0.000197846511590671
-0.47341095568117453,-0.47341095568117453,1.0004611554191214,0.00019799540739137716
-0.4722634875586664,-0.4722634875586664,1.0002594996235876,0.00019824258429588975
-0.47105953375066745,-0.47105953375066745,1.0000349868485627,0.00019685620360439243
-0.47028831832067225,-0.47028831832067225,0.9999989407931407,0.00019692296719469004
-0.4681591640721308,-0.4681591640721308,1.0003299394576972,0.0001974937156942296
-0.46678006271686173,-0.46678006271686173,0.9998895459794873,0.0001971660347221044
-0.46553573009441607,-0.46553573009441607,0.9999874413528348,0.00019722727713009287
-0.4638607100627269,-0.4638607100627269,1.00000032403329,0.00019711079775756838
-0.4611636058536533,-0.4611636058536533,0.9999917847353859,0.00019728791377490084
-0.4600542001906433,-0.4600542001906433,0.9998954674901983,0.000197527239614716
-0.45835876189230473,-0.45835876189230473,0.9999897570186471,0.00019743679369208295
-0.4572960985948157,-0.4572960985948157,1.0006002589221497,0.00019715668637484735
-0.455095991287817,-0.455095991287817,0.9999808358080042,0.00019762898599631691
-0.45311938558661496,-0.45311938558661496,1.00002664532723,0.0001973387108340325
-0.45136866472748804,-0.45136866472748804,1.0000498359942938,0.00019712541280640975
-0.45024056608017415,-0.45024056608017415,1.0000277758911778,0.00019860608442037308
-0.44812185211412725,-0.44812185211412725,0.9998053632779037,0.00019760240313772119
-0.44660536623123337,-0.44660536623123337,1.0000891620601728,0.00019827651807409827
-0.44541652935076853,-0.44541652935076853,0.9999655113646007,0.00019709628019282688
-0.4441713071326376,-0.4441713071326376,0.9997475510102246,0.00019863042399781566
-0.4428386235878861,-0.4428386235878861,0.99981558308791,0.0001984793136285668
-0.44082280041184274,-0.44082280041184274,1.000150063573852,0.000197776848987792
-0.4388864910593838,-0.4388864910593838,1.0002855373035096,0.00019709495647684478
-0.4377931428294687,-0.4377931428294687,0.9997988609913214,0.00019868305931759522
-0.4358089545850817,-0.4358089545850817,0.9998093809076884,0.00019718541825408128
-0.4345398985882639,-0.4345398985882639,0.9999321664703885,0.0001976184768250942
-0.43291956289467637,-0.43291956289467637,0.9999746831934448,0.00019692102570425594
-0.43193444113567236,-0.43193444113567236,1.0000727051424063,0.00019750036114637038
-0.4311489058243751,-0.4311489058243751,1.000177273210021,0.0001988530281896481
-0.429064201410074,-0.429064201410074,0.9999138569609107,0.0001982144714988107
-0.42764286622259534,-0.42764286622259534,0.9998757055036241,0.00019709317273744497
-0.42593734965994373,-0.42593734965994373,0.9999735931018312,0.00019755058476277304
-0.42503699145308926,-0.42503699145308926,1.0003191470995243,0.00019868667764415035
-0.4233912789452006,-0.4233912789452006,0.9998674650667014,0.0001970392243843959
-0.42167078380007295,-0.42167078380007295,0.9999106534732922,0.00019712402785031555
-0.42009272108552975,-0.42009272108552975,1.0000467466570981,0.00019762154531598918
-0.4189451040401764,-0.4189451040401764,0.9998987881488921,0.0001982681655036627
-0.41832175095405544,-0.41832175095405544,1.0000595928533533,0.00019837560710509453
-0.41634477868356046,-0.41634477868356046,0.9998062984372172,0.00019711584415452077
-0.41513512604724384,-0.41513512604724384,1.0000016476995772,0.0001977083900682937
-0.41381844701681986,-0.41381844701681986,1.0000588995892454,0.0001981853286969884
-0.4124675180042686,-0.4124675180042686,0.9999415520598184,0.00019730095572986924
-0.41120604671887123,-0.41120604671887123,1.0003209952179133,0.00019731817622656655
-0.4097075167024741,-0.4097075167024741,0.9998891002912144,0.00019786436379751958
-0.4091130432061618,-0.4091130432061618,0.9998778980551049,0.00019751697525745683
-0.40814919924741844,-0.40814919924741844,1.0000164172513277,0.0001981581542395149
-0.4070116577691806,-0.4070116577691806,1.0003302211851044,0.00019829787164563686
-0.4059523046715185,-0.4059523046715185,0.9999836694175228,0.00019727175046078163
-0.40486695981308,-0.40486695981308,0.999961156340405,0.00019714177367431734
-0.4032820123407873,-0.4032820123407873,1.0001829988333797,0.00019736141515732525
-0.4026446076146385,-0.4026446076146385,1.0000732780710557,0.0001974801767999552
-0.4019371665781364,-0.4019371665781364,1.0002050824385553,0.00019748120008263975
-0.40083837385391236,-0.40083837385391236,0.9999572588523341,0.0001980739724848525
-0.3997456751145364,-0.3997456751145364,0.9999558533650289,0.00019706311570258508
-0.3985775719207595,-0.3985775719207595,1.000165555118699,0.00019718789865229362
-0.397070251009427,-0.397070251009427,1.0002410437065057,0.00019727063595199125
-0.39644390100074817,-0.39644390100074817,0.999862196571905,0.0001978163234273884
-0.39563410224945983,-0.39563410224945983,0.9999762285332068,0.00019701268262471654
-0.3942146798195608,-0.3942146798195608,0.9997153696576444,0.0001973951030390752
-0.3932133339891152,-0.3932133339891152,0.9999943057325481,0.00019712316763037416
-0.39108708110798035,-0.39108708110798035,1.0002149511266163,0.00019761127350130184
-0.3901023820770206,-0.3901023820770206,0.9997519422474503,0.00019677459185820333
-0.38907958867857817,-0.38907958867857817,1.0000665855662354,0.00019698881390091053
-0.3877952578819531,-0.3877952578819531,1.0000289904578885,0.00019731832797198877
-0.38668604472914014,-0.38668604472914014,0.999802539371955,0.0001971319925828042
-0.38506643567525317,-0.38506643567525317,0.9998154520485969,0.0001984036950392812
-0.38399508188085746,-0.38399508188085746,0.9999876013775161,0.00019715599526989955
-0.38280437103894654,-0.38280437103894654,0.9999506215938954,0.0001973043161255927
-0.3808566907820932,-0.3808566907820932,1.0001338416894616,0.0001975678643666811
-0.3801968829691759,-0.3801968829691759,0.9997756982252433,0.0001970043483902101
-0.37826401974234614,-0.37826401974234614,0.999968176057409,0.00019743284832531585
-0.3774737489547988,-0.3774737489547988,1.00023996437035,0.00019693612821298237
-0.37629772818618223,-0.37629772818618223,1.0000722643144186,0.00019729912672652043
-0.37444020196417116,-0.37444020196417116,0.9999127862148333,0.00019754822203290156
-0.37352487834214115,-0.37352487834214115,0.9998294743390334,0.00019809984352174432
-0.3722240331102512,-0.3722240331102512,0.9998639316425821,0.00019714839328721217
-0.3711700783962442,-0.3711700783962442,1.0003054307046113,0.00019694175323482717
-0.3698846610430337,-0.3698846610430337,1.0000051573234838,0.00019742266387449687
-0.36766310138846164,-0.36766310138846164,1.0002446085724275,0.0001971367838327603
-0.36586049227480544,-0.36586049227480544,1.0000514406596652,0.0001973720685502328
-0.36423744228377475,-0.36423744228377475,1.0000117994056983,0.0001970895409073847
-0.36168197325023355,-0.36168197325023355,0.9999574270189395,0.00019732445616576534
-0.36024877339805245,-0.36024877339805245,1.0001401209154055,0.00019765194443867442
-0.3586998562743247,-0.3586998562743247,0.9998950948101962,0.00019702588755822215
-0.3572620920713234,-0.3572620920713234,0.9994759534951643,0.000197488205391764
-0.3549242038432567,-0.3549242038432567,0.9999479260452677,0.00019708332537832855
-0.35335131899628325,-0.35335131899628325,0.9999814795665551,0.00019733294313397832
-0.35191904983803396,-0.35191904983803396,1.0000722142530265,0.0001970362040874235
-0.3510401892963273,-0.3510401892963273,0.999931126482031,0.0001985763570575371
-0.3488144884388021,-0.3488144884388021,1.0002249975678312,0.00019769399982269928
-0.3478843640688865,-0.3478843640688865,1.0000598933560219,0.00019820046073499957
-0.3463062284230546,-0.3463062284230546,0.9999176566833803,0.00019795307840686033
-0.3450034910987597,-0.3450034910987597,0.9997665788615192,0.00019857999130143463
-0.34353869913029483,-0.34353869913029483,0.9999436635670567,0.0001976616263660194
-0.34179688243675627,-0.34179688243675627,1.0002428917515043,0.00019777428483000242
-0.3398161866221926,-0.3398161866221926,0.9998563756624286,0.00019707200049305038
-0.33860901997541076,-0.33860901997541076,0.9997664194164197,0.00019859844471590665
-0.3369657003269822,-0.3369657003269822,0.9998617141242179,0.00019728918984404054
-0.3353331950478605,-0.3353331950478605,1.0000785546656312,0.00019759858226213635
-0.33441600188380105,-0.33441600188380105,1.0000283404412196,0.0001971590758005601
-0.3329972780920798,-0.3329972780920798,0.999948921428178,0.0001970313262205692
-0.3320528459669731,-0.3320528459669731,0.9999125768940811,0.00019869122281591248
-0.3301470535006956,-0.3301470535006956,0.999940300253083,0.00019724820882274584
-0.3286340960090456,-0.3286340960090456,0.9999233964464314,0.00019714039810675852
-0.32685193098222953,-0.32685193098222953,1.0000818730679895,0.00019755817815422745
-0.32579099153081187,-0.32579099153081187,1.000195989119955,0.0001985142850357762
-0.3244972225103993,-0.3244972225103993,0.9998248394802862,0.00019751109451967004
-0.32225831424730134,-0.32225831424730134,1.000085110633712,0.0001971510453002361
-0.32042426316984346,-0.32042426316984346,0.9999734804544707,0.00019869349450138716
-0.31946168426366056,-0.31946168426366056,1.0001519926750408,0.00019717004685982322
-0.31862402017213753,-0.31862402017213753,1.0000289614717681,0.00019846413182204246
-0.31670751650162854,-0.31670751650162854,0.9998040947026912,0.00019747964331153777
-0.31549849500952404,-0.31549849500952404,1.00008655876835,0.00019725488980476872
-0.3141663308328134,-0.3141663308328134,1.000031070666846,0.00019814801803340665
-0.3130881853001483,-0.3130881853001483,0.9998060564859091,0.00019831088511717583
-0.31115981776601986,-0.31115981776601986,0.9998290132334526,0.00019759324357496405
-0.3098902543395525,-0.3098902543395525,1.0000022516799858,0.00019754174162250082
-0.30923836789370396,-0.30923836789370396,1.0000259824974687,0.0001989138084419949
-0.30828602876281364,-0.30828602876281364,1.0002323213850386,0.00019766581664608447
-0.3074210243146808,-0.3074210243146808,0.9997156427260869,0.00019817401199767533
-0.30640913926181385,-0.30640913926181385,1.000050088687773,0.00019724948603381834
-0.3051841712775058,-0.3051841712775058,1.0001650826105728,0.00019724125119657503
-0.3037527699503698,-0.3037527699503698,0.9999127072512486,0.0001972732190946759
-0.3031466727639781,-0.3031466727639781,0.9994895409669408,0.0001974152892460572
-0.3023978226767213,-0.3023978226767213,1.0000530852037879,0.00019744309335161938
-0.3010423925588839,-0.3010423925588839,0.9994788768848405,0.00019807543636020213
-0.29981143996919857,-0.29981143996919857,0.9997825951704099,0.0001973541065114997
-0.2981760082577239,-0.2981760082577239,0.9997333701482422,0.0001972746039600075
-0.29726557625472194,-0.29726557625472194,0.9997332563111356,0.00019734529644427562
-0.2967121068380948,-0.2967121068380948,1.0002051245154213,0.00019743867474879845
-0.2956891794070543,-0.2956891794070543,0.9999431665358539,0.0001974818396028398
-0.2944374049657199,-0.2944374049657199,1.0002672661597902,0.00019694925262111828
-0.29371987376289327,-0.29371987376289327,0.9998290469677287,0.000197219078547811
-0.29200207714529824,-0.29200207714529824,0.9998409399514735,0.00019759807682203707
-0.29092031248801503,-0.29092031248801503,0.9997523741156769,0.00019687982117105792
-0.28984571748005694,-0.28984571748005694,1.0001084707582006,0.00019688542773032332
-0.28843242041475603,-0.28843242041475603,0.999826912525694,0.00019732151258068051
-0.28732368110722745,-0.28732368110722745,1.0001663009285342,0.00019717707723238128
-0.28570487290562596,-0.28570487290562596,1.0002135692913416,0.00019843221820301286
-0.2846328019411885,-0.2846328019411885,0.9997020189550702,0.00019713538659560438
-0.2834418965510849,-0.2834418965510849,1.0000432447523504,0.00019732356269491096
-0.28170640849421036,-0.28170640849421036,0.9999505997877576,0.00019745399271561473
-0.28094736449202173,-0.28094736449202173,0.9999737096972563,0.0001971282891374383
-0.27935903584802874,-0.27935903584802874,1.0000242324243853,0.00019732796053347938
-0.27818388987070647,-0.27818388987070647,0.9997408442373462,0.00019688492558839204
-0.2771486775811354,-0.2771486775811354,1.0000232608129638,0.0001969461448321537
-0.2754537731561868,-0.2754537731561868,1.0000357927567163,0.000197888477802824
-0.27436945550434755,-0.27436945550434755,0.9998080242200047,0.00019811489296112068
-0.2727195903848042,-0.2727195903848042,0.9998780758101594,0.00019716155663342507
-0.27168791073345344,-0.27168791073345344,1.0001752094145422,0.00019686190646276517
-0.27000172899133756,-0.27000172899133756,0.9999206705159569,0.0001974020695606169
-0.26806947640216094,-0.26806947640216094,1.0000663169645416,0.00019740671769128454
-0.26606210270911107,-0.26606210270911107,0.9998002716552268,0.00019718696855119
-0.2644550511176931,-0.2644550511176931,1.000217501189851,0.00019716598530965666
-0.26183749097035613,-0.26183749097035613,0.9999514707599066,0.0001974406729419061
-0.2602192617589026,-0.2602192617589026,1.0000637418896101,0.00019734203551836858
-0.25883559207359214,-0.25883559207359214,0.9999954189824696,0.00019715557900433015
-0.25774527209650844,-0.25774527209650844,1.0001640448925477,0.00019755967149174056
-0.25508063500601563,-0.25508063500601563,1.0000202396255942,0.00019747307671436903
-0.2532106462378579,-0.2532106462378579,0.9997181915695477,0.00019704177698042993
-0.25201481769254314,-0.25201481769254314,0.9999504582992191,0.0001974319989493136
-0.251173485959589,-0.251173485959589,0.9996638339158013,0.00020245452676450945
-0.24924576878765947,-0.24924576878765947,0.9996828785415227,0.00019759062329524393
-0.24832173321774462,-0.24832173321774462,0.9999741709408851,0.00019740493513006676
-0.24721278018550946,-0.24721278018550946,0.9999315145006221,0.00019799772102264322
-0.24581175005150727,-0.24581175005150727,0.9998498239366846,0.0001973674097359801
-0.24462054052273743,-0.24462054052273743,0.9999588095292358,0.00019849992318472375
-0.24266068020369858,-0.24266068020369858,0.9998804465105045,0.00019796125332049216
-0.24113979449830367,-0.24113979449830367,0.9995701800442521,0.0001980550657861595
-0.2395729445888719,-0.2395729445888719,1.0001092026681282,0.00019738919406693222
-0.23838140361694968,-0.23838140361694968,1.0000475649123746,0.00019854249649964843
-0.2362716977666423,-0.2362716977666423,0.9997356244596786,0.00019746867221992338
-0.23485022714594378,-0.23485022714594378,0.9999497903486871,0.00019724946848204486
-0.233396819808695,-0.233396819808695,0.9997440743283178,0.00019696889888997155
-0.23242463883798337,-0.23242463883798337,0.9997707725651533,0.00019881813593170808
-0.23038458375449408,-0.23038458375449408,1.0002509347878863,0.00019711249521229407
-0.2287935058833682,-0.2287935058833682,1.0004608165957576,0.00019713550630197683
-0.22721276020238293,-0.22721276020238293,1.0001685805920746,0.0001975395460821532
-0.22631259601330384,-0.22631259601330384,0.9997716602832517,0.0001986672475275389
-0.22416430642624618,-0.22416430642624618,0.9998667487954125,0.00019757364452592605
-0.22286834444093984,-0.22286834444093984,1.0001123886182235,0.00019706430244969338
-0.22106216258980566,-0.22106216258980566,0.9999171706760255,0.0001987175989908847
-0.22009951786021703,-0.22009951786021703,0.9998834685902871,0.00019717301760512388
-0.21953620262356707,-0.21953620262356707,1.0000989296989784,0.00019840895599139292
-0.2179012387408875,-0.2179012387408875,0.9998920728172089,0.00019719763295856168
-0.21674277373676887,-0.21674277373676887,0.9998730918342323,0.00019757491311419114
-0.2150945358152967,-0.2150945358152967,1.0001520494825413,0.00019816262561251334
-0.2139676230806799,-0.2139676230806799,0.999750942454402,0.00019804133772613475
-0.21277744933540815,-0.21277744933540815,0.9999626384650421,0.0001974907858642106
-0.2108036564066424,-0.2108036564066424,1.0001694048420309,0.00019744928497141277
-0.2100762453781499,-0.2100762453781499,1.0002159729985778,0.00019811358226839008
-0.20875688783635268,-0.20875688783635268,1.0001290354466008,0.00019836694386364317
-0.2076101161968836,-0.2076101161968836,0.9998282030717528,0.0001970946123728425
-0.2067212509638921,-0.2067212509638921,0.999828760722219,0.000197104233604692
-0.20514110633448582,-0.20514110633448582,0.9999570424175517,0.00019761336692147367
-0.2042198803705105,-0.2042198803705105,1.0000808784016688,0.0001973512245785186
-0.20368460101017263,-0.20368460101017263,1.0000897421365311,0.00019710964333997065
-0.20272558606302482,-0.20272558606302482,0.9999420695364949,0.0001980936867158882
-0.2015064454950334,-0.2015064454950334,1.0000974727550855,0.0001980397032708863
-0.20044954460172448,-0.20044954460172448,0.9999258842530343,0.00019737950679001975
-0.19875080612764578,-0.19875080612764578,0.9997822343814855,0.0001972832240089315
-0.1979031160393788,-0.1979031160393788,0.9997825174418713,0.00019725892852390838
-0.19735028075956507,-0.19735028075956507,1.0001799712939645,0.00019745708474112346
-0.19604488749682786,-0.19604488749682786,1.0002194862016796,0.00019739987580024955
-0.1946403242451197,-0.1946403242451197,0.9999720722588844,0.0001970682753884153
-0.19310696832908433,-0.19310696832908433,1.000056921400288,0.00019735466321843054
-0.19164884718265968,-0.19164884718265968,1.0002586217923886,0.00019729120923964952
-0.1909520463392255,-0.1909520463392255,1.000208277051107,0.00019689726580820197
-0.1896742735923908,-0.1896742735923908,0.9999168336013973,0.00019735350534553207
-0.18825872226807405,-0.18825872226807405,0.9998111456413035,0.00019705609672452024
-0.1872336054497282,-0.1872336054497282,1.000029340570082,0.0001985701351166301
-0.18570516350591787,-0.18570516350591787,0.9998954987173496,0.0001973292795622277
-0.18486379109526752,-0.18486379109526752,1.00004614584462,0.00019676362561113172
-0.18344096186192474,-0.18344096186192474,0.9998587394943911,0.000197852530753796
-0.18187721517242608,-0.18187721517242608,1.0001424606038616,0.00019708972266601157
-0.18112214761713402,-0.18112214761713402,0.999890055121506,0.00019719399284220618
-0.17946732456475728,-0.17946732456475728,0.9998336301556486,0.00019733107446933442
-0.17865185543778353,-0.17865185543778353,0.9996598207901952,0.00019676576693405636
-0.1769506277400069,-0.1769506277400069,1.0000770073932659,0.0001974872931337633
-0.17532491964739166,-0.17532491964739166,0.999708640784276,0.00019793778542009048
-0.17421539717906853,-0.17421539717906853,1.000017404527977,0.00019861157690920323
-0.17276836136152268,-0.17276836136152268,1.000142671991346,0.00019684045834999193
