time,time,flux,flux_err
-0.4991646379141533,-0.4991646379141533,0.9988304542142347,0.0009631231100072118
-0.4977278377220955,-0.4977278377220955,0.9996626837022906,0.0009606265867421165
-0.49617344572184646,-0.49617344572184646,0.9992482130156377,0.0009636340161433027
-0.4946853161128729,-0.4946853161128729,1.0005239114850208,0.0008750753967549615
-0.4934199055336649,-0.4934199055336649,1.0006377401629394,0.0008767403812277731
-0.49222092321228955,-0.49222092321228955,1.0006497226663924,0.0008767966780753603
-0.4909328162582369,-0.4909328162582369,0.9995022487992153,0.00087901488654616
-0.48967137173765424,-0.48967137173765424,0.9995396231387318,0.0008721076384525435
-0.48840109718073565,-0.48840109718073565,1.000292652187079,0.0008849039165408212
-0.48710278957466924,-0.48710278957466924,1.000241720636759,0.0008716643637644162
-0.4857128363093125,-0.4857128363093125,0.9995625721849937,0.0008815176205495508
-0.4845582293154848,-0.4845582293154848,1.0002911516791484,0.0008754994853504289
-0.4831898106565632,-0.4831898106565632,1.0007986606819919,0.0008807859881958038
-0.48183835826750965,-0.48183835826750965,1.0005862441617739,0.0008723605471170981
-0.48083453827996436,-0.48083453827996436,0.9984831911702292,0.0008789863922906091
-0.47920961758900377,-0.47920961758900377,0.9994320064052543,0.0008758946637237548
-0.47815025800045985,-0.47815025800045985,0.9983434347979673,0.0008801402695090456
-0.4767603941305879,-0.4767603941305879,0.9987888412545223,0.0008717068267701385
-0.4753488100691584,-0.4753488100691584,1.0002313320774394,0.0008810825357764673
-0.47440429203193163,-0.47440429203193163,1.0002121492787375,0.0008790262193207083
-0.47284431304610736,-0.47284431304610736,1.0004578280909733,0.0008765152542952447
-0.47156469717012894,-0.47156469717012894,1.000706646815362,0.0008804793383147558
-0.4704950766620414,-0.4704950766620414,1.000462426153671,0.000871667114677758
-0.4689032055651296,-0.4689032055651296,1.0001653786857372,0.0008816638438831133
-0.46781396383853463,-0.46781396383853463,1.0010060832886787,0.0008793678519379425
-0.4665254424270643,-0.4665254424270643,0.9999634838398214,0.0008836864222471977
-0.46537399043470484,-0.46537399043470484,1.000287867918997,0.0008812777647943866
-0.46422685281897885,-0.46422685281897885,0.9993673131608546,0.0008792784128868133
-0.4627557289411698,-0.4627557289411698,1.001514179978257,0.0008665509762409466
-0.46167444549355424,-0.46167444549355424,1.001042988331107,0.000880878912268837
-0.46029792640492817,-0.46029792640492817,1.0000508630556308,0.0008712971902343906
-0.45890788763758794,-0.45890788763758794,0.9998195551494728,0.0008725531643866797
-0.4579284717914561,-0.4579284717914561,1.0000034949767516,0.0008794188117419646
-0.4563191097393201,-0.4563191097393201,0.9990304362477819,0.0008667187646569565
-0.45526556712786714,-0.45526556712786714,0.9990264581543107,0.0008805190314912122
-0.45401917270544345,-0.45401917270544345,1.0002855856607347,0.0008719225812846105
-0.452335080281091,-0.452335080281091,0.9988689966360464,0.0008720414989649309
-0.451569898250591,-0.451569898250591,0.999697220588185,0.0008792743596956123
-0.4500330285288555,-0.4500330285288555,1.0001378368528253,0.0008677919080195348
-0.44867524791416147,-0.44867524791416147,0.9995903117178908,0.0008805040511020958
-0.44764607678971513,-0.44764607678971513,1.0001493549645435,0.0008716893448035369
-0.44602834482579967,-0.44602834482579967,1.0012392818539486,0.0008725969585139364
-0.4450546432436795,-0.4450546432436795,1.000035930972388,0.0008748012643741644
-0.4438086675472732,-0.4438086675472732,0.9999857640441181,0.0008724840592331216
-0.4421979595729226,-0.4421979595729226,1.0005160646315843,0.0008730269375983949
-0.44133098703978246,-0.44133098703978246,1.0005387696658024,0.000879129832925096
-0.4397826580050378,-0.4397826580050378,0.9996818540438317,0.0008674429141167321
-0.43860830915066346,-0.43860830915066346,0.9989412349151985,0.0008805701531794377
-0.4375215688533217,-0.4375215688533217,1.0002311947729543,0.0008718461649554088
-0.43584172234022844,-0.43584172234022844,0.9995870953249497,0.0008731415956941358
-0.43495335032296223,-0.43495335032296223,0.9975428859956009,0.000878614169379594
-0.4335571179258523,-0.4335571179258523,0.9995904793083692,0.0008680619293859975
-0.43219945014952826,-0.43219945014952826,1.000491275192053,0.000880657599952474
-0.43117016449857604,-0.43117016449857604,0.9996900461710094,0.0008718171720262744
-0.4294899778588842,-0.4294899778588842,1.000244656329069,0.0008735999427103713
-0.4285358071898827,-0.4285358071898827,1.001977743275771,0.0008745035041596219
-0.4273328051924409,-0.4273328051924409,1.0004611269760713,0.00087249371429307
-0.4255238499580628,-0.4255238499580628,1.0011734086784831,0.000880903483972317
-0.42468429734924484,-0.42468429734924484,1.0002240553728066,0.0008712570928517979
-0.42324763183416964,-0.42324763183416964,1.000677307555454,0.0008738154978224549
-0.4218302022621856,-0.4218302022621856,0.9986030841144389,0.0008747026050283047
-0.420985228428367,-0.420985228428367,1.0010665099420433,0.0008718996088946214
-0.4192676165655939,-0.4192676165655939,0.9992274687399826,0.0008809713238300569
-0.4180630015125416,-0.4180630015125416,0.999092793168353,0.0008716405861803807
-0.4170403411826783,-0.4170403411826783,0.9997456605028654,0.0008674172897288181
-0.4153600285821312,-0.4153600285821312,1.0000265943386606,0.0008804278476620169
-0.4142670371577196,-0.4142670371577196,0.999195815151069,0.0008721859518914099
-0.4130140911282524,-0.4130140911282524,1.0010453292919914,0.0008736858365563675
-0.41161403154703746,-0.41161403154703746,1.0004183017049102,0.0008790793507370519
-0.4104856469882634,-0.4104856469882634,0.9999378028219568,0.0008674707728939107
-0.4090479500138372,-0.4090479500138372,0.9993888106611483,0.0008807836341803016
-0.4078045178275943,-0.4078045178275943,0.9998936973748165,0.0008718067264170392
-0.4066220858491761,-0.4066220858491761,1.0002989608602793,0.0008731913988698286
-0.40525529302187807,-0.40525529302187807,0.9990589171167208,0.0008788672630137041
-0.404077998213711,-0.404077998213711,0.9995887106107366,0.0008674524460396445
-0.40276850990585444,-0.40276850990585444,0.9997362514910687,0.0008809111904792994
-0.4014532165626633,-0.4014532165626633,1.0016363915317439,0.0008720651485724758
-0.40019748014053674,-0.40019748014053674,1.000373810040139,0.0008670984925454193
-0.39888420900460914,-0.39888420900460914,1.0001025294345989,0.0008805530673091403
-0.3977156625952148,-0.3977156625952148,0.9985112732281456,0.0008719441857305702
-0.3962182737572448,-0.3962182737572448,1.0012787155873035,0.0008740227476238763
-0.3950281753622221,-0.3950281753622221,1.0014473502862693,0.0008802301336337512
-0.39349771585223153,-0.39349771585223153,0.9993126092734007,0.0008730325760934627
-0.3922567443407388,-0.3922567443407388,1.0004182796163956,0.000879901904346975
-0.39089728324672707,-0.39089728324672707,0.999879266906197,0.0008675040116038028
-0.3893769199208464,-0.3893769199208464,0.9993984849508258,0.0008807989995871148
-0.3882198183512628,-0.3882198183512628,1.0011323651432735,0.0008728850750800557
-0.38690735140426114,-0.38690735140426114,0.9988288178743565,0.0008729661900561892
-0.38566639444054546,-0.38566639444054546,0.9998402185452935,0.0008798640073094558
-0.38430692594010907,-0.38430692594010907,1.0001705121732074,0.000867368751317041
-0.382884908947176,-0.382884908947176,0.9993839751041961,0.0008732895894996739
-0.3818474762689448,-0.3818474762689448,1.0000404090485961,0.0008800991746967005
-0.3803759983561349,-0.3803759983561349,1.0000140494662115,0.0008667732772539754
-0.3792953932732644,-0.3792953932732644,0.9986388830343109,0.000880777582710136
-0.3779445197744963,-0.3779445197744963,1.0006487731935747,0.0008727089106884748
-0.3765287340509076,-0.3765287340509076,0.9998009332331614,0.0008735413375916924
-0.37549665914204977,-0.37549665914204977,0.9987941558849094,0.0008798530833507561
-0.37407095378084704,-0.37407095378084704,0.999559887990743,0.0008668731557565966
-0.3727865113501821,-0.3727865113501821,1.0008449792239127,0.0008810442061211909
-0.3715288475898205,-0.3715288475898205,1.0004079707471278,0.0008730184415976057
-0.37019305398846425,-0.37019305398846425,1.0012226290146486,0.0008737410628512204
-0.36897783474930745,-0.36897783474930745,1.000473669338835,0.0008802813965251982
-0.3677801070996566,-0.3677801070996566,1.0010723778152042,0.0008675896769972206
-0.36639213241487595,-0.36639213241487595,1.0005013433092274,0.0008809132542781402
-0.36512492272106556,-0.36512492272106556,0.9997555217346425,0.0008732348440983445
-0.3639000552457901,-0.3639000552457901,0.9989121938382086,0.0008667103773497579
-0.3626226281744266,-0.3626226281744266,0.9999172790573718,0.0008865476018842507
-0.36140191332374344,-0.36140191332374344,0.9995499069971376,0.0008672463170523323
-0.36005290599753154,-0.36005290599753154,0.9994434925002473,0.0008740862196603158
-0.35880995393167725,-0.35880995393167725,1.0000429376930238,0.0008799872128147192
-0.35759496371279054,-0.35759496371279054,1.0016758439745437,0.0008674595756780502
-0.35631069350490635,-0.35631069350490635,0.999806153192981,0.0008811759090535295
-0.35500024889013276,-0.35500024889013276,1.0000306931195566,0.0008732674522578769
-0.3537172003481828,-0.3537172003481828,0.999783652292724,0.000873944963962913
-0.35250197001701056,-0.35250197001701056,1.000563948450542,0.0008802094157064437
-0.3513042062274508,-0.3513042062274508,0.9999502555866087,0.0008677186558441695
-0.34991624851236336,-0.34991624851236336,1.0010056533971068,0.0008811267082756485
-0.3486490896651503,-0.3486490896651503,0.9997262095519599,0.0008732576515882034
-0.3474241131519875,-0.3474241131519875,0.9989910824295564,0.0008668493597176335
-0.3461467780959538,-0.3461467780959538,0.9992368627108007,0.0008864702789748181
-0.3449260046740619,-0.3449260046740619,0.9996418480305709,0.0008673128911107985
-0.34357707881895294,-0.34357707881895294,0.999831432750721,0.0008746302709147496
-0.34233413868478235,-0.34233413868478235,0.999644126069786,0.000879654772069836
-0.3411189745993397,-0.3411189745993397,1.000484598338383,0.0008674780735257045
-0.33983487632256126,-0.33983487632256126,0.9997825254922962,0.0008811447098646845
-0.33852437315413225,-0.33852437315413225,0.9989383252579257,0.0008731967352532237
-0.3372413476358588,-0.3372413476358588,1.0004371822686238,0.0008740193872356144
-0.33602610592104154,-0.33602610592104154,1.0002375667258938,0.0008800941886820283
-0.3348283060891163,-0.3348283060891163,0.9995802050642917,0.0008677284230164834
-0.3334403653786012,-0.3334403653786012,1.0005439689784423,0.0008809307131225474
-0.33217325739581155,-0.33217325739581155,0.9990409100778155,0.0008734178140585167
-0.3309481719685209,-0.3309481719685209,0.9997329305502134,0.0008668157641352805
-0.3296709286361647,-0.3296709286361647,0.9995325585844792,0.0008865733288315301
-0.32834465214737063,-0.32834465214737063,1.0006980588354004,0.0008676637405530651
-0.32710125249789146,-0.32710125249789146,0.9999960007727889,0.0008741666068461074
-0.3258295099876932,-0.3258295099876932,1.0001140528765133,0.0008798232380506189
-0.32453999475301315,-0.32453999475301315,0.999995097255334,0.0008672272192937092
-0.32335905981187807,-0.32335905981187807,1.000437579916856,0.0008807805875697749
-0.32192628702775894,-0.32192628702775894,1.000543973292372,0.0008731689120483838
-0.32067681765711314,-0.32067681765711314,1.001372309621962,0.0008744170203756141
-0.3195502425232462,-0.3195502425232462,0.9986837032171703,0.0008797905124905707
-0.3180887951268687,-0.3180887951268687,1.0002020325291132,0.0008677426282022985
-0.31696448295210755,-0.31696448295210755,1.0001466864989605,0.0008801753419982213
-0.3156216121521084,-0.3156216121521084,1.0007402742949498,0.0008735234071781877
-0.3142844340316969,-0.3142844340316969,1.0004318844016704,0.000867197612635346
-0.3131423566810554,-0.3131423566810554,0.9997276479222583,0.000886278228397281
-0.3118130031321925,-0.3118130031321925,1.0000749761652619,0.0008674204861870377
-0.3104873328192525,-0.3104873328192525,1.0013900539105518,0.0008801956922990979
-0.30925750047701966,-0.30925750047701966,0.9991762895096263,0.0008739025329715898
-0.307932258781193,-0.307932258781193,1.0000689472653226,0.000867310019226902
-0.30675143628066054,-0.30675143628066054,1.000411482700055,0.0008805725662439578
-0.30545033773080377,-0.30545033773080377,0.9983548318382681,0.0008728603008123312
-0.3041483192896976,-0.3041483192896976,1.0004151523491165,0.0008742946320065067
-0.3029425720255176,-0.3029425720255176,1.0012225977048614,0.0008800770538975631
-0.30161289645548095,-0.30161289645548095,1.0005605547285148,0.000867692238295472
-0.30036985790961807,-0.30036985790961807,0.9987741675402256,0.0008794453169613861
-0.29913265155082625,-0.29913265155082625,1.0000972695033081,0.0008740125344166378
-0.29775583809839645,-0.29775583809839645,1.0006143349745755,0.0008671256711717604
-0.2965874237655271,-0.2965874237655271,0.9979767922555194,0.0008859205094291532
-0.295337113484743,-0.295337113484743,0.9996682107427427,0.0008674690371153502
-0.293879694793236,-0.293879694793236,0.9996807415543639,0.0008800000462558204
-0.29262345175761767,-0.29262345175761767,1.001087098398405,0.0008743009088577594
-0.2914059170841711,-0.2914059170841711,0.9993024171284903,0.0008665855182663987
-0.2901103481218115,-0.2901103481218115,1.0002538254598885,0.0008861083649991817
-0.2887155701225993,-0.2887155701225993,1.0007658964792885,0.0008678815663025578
-0.2874972553622001,-0.2874972553622001,0.9986591165346661,0.0008797216984880351
-0.28615127967705123,-0.28615127967705123,0.9990533538695369,0.0008733787620628269
-0.28501138880537835,-0.28501138880537835,0.9991292915742352,0.0008674227722241098
-0.2835349678425928,-0.2835349678425928,1.0009140880495284,0.0008805578857740481
-0.2822613081403233,-0.2822613081403233,0.9995956150492399,0.0008739879632964319
-0.2811837439134024,-0.2811837439134024,1.0014525776454526,0.0008731636863598806
-0.27968581125201125,-0.27968581125201125,0.9998265269175157,0.0008805466803290644
-0.278513287751457,-0.278513287751457,1.000851119746234,0.0008681327809709809
-0.27705719840707843,-0.27705719840707843,1.0020440143235567,0.000874438444822717
-0.27557664694952566,-0.27557664694952566,0.9995762858081253,0.0008731412378406298
-0.2743673661755565,-0.2743673661755565,1.0006258179637897,0.0008676416907676765
-0.2728512502978674,-0.2728512502978674,1.0007118357719058,0.0008806839196542628
-0.27138029474929226,-0.27138029474929226,0.999579269627335,0.0008679962624497887
-0.26980032225419565,-0.26980032225419565,0.9988128572499917,0.0008804542364923467
-0.2682128765103471,-0.2682128765103471,0.9997593080184034,0.000867957260376095
-0.2668791701897362,-0.2668791701897362,0.9994260201386812,0.0008804067060573939
-0.26532685169570414,-0.26532685169570414,1.0004476454305302,0.0008683786042308324
-0.26406414402206335,-0.26406414402206335,1.0005093656619533,0.0008743992922225878
-0.2625711579634526,-0.2625711579634526,0.9995044718594833,0.0008739372667571873
-0.2609229896354918,-0.2609229896354918,0.9975013615193721,0.0008671724430063468
-0.2598925661110343,-0.2598925661110343,0.9998524531959131,0.0008806354755711704
-0.2581947842585123,-0.2581947842585123,1.0001496493003033,0.0008683155608062619
-0.25691101495847307,-0.25691101495847307,1.0006406539333383,0.0008746730167083838
-0.25555114067899465,-0.25555114067899465,1.0008574095804332,0.0008746494435225435
-0.25404680920364625,-0.25404680920364625,1.0001532796092278,0.0008745532961498817
-0.2529866769564023,-0.2529866769564023,1.001170214712292,0.000874128009165224
-0.2512940877399842,-0.2512940877399842,0.9998138359655451,0.0008672960996606212
-0.2501994985547526,-0.2501994985547526,1.0016170320362392,0.0008809789599927979
-0.248492827285736,-0.248492827285736,0.999399531261799,0.0008684143978236758
-0.24718193599237565,-0.24718193599237565,0.9996198334911721,0.0008746738881594545
-0.2460100627675729,-0.2460100627675729,0.9997219791077789,0.0008748717643737131
-0.24428837249117805,-0.24428837249117805,0.9997824490027731,0.000874718777495744
-0.24310115310036054,-0.24310115310036054,0.9998217952370487,0.0008737828499582794
-0.24156670982222295,-0.24156670982222295,1.0011950713428466,0.0008677801782251712
-0.24020855510932507,-0.24020855510932507,0.9977401732128957,0.0008804516222599864
-0.23860728630106678,-0.23860728630106678,0.999758044752371,0.0008684303423805908
-0.23745459930510152,-0.23745459930510152,0.9989730360059024,0.0008744551654439634
-0.23599274873683954,-0.23599274873683954,1.0003938893554132,0.0008749318234364727
-0.23456773117391094,-0.23456773117391094,0.9993179226166795,0.0008665672552415468
-0.23339937323332832,-0.23339937323332832,1.0012075273186778,0.0008817812849738552
-0.23170164160874265,-0.23170164160874265,0.9998994456623322,0.00086794613948389
-0.230536880413797,-0.230536880413797,1.0016820316436488,0.0008810269857242817
-0.22903580583001712,-0.22903580583001712,1.001036853848951,0.0008689802422408991
-0.22759480373729274,-0.22759480373729274,1.0004985478241086,0.0008752914001600003
-0.2264081429530961,-0.2264081429530961,0.9988726615072825,0.000874381804616341
-0.22477672011757477,-0.22477672011757477,0.9992480868631315,0.0008676010594887215
-0.22359864860106882,-0.22359864860106882,1.0009688143828517,0.0008816148159558189
-0.22213138538477323,-0.22213138538477323,1.0002280486875883,0.0008686622528324877
-0.22072581280579015,-0.22072581280579015,0.9991769811215347,0.0008812805332426822
-0.21950622696001573,-0.21950622696001573,0.9997317996135081,0.0008691378936813406
-0.21792709018318418,-0.21792709018318418,0.9999579589355976,0.0008756701905189632
-0.21682464196749152,-0.21682464196749152,1.0008659563715703,0.0008739792015129146
-0.21512036292592712,-0.21512036292592712,1.0004333141924344,0.0008685704898345698
-0.21382086486544266,-0.21382086486544266,0.9998983364400742,0.0008818457889697139
-0.21240461261684232,-0.21240461261684232,0.9990296740830141,0.0008681700817724464
-0.21111901542963096,-0.21111901542963096,1.0000106144984022,0.0008759614164601361
-0.20942335560880565,-0.20942335560880565,1.000701936612388,0.0008748771203154069
-0.20804160993527604,-0.20804160993527604,0.9991859146555164,0.0008757942914118924
-0.20678090013248038,-0.20678090013248038,0.9998039752988467,0.0008741838684476735
-0.20520850146904196,-0.20520850146904196,0.9990837955581217,0.0008682971219575453
-0.20390613034880972,-0.20390613034880972,1.0000411583460356,0.0008822304338534159
-0.20218147700265945,-0.20218147700265945,0.9988966935412966,0.0008680782151264568
-0.20095482731537687,-0.20095482731537687,1.0010983754770924,0.0008825607001238346
-0.1991711246614841,-0.1991711246614841,1.00022277190874,0.000868780874636037
-0.1980611593267895,-0.1980611593267895,1.0004102916199813,0.0008774698026867143
-0.19667633844458124,-0.19667633844458124,0.9995473158661774,0.0008739758976414701
-0.19517293502487973,-0.19517293502487973,1.0011077581292702,0.0008684209233863035
-0.19402059836165791,-0.19402059836165791,1.0002949869161153,0.0008826229809734317
-0.19229593237673726,-0.19229593237673726,1.0011449060885,0.0008686313413372208
-0.1912667344233796,-0.1912667344233796,1.0008795927991447,0.0008773251409086413
-0.18959953886787845,-0.18959953886787845,0.9999706331058336,0.0008746944552118065
-0.1883797553805607,-0.1883797553805607,0.9991539708070689,0.0008674746827554761
-0.1870588157807788,-0.1870588157807788,0.9993594139323745,0.000882120504469598
-0.18533494901889752,-0.18533494901889752,0.9987062200831319,0.0008681600604943995
-0.1843987307629277,-0.1843987307629277,1.0006658384844047,0.0008830223970070687
-0.18254213613324738,-0.18254213613324738,1.0000754518305786,0.0008682717495679399
-0.18136942356027247,-0.18136942356027247,1.0004715206042591,0.0008776066700771339
-0.1800685281958522,-0.1800685281958522,0.9990904394129163,0.0008736577290657363
-0.17836245732064526,-0.17836245732064526,0.9991726901249993,0.000867129671788473
