time,time,flux,flux_err
-0.4995247372759574,-0.4995247372759574,1.0001403634483788,7.929978492040931e-05
-0.4980845577162351,-0.4980845577162351,1.0000582977153318,7.933437271991762e-05
-0.4963468408047144,-0.4963468408047144,1.000128475592992,7.929029004663505e-05
-0.49473727250127314,-0.49473727250127314,1.000024859886053,7.93861362278868e-05
-0.49356671168206956,-0.49356671168206956,1.0000114271985887,7.246834691279607e-05
-0.49212364897393857,-0.49212364897393857,1.0000518632508013,7.227399585151826e-05
-0.49035378375774596,-0.49035378375774596,0.9998936431519481,7.246164866777064e-05
-0.48905928760796086,-0.48905928760796086,1.0000414914906464,7.251508078693444e-05
-0.487902518996998,-0.487902518996998,0.999932836073844,7.423858193828184e-05
-0.4869746162337833,-0.4869746162337833,1.0002242384575286,7.228247865779654e-05
-0.4855169663918787,-0.4855169663918787,0.9999597429845574,7.259317550548818e-05
-0.48432400990786845,-0.48432400990786845,1.0002058818670405,7.253698778939756e-05
-0.48314469249817193,-0.48314469249817193,0.9998581762196712,7.296633553618531e-05
-0.4820178295878577,-0.4820178295878577,1.0001201975140437,7.228353060906593e-05
-0.4801808898104355,-0.4801808898104355,1.0002423232522142,0.00011375549527195828
-0.4789222850355145,-0.4789222850355145,1.0000313699905363,7.24298928345546e-05
-0.4776977458386682,-0.4776977458386682,1.000011884262368,7.237590669858463e-05
-0.4765904331121419,-0.4765904331121419,0.9999511152801895,7.244549533795196e-05
-0.47486121005058524,-0.47486121005058524,1.0001254244735367,9.320154002656123e-05
-0.4736960998918221,-0.4736960998918221,1.0000408857305556,7.248636316081052e-05
-0.4723237777005124,-0.4723237777005124,1.00004166667866,7.230629360063704e-05
-0.47078767544953737,-0.47078767544953737,1.0002182657829608,7.248703250090714e-05
-0.46929710191107005,-0.46929710191107005,1.0000495552808957,7.950514035970707e-05
-0.4681081780458044,-0.4681081780458044,1.0000045180930783,7.239103704117849e-05
-0.46676227904608825,-0.46676227904608825,0.9999025408077662,7.237196731805206e-05
-0.46515971824992447,-0.46515971824992447,0.9999787168039586,7.235753723682568e-05
-0.46338118561761804,-0.46338118561761804,1.0000283474906042,7.25080379319722e-05
-0.4621246937851538,-0.4621246937851538,0.9997490553521418,7.2355769599422e-05
-0.46052244781167245,-0.46052244781167245,1.0000605729963925,7.237088426149018e-05
-0.458829314653849,-0.458829314653849,1.000077333178616,7.246585121511245e-05
-0.4576655456148728,-0.4576655456148728,1.00002415850817,7.232647232573015e-05
-0.45622727116351597,-0.45622727116351597,0.9999119394406006,7.244536803626482e-05
-0.4546368819304917,-0.4546368819304917,1.0000439364067006,7.234958598795888e-05
-0.4531990294774005,-0.4531990294774005,1.0000818004890895,7.236718580643872e-05
-0.45182402809659833,-0.45182402809659833,1.0000254407487983,7.2435754086476e-05
-0.45016444069406136,-0.45016444069406136,1.0000968758783113,7.270417917106678e-05
-0.4486803456507914,-0.4486803456507914,1.000087077692233,7.237835823183293e-05
-0.44753239347410273,-0.44753239347410273,0.9999626240621465,7.243073478957693e-05
-0.4456979341819533,-0.4456979341819533,1.0000011906838409,7.231431241118497e-05
-0.4437830712326104,-0.4437830712326104,1.0002318242217598,7.249760347001424e-05
-0.44278190023615027,-0.44278190023615027,0.9999412032087847,7.237155526774173e-05
-0.4414691129153653,-0.4414691129153653,1.0000402468347764,7.23714888735292e-05
-0.4396355555159971,-0.4396355555159971,0.9998570345755387,7.244847314965087e-05
-0.43827928629689267,-0.43827928629689267,1.0000669909291033,7.236674634589807e-05
-0.43708769672884956,-0.43708769672884956,1.000188554933549,7.245097023736645e-05
-0.4355903845949797,-0.4355903845949797,1.000062402345026,7.23579677367403e-05
-0.4340787203211221,-0.4340787203211221,1.000131731014759,7.240569555348866e-05
-0.43286149779814875,-0.43286149779814875,0.9999850204932421,7.245882933277032e-05
-0.4315323767688824,-0.4315323767688824,1.0000801323431592,7.233322992892239e-05
-0.430489349666459,-0.430489349666459,0.9999514385829105,7.243751506947271e-05
-0.42906463172985243,-0.42906463172985243,0.9999816855151005,7.246120316579434e-05
-0.42790184813929955,-0.42790184813929955,1.0000263394442719,7.257355035537312e-05
-0.426704902225174,-0.426704902225174,1.0001005544091257,7.341954943730538e-05
-0.4255676896391378,-0.4255676896391378,1.0002433022873782,7.239781242386176e-05
-0.42399122554124913,-0.42399122554124913,1.000014484566253,7.277832314411593e-05
-0.4227280540420907,-0.4227280540420907,0.9999214971237425,7.242421458534623e-05
-0.4215075012863963,-0.4215075012863963,1.0002604308976262,7.253501099259606e-05
-0.42039971435006007,-0.42039971435006007,1.0000970876800812,7.241047326277712e-05
-0.4186737923089822,-0.4186737923089822,0.9999767827504471,0.00010347905706974256
-0.4176628360561153,-0.4176628360561153,0.9999529739081583,7.627278584922648e-05
-0.4163570817327127,-0.4163570817327127,1.0000678919432384,7.227765977554358e-05
-0.4151544166074018,-0.4151544166074018,1.0000707488143359,7.256227326171148e-05
-0.4133642332817544,-0.4133642332817544,1.0000758260177813,8.572320950703328e-05
-0.4121602227562107,-0.4121602227562107,0.9999746884262374,7.248217275214298e-05
-0.4108866430411581,-0.4108866430411581,0.9999636746536332,7.233093504817006e-05
-0.40930419010765035,-0.40930419010765035,1.0000053972770102,7.240888220838194e-05
-0.40769107501982943,-0.40769107501982943,0.9998314879729264,7.245131462763681e-05
-0.4064312231828808,-0.4064312231828808,0.9999828305823162,7.229767722776518e-05
-0.4050051908714522,-0.4050051908714522,1.0000200620322262,7.249090829055714e-05
-0.40321478619007395,-0.40321478619007395,1.0000009342285117,7.234474831342637e-05
-0.40197822354530216,-0.40197822354530216,0.9999607418959069,7.240816503888168e-05
-0.40062763332316537,-0.40062763332316537,1.0000181500701337,7.239417215678233e-05
-0.3991626100578287,-0.3991626100578287,1.0001522374874152,7.23832813939813e-05
-0.3976648985684733,-0.3976648985684733,1.0001696217719178,7.248418810438701e-05
-0.39650707636901644,-0.39650707636901644,0.9999426653397517,7.233617514092652e-05
-0.3949051113711903,-0.3949051113711903,0.9999937866258228,7.240983943415506e-05
-0.3931525793588662,-0.3931525793588662,0.9999296034749344,7.234793510489128e-05
-0.39180261547298867,-0.39180261547298867,0.9999294473510563,7.236570576858946e-05
-0.3903379709117871,-0.3903379709117871,0.9999630069748507,7.245150592736596e-05
-0.3884337370756839,-0.3884337370756839,0.9999810050061312,7.25641095400121e-05
-0.38706145432806804,-0.38706145432806804,1.0000337355173794,7.236691708006647e-05
-0.38570717582988434,-0.38570717582988434,0.9999377967466974,7.243045569491603e-05
-0.38387093652563636,-0.38387093652563636,1.000150448972403,7.238849265405131e-05
-0.3822470743027225,-0.3822470743027225,1.0000690302182829,7.238057752046068e-05
-0.38118062623543664,-0.38118062623543664,0.9998319227244853,7.245507625921992e-05
-0.37972723803759434,-0.37972723803759434,0.9999770954531073,7.228853707202758e-05
-0.3781320707857958,-0.3781320707857958,1.0000329868197066,7.252020912153633e-05
-0.37691009419067995,-0.37691009419067995,1.0000360074668593,7.232702576266168e-05
-0.3756288262964517,-0.3756288262964517,1.0000128929621328,7.242960267046293e-05
-0.37417509824808803,-0.37417509824808803,0.9999012832297429,7.237504438615592e-05
-0.37230465589091183,-0.37230465589091183,1.000048493295252,7.245720230753566e-05
-0.37124361923270044,-0.37124361923270044,1.0000510410001793,7.247642788364365e-05
-0.37019961041442,-0.37019961041442,0.9999806117338539,7.42746520506152e-05
-0.3691349189808534,-0.3691349189808534,0.999942540945708,7.243106946471263e-05
-0.3675752480092342,-0.3675752480092342,1.0000891034481636,7.271621181481703e-05
-0.3665339379476791,-0.3665339379476791,0.9999913030802319,7.241885574229262e-05
-0.36531734487216455,-0.36531734487216455,1.000142677299431,7.284343858920634e-05
-0.36416952787185436,-0.36416952787185436,1.0000554496666538,7.24477857521166e-05
-0.36248636638483733,-0.36248636638483733,1.000334375478699,0.00011487330720744867
-0.36130826383669046,-0.36130826383669046,1.0000518324552903,7.248297615489647e-05
-0.3601377475366462,-0.3601377475366462,1.0000602949450847,7.23972160350171e-05
-0.35896251744998153,-0.35896251744998153,0.9998886814398207,7.25192267473737e-05
-0.3572352436291112,-0.3572352436291112,0.9999701297816692,9.418435793165711e-05
-0.3560510200695717,-0.3560510200695717,0.9999832122229936,7.246043717485466e-05
-0.35468908396214827,-0.35468908396214827,0.9999940410612975,7.232694870275688e-05
-0.3528648391118622,-0.3528648391118622,0.9999525948814444,8.008756817807842e-05
-0.3514961814333219,-0.3514961814333219,0.9998999725223163,7.24482470457619e-05
-0.35023496002177124,-0.35023496002177124,0.999889399981817,7.228865320392432e-05
-0.34881315636666843,-0.34881315636666843,1.0001181873113612,7.249136132947e-05
-0.3470196203321393,-0.3470196203321393,0.999916846706007,7.238268479603911e-05
-0.3455377266211144,-0.3455377266211144,0.9999202612692676,7.23226284533608e-05
-0.3441188790289743,-0.3441188790289743,0.9999544243715967,7.247841668674113e-05
-0.342466898632847,-0.342466898632847,0.9999981697479783,7.237204758832207e-05
-0.34099516916903666,-0.34099516916903666,0.9999867831183881,7.241604668732461e-05
-0.33981013859011,-0.33981013859011,1.0000228617797284,7.238262167377473e-05
-0.33824520394700813,-0.33824520394700813,0.999976767150527,7.23929934777992e-05
-0.33666097262394035,-0.33666097262394035,1.0001468226595494,7.238016233735488e-05
-0.33534870108414905,-0.33534870108414905,1.000021282677693,7.234175566613336e-05
-0.3337457031600934,-0.3337457031600934,1.0000731426853118,7.239614821634598e-05
-0.3322125941282138,-0.3322125941282138,1.0000156270474445,7.28025532133865e-05
-0.33087088193933595,-0.33087088193933595,0.9999991050969825,7.236898192426187e-05
-0.32950913719905656,-0.32950913719905656,1.000119722317416,7.243739249933738e-05
-0.32769347973153345,-0.32769347973153345,0.9999786212492984,7.240983282010539e-05
-0.3261631858222245,-0.3261631858222245,1.0000516417858445,7.245875473272206e-05
-0.32521990727836964,-0.32521990727836964,1.0000379984802255,7.245849120341582e-05
-0.3237710456305649,-0.3237710456305649,1.0000160147165222,7.230164589685229e-05
-0.3219438874140906,-0.3219438874140906,1.00011700144012,7.24388819253328e-05
-0.3207595636304177,-0.3207595636304177,0.9998894078829952,7.243186137670129e-05
-0.3197329704591539,-0.3197329704591539,0.9999489257302574,7.244194798052673e-05
-0.3185419295048632,-0.3185419295048632,1.0000865284013785,7.270496867834309e-05
-0.3169688632697216,-0.3169688632697216,1.0000629972551185,7.254042109560701e-05
-0.315747431863565,-0.315747431863565,0.9999658360198824,7.2347895722754e-05
-0.3144685442719492,-0.3144685442719492,1.0001754805684038,7.243099507500389e-05
-0.3131706601830956,-0.3131706601830956,0.9998551542467885,7.239249111087561e-05
-0.31171019646790227,-0.31171019646790227,1.0000966381720813,7.247019310796648e-05
-0.31054652427555995,-0.31054652427555995,0.9999387423761888,7.256015642700223e-05
-0.3093505579352495,-0.3093505579352495,0.999994505166546,7.350272198185072e-05
-0.308212288183131,-0.308212288183131,1.0000052647221065,7.238619043754285e-05
-0.3066363872116199,-0.3066363872116199,1.0000523020985457,7.276346453047947e-05
-0.30537314599350796,-0.30537314599350796,1.000067693850803,7.243296637419647e-05
-0.3041530350201356,-0.3041530350201356,0.9999353207679352,7.255541861764695e-05
-0.3030451963073574,-0.3030451963073574,0.999864673982958,7.239600479721696e-05
-0.3013196354622778,-0.3013196354622778,0.9997698703478555,0.00010476916306560757
-0.30014724446518815,-0.30014724446518815,0.999966827424702,7.247338302518699e-05
-0.29877051797520837,-0.29877051797520837,1.0000402570456317,7.229720919384808e-05
-0.2974480156728532,-0.2974480156728532,0.9999857624412632,7.254416266851919e-05
-0.29584443030835245,-0.29584443030835245,0.9999957382290786,8.660195785531538e-05
-0.29461002336684033,-0.29461002336684033,0.9999708103190397,7.242584336909915e-05
-0.2932163763463905,-0.2932163763463905,0.9999957071530037,7.236431978898175e-05
-0.29163180223331436,-0.29163180223331436,1.0001454806490488,7.656097068044717e-05
-0.29042406309599755,-0.29042406309599755,0.9999534453487022,7.243822101033334e-05
-0.28934309681426384,-0.28934309681426384,1.0000461494572321,7.231761213526249e-05
-0.28792544221432764,-0.28792544221432764,1.0001004116683496,7.248222314083039e-05
-0.28627552278558144,-0.28627552278558144,0.9998598669261716,7.236730183223413e-05
-0.28480910998696346,-0.28480910998696346,1.000044795675277,7.242717096752581e-05
-0.28361203039385147,-0.28361203039385147,1.0000128576718237,7.236828785283605e-05
-0.2820512195779884,-0.2820512195779884,0.9998961613852497,7.240315881440107e-05
-0.2805722122269799,-0.2805722122269799,1.0002276473971772,7.240760942894268e-05
-0.2794123304876848,-0.2794123304876848,1.000004687385999,7.235151817106507e-05
-0.27794343965215373,-0.27794343965215373,1.0001501824683585,7.247017289976532e-05
-0.2761163380586368,-0.2761163380586368,0.9999426086133789,7.235418428278985e-05
-0.27468042160835465,-0.27468042160835465,0.9999623051552697,7.236898087108117e-05
-0.27331121660390634,-0.27331121660390634,1.0001776421972584,7.243584261970977e-05
-0.27150450653934965,-0.27150450653934965,1.000116358087093,7.253509018839393e-05
-0.26986486461464665,-0.26986486461464665,1.0000376812026657,7.239980609561736e-05
-0.2687362130775,-0.2687362130775,0.9999156968079479,7.243248183547786e-05
-0.2667621927066648,-0.2667621927066648,0.9998643698925278,7.230009309598343e-05
-0.2648924630811962,-0.2648924630811962,1.0000682525939804,7.23811694009847e-05
-0.2638258576320368,-0.2638258576320368,1.0000444459835984,7.245745868827513e-05
-0.26237189623207086,-0.26237189623207086,1.0000847366267838,7.229009942884842e-05
-0.2607774782925844,-0.2607774782925844,1.000073190728297,7.253232720866238e-05
-0.25955543260934066,-0.25955543260934066,0.9998039082684926,7.232300676104618e-05
-0.25827386882447173,-0.25827386882447173,0.9999829832770623,7.244047095322691e-05
-0.25682000449014597,-0.25682000449014597,1.0000487677487946,7.237799772565606e-05
-0.25494999950387864,-0.25494999950387864,1.0001167514873366,7.245084284647699e-05
-0.25388880167884054,-0.25388880167884054,0.9999674282891137,7.247449967638803e-05
-0.25271524043128013,-0.25271524043128013,1.000016245490578,7.443870689302438e-05
-0.25177674613223644,-0.25177674613223644,1.0001019167029126,7.25210383129404e-05
-0.2502200382506999,-0.2502200382506999,1.0001562767670724,7.270153640818945e-05
-0.24917904343164993,-0.24917904343164993,1.0000746354276475,7.242150729748889e-05
-0.2479628883600526,-0.2479628883600526,1.0000401367085194,7.288499623584842e-05
-0.2468145405051473,-0.2468145405051473,1.000030365475205,7.244351713291942e-05
-0.2451322065491695,-0.2451322065491695,0.9999299198580907,0.00011610286804399864
-0.24398008413918432,-0.24398008413918432,0.9999353232196585,7.247474426062788e-05
-0.24298879394991674,-0.24298879394991674,1.0000535484643804,7.24116698750201e-05
-0.24188137624587397,-0.24188137624587397,1.0001556099787983,7.244182242394062e-05
-0.24015289510207366,-0.24015289510207366,0.9999271464500937,9.527544130805124e-05
-0.2389863168442389,-0.2389863168442389,1.000041686044891,7.247890076513706e-05
-0.23761311423440928,-0.23761311423440928,1.0000838433298014,7.231005747507371e-05
-0.23590611077597715,-0.23590611077597715,1.0000996254512322,7.241222771256436e-05
-0.23434330931995645,-0.23434330931995645,0.9999319215242201,8.068839702798754e-05
-0.23314858787925913,-0.23314858787925913,0.9999792206443073,7.231428909618938e-05
-0.23173212091933237,-0.23173212091933237,1.0001669567550653,7.248386813361133e-05
-0.23008426985543337,-0.23008426985543337,1.0001028329172688,7.237385295584368e-05
-0.22843009035714204,-0.22843009035714204,1.000088576919877,7.240956134667042e-05
-0.22708138861999033,-0.22708138861999033,1.0000430244713638,7.238199888991028e-05
-0.22547951340166036,-0.22547951340166036,0.9999489550295871,7.234294657978009e-05
-0.2238578028547636,-0.2238578028547636,1.0000307237305521,7.248940898804264e-05
-0.22273685576510616,-0.22273685576510616,1.000010300249571,7.237357179818094e-05
-0.22117043386097066,-0.22117043386097066,1.0000501390841634,7.239948498961723e-05
-0.21961501276964554,-0.21961501276964554,1.000026868483617,7.234169576309004e-05
-0.21825239833851812,-0.21825239833851812,1.0000739895163966,7.235122728782349e-05
-0.21678539487547824,-0.21678539487547824,0.9999720570876512,7.246385194628157e-05
-0.21516882958676434,-0.21516882958676434,1.0000733976983909,7.275986017875285e-05
-0.21367829770315439,-0.21367829770315439,1.0001492189531804,7.241169723973862e-05
-0.21253755339857888,-0.21253755339857888,0.9998356874795755,7.242297404560064e-05
-0.2106530279867002,-0.2106530279867002,1.0000587783956847,7.243144012447153e-05
-0.20907402097727754,-0.20907402097727754,0.999849597479287,7.249634935848415e-05
-0.20807138408199535,-0.20807138408199535,0.9999643890677866,7.237047482968225e-05
-0.20675956201303053,-0.20675956201303053,0.9998065951380729,7.236502715937946e-05
-0.20492635731206973,-0.20492635731206973,0.999968108411989,7.244891698730717e-05
-0.20357018961221912,-0.20357018961221912,0.9999627447812266,7.235584696488089e-05
-0.20237824560972512,-0.20237824560972512,1.0000061763101198,7.244038259921406e-05
-0.20087882512598298,-0.20087882512598298,1.000193284413432,7.23692342024943e-05
-0.1993708636793599,-0.1993708636793599,0.9999039140155184,7.239728369142649e-05
-0.19815089130570412,-0.19815089130570412,1.0000159393395582,7.245131619122936e-05
-0.196822725453967,-0.196822725453967,1.0001282465947838,7.234033080227553e-05
-0.1955853230523644,-0.1955853230523644,1.000050603097853,7.243612580259033e-05
-0.19402319984292263,-0.19402319984292263,1.0000719615390294,7.264038898423722e-05
-0.19298505607657718,-0.19298505607657718,1.0000613015337072,7.242642120088186e-05
-0.19177282244272648,-0.19177282244272648,0.9998260253921993,7.348458022350882e-05
-0.1906197130178043,-0.1906197130178043,1.0000356344762804,7.243621106802769e-05
-0.1889400862623006,-0.1889400862623006,0.9999351351346352,7.270430212230223e-05
-0.18775966683679143,-0.18775966683679143,0.9998795336985514,7.247684902590807e-05
-0.1865883313395898,-0.1865883313395898,0.9998940018003892,7.257470503430766e-05
-0.1854160812057671,-0.1854160812057671,0.9999877906611674,7.247427603723555e-05
-0.18369745953023084,-0.18369745953023084,0.9997796174541336,0.00010602726252803367
-0.1825223470455967,-0.1825223470455967,1.0000944906551779,7.249705735942256e-05
-0.18141519977652934,-0.18141519977652934,1.0000274953512558,7.229052431673911e-05
-0.1800932870421093,-0.1800932870421093,1.0001382902224973,7.254106963153599e-05
-0.17849050324875862,-0.17849050324875862,1.0000241334587947,8.747518460301965e-05
-0.17725495085032889,-0.17725495085032889,0.9999254801874393,7.242429309310396e-05
-0.1758617937703093,-0.1758617937703093,1.0000393944706718,7.236522197691064e-05
-0.17427736523823115,-0.17427736523823115,1.0002633526461182,7.693122239614559e-05
-0.1729810879987781,-0.1729810879987781,1.0001069062413344,7.245722474406876e-05
-0.1717209319343965,-0.1717209319343965,0.9999121568046805,7.228710273852406e-05
-0.17029584000629255,-0.17029584000629255,1.000034537224377,7.248909594354471e-05
-0.1685065551289881,-0.1685065551289881,1.0000621636320022,7.234277415390605e-05
-0.16726858466427075,-0.16726858466427075,1.000053884048585,7.240619702639047e-05
-0.16591837326996028,-0.16591837326996028,1.000090111051617,7.239683926700128e-05
-0.1644529614211933,-0.1644529614211933,1.0001966681804266,7.23827639256726e-05
-0.1629559945220535,-0.1629559945220535,0.9998750424435453,7.247048784104411e-05
-0.16179668502445566,-0.16179668502445566,1.000101838873236,7.233365751941313e-05
-0.1601949787698686,-0.1601949787698686,1.0000911099574523,7.241538403097217e-05
