time,time,flux,flux_err
-0.49995752657802467,-0.49995752657802467,1.000151041058147,0.0007740574859489124
-0.49989290481535137,-0.49989290481535137,0.999856785013564,0.0008008117677071654
-0.4998023001033289,-0.4998023001033289,1.0000736256287683,0.0007619631516073872
-0.49968369590933437,-0.49968369590933437,0.999735863082359,0.0007813223546591201
-0.4996160760798375,-0.4996160760798375,0.9988817837929765,0.0007621282626138104
-0.499540072921809,-0.499540072921809,0.9998475321510213,0.000652842972420828
-0.4993936412596668,-0.4993936412596668,1.000784250506069,0.0005778451281209263
-0.49930661399776,-0.49930661399776,0.9991627061618129,0.0007582534889877913
-0.49923442467843415,-0.49923442467843415,1.0005569010598596,0.0007363915638892608
-0.4991214765352197,-0.4991214765352197,1.0004632197439558,0.0005870752998845262
-0.4990370883009746,-0.4990370883009746,1.0001159273160511,0.0006072690506941103
-0.4989137835851579,-0.4989137835851579,0.9998463423688688,0.0007725492175218739
-0.4987905177244102,-0.4987905177244102,1.000314067217273,0.000720739659053908
-0.49870171323491375,-0.49870171323491375,0.9997268321627324,0.0006092492558355116
-0.4986099973531964,-0.4986099973531964,0.9999858298400028,0.0006467235571857594
-0.4985100293219148,-0.4985100293219148,0.9993916006349627,0.0007270608611142862
-0.4984085962802055,-0.4984085962802055,0.9999008520707596,0.0007652437596080053
-0.49832543026059284,-0.49832543026059284,1.0002921470688317,0.0005893281790939015
-0.4982307444617618,-0.4982307444617618,1.000851293661447,0.0007836965389190901
-0.4981368103486602,-0.4981368103486602,0.9997281573864182,0.0005818354122811535
-0.4979932950504008,-0.4979932950504008,0.9995659020381561,0.0007566641829542725
-0.49790178850089434,-0.49790178850089434,0.9999044964623239,0.0006420882170384003
-0.49774427397933324,-0.49774427397933324,0.9998900502322619,0.0007672012862196922
-0.49762862479910835,-0.49762862479910835,0.9992279750683352,0.0006351173028996784
-0.4975242211257864,-0.4975242211257864,1.0001816097484848,0.0008023678716068272
-0.49735748503007926,-0.49735748503007926,1.0001852957239916,0.0006321859249823302
-0.4971928069324349,-0.4971928069324349,0.9995915161769681,0.0008205188620265126
-0.4970577189422329,-0.4970577189422329,0.9993600153421311,0.000630492546833926
-0.49691693949716864,-0.49691693949716864,1.0002000865014298,0.0006320696218500761
-0.4967396239808295,-0.4967396239808295,0.9991935005415193,0.0006042512439775792
-0.4966293041870813,-0.4966293041870813,1.0004225327760294,0.0005642538326079927
-0.49653052348003257,-0.49653052348003257,1.0004110472675154,0.0007483243227356145
-0.4963759332174959,-0.4963759332174959,1.000045459345874,0.0006052120537371138
-0.4962538459680218,-0.4962538459680218,1.0001918258038875,0.0007117357396652948
-0.49612523452524326,-0.49612523452524326,1.0001533848092659,0.0006379820428182415
-0.4960095812944928,-0.4960095812944928,1.000649531421729,0.0008766015427507523
-0.4958682531498198,-0.4958682531498198,0.9999855233208074,0.000769802820933056
-0.4957602262125874,-0.4957602262125874,1.000671253388664,0.0006622123451842482
-0.49569811806068176,-0.49569811806068176,1.0002463064450036,0.0008541131702040639
-0.4955693986878032,-0.4955693986878032,0.9995204324579945,0.0007317387474643425
-0.4954377621077583,-0.4954377621077583,0.999403921727996,0.0007786091215664841
-0.4953047375216556,-0.4953047375216556,0.9994489747214363,0.000759064719799804
-0.4951543168645003,-0.4951543168645003,1.0001255139548488,0.001151347224344977
-0.4950664361815143,-0.4950664361815143,0.9996533567591829,0.000603775297910917
-0.4949349203692691,-0.4949349203692691,0.9998258586443424,0.0008626704839000993
-0.49481873663462467,-0.49481873663462467,0.9993505380448123,0.0006227537473975795
-0.494735765720543,-0.494735765720543,1.000220235700322,0.0007663750395943948
-0.49460533936944556,-0.49460533936944556,0.9997165154859562,0.0007748834369800748
-0.4945109804350068,-0.4945109804350068,1.0001326235022787,0.0007592271352104376
-0.4943749049991311,-0.4943749049991311,0.9999482877959087,0.0007284320366605535
-0.49430896689300424,-0.49430896689300424,0.9999566271895652,0.0007763537617143368
-0.49419897725165357,-0.49419897725165357,0.9993764147678721,0.0007310665262801569
-0.4940889913799765,-0.4940889913799765,1.0009636130148791,0.0007515430111183694
-0.49395584897210937,-0.49395584897210937,1.0000291960358998,0.0005668929208011567
-0.4939014550240245,-0.4939014550240245,1.0002662156783209,0.0007751336347639238
-0.4937745887349593,-0.4937745887349593,0.9997279578792565,0.0007654478964774875
-0.4936288341472391,-0.4936288341472391,1.000434923137328,0.0007794758769122045
-0.4935423035269196,-0.4935423035269196,0.9998050313150951,0.0007497741256051905
-0.4934104727799422,-0.4934104727799422,0.9997524402392678,0.00090827009007639
-0.4932901272251911,-0.4932901272251911,0.9992179625176278,0.0006032954716981623
-0.49322436348811605,-0.49322436348811605,1.000006986538126,0.0007822626176611173
-0.493088740305393,-0.493088740305393,0.9996947730372107,0.0007544036186767544
-0.4929451282863738,-0.4929451282863738,1.0000235017775205,0.00091090997221938
-0.4927893316045811,-0.4927893316045811,1.0001482943463043,0.0005236134940472421
-0.49266721866006263,-0.49266721866006263,0.9996589907859846,0.0009007024913630357
-0.4925292537351197,-0.4925292537351197,0.9999434719350168,0.0007940740890679525
-0.4924089372092567,-0.4924089372092567,0.9992524913532916,0.000719488187024184
-0.49228549984836717,-0.49228549984836717,0.9991834586625028,0.0007988999460795445
-0.49217213850206465,-0.49217213850206465,0.999567228105464,0.0007497827106350813
-0.49200401482521555,-0.49200401482521555,1.001094570377773,0.0007842013479401552
-0.4918455914441438,-0.4918455914441438,1.0003878879933965,0.0008182709972017529
-0.4917393370713398,-0.4917393370713398,0.9968934729262546,0.0008991722221507866
-0.49158949009142816,-0.49158949009142816,1.0001810581625734,0.0008878498335939094
-0.4914911448468047,-0.4914911448468047,1.0001434218318985,0.0005786127824268287
-0.4913892314216355,-0.4913892314216355,0.998697353554717,0.0006533022882648128
-0.4912988690259226,-0.4912988690259226,1.002038851218245,0.0008500771890652733
-0.49115100198832806,-0.49115100198832806,1.000950309182058,0.0008156749678649924
-0.4910245337356173,-0.4910245337356173,0.9992031298584626,0.0007488344990422091
-0.49089547114272136,-0.49089547114272136,1.0002508479813568,0.0008026408138573401
-0.49082848784310046,-0.49082848784310046,1.0006030396969883,0.0007255606417835257
-0.4907469591817062,-0.4907469591817062,0.9996410768164579,0.0008251005421371135
-0.49059409770998175,-0.49059409770998175,0.9998048542798859,0.0007265520501680652
-0.49052418372157264,-0.49052418372157264,0.9994439642373291,0.0006611778382996912
-0.4904530088846514,-0.4904530088846514,1.0002348289191132,0.0008070083604376693
-0.4903108778722526,-0.4903108778722526,1.0000645255278202,0.0009176584772262875
-0.4901855546610022,-0.4901855546610022,1.000379318229053,0.0006202853524124106
-0.4900957888094126,-0.4900957888094126,1.0001363936914671,0.0007405271086374128
-0.49000674228082064,-0.49000674228082064,0.9992831557015689,0.000818920685450006
-0.48982228139939255,-0.48982228139939255,1.0002311995605901,0.000869739358782644
-0.4897544758670847,-0.4897544758670847,1.0005595841939383,0.0006441251524226117
-0.48967942210292675,-0.48967942210292675,0.9997563278923624,0.0007790785800863242
-0.4895346590696136,-0.4895346590696136,0.9998719653700997,0.0007255377725196773
-0.48944628711469707,-0.48944628711469707,0.99948344805657,0.0007971024321440029
-0.48932209855920517,-0.48932209855920517,0.9997374162671557,0.0008133427966460032
-0.4891997507853375,-0.4891997507853375,1.0001697849621858,0.0007249122522367006
-0.4891243192796537,-0.4891243192796537,0.9984198919235163,0.0008127736859401422
-0.4889798317723034,-0.4889798317723034,1.0006025414048636,0.0008014158857947151
-0.48884168722797766,-0.48884168722797766,0.9996676892658174,0.000935390790491955
-0.4887210510314617,-0.4887210510314617,1.0003545419102435,0.000768377987704079
-0.4885860930131457,-0.4885860930131457,0.9995092463012885,0.0008066873571291197
-0.4884871452544758,-0.4884871452544758,1.0005963568773069,0.0007297814030089716
-0.488327066203783,-0.488327066203783,0.9995230281053896,0.0008304774585288595
-0.488222888767632,-0.488222888767632,0.999882872169813,0.0007496133977514558
-0.4880376571840316,-0.4880376571840316,0.999889766807444,0.0007650220874703963
-0.48792722419239,-0.48792722419239,1.0006549398681566,0.0006073238357598324
-0.4877797975263093,-0.4877797975263093,0.9995874694954789,0.0007982967995958885
-0.48763035309166297,-0.48763035309166297,1.000554961568555,0.0007989526446806313
-0.48750306017027467,-0.48750306017027467,1.0002008654506984,0.0005871154519507442
-0.48737685846645035,-0.48737685846645035,0.9999913985812388,0.0006289173446411422
-0.48727885745538513,-0.48727885745538513,0.9997527033478277,0.0006338392541320561
-0.4871115485439077,-0.4871115485439077,1.000196301107136,0.0009276517417501119
-0.4869902782695135,-0.4869902782695135,1.000055845665265,0.0006501494310460155
-0.4868291722625145,-0.4868291722625145,1.0000958006962788,0.0005873436126684742
-0.48668694160005543,-0.48668694160005543,0.9998763490643482,0.0006352441605213387
-0.486504967721703,-0.486504967721703,1.0005211207502152,0.0006710856839986099
-0.4863622377051797,-0.4863622377051797,1.0000167568780847,0.0005654106455057917
-0.48624087101925395,-0.48624087101925395,0.9999483361300767,0.0007885597709005418
-0.4861259874240204,-0.4861259874240204,1.0000367313889853,0.0007405778950955006
-0.4859912880121556,-0.4859912880121556,1.0006128370677514,0.0008516998992101307
-0.4858949645131361,-0.4858949645131361,1.0000975327274106,0.0005683718499828546
-0.4857767866749782,-0.4857767866749782,0.9994768594774094,0.0008760511764742717
-0.4856538139138138,-0.4856538139138138,0.9995221706630236,0.0006388808332201917
-0.48553651263646314,-0.48553651263646314,1.0008599292215592,0.0007491303116791879
-0.4854797878069803,-0.4854797878069803,1.0005506320085993,0.000624280004268225
-0.485327508343471,-0.485327508343471,0.9993875962132514,0.0008607416329827098
-0.4852299998550734,-0.4852299998550734,1.0005939543134428,0.0006268714709437966
-0.48513903379134715,-0.48513903379134715,1.0003875152244064,0.0007009237066751513
-0.4850566377564974,-0.4850566377564974,1.000660703576547,0.0007907222156976279
-0.4849877255510364,-0.4849877255510364,1.0004033758605684,0.0007203525947924582
-0.4848714116269548,-0.4848714116269548,0.9994375417191341,0.0007854923909623752
-0.48480997175429363,-0.48480997175429363,1.0009407309509633,0.0006108953860166438
-0.4846560486977978,-0.4846560486977978,0.9998533260321881,0.0009658790194535249
-0.4845912306096579,-0.4845912306096579,1.000376389244021,0.0005847037681560106
-0.4845398599827604,-0.4845398599827604,0.9998075912977733,0.000619533562823069
-0.4844073972402839,-0.4844073972402839,0.9999482977103806,0.0007187475019207338
-0.48425940660890776,-0.48425940660890776,1.0005618752270844,0.000817373426705402
-0.4841513166837103,-0.4841513166837103,1.0003101034818442,0.0007424148559279539
-0.48404430077571303,-0.48404430077571303,0.999988649106663,0.0007164541668692678
-0.48392116934410295,-0.48392116934410295,0.9993357608747397,0.0007650186400013882
-0.48382505630215744,-0.48382505630215744,0.9995053814186272,0.0006609692356742299
-0.4836976555212459,-0.4836976555212459,1.0005975811204695,0.000737191496474334
-0.48360972852460693,-0.48360972852460693,0.9990714248656449,0.0007469515336010685
-0.4835059575198102,-0.4835059575198102,1.0003295502716973,0.000821393175522131
-0.4833458079017873,-0.4833458079017873,0.9994305557727415,0.0006025776061069385
-0.48328587894138764,-0.48328587894138764,0.9990463484099026,0.0008550369282274251
-0.4831339660631784,-0.4831339660631784,1.0002953507842025,0.0007148304815278823
-0.4830317246509367,-0.4830317246509367,0.9993206801187448,0.0007826857584427799
-0.48287516734417296,-0.48287516734417296,0.9990839721028781,0.0007281976525991948
-0.4827499276252638,-0.4827499276252638,1.000206486442051,0.0008736119426629028
-0.48260153370720216,-0.48260153370720216,0.9999306306365217,0.0007281918733284463
-0.48245622277099753,-0.48245622277099753,0.9999888254415149,0.0008799843591954426
-0.4823006218066439,-0.4823006218066439,0.9999577119655602,0.0005482456283715272
-0.4821638172616076,-0.4821638172616076,1.0011003029702905,0.0009999484903395071
-0.48203876136467444,-0.48203876136467444,1.0000682459324022,0.0005701404495894462
-0.481908388951706,-0.481908388951706,1.0000521910167426,0.0007381991576268668
-0.48173545121899225,-0.48173545121899225,1.0000575978954287,0.000883590616856892
-0.48164351172017633,-0.48164351172017633,1.0006246053496437,0.0006103177191779012
-0.4815458276520076,-0.4815458276520076,1.0000628387619563,0.0007091821586331234
-0.481430321388325,-0.481430321388325,1.0005617421791444,0.0009015516123990729
-0.4813177073148836,-0.4813177073148836,1.000031063331887,0.0006571072153722765
-0.4812073017201328,-0.4812073017201328,0.9998079003559048,0.0007318568448398726
-0.4810933769105759,-0.4810933769105759,1.000814948947853,0.0008107675974423757
-0.4809793725144118,-0.4809793725144118,0.999616723126796,0.0005698862231062962
-0.480894439722033,-0.480894439722033,0.9992772458210559,0.0008654537858041753
-0.4807269649812952,-0.4807269649812952,0.9994932289538692,0.0009044483029818174
-0.48059388706606115,-0.48059388706606115,0.9996434144078133,0.000748364563724863
-0.4804971267541987,-0.4804971267541987,0.9997456821180603,0.0008246190921519523
-0.48039318807350356,-0.48039318807350356,1.0007679490250432,0.0008172327671726407
-0.48025669863127407,-0.48025669863127407,1.0006163380188884,0.0008757867174169484
-0.48016273742032356,-0.48016273742032356,0.9994078278719577,0.0005708330645538449
-0.48008217094175054,-0.48008217094175054,1.0005069277568421,0.0007687867021960797
-0.47997493819493686,-0.47997493819493686,1.0001547600190441,0.0008990074189857164
-0.4798579545742541,-0.4798579545742541,1.000372195253726,0.0005975209829363319
-0.479741916347848,-0.479741916347848,1.0003882882978672,0.0007326387729038393
-0.47966690505854787,-0.47966690505854787,0.999773848648957,0.0008145563751955681
-0.4795133102365071,-0.4795133102365071,1.0001577905343182,0.0007490104118904268
-0.47942681517306485,-0.47942681517306485,0.9992013090741209,0.0007863858052260685
-0.47929285085265294,-0.47929285085265294,1.0004907298851997,0.0007267011228878309
-0.4791942515432311,-0.4791942515432311,0.9991412499446396,0.0008040188689209641
-0.47907468529592734,-0.47907468529592734,1.0002310738561317,0.0007925669899232536
-0.4789542728809465,-0.4789542728809465,1.0002972379385315,0.0005815398195545217
-0.47892379103504934,-0.47892379103504934,0.9999770546479715,0.0007619996541514647
-0.478799784497096,-0.478799784497096,0.999381667438905,0.0008157515445911571
-0.47868338421394585,-0.47868338421394585,0.999685287386446,0.0007574520411322487
-0.47859959324996454,-0.47859959324996454,0.999762807268038,0.0006521886144263719
-0.4784699592855759,-0.4784699592855759,1.0001965854644197,0.0005452711292244898
-0.4783971410986851,-0.4783971410986851,1.0006924567682247,0.0006137321002847483
-0.47826986931977444,-0.47826986931977444,0.9999180510171192,0.0006515928165659149
-0.4781467370070459,-0.4781467370070459,0.9999556065023392,0.0005840955161710718
-0.4780389921892493,-0.4780389921892493,0.9994299804049215,0.0007604558571639575
-0.4779259793613164,-0.4779259793613164,1.0006945244655854,0.0006213827811255259
-0.47778130194565166,-0.47778130194565166,1.0004351204062718,0.0007437909535326488
-0.47768232160888147,-0.47768232160888147,0.9997408278447238,0.0006457685571096653
-0.47760246127072603,-0.47760246127072603,0.9997891179214726,0.0005694236607374817
-0.4774870094835933,-0.4774870094835933,0.9994868526960096,0.0007604717748947361
-0.4773579590881127,-0.4773579590881127,1.000347180035127,0.00062172904101104
-0.47727048433735036,-0.47727048433735036,0.9999347934821433,0.0008193614048889629
-0.4771628640242852,-0.4771628640242852,0.9992738709082614,0.0005974248542545909
-0.47703141764650353,-0.47703141764650353,1.00015627702665,0.0008964667375527145
-0.476949771510408,-0.476949771510408,1.0005991865872856,0.0006563127862781081
-0.4768477910554793,-0.4768477910554793,1.0005194358550316,0.0007908057728458387
-0.4767389688975527,-0.4767389688975527,1.000654705057777,0.0006082288024434022
-0.4766212441274547,-0.4766212441274547,1.0001610658304059,0.00076921177647153
-0.47652447104337625,-0.47652447104337625,1.0000853381149954,0.0006382893996616014
-0.4763898769779189,-0.4763898769779189,0.9992335591034852,0.0006029811819751581
-0.4762465422405512,-0.4762465422405512,1.0001126744811706,0.000789827915345615
-0.4760980143517372,-0.4760980143517372,1.0001367492783348,0.0005934750077379681
-0.47598990812330155,-0.47598990812330155,1.00043447174585,0.0005630022096541433
-0.47587468206838823,-0.47587468206838823,1.0006874510889001,0.00077487156626325
-0.47570634253061145,-0.47570634253061145,1.0005751825970624,0.0005957230020732778
-0.47557794972599365,-0.47557794972599365,0.9995953026828804,0.0007452934866831344
-0.4754728495223389,-0.4754728495223389,0.999975600071562,0.0005721508808818343
-0.47534925349755214,-0.47534925349755214,1.000095235864489,0.0007532037159868855
-0.47522586349368795,-0.47522586349368795,0.9997537728217599,0.000624101626874843
-0.47510376310528957,-0.47510376310528957,0.9998549423138684,0.0007710498463070526
-0.4749819349184691,-0.4749819349184691,1.0001987796382177,0.000696166122423699
-0.47483037072961454,-0.47483037072961454,1.0000195759767643,0.000608186232207733
-0.47476745992316866,-0.47476745992316866,0.9997983605598177,0.0008760886323998856
-0.4746612121678481,-0.4746612121678481,1.000245223167385,0.0005677551483217358
-0.4745327213757264,-0.4745327213757264,1.000026651996492,0.0008445823800055773
-0.4744749137687904,-0.4744749137687904,0.9994929120374729,0.000673215548773632
-0.47431971329278894,-0.47431971329278894,1.000152691679957,0.0008525230858829556
-0.4742045192389924,-0.4742045192389924,1.0002165266553817,0.0006375601876159837
-0.4741266511984577,-0.4741266511984577,0.9998570497561279,0.0007924676409597683
-0.47401354967878434,-0.47401354967878434,0.999230836336008,0.0008616055889725992
-0.47387224483536555,-0.47387224483536555,1.0007644126995277,0.0006271069959379407
-0.4737716553325299,-0.4737716553325299,0.9991951479216719,0.0008813683564313071
-0.4736743686400587,-0.4736743686400587,1.0006168933832635,0.0006281241601282545
-0.47360536019623395,-0.47360536019623395,1.0003738816394514,0.0007795759536532905
-0.47345012752193727,-0.47345012752193727,1.000066832445021,0.0007404479581682124
-0.4733453842563904,-0.4733453842563904,1.0003938908464807,0.0007900946652842592
-0.4732362824375741,-0.4732362824375741,0.9988335462970956,0.0007458329975589649
-0.47313897754938805,-0.47313897754938805,0.9998316632066093,0.0007748951723638062
-0.4730026426776021,-0.4730026426776021,1.0000039249509682,0.0007398229399715912
-0.47295194606049334,-0.47295194606049334,0.9994928325049477,0.0006133105487295122
-0.4728590046783211,-0.4728590046783211,0.999535387411443,0.0007259618498765844
-0.47275074250865146,-0.47275074250865146,1.0010373662480163,0.00072792391558556
-0.4726766996842343,-0.4726766996842343,0.9997450633637687,0.0007629640349956329
-0.47259192025012453,-0.47259192025012453,1.0002202981023531,0.0006094828736997271
-0.4724659503721341,-0.4724659503721341,1.0007297946463032,0.0008680817009062572
-0.47234884952267747,-0.47234884952267747,1.0002336609685356,0.0006211396759409633
-0.4722678331847419,-0.4722678331847419,0.9999652764356224,0.0007853786268878912
-0.4721562604368955,-0.4721562604368955,0.9996248700989518,0.0008770048626225001
-0.47200148794654523,-0.47200148794654523,1.0002865478368939,0.0009003169141584928
-0.4718728991385433,-0.4718728991385433,0.999488708014954,0.0007661140240717843
