time,time,flux,flux_err
-0.4998434777341269,-0.4998434777341269,1.0005537754482823,0.0004315070879305754
-0.49966245632640494,-0.49966245632640494,1.0004592645523844,0.00040754100975207337
-0.49956026279445115,-0.49956026279445115,0.9996760139769721,0.00048137541348673707
-0.4994245600057184,-0.4994245600057184,0.9994495189731699,0.0004030740569165552
-0.49931451737938914,-0.49931451737938914,1.0002732226788784,0.00035478859171813074
-0.4992084037985478,-0.4992084037985478,1.000055614426263,0.0003939486926564818
-0.49901827309658986,-0.49901827309658986,1.0002186412591443,0.00041134957322763933
-0.49883327016214024,-0.49883327016214024,0.9998183373888736,0.00038585577682040786
-0.49872252095156,-0.49872252095156,1.0000610009536726,0.0004049011116748656
-0.49862691609814647,-0.49862691609814647,0.9996872620953237,0.00040418403685267047
-0.49845760191237787,-0.49845760191237787,0.999240683958343,0.0003738402412659017
-0.4983348870715417,-0.4983348870715417,1.000069760970291,0.00035755498348741504
-0.4982710844735266,-0.4982710844735266,0.9989712328061918,0.0004118758581641317
-0.4980777742297505,-0.4980777742297505,0.9996503917409632,0.00039976722718357527
-0.49799584019274334,-0.49799584019274334,1.0000163128366881,0.00040464058346028985
-0.49788161100659634,-0.49788161100659634,1.0001497582662489,0.0004434050550139592
-0.4977575650991639,-0.4977575650991639,1.000059972278635,0.00040159399840678623
-0.4976788583160669,-0.4976788583160669,0.9997197535807985,0.00039943686395738494
-0.497576887095056,-0.497576887095056,1.0000430850639583,0.0004039959482876619
-0.4974489580679801,-0.4974489580679801,0.9999674368222905,0.000411160685662363
-0.4973614153474045,-0.4973614153474045,0.9995906715323553,0.0003693930374233538
-0.4972324803406082,-0.4972324803406082,0.9995458279085078,0.00039332968284048233
-0.49708462621929356,-0.49708462621929356,1.0000390650509432,0.0003836065818588356
-0.4969652744483028,-0.4969652744483028,0.9993900543131984,0.00038328171741250236
-0.496796357211133,-0.496796357211133,1.0002974824206954,0.00035804348655180563
-0.4966997256706236,-0.4966997256706236,1.0003831519370228,0.0003869337017554231
-0.4965845236372843,-0.4965845236372843,0.9995285888195031,0.0003987941818308586
-0.49646073171388705,-0.49646073171388705,0.9998673948631444,0.0003999372925836556
-0.4962679661126458,-0.4962679661126458,1.0001832335359306,0.00039578813971804697
-0.49607140017324125,-0.49607140017324125,1.0001805648368423,0.0003817845081355319
-0.49586739499136456,-0.49586739499136456,0.9996854928873915,0.00041056495556307857
-0.4957271687089815,-0.4957271687089815,1.0000762703103958,0.00039575441706713854
-0.4955854343483225,-0.4955854343483225,1.000594339825867,0.0003570045081973955
-0.4954821568360785,-0.4954821568360785,0.9999138873627731,0.0003883386907097921
-0.4953673132629774,-0.4953673132629774,1.0002132717062762,0.00037993791654942105
-0.49520049526472576,-0.49520049526472576,1.000256180886807,0.00038498470235954856
-0.495127016967308,-0.495127016967308,1.0001748008728057,0.00038134844131293454
-0.49500556688944924,-0.49500556688944924,1.0001935584880672,0.00036870251347397216
-0.4947981130848348,-0.4947981130848348,1.0001623979487941,0.0004004562031482353
-0.4947105262857804,-0.4947105262857804,0.9997813327340335,0.00039118347044074633
-0.4945812156838656,-0.4945812156838656,0.9999162889572419,0.0003810095848549836
-0.4943984599078249,-0.4943984599078249,0.9999702059491087,0.0003966223279239257
-0.49428154893685133,-0.49428154893685133,1.0002078597602249,0.0003717893452397458
-0.4941215777929756,-0.4941215777929756,0.999853633319951,0.0004193120987428505
-0.49397872701447343,-0.49397872701447343,1.0001212251652785,0.00038109647161552087
-0.4938844336960756,-0.4938844336960756,0.9997138510879925,0.0004019489833762101
-0.49372156753161106,-0.49372156753161106,1.0003218712587576,0.0003840417626427634
-0.49360225503187394,-0.49360225503187394,0.9999833603129457,0.00036626360394445963
-0.4934864344955713,-0.4934864344955713,1.0002736895659396,0.00038951554597019576
-0.4933899521114654,-0.4933899521114654,0.9997505203872776,0.0003983927372327643
-0.4931489920651074,-0.4931489920651074,0.999868087492296,0.0003894570446098801
-0.4930414637368813,-0.4930414637368813,0.9994820145516815,0.00039340300991476407
-0.4928758623325848,-0.4928758623325848,1.000080017383546,0.0003886077756003857
-0.49270473367796513,-0.49270473367796513,1.0000105245485345,0.00041240430956416814
-0.4924933052367123,-0.4924933052367123,1.0001270006693774,0.00042277844588675846
-0.4923855534987524,-0.4923855534987524,1.000256972671854,0.0003920358292375433
-0.49223232181757337,-0.49223232181757337,1.0002148562405715,0.00043934248575126024
-0.4920446067757439,-0.4920446067757439,0.9997683131472531,0.00036036843727136844
-0.4919361270374793,-0.4919361270374793,0.9996714493761936,0.0003558763466238539
-0.491776414654305,-0.491776414654305,0.9997095412865523,0.00039695443587393854
-0.49160848793253537,-0.49160848793253537,1.0000193254859882,0.0003837786110247132
-0.49149824781998175,-0.49149824781998175,0.9994120562307474,0.00040205310973718796
-0.49135422225881487,-0.49135422225881487,0.9998404301150161,0.000388964980422429
-0.4911214494386513,-0.4911214494386513,0.9998000142396541,0.000425556035043258
-0.49099071273958544,-0.49099071273958544,1.0000390258401324,0.0003727218746164404
-0.49088291255029615,-0.49088291255029615,1.000066197184235,0.0003496847459199621
-0.490661529875797,-0.490661529875797,0.9995967223123323,0.00040685277407462897
-0.4905960751799284,-0.4905960751799284,0.9996560835972217,0.0003789391708746672
-0.49048394853889477,-0.49048394853889477,1.0004723255946248,0.00037844913049445573
-0.49034847069269744,-0.49034847069269744,0.9999264083951374,0.00041964841245797945
-0.4902307904078043,-0.4902307904078043,0.9998276250970639,0.00040368261069366446
-0.49003873521796776,-0.49003873521796776,1.000139390702232,0.000391660607584616
-0.4898914751276607,-0.4898914751276607,1.0003688062955194,0.0005196343066314712
-0.4897025403566658,-0.4897025403566658,1.000219055071682,0.00041049432137643834
-0.48951903191409657,-0.48951903191409657,1.0008471401435846,0.0004347952331434238
-0.489377817742934,-0.489377817742934,1.0003220100497487,0.00038859933539743004
-0.4893128901916498,-0.4893128901916498,0.9999868899846147,0.0004289990112641036
-0.48915231049541036,-0.48915231049541036,0.9999365669794343,0.00039657254627010406
-0.4890408760395076,-0.4890408760395076,1.0000688904133679,0.0003645183753507717
-0.4889182144426741,-0.4889182144426741,1.000134028630993,0.0003953143988878134
-0.4887595918211446,-0.4887595918211446,0.9998568768068479,0.00040023353178293404
-0.48858087701446495,-0.48858087701446495,0.9999826937049223,0.00037260812426752755
-0.48843248540870265,-0.48843248540870265,1.000335799479141,0.0003998119415576394
-0.4883414091229497,-0.4883414091229497,1.00037241911539,0.0004028722440498918
-0.48820703315723224,-0.48820703315723224,1.0002539495058904,0.00045356982151069066
-0.4881268407450989,-0.4881268407450989,0.9995614636078477,0.00035261303536167707
-0.48802262521276135,-0.48802262521276135,1.0001269299741469,0.0003572574856789747
-0.48793283606792104,-0.48793283606792104,1.0005216577498057,0.0004068623397088252
-0.487751869350177,-0.487751869350177,0.9991954496737965,0.00040046145313608
-0.4876030219893437,-0.4876030219893437,1.0001537790575346,0.0003840892799039477
-0.48745573022897587,-0.48745573022897587,0.9996318573305027,0.0004079589813301281
-0.48734215253352886,-0.48734215253352886,0.9996429189217129,0.0003937381240987437
-0.4872243811667431,-0.4872243811667431,1.0002719680772394,0.00038619265254571743
-0.48710066426210685,-0.48710066426210685,0.9997348399496978,0.0004018759222954667
-0.4870107704846305,-0.4870107704846305,1.0003222877901061,0.00036556550948500994
-0.48689593645249263,-0.48689593645249263,0.9999157989510309,0.0004177524007192105
-0.4867473559839709,-0.4867473559839709,1.0005394590881427,0.00037389797261258166
-0.48657630661255097,-0.48657630661255097,0.9997040247221456,0.000382625316428432
-0.4864509572886163,-0.4864509572886163,1.0004585852276464,0.0003998863325379321
-0.48636858266254424,-0.48636858266254424,0.9998820726230784,0.0003659477566564149
-0.4862436964212975,-0.4862436964212975,1.000288405823365,0.000407665047153191
-0.4861128659591486,-0.4861128659591486,0.9994079926722769,0.0004004751900584542
-0.48594507602465453,-0.48594507602465453,1.0000763009605649,0.0003627219304456055
-0.4858111597808602,-0.4858111597808602,0.9997447036412724,0.0003843174848475491
-0.48569843965233306,-0.48569843965233306,1.0001273671758235,0.00040183971219494383
-0.485571346803772,-0.485571346803772,0.999924109856815,0.0003946726117199325
-0.48547130613369516,-0.48547130613369516,0.9997916154724175,0.0003790292632065382
-0.4853645910588966,-0.4853645910588966,1.0004852738127423,0.00041722838670594993
-0.48526980659444235,-0.48526980659444235,0.9999749932981017,0.0003629849155910525
-0.485172689173487,-0.485172689173487,0.9998917657032141,0.00038691557065061107
-0.48492932990848203,-0.48492932990848203,0.9996005847475461,0.00039928629279466004
-0.484799138388189,-0.484799138388189,0.9997720862819539,0.000358095313957341
-0.4845562601229176,-0.4845562601229176,0.9999330217925619,0.0003776906662948952
-0.48440017753964637,-0.48440017753964637,0.9996174786262355,0.000407544362801379
-0.48426967535415316,-0.48426967535415316,1.0003347250823769,0.00038425782459998887
-0.4840685053852212,-0.4840685053852212,0.9994076835474777,0.00040404033336923477
-0.48391877471731276,-0.48391877471731276,0.9997140704918008,0.0003904836341560263
-0.4837384975478926,-0.4837384975478926,0.999966049575257,0.0004237542291484998
-0.48358232449099886,-0.48358232449099886,0.9997971513442401,0.00040435025819275774
-0.48344508031950684,-0.48344508031950684,0.9998220989953979,0.0004096748531860307
-0.48335518409439826,-0.48335518409439826,0.9995316665975112,0.0004035622177888425
-0.4832082321750931,-0.4832082321750931,1.0002761760563197,0.00038947888249393775
-0.48313232084256014,-0.48313232084256014,1.0003477769932645,0.00039094819496008173
-0.4830012189093395,-0.4830012189093395,1.0001833076507103,0.0003703822439600994
-0.4827862264493888,-0.4827862264493888,0.9994671574502831,0.0003815017181663852
-0.48260532433268966,-0.48260532433268966,1.0000390534841725,0.0004299576723041334
-0.48243076292637854,-0.48243076292637854,0.9999217706097268,0.0004212664103128212
-0.48220517642548655,-0.48220517642548655,1.0007249473933417,0.00042314163332626934
-0.48208741918570014,-0.48208741918570014,1.0002285460947244,0.00040079039154308153
-0.4819106688388274,-0.4819106688388274,0.9995125715766212,0.0004072983253566683
-0.4817627242206072,-0.4817627242206072,0.9997129793148748,0.0003678017847352958
-0.48163096148346085,-0.48163096148346085,1.0004999055195782,0.0003549971082471125
-0.4814894885734248,-0.4814894885734248,1.0002968665357568,0.0004028185025979784
-0.4813163329672534,-0.4813163329672534,1.0002206037145158,0.0003784082906557961
-0.48118417972073074,-0.48118417972073074,0.9999824562283116,0.0004225067507900266
-0.48104299832557446,-0.48104299832557446,0.9996797140030724,0.0003888453327040713
-0.4807908777736884,-0.4807908777736884,1.0004626707295106,0.00042105895967808774
-0.48068682477241964,-0.48068682477241964,1.0003156712909718,0.0003794873589242616
-0.48046305842508447,-0.48046305842508447,0.9995637351616471,0.00040522329903021375
-0.4803099632430531,-0.4803099632430531,1.0004186796765917,0.0003810247734462726
-0.4801848719493137,-0.4801848719493137,0.9995162176137689,0.00038815204410040736
-0.48006726654057275,-0.48006726654057275,0.9999035484519277,0.00038110715027192977
-0.47999888147751335,-0.47999888147751335,0.9997991118172177,0.00035571855124032225
-0.4798078720232297,-0.4798078720232297,0.9993529852045642,0.0004155215286671011
-0.47965518575292665,-0.47965518575292665,0.9996985424954575,0.0004735673408561974
-0.47945580901941864,-0.47945580901941864,0.9995651637082037,0.00039189015632688784
-0.47927853999935904,-0.47927853999935904,0.9995143963646397,0.00035800008316758233
-0.47908952838552066,-0.47908952838552066,1.0002593744846986,0.0004000893625305937
-0.47898753844201564,-0.47898753844201564,1.0001455624719293,0.00040169340587804645
-0.47883949559764005,-0.47883949559764005,1.000218636648914,0.0003979949121369333
-0.47872044046671364,-0.47872044046671364,0.9997777996493097,0.00038568210493154147
-0.47860268707590875,-0.47860268707590875,0.999653749726835,0.0003864367294646888
-0.47840645901596873,-0.47840645901596873,0.9997941471050968,0.00039207538480318295
-0.4783045571821276,-0.4783045571821276,0.9998524718536503,0.0003572407508203093
-0.4781541502648906,-0.4781541502648906,0.9997538542819413,0.00038333988209738196
-0.47806514275289375,-0.47806514275289375,0.9994794527055515,0.0003875946650931852
-0.47794549066165926,-0.47794549066165926,0.9997809692483116,0.0004360877272504243
-0.47784639910096305,-0.47784639910096305,1.0000243508659103,0.0003674492767833282
-0.47772639603790595,-0.47772639603790595,1.0007345772872749,0.0003669889692478877
-0.47759161810754447,-0.47759161810754447,0.999982801084274,0.00039240447968111835
-0.47741732457870967,-0.47741732457870967,1.0000688488012135,0.0003862883499795739
-0.4772933680098504,-0.4772933680098504,0.999957546502894,0.00037591155305587913
-0.47717372727784096,-0.47717372727784096,0.9998239989285713,0.00038794822032488523
-0.47704733114806,-0.47704733114806,0.9998028226829222,0.0004407831099134688
-0.4769646341868793,-0.4769646341868793,1.0000888930419465,0.00039574771836484515
-0.47683083703159357,-0.47683083703159357,0.9995729626311183,0.0003846075843598461
-0.47674002759958967,-0.47674002759958967,0.9992773309445789,0.0003750078226052151
-0.47665550506208093,-0.47665550506208093,0.9993441720485698,0.00040394701419545296
-0.47646695851290133,-0.47646695851290133,1.0002217739430321,0.0003946252187137617
-0.4763079711818136,-0.4763079711818136,0.999632468584014,0.00039178966922009647
-0.4761308989371173,-0.4761308989371173,0.9995832921256509,0.00040622818604155116
-0.4760210679291049,-0.4760210679291049,1.0001398951263514,0.00039374335882419204
-0.47588832897308747,-0.47588832897308747,1.0003621738678405,0.0004038420910451545
-0.4757373568128969,-0.4757373568128969,0.9998084271874209,0.0003872839910938171
-0.4755846584914252,-0.4755846584914252,1.0003049321963373,0.000357054199874041
-0.47545257642123034,-0.47545257642123034,0.9998271200647707,0.0003747949797824004
-0.47533014064247253,-0.47533014064247253,0.999699834113887,0.0003763763152985472
-0.47519014531062564,-0.47519014531062564,1.0001210629814732,0.0003672131243677708
-0.475068499767076,-0.475068499767076,1.00015680314451,0.0004061089656148963
-0.4749385985596746,-0.4749385985596746,1.000008524418036,0.0003746163058141873
-0.47479297134414084,-0.47479297134414084,0.999620949566685,0.00038728673842132087
-0.4745710036775563,-0.4745710036775563,0.9996578992424056,0.0003854634221728881
-0.4744276055316732,-0.4744276055316732,1.0003036416649578,0.000378952180717372
-0.4742071578402829,-0.4742071578402829,1.0003398114118929,0.0003819547731638545
-0.4740889287517348,-0.4740889287517348,1.0003246201153488,0.0004094249941005832
-0.47398921363055707,-0.47398921363055707,1.000011639127451,0.00038039745623400515
-0.473847814938199,-0.473847814938199,1.000395361410656,0.00039757317641655923
-0.47369490476921783,-0.47369490476921783,1.000355567056776,0.00038950513026978336
-0.4735758162052662,-0.4735758162052662,0.9997978484865427,0.00037716302369118526
-0.47340074315070524,-0.47340074315070524,1.0003899054441492,0.00040444536825489307
-0.47323417877414614,-0.47323417877414614,0.9994833579692866,0.00037368337573169254
-0.47313004605530296,-0.47313004605530296,0.9996146580793855,0.00038149331426294477
-0.4730671768920729,-0.4730671768920729,0.9994767054800506,0.00038004641796677137
-0.4728793394657259,-0.4728793394657259,1.00074616521685,0.00035887444067229447
-0.4727927331914543,-0.4727927331914543,0.9997623925828882,0.0004240264757723727
-0.4726951307784475,-0.4726951307784475,0.9999889187618279,0.00035909977252900435
-0.4725000038575672,-0.4725000038575672,1.0004330605357956,0.00035886532386004614
-0.47235120246332374,-0.47235120246332374,1.0002800493714794,0.00041757084298519904
-0.4721886326398817,-0.4721886326398817,0.9994710981017887,0.00043252650422049963
-0.47204938748836867,-0.47204938748836867,1.0001857245131227,0.0004083278643625679
-0.4718588003175682,-0.4718588003175682,0.999809113423988,0.0004226619814025064
-0.4717446447022667,-0.4717446447022667,1.0003741574328018,0.00038610850271739497
-0.47151257429941323,-0.47151257429941323,1.0001161224094255,0.0004141991947107398
-0.4713907105324324,-0.4713907105324324,1.000371362316369,0.0003356961991201
-0.47126058588692105,-0.47126058588692105,0.9993618099192763,0.0004061575086255442
-0.47111761187552476,-0.47111761187552476,0.9996750894273856,0.000373780103538828
-0.47093783042000725,-0.47093783042000725,0.9998769280666474,0.0004102224583728091
-0.4708202539339254,-0.4708202539339254,1.000435421082941,0.00037910992158032467
-0.47068387170875214,-0.47068387170875214,1.00005030351911,0.00040808197786401624
-0.47044368048518664,-0.47044368048518664,0.9999628363798527,0.00040356481183750654
-0.4703195307527494,-0.4703195307527494,1.0007070919133512,0.00035407843108632855
-0.4700284894992365,-0.4700284894992365,1.0000077616439818,0.00038467110647574755
-0.4698742780587054,-0.4698742780587054,0.9993833519005619,0.0003887841039359964
-0.4697372816241113,-0.4697372816241113,0.999433468217006,0.0003615800108280335
-0.46962602209750914,-0.46962602209750914,1.000524133833815,0.0004209317146770152
-0.46942157691228203,-0.46942157691228203,1.0004405460607777,0.00037889757622273
-0.46936880681532783,-0.46936880681532783,1.000109439083585,0.00037263458351054137
-0.46909903347477666,-0.46909903347477666,0.9997915541144966,0.0003790249913618393
-0.4689641566576029,-0.4689641566576029,1.0002367741623028,0.00036648903667481657
-0.4688089849623793,-0.4688089849623793,1.0004597110050775,0.00041664075269835603
-0.4687152519582014,-0.4687152519582014,1.000400414129512,0.000372958590183152
-0.46857707786839453,-0.46857707786839453,0.999410416728421,0.00041512531429669633
-0.46843690222303846,-0.46843690222303846,0.9997219502560389,0.00037262618580486865
-0.46832356260929375,-0.46832356260929375,0.9998541173933972,0.00037963905165194306
-0.46813783552934185,-0.46813783552934185,1.0001908980673009,0.0004017319939996395
-0.4679973322578007,-0.4679973322578007,1.0002900369082748,0.0003571997617310094
-0.46783652376034296,-0.46783652376034296,1.0001751036646276,0.0003951621569135614
-0.46774265157364425,-0.46774265157364425,1.0000080018475264,0.0003731052634992675
-0.4676599174999865,-0.4676599174999865,1.000270471582671,0.0004263983609638238
-0.46753172786411595,-0.46753172786411595,0.9999636077954905,0.0003744608268716924
-0.46740875297255113,-0.46740875297255113,1.000007277825957,0.0003660871588891963
-0.467307770178013,-0.467307770178013,1.000007567361815,0.0003745549155353005
-0.46713244881393623,-0.46713244881393623,0.9998380388944541,0.00039798458088821946
-0.46701094629315776,-0.46701094629315776,0.9999639477579485,0.0003848437854373023
-0.4668790280018584,-0.4668790280018584,1.0006533577601266,0.0003947395670024853
-0.4667483215001994,-0.4667483215001994,0.9998390126997373,0.0004134954804913293
-0.46667580992143487,-0.46667580992143487,1.0003328010856116,0.00037564543219795047
-0.4665278927430336,-0.4665278927430336,1.000241327524376,0.0003844879540168126
-0.466415230162238,-0.466415230162238,1.0001395158468536,0.000365987903779011
-0.4663209419464692,-0.4663209419464692,1.000035293507183,0.000412291074618038
-0.46611379179448703,-0.46611379179448703,0.9999529718044895,0.0003943442751312121
-0.4659330832408159,-0.4659330832408159,1.0001864646122791,0.0003949922657557623
-0.465804313425906,-0.465804313425906,1.0001384109838223,0.0003787339100222614
