time,time,flux,flux_err
-0.49993993899564276,-0.49993993899564276,1.000109584390289,0.0001311836124427684
-0.49981483590236164,-0.49981483590236164,1.0001301110911878,0.00012300643922127295
-0.4996613026240084,-0.4996613026240084,1.0001634653856817,0.00012750675658561674
-0.49956549315465965,-0.49956549315465965,0.9998488082630874,0.00013668915463999827
-0.49952262563019756,-0.49952262563019756,0.9998898205854638,0.00012572927271381292
-0.49940643439404087,-0.49940643439404087,1.000193580581397,0.0001271842767251403
-0.4992776869752561,-0.4992776869752561,0.9998715556187218,0.00012177030700459278
-0.4990924177051056,-0.4990924177051056,0.9998590544510206,0.0001279290928542339
-0.4990053928544512,-0.4990053928544512,0.9999683194509332,0.00012455681791186162
-0.4989016663719667,-0.4989016663719667,0.9999079468820906,0.0001312146267737963
-0.4987721382974996,-0.4987721382974996,1.0000488583060532,0.00012269381189038977
-0.49862874284081043,-0.49862874284081043,1.000002672269359,0.00012286801224622735
-0.4984963402865105,-0.4984963402865105,1.0002548143525534,0.00012437850608474827
-0.4983532383892452,-0.4983532383892452,0.9999305996011298,0.00012456039660114273
-0.4981843852583552,-0.4981843852583552,0.9999147010422975,0.00012083546446623701
-0.4980696698068641,-0.4980696698068641,0.9997629767125013,0.0001227420471749507
-0.49796337636216775,-0.49796337636216775,1.0002457402490936,0.00012694578636907402
-0.49783381253437253,-0.49783381253437253,0.9999723294661372,0.0001275630456515173
-0.4976466266292846,-0.4976466266292846,0.9999377775215514,0.0001291704941288679
-0.49748208893215634,-0.49748208893215634,0.9999886218551557,0.00013653746443964614
-0.49735180143688923,-0.49735180143688923,1.0000895241861258,0.00012226514385964038
-0.497228618076042,-0.497228618076042,1.000206319376248,0.00012705475913339108
-0.49709373593577766,-0.49709373593577766,1.000084772562333,0.00012672729076768796
-0.49701092531977337,-0.49701092531977337,0.9999589144454845,0.00012302272179691635
-0.49693755268017414,-0.49693755268017414,1.0000140702762788,0.00012439692911801235
-0.4968030046387867,-0.4968030046387867,0.9998783076820166,0.00012816689431162907
-0.49673369292286224,-0.49673369292286224,0.9997706048234392,0.0001262440800453831
-0.49662712566860134,-0.49662712566860134,1.0001167233906834,0.00012509360092855022
-0.49649684121395693,-0.49649684121395693,1.0002306520189248,0.00012777953925517113
-0.4963801836660423,-0.4963801836660423,1.0000078447186311,0.00012553038626873716
-0.49624140923842786,-0.49624140923842786,1.0001364823448164,0.00012244829810166563
-0.4961569486593362,-0.4961569486593362,1.0001429374164121,0.00012986576778072876
-0.49605704099521974,-0.49605704099521974,0.9999224418531603,0.0001200414936994957
-0.4959673612102051,-0.4959673612102051,1.00003803296635,0.00012699243681500412
-0.4958622523314261,-0.4958622523314261,0.9998677111832563,0.0001258814075188501
-0.49578089306960466,-0.49578089306960466,1.0000122286170092,0.00012440648155741021
-0.4956915117043536,-0.4956915117043536,0.9999896344612808,0.0001223367946613002
-0.4955450673653104,-0.4955450673653104,0.9998771188233644,0.0001240600354536413
-0.4954397853980481,-0.4954397853980481,0.9998728064699318,0.00012718736119010914
-0.4952983892697375,-0.4952983892697375,0.999988243435789,0.00013134652387282437
-0.49517238361004273,-0.49517238361004273,1.0000845498634834,0.0001252094649500951
-0.4951003899535863,-0.4951003899535863,0.9999416186841474,0.0001217192282075385
-0.49503661179114716,-0.49503661179114716,1.0001877159599795,0.00012590458504599145
-0.4949559514359862,-0.4949559514359862,1.000037705981059,0.00012672099982805068
-0.49487636363410276,-0.49487636363410276,0.9998990852839047,0.00012427510511794847
-0.4948011033477087,-0.4948011033477087,1.0001877604700469,0.00012425960533147217
-0.494705208663072,-0.494705208663072,0.9997185472222239,0.00012521884340846757
-0.49452941960553287,-0.49452941960553287,0.9998765382340402,0.00012875232766453314
-0.49443639215751317,-0.49443639215751317,1.0001029864237698,0.00012480092970434996
-0.494359461464046,-0.494359461464046,1.0001626141898812,0.0001232674338472156
-0.4942754957170109,-0.4942754957170109,0.9999171795748449,0.00011926625089361747
-0.4941594637937669,-0.4941594637937669,1.0000218205884883,0.00012937658211986973
-0.4940625236689812,-0.4940625236689812,1.000139525348457,0.00012400206094425928
-0.4939327736690757,-0.4939327736690757,1.000035275321451,0.00012421682826215154
-0.49375124825310196,-0.49375124825310196,0.9998871808306813,0.00012453108425768621
-0.493627054602257,-0.493627054602257,1.0000767888163309,0.00011938228241940259
-0.4935041977390938,-0.4935041977390938,1.0001113718025643,0.00012968395326221226
-0.4933844415492786,-0.4933844415492786,1.0001594853881652,0.00012720238049721791
-0.4932660891317937,-0.4932660891317937,0.9999503551713419,0.00012249104113523955
-0.4932100469253783,-0.4932100469253783,1.0000977832959133,0.0001300222678290416
-0.4931108085445885,-0.4931108085445885,1.000054192800698,0.0001330990363285848
-0.4930047864298103,-0.4930047864298103,0.9999189645308707,0.00013096740416947868
-0.49291531504277375,-0.49291531504277375,0.9999252440065594,0.00012394152097143946
-0.4927890894279699,-0.4927890894279699,1.0001707469552472,0.00012851529578234686
-0.49260163053695577,-0.49260163053695577,1.0000437017101205,0.00012547661453985096
-0.49250108581691165,-0.49250108581691165,0.9999399728026732,0.00012518389464685962
-0.4924327692358929,-0.4924327692358929,1.0001775879476666,0.0001257060115967858
-0.49227850857714656,-0.49227850857714656,1.0000971745957752,0.00013151163188432005
-0.4921993656738778,-0.4921993656738778,1.0000040465535598,0.00011970652557755856
-0.49206341753524613,-0.49206341753524613,0.9999846868056288,0.0001327256861221566
-0.49193175297550623,-0.49193175297550623,0.9997842641586736,0.00012794331356234925
-0.49185100232207335,-0.49185100232207335,1.0000019190272345,0.00012373808985174125
-0.49172309523055446,-0.49172309523055446,1.0002581087665736,0.00013087512484093427
-0.4915994407303515,-0.4915994407303515,0.9999866268675517,0.0001245579872472075
-0.49145169617549983,-0.49145169617549983,1.0003052437834792,0.0001328476664618406
-0.49134424960429895,-0.49134424960429895,1.0000989994572191,0.00012687576946221918
-0.49128576102884836,-0.49128576102884836,1.0000693019966889,0.00012584233453991474
-0.4911417481591343,-0.4911417481591343,1.0000469488812245,0.0001227881175808646
-0.49100727164259295,-0.49100727164259295,1.0000951347237423,0.0001240962568630688
-0.4908785750041716,-0.4908785750041716,1.0000598823759836,0.00012314198932762455
-0.49073167541282603,-0.49073167541282603,1.0002492916965409,0.00012689495496928964
-0.49064426349359563,-0.49064426349359563,0.9999569881795807,0.00012121625047393086
-0.4905489331431454,-0.4905489331431454,0.9999514482082636,0.0001246607141071472
-0.4904847741825506,-0.4904847741825506,1.000082187057367,0.0001222017354297679
-0.4904458012490068,-0.4904458012490068,1.0000699255271719,0.00013127014102961768
-0.4903564196974912,-0.4903564196974912,1.0000521100756317,0.00012207479963293082
-0.4902650292046019,-0.4902650292046019,1.0000454404462746,0.00012202329734458067
-0.49013077397248705,-0.49013077397248705,1.0003053491614178,0.0001337879680833914
-0.48994361964578276,-0.48994361964578276,0.9999630501252653,0.0001254419335536549
-0.4898466814047424,-0.4898466814047424,1.0001135556927712,0.00012381403845245805
-0.48978007251716915,-0.48978007251716915,1.000100576393721,0.00012349925220779467
-0.48959248702303737,-0.48959248702303737,0.9999261888056024,0.00012278825685607236
-0.48949312784243376,-0.48949312784243376,0.9998770614972201,0.0001237942246550808
-0.48939924407241053,-0.48939924407241053,0.9998877846488078,0.00012295156587470804
-0.4892626788030611,-0.4892626788030611,0.9998734672155546,0.00012436536342254017
-0.4890888687907136,-0.4890888687907136,0.9999225966730506,0.00012594084216436052
-0.48887482611680755,-0.48887482611680755,0.9998860064819789,0.0001281171197751108
-0.4887538555871288,-0.4887538555871288,1.0000216142745493,0.00012065643048841119
-0.4886968768812949,-0.4886968768812949,0.9999924631577765,0.0001348301549646558
-0.488585794827668,-0.488585794827668,0.9999854812000862,0.00012706682409408418
-0.48844543803861595,-0.48844543803861595,1.0000316499577384,0.00012130880228664802
-0.4883442061531241,-0.4883442061531241,1.0002130361604924,0.00011936026862527523
-0.488138070119021,-0.488138070119021,1.0002401328355286,0.00012309056279482213
-0.4880521282335394,-0.4880521282335394,0.9998028300488105,0.0001235922730034494
-0.487985088025016,-0.487985088025016,0.999959594630343,0.0001285281558244535
-0.4879292947342037,-0.4879292947342037,1.0000575940480645,0.00012446225808824434
-0.4878110615587502,-0.4878110615587502,1.000086028091934,0.0001299094405634524
-0.4877154683781555,-0.4877154683781555,1.0001834886002725,0.0001197379459722227
-0.4875742795491533,-0.4875742795491533,1.0000854252225055,0.00012848723242729095
-0.487454138159228,-0.487454138159228,0.9999104547075461,0.00012969735605284976
-0.4873543482193782,-0.4873543482193782,1.0000995203225884,0.00012128405621074088
-0.48715119952757957,-0.48715119952757957,0.9999004499957607,0.00012463174506910192
-0.48702816316654207,-0.48702816316654207,1.0000304498881762,0.00012640032671556414
-0.4868523488745268,-0.4868523488745268,1.0000833816003007,0.0001362850704892895
-0.4867990410748462,-0.4867990410748462,1.0000955520203594,0.0001232299499456404
-0.48669063766574255,-0.48669063766574255,1.0001277046725616,0.00012449925629742583
-0.48648976229960683,-0.48648976229960683,0.999890346279017,0.00012415642763736833
-0.4863943460353767,-0.4863943460353767,0.9998380915075588,0.00012522895697933542
-0.4862948926733225,-0.4862948926733225,1.000186173577689,0.00013685162570520424
-0.4861327527622052,-0.4861327527622052,1.0000165790254452,0.00012265277807267614
-0.48602448634119355,-0.48602448634119355,1.000034572644287,0.00012170302775790512
-0.48597670778326574,-0.48597670778326574,1.0000460658428711,0.0001309009505428657
-0.4859011377004208,-0.4859011377004208,1.0000577413883245,0.0001269536158536522
-0.485749487173598,-0.485749487173598,1.0000577551382765,0.00012383334151457238
-0.4856079809105722,-0.4856079809105722,1.0000180146475783,0.00012969105754423528
-0.4854796021216316,-0.4854796021216316,0.9999654460620488,0.00012424828924995394
-0.4853552488464629,-0.4853552488464629,0.9999986272583552,0.0001265768744906296
-0.48524560613077483,-0.48524560613077483,1.0000363107470298,0.0001223300859480364
-0.4850959857569251,-0.4850959857569251,1.0001136515885496,0.0001219070607465394
-0.4849650354917685,-0.4849650354917685,0.9998697578150753,0.0001247032405709852
-0.4848675215631374,-0.4848675215631374,1.0000659629513202,0.00012885150006650194
-0.4847167542568059,-0.4847167542568059,1.0001068053453794,0.00012104260420400231
-0.4845078242586169,-0.4845078242586169,0.9998697810268083,0.0001341509614264599
-0.48431821034828315,-0.48431821034828315,1.00006780713049,0.00011972812312750316
-0.48422599849072867,-0.48422599849072867,0.9999595949961673,0.0001274768860947883
-0.4840790709058638,-0.4840790709058638,0.9999523425054498,0.0001305008324096859
-0.483973482370493,-0.483973482370493,0.999913962821072,0.0001231373417560693
-0.4839011759693676,-0.4839011759693676,0.999844476363403,0.00012064703337459279
-0.48377922073850643,-0.48377922073850643,1.0000398327242577,0.00012227014638717886
-0.48366219770905444,-0.48366219770905444,1.0000063206343843,0.00013011323006194292
-0.4835821972155827,-0.4835821972155827,1.0000908341811674,0.00012087004695756739
-0.483479188484489,-0.483479188484489,1.0001457801197393,0.00012879817277776194
-0.4833914762224595,-0.4833914762224595,1.000191976755866,0.00012770358089006647
-0.4833075613430992,-0.4833075613430992,0.9999418383186727,0.00012206371561717617
-0.483145910618623,-0.483145910618623,1.0001016335812687,0.00012531561314215806
-0.4830306854455557,-0.4830306854455557,1.000168670729876,0.00011855445883107896
-0.4829499136576487,-0.4829499136576487,0.9999974608532016,0.00012406647503468055
-0.482867018248362,-0.482867018248362,0.9999122551511451,0.00012447339214368517
-0.4827271792368265,-0.4827271792368265,0.9998007885276028,0.0001208503104862978
-0.4826316722785123,-0.4826316722785123,0.9998517309260876,0.00012277385701939763
-0.4825431296841998,-0.4825431296841998,1.0000232118734314,0.00012478258349613779
-0.4823933914929512,-0.4823933914929512,0.999939002246113,0.00013531167833711317
-0.4823217946170189,-0.4823217946170189,1.0001191895855093,0.00012797561356874633
-0.4822537114916486,-0.4822537114916486,0.9998454213151848,0.00012309530358539975
-0.4821097502914199,-0.4821097502914199,1.0000094850531527,0.0001230432951250424
-0.48197572575518277,-0.48197572575518277,0.999871445324581,0.00012839196739605207
-0.48193769168137807,-0.48193769168137807,1.0000156809965906,0.00012274115409382458
-0.4818444434735284,-0.4818444434735284,0.9998761032254662,0.00013613705504447862
-0.48175871466082754,-0.48175871466082754,1.000174103025527,0.000121982083546487
-0.4816262611850107,-0.4816262611850107,0.9998289436372817,0.00012986012719108243
-0.48147769836577936,-0.48147769836577936,1.00005698525486,0.00012478253551446026
-0.48140387712046506,-0.48140387712046506,1.0002054983005126,0.00012682447721659793
-0.4812962673640868,-0.4812962673640868,0.9997532295195495,0.00012626081738575636
-0.48114373599673854,-0.48114373599673854,0.999961510257708,0.00012492158400264315
-0.48100308674693226,-0.48100308674693226,1.000013256112964,0.00012305259322645796
-0.4809068748487334,-0.4809068748487334,1.0000990252608346,0.00012424763317931133
-0.4808119357170654,-0.4808119357170654,0.9999239282104437,0.00012055143070242973
-0.48074227673059794,-0.48074227673059794,1.0000824493146983,0.00012345750925137235
-0.48056819861667466,-0.48056819861667466,0.9999893410842813,0.00012218632411200493
-0.4804957463675237,-0.4804957463675237,0.9998364624243379,0.00012252931375893094
-0.4803430663952895,-0.4803430663952895,0.9999948346860664,0.00012302185082493206
-0.4801699764037039,-0.4801699764037039,0.999813503984541,0.000130306436765355
-0.4799159709516971,-0.4799159709516971,1.00013626080279,0.00013683821373849787
-0.4797623455931898,-0.4797623455931898,0.999997116745902,0.00012379379146354935
-0.4796472077920043,-0.4796472077920043,0.9999966442419348,0.00013254930683892442
-0.4795498946485168,-0.4795498946485168,0.9997471347129896,0.00012668922884148318
-0.479461629686557,-0.479461629686557,1.0000404944179924,0.0001268154652167116
-0.47935320602482534,-0.47935320602482534,0.9999977475954166,0.000121564663679161
-0.4792001930312836,-0.4792001930312836,0.9999810770135523,0.00012891080876393585
-0.4791298758485937,-0.4791298758485937,1.0000416820793094,0.0001251797065779843
-0.47894991643552204,-0.47894991643552204,1.0001078400757186,0.00015867272396727822
-0.47885802456366944,-0.47885802456366944,1.0001322964003196,0.00012319942753948648
-0.47880657091809553,-0.47880657091809553,0.9999976168812333,0.0001216343086312995
-0.4786764794771443,-0.4786764794771443,1.0001499363433886,0.00012272144451370368
-0.47854303685526245,-0.47854303685526245,1.0000039578608242,0.00012836624311764037
-0.4784492183694965,-0.4784492183694965,1.000048134078539,0.0001250128990927069
-0.4783475208976597,-0.4783475208976597,0.999692345537263,0.00012598185980996568
-0.47820427505575935,-0.47820427505575935,0.9999586264081408,0.0001230434266601925
-0.4780589602967666,-0.4780589602967666,1.0000544108932767,0.00012326600626087026
-0.47791957506851757,-0.47791957506851757,1.0000640028908498,0.00012612138868944636
-0.4778043064106896,-0.4778043064106896,0.9998693561001855,0.00012095582206434927
-0.4776892158886767,-0.4776892158886767,1.000069855046973,0.00012283961382737738
-0.4775312244579254,-0.4775312244579254,1.000001027685036,0.00012562616990167725
-0.4774562477483414,-0.4774562477483414,0.9997930955113674,0.00013574889625854567
-0.4773698910023086,-0.4773698910023086,1.0002337213192423,0.00012486289265893575
-0.47727779067863596,-0.47727779067863596,1.000046436000051,0.00013945560382125425
-0.477109976275824,-0.477109976275824,1.0000209560630398,0.0001249621922604986
-0.47695383293685156,-0.47695383293685156,0.9998420177676406,0.00012474796777145748
-0.47689155669067984,-0.47689155669067984,1.0000918000690286,0.00012730657753352422
-0.4767780978138035,-0.4767780978138035,0.9999394746431168,0.0001307772622407088
-0.4766882344338228,-0.4766882344338228,1.0000812942439334,0.00012136909210601422
-0.47650749620515853,-0.47650749620515853,0.9999338784295299,0.00012348130968851143
-0.4763771768433799,-0.4763771768433799,1.0000034107462008,0.00012344478513287737
-0.47625473557563963,-0.47625473557563963,0.9999094581499814,0.00012456130834072877
-0.47607831369532505,-0.47607831369532505,0.9999936484728209,0.0001234823251008434
-0.4759916218048602,-0.4759916218048602,0.9999854552466534,0.00012581866768913855
-0.4758431420043053,-0.4758431420043053,1.0000004168586314,0.0001265598164965111
-0.4756988871282374,-0.4756988871282374,0.9999422197281393,0.00012884718450970436
-0.47545196288701846,-0.47545196288701846,0.9999981760557265,0.0001370304327836175
-0.47528938945542903,-0.47528938945542903,0.9999505775753104,0.0001229615175266069
-0.47515826750386625,-0.47515826750386625,0.9999371837442762,0.00012885360034633976
-0.4750513830622367,-0.4750513830622367,0.9999882112293902,0.00012896242855527077
-0.4749300052601029,-0.4749300052601029,0.9998738573322081,0.00012568481792610804
-0.47489006555842933,-0.47489006555842933,1.0001501307002485,0.00012255376992138418
-0.4747227185034717,-0.4747227185034717,0.9999406438765572,0.00012356728031837435
-0.47466687278501923,-0.47466687278501923,0.999932895397518,0.00012714720587093354
-0.4745637068772339,-0.4745637068772339,0.9999024407750803,0.00012887079529630573
-0.47441132353123977,-0.47441132353123977,1.0001761682961756,0.00012772416774340512
-0.47429866994571057,-0.47429866994571057,0.9998378905974684,0.00012723343001208985
-0.47416042152617593,-0.47416042152617593,1.0000182376269757,0.00012592005977341355
-0.47406787811705725,-0.47406787811705725,1.000028066074699,0.00012966833257132513
-0.4739579579276324,-0.4739579579276324,1.000019927614305,0.00011997899210132437
-0.473864854824933,-0.473864854824933,0.9998455103504463,0.00012552637701869802
-0.47378448988965827,-0.47378448988965827,1.000033530501423,0.0001243184343864828
-0.47369004132197007,-0.47369004132197007,0.9999470007435776,0.00012280069723767455
-0.47360478587797844,-0.47360478587797844,1.0000495311085118,0.0001260897379625284
-0.4734488732101454,-0.4734488732101454,1.0002081420911149,0.0001223315796827578
-0.4733090518580866,-0.4733090518580866,0.9999739080562264,0.0001285185347323104
-0.4731500871741446,-0.4731500871741446,1.0001940338170177,0.0001285344603751306
-0.4730355797408265,-0.4730355797408265,1.0000542336044498,0.0001232497587850531
-0.47298812899025505,-0.47298812899025505,1.0000047517961077,0.00012195948893973109
-0.4729238276500837,-0.4729238276500837,1.0000875013013304,0.00012548620567217237
-0.47283427373477027,-0.47283427373477027,1.0001087521878316,0.00012648086082268028
-0.47274856204749083,-0.47274856204749083,0.9999523078186352,0.00012766034871760233
-0.47266517704410943,-0.47266517704410943,1.0000193992482926,0.00012305526775365769
-0.47250394743023205,-0.47250394743023205,1.0001909380004936,0.00012821698142821426
-0.4723388995924324,-0.4723388995924324,1.0000751653588513,0.00012472010824457442
-0.47225824901033775,-0.47225824901033775,0.9999230499633185,0.0001291228668161609
-0.4721696729931864,-0.4721696729931864,1.0000284463820936,0.00012192818741251657
-0.4719998734552064,-0.4719998734552064,1.0001557531688925,0.00012400304450342744
-0.4718816932581831,-0.4718816932581831,1.0000614786213986,0.00012344342737954426
-0.4716991390021576,-0.4716991390021576,1.0000746272517924,0.0001232148876493372
-0.47154209594882557,-0.47154209594882557,0.9998722581389918,0.00011972854411969197
