time,time,flux,flux_err
-0.49925580772396644,-0.49925580772396644,1.000059120376844,5.300400575647394e-05
-0.49764352714992127,-0.49764352714992127,1.0000276782787185,5.330799677465718e-05
-0.49475557344339904,-0.49475557344339904,1.0000464436417285,5.299705222896088e-05
-0.4932548195843992,-0.4932548195843992,0.9999013832559678,5.3043333090089094e-05
-0.49112319884079625,-0.49112319884079625,0.9999821146461866,5.311743916883191e-05
-0.4887943981528224,-0.4887943981528224,0.9999449753329053,5.318038436280182e-05
-0.48800813741545424,-0.48800813741545424,1.0000530993791672,5.301357983852797e-05
-0.48646381051948995,-0.48646381051948995,1.0001061600808785,5.300151452594746e-05
-0.48482831745859584,-0.48482831745859584,0.9999224589953595,5.302643241092196e-05
-0.482522926407546,-0.482522926407546,1.0000510082731227,5.302535609918293e-05
-0.48054600820323684,-0.48054600820323684,0.9999661379683463,5.304286316106929e-05
-0.4796813282460789,-0.4796813282460789,0.9999432102250324,5.3010382203624146e-05
-0.47792826270670047,-0.47792826270670047,0.999908133870119,5.304034625634511e-05
-0.47588564697871333,-0.47588564697871333,0.999938504057579,5.306498443735599e-05
-0.474075490089308,-0.474075490089308,1.0000406981209236,5.30217159958156e-05
-0.47276298097494873,-0.47276298097494873,1.0000102453444346,5.307261177490367e-05
-0.47048370379998233,-0.47048370379998233,0.9999073513182826,5.2971755293395405e-05
-0.4680951550741156,-0.4680951550741156,1.0000859846724053,5.303078756087006e-05
-0.4652072840086475,-0.4652072840086475,1.000009663425858,5.301755223886174e-05
-0.46399675090433445,-0.46399675090433445,0.9999509324717074,5.332790921208188e-05
-0.46262250206782485,-0.46262250206782485,0.9999874941043672,5.314379775812725e-05
-0.46109540969555385,-0.46109540969555385,1.0000008884234333,5.2990168103819885e-05
-0.45918177241910596,-0.45918177241910596,1.0001219688295468,5.3000296551136445e-05
-0.4575451163946127,-0.4575451163946127,0.9999436873995947,5.2998189019959213e-05
-0.45631531198014275,-0.45631531198014275,1.000035719397033,5.301194218885169e-05
-0.4542744772021251,-0.4542744772021251,0.9998474311592858,5.303121294922273e-05
-0.4521833442806383,-0.4521833442806383,0.9999982589752658,5.300713646562902e-05
-0.449844160451903,-0.449844160451903,1.0000659586442788,5.307459846908704e-05
-0.4478791736502899,-0.4478791736502899,0.9998707470980548,5.3032213068124745e-05
-0.44630596073111517,-0.44630596073111517,1.0000038917766716,5.329765778345701e-05
-0.44534854350640674,-0.44534854350640674,0.9999080982076229,5.311696527241477e-05
-0.44352154143198275,-0.44352154143198275,0.9999563976365226,5.2975792729573784e-05
-0.4415601391890959,-0.4415601391890959,1.0000400849493796,5.3293854785601465e-05
-0.4396827817254234,-0.4396827817254234,1.0000005103004224,5.302794513754862e-05
-0.43718060234896255,-0.43718060234896255,1.0000347557953841,5.3013346286701275e-05
-0.4353130219060404,-0.4353130219060404,1.0000162891857234,5.327185563441044e-05
-0.43435058640679924,-0.43435058640679924,0.9999844891122296,5.318983400101e-05
-0.43346874734852464,-0.43346874734852464,0.9999441141067613,5.3324444302159604e-05
-0.43124508539403905,-0.43124508539403905,0.9999134385322186,5.301563598003455e-05
-0.42948609040468,-0.42948609040468,0.9999780324989433,5.2999434521225545e-05
-0.42791404907620745,-0.42791404907620745,0.9999826927956905,5.308670632356366e-05
-0.4246968929255672,-0.4246968929255672,1.0000540571507734,5.301212167533609e-05
-0.4222670262781321,-0.4222670262781321,1.0000331198464345,5.3072060990414456e-05
-0.41936696403208773,-0.41936696403208773,1.0000579019079834,5.322307822472592e-05
-0.41709565605196985,-0.41709565605196985,1.0000104906887568,5.31149444164924e-05
-0.41575011072927737,-0.41575011072927737,1.000006401979515,5.2979110987245025e-05
-0.41401962047748386,-0.41401962047748386,0.9999285937688164,5.3315855182953776e-05
-0.4115649378298258,-0.4115649378298258,0.9999877054767264,5.3007063137773624e-05
-0.40981997155104183,-0.40981997155104183,0.9999073435837671,5.3329189119522076e-05
-0.40778073579713237,-0.40778073579713237,0.9999829558865134,5.3012073665364004e-05
-0.406145394712803,-0.406145394712803,0.999920907371625,5.335047277383817e-05
-0.40465058403569854,-0.40465058403569854,1.0000217263787994,5.303421086364508e-05
-0.4018525164050516,-0.4018525164050516,1.0000416645354604,5.3043436982571656e-05
-0.4000789219964645,-0.4000789219964645,1.000033037496253,5.300863697246123e-05
-0.3983973638089083,-0.3983973638089083,0.999973761478059,5.308711351064632e-05
-0.3961915743951977,-0.3961915743951977,0.9999258423103525,5.32963814313393e-05
-0.3942179651276092,-0.3942179651276092,0.99990882827462,5.301103203912291e-05
-0.3918531922012335,-0.3918531922012335,0.9999793244609787,5.303722467158916e-05
-0.39061055189886246,-0.39061055189886246,0.9999694561770177,5.3262275238543667e-05
-0.38874982846245987,-0.38874982846245987,1.0000880709522675,5.312695757047982e-05
-0.3861532746159355,-0.3861532746159355,1.000149339463869,5.3183037011279873e-05
-0.3845280646077299,-0.3845280646077299,0.9999613888075254,5.302885889279683e-05
-0.382887796885916,-0.382887796885916,0.9999915821037272,5.324794193686877e-05
-0.3809877930056246,-0.3809877930056246,1.0000288926461114,5.303069986101178e-05
-0.3788215389155084,-0.3788215389155084,0.9999885764992061,5.30135433677139e-05
-0.37756690301466733,-0.37756690301466733,0.9998932997986266,5.3060734455551e-05
-0.3766585029494308,-0.3766585029494308,1.0000189833507387,5.302785313269368e-05
-0.3746246246955707,-0.3746246246955707,0.9999956707382743,5.301754289539816e-05
-0.373268037464004,-0.373268037464004,0.9998977198404602,5.307945937150102e-05
-0.37184215041197605,-0.37184215041197605,0.9999621421908131,5.300105388150318e-05
-0.37072101323210516,-0.37072101323210516,0.9999626227962821,5.308011646533143e-05
-0.3686374442921078,-0.3686374442921078,0.9999436698388859,5.29906050599405e-05
-0.3668784717541712,-0.3668784717541712,0.9999876578456236,5.2994902109335835e-05
-0.3643786951310176,-0.3643786951310176,0.9999910566443015,5.301176022015428e-05
-0.3620522973353218,-0.3620522973353218,0.9999893744665638,5.3026595864081096e-05
-0.36046202754077966,-0.36046202754077966,0.9999669897608662,5.344208538492389e-05
-0.35944074864746656,-0.35944074864746656,0.9999987908290968,5.301261612696711e-05
-0.3571893602886121,-0.3571893602886121,0.9999297382024505,5.300637068784185e-05
-0.3553885417910351,-0.3553885417910351,0.999935124251988,5.298522678143628e-05
-0.35390097858471564,-0.35390097858471564,1.0000142096927154,5.302421207349265e-05
-0.3523035148777126,-0.3523035148777126,0.999917488607745,5.300418988481747e-05
-0.35073964496987176,-0.35073964496987176,1.0000230326776784,5.3011597906907264e-05
-0.3488075239052705,-0.3488075239052705,1.0000025113055657,5.303060445469561e-05
-0.34656824489866267,-0.34656824489866267,0.9999940631407112,5.3078909992500016e-05
-0.3446887631471327,-0.3446887631471327,0.999950478269286,5.3331350594347405e-05
-0.3432685489598953,-0.3432685489598953,0.9999480900512836,5.299810864988455e-05
-0.3423299796959327,-0.3423299796959327,1.0000601932363884,5.3104237255212294e-05
-0.34057868388845236,-0.34057868388845236,0.9999755750537686,5.298657504264214e-05
-0.33872557345966925,-0.33872557345966925,0.9999891355520445,5.329296557791195e-05
-0.3368475945630053,-0.3368475945630053,1.000021107944796,5.3028715804588543e-05
-0.33434580327157165,-0.33434580327157165,0.9998969407714589,5.300982611859509e-05
-0.332459536040551,-0.332459536040551,0.9999890690626823,5.341778548712873e-05
-0.33129967205240973,-0.33129967205240973,0.9999677265546516,5.3012955719168356e-05
-0.3294166632862471,-0.3294166632862471,1.000085975429043,5.3037893448212055e-05
-0.3274415253537882,-0.3274415253537882,0.999984134254882,5.302180084262245e-05
-0.3257610592227138,-0.3257610592227138,0.9999861620781344,5.29961212399972e-05
-0.3231126513928757,-0.3231126513928757,1.000029097077824,5.306655938809915e-05
-0.320331762501155,-0.320331762501155,1.0000654096358095,5.30368083433414e-05
-0.31822849867676267,-0.31822849867676267,0.9999968958603933,5.309428158890901e-05
-0.31553466813566045,-0.31553466813566045,1.000012362588129,5.318586360953847e-05
-0.3135826766221726,-0.3135826766221726,1.0000092734582453,5.309923310805132e-05
-0.3115245725224668,-0.3115245725224668,1.0000013873164877,5.300555968425224e-05
-0.3096195914185955,-0.3096195914185955,0.9999937834574627,5.3322814970415245e-05
-0.30778348119783916,-0.30778348119783916,0.9999850470814848,5.330846705026565e-05
-0.305658967900672,-0.305658967900672,1.000045738649479,5.331634367389008e-05
-0.3042827139855945,-0.3042827139855945,0.9999507287319741,5.3016530800561906e-05
-0.3026125579737709,-0.3026125579737709,0.999926509816732,5.306144382560092e-05
-0.2994060075696325,-0.2994060075696325,1.0000007583451604,5.301357743950705e-05
-0.2977777589716425,-0.2977777589716425,1.0000133455061746,5.3025359976829705e-05
-0.2962389369007724,-0.2962389369007724,0.9999132020029708,5.339927452890663e-05
-0.29399044382735157,-0.29399044382735157,0.9999604401683507,5.302290643741126e-05
-0.2920151084115787,-0.2920151084115787,0.9999174177805541,5.331506274218452e-05
-0.2890706509329902,-0.2890706509329902,0.9999745822294954,5.3021686424995816e-05
-0.28673462443839526,-0.28673462443839526,1.0000039337944215,5.3026352981394964e-05
-0.2849242843236425,-0.2849242843236425,0.999881303001343,5.313115876525502e-05
-0.28258153074493747,-0.28258153074493747,0.9999725114112735,5.318414660680597e-05
-0.28098279302794255,-0.28098279302794255,0.9999840827329229,5.303383229162397e-05
-0.2797090220097743,-0.2797090220097743,1.00007996206353,5.300635112367682e-05
-0.2776467528594367,-0.2776467528594367,0.9999742018786275,5.3015347877548735e-05
-0.27581117852751047,-0.27581117852751047,0.9999599350876534,5.302401262633938e-05
-0.27443294751501524,-0.27443294751501524,0.9999833252657048,5.3023677692208866e-05
-0.27321334790831314,-0.27321334790831314,1.0000742664951106,5.306599020747418e-05
-0.2715846657069051,-0.2715846657069051,0.9999795330718684,5.3512994668870556e-05
-0.27015411684769786,-0.27015411684769786,0.9999445036072216,5.3009483427989324e-05
-0.2684058116792585,-0.2684058116792585,0.9999496865778124,5.3021093996424806e-05
-0.2673619586414134,-0.2673619586414134,1.0000135103674446,5.3079107026679895e-05
-0.26548495320093934,-0.26548495320093934,0.9999989657228202,5.298968430279285e-05
-0.2638359875498281,-0.2638359875498281,0.999988150788347,5.29923622914599e-05
-0.26244362859943066,-0.26244362859943066,0.9999374611386915,5.3013953649969494e-05
-0.2597481192307896,-0.2597481192307896,0.9999042890625433,5.301084638296954e-05
-0.25853723442633053,-0.25853723442633053,0.9999793432039983,5.3355082624886506e-05
-0.25711872019819565,-0.25711872019819565,0.9999713974357112,5.317344866860616e-05
-0.2559353497752454,-0.2559353497752454,0.9999350527916807,5.302318669687964e-05
-0.2539700240326056,-0.2539700240326056,0.9999185504606979,5.2994140465266955e-05
-0.25219426237090375,-0.25219426237090375,0.9999251516572241,5.298935247431049e-05
-0.2508770250911766,-0.2508770250911766,1.0000304953330812,5.3020126533589884e-05
-0.24913898176309884,-0.24913898176309884,0.9999706318751702,5.3025788164281386e-05
-0.24790175757734687,-0.24790175757734687,0.9999891892905396,5.300938644819363e-05
-0.24557089826412265,-0.24557089826412265,1.0000048968481636,5.3026769682005336e-05
-0.24373319758742581,-0.24373319758742581,0.9998585518820334,5.3075360625643404e-05
-0.24185379057817044,-0.24185379057817044,1.0000358302804115,5.33320188557271e-05
-0.2403374836932926,-0.2403374836932926,0.9999548502093262,5.303027139263222e-05
-0.23928008034563392,-0.23928008034563392,0.9999393474906617,5.308537863339759e-05
-0.23734059087873902,-0.23734059087873902,1.0000392782200094,5.297342983677422e-05
-0.23538468817350805,-0.23538468817350805,1.0000294513449677,5.3316334024362344e-05
-0.23322467239268008,-0.23322467239268008,0.9999690673969232,5.300545773274126e-05
-0.23094689690697123,-0.23094689690697123,0.9999753714700687,5.3251793845191455e-05
-0.22887214078218676,-0.22887214078218676,1.0000139912591497,5.3169461818820956e-05
-0.22801098750496748,-0.22801098750496748,0.9999875585303665,5.304483586791183e-05
-0.2259426372409507,-0.2259426372409507,0.9999552749414926,5.3036535217016064e-05
-0.22429937863271335,-0.22429937863271335,1.0000450453692178,5.299311735081617e-05
-0.22264792540299821,-0.22264792540299821,1.0000173951982854,5.30133339851946e-05
-0.22027779632699093,-0.22027779632699093,1.0000039616923044,5.3067173139201664e-05
-0.21749672731966713,-0.21749672731966713,0.9999692665859825,5.303390538801201e-05
-0.21477887182554695,-0.21477887182554695,1.0000535261477745,5.3044449660326724e-05
-0.21249172134921537,-0.21249172134921537,0.9998897495612,5.323543924608446e-05
-0.21086950417447953,-0.21086950417447953,0.9999237229476983,5.309917958260509e-05
-0.20904881633396144,-0.20904881633396144,0.9999926759036875,5.300361917976574e-05
-0.20639525830774802,-0.20639525830774802,1.0000381011063129,5.2997920446229646e-05
-0.20464947056680102,-0.20464947056680102,1.0000516470074996,5.331512428472508e-05
-0.20250222864997341,-0.20250222864997341,1.000049832324612,5.331568996764537e-05
-0.20108223103961792,-0.20108223103961792,0.9999488698222437,5.302362422949376e-05
-0.19911724128905917,-0.19911724128905917,1.0000522959599516,5.303656111798397e-05
-0.19535632494298624,-0.19535632494298624,0.9999381968068504,5.303609800916948e-05
-0.1936187944986159,-0.1936187944986159,0.999966286054638,5.3077736575206705e-05
-0.19137556140703965,-0.19137556140703965,1.0001119953238242,5.3306663464779265e-05
-0.18918056196635008,-0.18918056196635008,0.999985203143644,5.3297061058765826e-05
-0.18687926247876022,-0.18687926247876022,0.9999654492973755,5.300965763061667e-05
-0.18454706450283992,-0.18454706450283992,0.9999877275818714,5.3026209129729556e-05
-0.18282093199595692,-0.18282093199595692,0.9999460866160641,5.316508412360988e-05
-0.18106256217870395,-0.18106256217870395,0.9999710071657347,5.319434826975321e-05
-0.17943488355667797,-0.17943488355667797,1.0000496304700914,5.3015975918947474e-05
-0.1779548331585829,-0.1779548331585829,1.0000926393372394,5.3024260680930624e-05
-0.17623310944836704,-0.17623310944836704,0.9999134562759606,5.303245033843381e-05
-0.17446535021153978,-0.17446535021153978,1.0000029329085742,5.334229568933395e-05
-0.17297630773755374,-0.17297630773755374,0.9998849584409765,5.302260647867714e-05
-0.17159770546568326,-0.17159770546568326,1.0000612893948801,5.302472531053666e-05
-0.17025816668974586,-0.17025816668974586,1.0000755305275502,5.3061483153583445e-05
-0.16834208029395087,-0.16834208029395087,0.9999996674575083,5.3043577905965554e-05
-0.16617238235339754,-0.16617238235339754,0.9999376331439574,5.3000330751566496e-05
-0.16505171379321837,-0.16505171379321837,0.9999220257511772,5.3082426634214005e-05
-0.16374656285333913,-0.16374656285333913,1.000036569186713,5.300016167885548e-05
-0.16198105528455925,-0.16198105528455925,1.0000530985230551,5.2976087594793997e-05
-0.15974370692201773,-0.15974370692201773,0.999978979098422,5.3026622715561425e-05
-0.15695821165500093,-0.15695821165500093,0.999961805355482,5.3285770484135276e-05
-0.15615366150668705,-0.15615366150668705,0.9999330648732562,5.351398396685194e-05
-0.154489433280105,-0.154489433280105,0.9999878608464098,5.3175544144526385e-05
-0.15338321878080025,-0.15338321878080025,1.0000431823493718,5.304847093956285e-05
-0.15175825841288315,-0.15175825841288315,1.0000076663181532,5.297698806405347e-05
-0.15003090936806984,-0.15003090936806984,0.9999989525818742,5.3018439460224124e-05
-0.1484740997584595,-0.1484740997584595,1.0000352842704205,5.300576440263919e-05
-0.1473961958559812,-0.1473961958559812,0.9999784669896608,5.305099426462845e-05
-0.14584088594929198,-0.14584088594929198,0.9999845873095886,5.3028756368100294e-05
-0.14473294075287413,-0.14473294075287413,1.0000420770366945,5.3001750261936815e-05
-0.1427109029427811,-0.1427109029427811,0.9999903926975466,5.306796448934523e-05
-0.14039247160835658,-0.14039247160835658,1.000011800691254,5.3059532922369606e-05
-0.13871550265102997,-0.13871550265102997,1.0000482797192831,5.3307635115534034e-05
-0.13709360371285584,-0.13709360371285584,1.0000559160685192,5.3102258125846924e-05
-0.13554286838116242,-0.13554286838116242,1.0000110932473756,5.300022609759875e-05
-0.13370775843650334,-0.13370775843650334,0.9999390961447995,5.328010966336841e-05
-0.13229084042468459,-0.13229084042468459,0.9999153538680016,5.299480130184391e-05
-0.1302931214151613,-0.1302931214151613,1.000043365592688,5.3022808856747634e-05
-0.12755022624114645,-0.12755022624114645,0.9999891941774216,5.3252081868793535e-05
-0.1258597871325037,-0.1258597871325037,0.9999254134892033,5.319132778694195e-05
-0.12485118661134038,-0.12485118661134038,0.9999753037407759,5.302424758126835e-05
-0.1223100471579528,-0.1223100471579528,1.0000491603556885,5.303629453596606e-05
-0.12051880775179598,-0.12051880775179598,0.9999844046039371,5.297912148604986e-05
-0.11904981416591909,-0.11904981416591909,0.9999828067769527,5.310768079149282e-05
-0.11643788691217197,-0.11643788691217197,1.0000441574232208,5.299705500683007e-05
-0.11431768128313706,-0.11431768128313706,1.0000428914676907,5.3033646722338245e-05
-0.11146678536388208,-0.11146678536388208,0.9999816588218018,5.303802016075068e-05
-0.10902349349053111,-0.10902349349053111,0.9999688075759648,5.2997731009980366e-05
-0.10770494946991675,-0.10770494946991675,0.9999007543808973,5.3086787875439084e-05
-0.10529329613054869,-0.10529329613054869,1.0000520398900175,5.3008688652312656e-05
-0.10266997055077809,-0.10266997055077809,1.0000021202725995,5.329333920515067e-05
-0.1008312803132867,-0.1008312803132867,1.0000560498526794,5.30132213364666e-05
-0.09896975988158374,-0.09896975988158374,1.0000666301508956,5.302847764634105e-05
-0.09721137395681581,-0.09721137395681581,0.9999669485009018,5.304004883372154e-05
-0.09452383580210152,-0.09452383580210152,0.9999552555233965,5.3041744342260973e-05
-0.09199159510317259,-0.09199159510317259,0.9999865566771501,5.3050748356076125e-05
-0.09068469695412204,-0.09068469695412204,1.000004863210885,5.30893621046763e-05
-0.08854102353361668,-0.08854102353361668,1.0001299879870853,5.3307373099789395e-05
-0.08675176443139207,-0.08675176443139207,1.000048695508433,5.361608188372308e-05
-0.08376499574515037,-0.08376499574515037,0.9999873205983612,5.304261226137415e-05
-0.08141897558889469,-0.08141897558889469,0.9999221567530716,5.322742041096666e-05
-0.07978150196140632,-0.07978150196140632,1.0000373899767527,5.3147403134208454e-05
-0.07706341232333216,-0.07706341232333216,0.9999873077021888,5.300102228011977e-05
-0.07526512314070714,-0.07526512314070714,1.0000361932513935,5.30198974302962e-05
-0.07360355241398793,-0.07360355241398793,1.0000593843430496,5.301835023118676e-05
-0.07242376715003047,-0.07242376715003047,1.0000063650314763,5.317613597757455e-05
-0.0708326234955166,-0.0708326234955166,1.0000418248015959,5.302300155201565e-05
-0.06920469745236915,-0.06920469745236915,1.0000214019641362,5.304752748222444e-05
-0.0681792637675244,-0.0681792637675244,0.9999992995860326,5.30251509090228e-05
-0.0668832729490532,-0.0668832729490532,0.9999419954758622,5.307503724365401e-05
-0.064650767580315,-0.064650767580315,0.9999749367969752,5.333765542081927e-05
-0.06326001785055269,-0.06326001785055269,0.999926703825869,5.300639761423368e-05
-0.0623566801288689,-0.0623566801288689,1.0000139682273907,5.311186876562626e-05
-0.061312123345123835,-0.061312123345123835,1.0000083493325533,5.2984535851643175e-05
-0.05953439231525408,-0.05953439231525408,1.0000077171155184,5.2987407891043295e-05
-0.057818735994078455,-0.057818735994078455,1.000025196284552,5.303967258320391e-05
-0.05518522110651247,-0.05518522110651247,1.0000650164291065,5.301615416688922e-05
-0.05339693557034479,-0.05339693557034479,0.9999810800597813,5.327256495791254e-05
