time,time,flux,flux_err
-0.4999511653528316,-0.4999511653528316,0.9999523792130685,6.992558167254399e-05
-0.4997146449451975,-0.4997146449451975,0.9998749234739766,6.9825240075411e-05
-0.49958854469514336,-0.49958854469514336,1.0000730058270013,6.864354117552429e-05
-0.4993582100156345,-0.4993582100156345,0.9999468777309412,6.995136058096833e-05
-0.4992221294050978,-0.4992221294050978,0.9996226500600137,6.814494125750887e-05
-0.49906897688197205,-0.49906897688197205,1.0000463031451183,6.951781363906285e-05
-0.4989713965333067,-0.4989713965333067,1.000054909130597,6.832722896172317e-05
-0.49881858552616903,-0.49881858552616903,0.9999127427343601,7.17499522032686e-05
-0.4987228846955986,-0.4987228846955986,0.999942364148916,7.08320306684547e-05
-0.49862552778358804,-0.49862552778358804,0.9998899206531389,7.087386979349913e-05
-0.4984408527277992,-0.4984408527277992,1.0000552994819567,6.983023947310816e-05
-0.49832852657418697,-0.49832852657418697,1.000014715222139,6.911022861367678e-05
-0.49820353709947085,-0.49820353709947085,0.9997691596195836,6.997123013103562e-05
-0.4979882977437228,-0.4979882977437228,0.9999103274732597,6.799244766397128e-05
-0.4979238163541595,-0.4979238163541595,0.9996492944143627,6.932468659614633e-05
-0.49781343111535536,-0.49781343111535536,0.9999924292852042,6.971175875025675e-05
-0.49765609134847183,-0.49765609134847183,1.0000061140721306,6.897455013415101e-05
-0.4975921557721449,-0.4975921557721449,0.9999119160059491,6.91480558416736e-05
-0.49747556916699975,-0.49747556916699975,0.9999398248569531,6.898417052049027e-05
-0.4974063955116435,-0.4974063955116435,1.0001411918127483,6.846670511464224e-05
-0.4972666602174286,-0.4972666602174286,1.000194879661981,6.9783712227885e-05
-0.4971930344341672,-0.4971930344341672,0.9998486285852731,7.019650049937872e-05
-0.49713817418087275,-0.49713817418087275,0.9998970327129453,6.958792254740668e-05
-0.49698277710413097,-0.49698277710413097,0.9999947410387204,6.974054442118304e-05
-0.49689935815840724,-0.49689935815840724,0.9994872965053512,7.003589851051018e-05
-0.4968133577647677,-0.4968133577647677,1.0000791056942169,6.931348014332345e-05
-0.4967094949897728,-0.4967094949897728,1.0001792565626708,6.914140182476587e-05
-0.49659229087410495,-0.49659229087410495,1.0000394828240022,6.832520013156833e-05
-0.49640698239309133,-0.49640698239309133,0.9999926549222741,6.88391865293389e-05
-0.4961540873293416,-0.4961540873293416,0.9999908541331128,7.008877328144628e-05
-0.4960197387736116,-0.4960197387736116,0.9999888178062852,6.920549131436224e-05
-0.49596306759995057,-0.49596306759995057,0.9998336904504315,6.855062765124947e-05
-0.49589118173826136,-0.49589118173826136,0.9999408332331147,6.995285328482424e-05
-0.49575178676241194,-0.49575178676241194,0.9996155176231012,6.977367559297239e-05
-0.49568797187675956,-0.49568797187675956,0.9996442777234851,6.984137503746426e-05
-0.4956359575087845,-0.4956359575087845,0.9999165206856236,7.053482125181402e-05
-0.4955334190497524,-0.4955334190497524,0.9998153420784132,7.084505106561393e-05
-0.49537783236519317,-0.49537783236519317,1.0000076503205886,6.969016031101467e-05
-0.4951877182618773,-0.4951877182618773,1.0000081080543375,7.12329902032502e-05
-0.49501717747116347,-0.49501717747116347,1.0000136151629715,6.86033417444294e-05
-0.4947773893509293,-0.4947773893509293,0.999935609238053,6.931996561112763e-05
-0.4946545406761288,-0.4946545406761288,1.0000646691090975,6.920156945205152e-05
-0.49451252004946583,-0.49451252004946583,0.9998739289687937,6.969254459970818e-05
-0.4943979352879978,-0.4943979352879978,1.0001462072598861,6.853161290340943e-05
-0.4942844168159354,-0.4942844168159354,1.0000264658803963,7.125971114759005e-05
-0.49415111825437635,-0.49415111825437635,0.9998415779011506,6.88663010366331e-05
-0.4940685518638929,-0.4940685518638929,0.9999505544614831,7.106564624724043e-05
-0.4939480421526241,-0.4939480421526241,1.0000461347193927,6.790109211862502e-05
-0.4938541400770191,-0.4938541400770191,1.0002397868474078,6.900590405334986e-05
-0.49375846183975225,-0.49375846183975225,1.0001411049039564,6.946195703056479e-05
-0.4936310742938076,-0.4936310742938076,0.9998556438454107,6.976431874063423e-05
-0.49343827670090834,-0.49343827670090834,0.9998294724155311,6.855342315249719e-05
-0.49334994110759,-0.49334994110759,0.99992847918336,6.797512805888951e-05
-0.49329399129055673,-0.49329399129055673,0.9998074004219963,7.037719471648276e-05
-0.49313150141606454,-0.49313150141606454,1.0000295614339945,6.935686215920539e-05
-0.4930102999329392,-0.4930102999329392,1.0000794614772848,6.978396433561575e-05
-0.49289714939295665,-0.49289714939295665,0.9999151780762908,6.922726336967819e-05
-0.49283011695442835,-0.49283011695442835,0.9996727120154635,6.901180374711995e-05
-0.49270278709809645,-0.49270278709809645,0.9999256999360362,6.914760293615466e-05
-0.49259266213775843,-0.49259266213775843,0.9997694912427175,6.931606281731656e-05
-0.4925495632669481,-0.4925495632669481,0.9996741299439267,6.938341903423801e-05
-0.49241622784829814,-0.49241622784829814,0.9999955234806286,6.87290990261074e-05
-0.492331861933053,-0.492331861933053,0.9998314431034846,6.997795965724151e-05
-0.4922203561749484,-0.4922203561749484,1.000094342732515,6.973319340664022e-05
-0.49205694199408756,-0.49205694199408756,0.9999849234539322,6.784326281628566e-05
-0.49182095727155684,-0.49182095727155684,0.9998305461905836,6.898189919864352e-05
-0.49156208507702104,-0.49156208507702104,0.9997428715111545,7.017628956501118e-05
-0.4914197255166073,-0.4914197255166073,0.9999227854782712,6.96148071768814e-05
-0.4913290185351798,-0.4913290185351798,0.9998635235462183,7.030668510974175e-05
-0.4911938759905752,-0.4911938759905752,1.0001336181388951,6.967663019713555e-05
-0.49111826827938787,-0.49111826827938787,0.99938989335592,6.966396844117404e-05
-0.4910583864977525,-0.4910583864977525,1.0001419360501949,6.97018369514153e-05
-0.49100911546556747,-0.49100911546556747,0.9999367218498947,7.061855353950595e-05
-0.4908864328375785,-0.4908864328375785,1.0000604237581407,7.066232680865781e-05
-0.49075206162087853,-0.49075206162087853,0.999610302477689,7.087867629466268e-05
-0.4905483231166727,-0.4905483231166727,1.0002012515220617,6.951935595052946e-05
-0.4904030504541879,-0.4904030504541879,0.9996889456546445,6.919836913569632e-05
-0.49014232856497986,-0.49014232856497986,0.9999307705372275,6.962400108590812e-05
-0.49004675794931246,-0.49004675794931246,1.000048209509386,6.92363239529176e-05
-0.4899131077741913,-0.4899131077741913,0.9999792134918236,6.896336750720964e-05
-0.48979943244339663,-0.48979943244339663,0.9993973224691224,6.92206070966275e-05
-0.4896786168355902,-0.4896786168355902,0.9997164627380706,7.095981262625331e-05
-0.489582486058498,-0.489582486058498,0.9998577947169547,6.904313533696684e-05
-0.48947237497050083,-0.48947237497050083,1.0000237964581544,6.986727620816887e-05
-0.48930732088847434,-0.48930732088847434,0.9999632846820232,6.864622914303401e-05
-0.4892418731149519,-0.4892418731149519,1.0000866279134577,6.910241119540839e-05
-0.4891278852839605,-0.4891278852839605,0.9999831461016603,6.908482175434906e-05
-0.4889685192705656,-0.4889685192705656,1.0001258847039982,7.042169174118576e-05
-0.4887980415725906,-0.4887980415725906,0.9998259403337277,6.797175166126196e-05
-0.48873425385245356,-0.48873425385245356,0.9999749928558043,6.953740838002009e-05
-0.48859201341547304,-0.48859201341547304,0.9997180124901611,7.006425389260738e-05
-0.4884822836764215,-0.4884822836764215,0.999762160418338,6.943173223095628e-05
-0.48836885241398703,-0.48836885241398703,0.999887319836932,6.959499245616285e-05
-0.4882621381417266,-0.4882621381417266,1.000026818666956,6.886332883977452e-05
-0.488139149028575,-0.488139149028575,1.0000234201138196,6.92679534296531e-05
-0.4880176210863283,-0.4880176210863283,1.0000561216189312,6.928231450712639e-05
-0.48798488024040126,-0.48798488024040126,1.0000950837956213,7.002561441129805e-05
-0.48792251645500073,-0.48792251645500073,0.9999971360842725,7.003363840364149e-05
-0.4878061517440074,-0.4878061517440074,0.999725836533449,6.877546565940641e-05
-0.4877471141378919,-0.4877471141378919,0.9997652890552133,6.922555312026009e-05
-0.4876980389613891,-0.4876980389613891,0.9999759647232265,6.948087471391581e-05
-0.48761775445964306,-0.48761775445964306,0.999790472261043,6.921178321495036e-05
-0.4874756606644951,-0.4874756606644951,0.9999295412368298,6.776243670132371e-05
-0.48733249291035463,-0.48733249291035463,0.9999162416283719,6.914767978597902e-05
-0.48715494684220173,-0.48715494684220173,0.9999091186839477,6.84758189290765e-05
-0.48695944224382404,-0.48695944224382404,0.9998553900022354,6.964898028690397e-05
-0.48683768975388375,-0.48683768975388375,1.000158996642338,6.936400692748079e-05
-0.48675433363459886,-0.48675433363459886,0.9999288284910779,7.009770778753186e-05
-0.4866086171670759,-0.4866086171670759,1.0001286342430888,6.951636291468073e-05
-0.48649937207519545,-0.48649937207519545,0.9999511370670519,7.015678508531594e-05
-0.4864537746660062,-0.4864537746660062,0.9996658283866828,6.926723479315595e-05
-0.48640149604980254,-0.48640149604980254,1.000076191714762,7.085605686344137e-05
-0.48629272517500793,-0.48629272517500793,1.000159182527398,7.096731374159718e-05
-0.4861815236057737,-0.4861815236057737,0.9999357897281828,7.034781631811923e-05
-0.4860588474359247,-0.4860588474359247,0.9998583558636552,6.851515668335176e-05
-0.4859168938237417,-0.4859168938237417,1.000083288946785,6.965778858001754e-05
-0.48574556555468007,-0.48574556555468007,1.0000730449368724,6.878037361732e-05
-0.4855523767502746,-0.4855523767502746,1.0001844303437557,6.860876029358765e-05
-0.4854689857493213,-0.4854689857493213,0.9999579354682175,7.017423821147196e-05
-0.4853264087512798,-0.4853264087512798,1.0000093149939824,6.892034925276177e-05
-0.48519684900602444,-0.48519684900602444,0.9996203056224886,6.895310295735727e-05
-0.48504217518275256,-0.48504217518275256,0.999768634733503,7.037311342226026e-05
-0.48493096858946955,-0.48493096858946955,0.9999400615205298,6.914159329305197e-05
-0.48478336274274625,-0.48478336274274625,0.9999862230057447,6.833823252693896e-05
-0.4846663258089393,-0.4846663258089393,1.0006281283161713,6.766580604797803e-05
-0.4845668492685945,-0.4845668492685945,1.000038849306258,6.98454412614127e-05
-0.4844160611057305,-0.4844160611057305,1.0000720080629086,6.994395019020602e-05
-0.4842948242781858,-0.4842948242781858,1.0000042730917145,6.89675236953714e-05
-0.484183737992862,-0.484183737992862,0.9997648156200475,6.888258483508017e-05
-0.48409562340893897,-0.48409562340893897,1.0001842068315647,7.00081780996981e-05
-0.48394295483522,-0.48394295483522,1.0001008197797132,6.91075699810208e-05
-0.4838361888061627,-0.4838361888061627,1.0000967855822804,7.013667952546504e-05
-0.48374117376006326,-0.48374117376006326,0.99988779625003,6.929802066971785e-05
-0.4836701354463003,-0.4836701354463003,1.0000502510221347,6.89549744605424e-05
-0.4835614619871194,-0.4835614619871194,1.000157397345248,6.883991500881203e-05
-0.48345108772118695,-0.48345108772118695,1.0000519953584734,7.061306175071256e-05
-0.48339806069998303,-0.48339806069998303,1.0000529516175087,7.042630923166571e-05
-0.4833189597862656,-0.4833189597862656,0.999829452754863,6.875095791358751e-05
-0.483217099931062,-0.483217099931062,1.000148112398168,6.894268166570959e-05
-0.4831466184994497,-0.4831466184994497,1.000103291647848,7.005300097422718e-05
-0.4830775676942721,-0.4830775676942721,0.9999270956782194,6.863878757192132e-05
-0.4829499896572088,-0.4829499896572088,1.0000362272951286,6.840576657242248e-05
-0.48275289491793955,-0.48275289491793955,1.0000775653477665,6.925838970778756e-05
-0.4825979314271535,-0.4825979314271535,0.9998440476694125,6.855829848438958e-05
-0.48240594962844624,-0.48240594962844624,0.999993217465087,6.904184349671375e-05
-0.4822897283942439,-0.4822897283942439,1.0001307295380097,6.914520252533064e-05
-0.48221161913097604,-0.48221161913097604,0.9999313640155091,6.99090764249825e-05
-0.48208262123298484,-0.48208262123298484,1.0000576728256623,6.977629453517604e-05
-0.48195219870685835,-0.48195219870685835,0.9998791442321867,7.008825673938986e-05
-0.4818705932317243,-0.4818705932317243,1.000082938696623,7.008316488672202e-05
-0.4818137491325615,-0.4818137491325615,0.9999060157454881,7.07283733510869e-05
-0.48169031832294423,-0.48169031832294423,0.9998581856544714,7.055921745655899e-05
-0.48154699278529733,-0.48154699278529733,0.9999489465838787,7.038314964007478e-05
-0.4814126423902053,-0.4814126423902053,0.9999123195607519,6.914072308468582e-05
-0.4812459053398925,-0.4812459053398925,0.9999517613402011,6.95332954548758e-05
-0.4810134916770039,-0.4810134916770039,0.9999392386845727,6.955234759186725e-05
-0.4808926533070917,-0.4808926533070917,1.0000662251445926,6.909914573850857e-05
-0.4808058047514351,-0.4808058047514351,0.9999303311040414,6.896717113975507e-05
-0.4806335550551012,-0.4806335550551012,0.9999712293414074,6.848618358881264e-05
-0.480452052786859,-0.480452052786859,0.9998526170108564,6.96945086112401e-05
-0.48031401214393554,-0.48031401214393554,0.9996608138379353,6.833581534126902e-05
-0.48013449679274345,-0.48013449679274345,1.0000096035133503,6.81092431971686e-05
-0.48004511343242484,-0.48004511343242484,0.9999503961100247,6.819118642074528e-05
-0.47993225999816785,-0.47993225999816785,1.0002995273363897,6.984319492865239e-05
-0.4797969848070352,-0.4797969848070352,0.9997890773973355,7.106514982873286e-05
-0.4797189902543323,-0.4797189902543323,0.9997574550919783,6.87342577234736e-05
-0.4796026998687012,-0.4796026998687012,0.9999642809861593,6.913387195338173e-05
-0.4794440341545851,-0.4794440341545851,1.0000039916841124,6.944555418176474e-05
-0.47931721804707195,-0.47931721804707195,0.999728075038826,6.935947724680131e-05
-0.47921160451223843,-0.47921160451223843,0.9999424020200006,6.954839437044974e-05
-0.47913736806367524,-0.47913736806367524,0.9998360946981494,6.873520793342322e-05
-0.4790529278339818,-0.4790529278339818,0.9997527065383413,6.9837114524511e-05
-0.4789198758691782,-0.4789198758691782,1.000285716938351,6.872577379060004e-05
-0.4788260327797616,-0.4788260327797616,0.9997020791420823,6.95202070178944e-05
-0.4787405559996841,-0.4787405559996841,0.9999033796104634,6.976570021063473e-05
-0.47859704481670634,-0.47859704481670634,0.9996797603736921,6.886051409051422e-05
-0.47855183060019046,-0.47855183060019046,0.999596371333668,6.960695782079043e-05
-0.47849474635659134,-0.47849474635659134,1.000025588293872,6.91699195451888e-05
-0.47837570976334975,-0.47837570976334975,1.0001481684472684,6.873880962128545e-05
-0.4781904931573081,-0.4781904931573081,0.9999514042756832,6.847350077731802e-05
-0.47798094967583893,-0.47798094967583893,1.0000025014902676,6.948609695116306e-05
-0.4777737531891034,-0.4777737531891034,1.0000846923343025,6.890766748533924e-05
-0.47765624218882297,-0.47765624218882297,0.9999655434422156,6.986429147000572e-05
-0.47756495329449533,-0.47756495329449533,0.9999195101592797,6.98190643070327e-05
-0.4774731039768085,-0.4774731039768085,0.9997994024417581,6.935191671734896e-05
-0.4773538129265944,-0.4773538129265944,1.0000944047357578,6.97808145710804e-05
-0.47726505364553307,-0.47726505364553307,1.0000560435139867,6.874114204522444e-05
-0.4771863568064873,-0.4771863568064873,0.9994397884311894,7.086961160170594e-05
-0.47709828746737915,-0.47709828746737915,1.0001996937279984,6.982275610319828e-05
-0.47696127386225273,-0.47696127386225273,0.9996676068409662,6.880169163400424e-05
-0.4768282386889041,-0.4768282386889041,0.9998425584713017,6.915940435072497e-05
-0.47668127329234267,-0.47668127329234267,1.0002562889825566,7.012141547310709e-05
-0.4765184012481768,-0.4765184012481768,0.9997248283732063,6.87885684024687e-05
-0.47635788742190927,-0.47635788742190927,1.0001090264206451,6.867431126454711e-05
-0.47628843631828205,-0.47628843631828205,1.0000739610579872,6.903487751723472e-05
-0.4761886129730556,-0.4761886129730556,1.0003732369018052,6.889034004145688e-05
-0.4760472128233232,-0.4760472128233232,0.9998732566246111,6.932797763505812e-05
-0.4758747562627832,-0.4758747562627832,0.9999059878087824,6.939839830136417e-05
-0.4757411069302179,-0.4757411069302179,0.9998344517479373,6.980099271607451e-05
-0.47567117467115166,-0.47567117467115166,0.9998667193354415,6.884889011309322e-05
-0.4755134716084285,-0.4755134716084285,0.9994524675201795,6.847858421286763e-05
-0.4753904449789843,-0.4753904449789843,1.0001453161089744,6.97462638207553e-05
-0.475227761293354,-0.475227761293354,0.9998972710915204,6.98494755729736e-05
-0.47511349286141924,-0.47511349286141924,1.0001188798079483,6.882997622786455e-05
-0.4750164745390066,-0.4750164745390066,0.9997122557880319,6.830513053299072e-05
-0.47485394452596663,-0.47485394452596663,1.0000525016091026,6.957421251783136e-05
-0.47471686802819024,-0.47471686802819024,1.0000598374856624,6.847759230302676e-05
-0.4746230040254886,-0.4746230040254886,0.9998116788729279,6.882074508583709e-05
-0.4745500502620416,-0.4745500502620416,0.9995576894384536,6.872533113786437e-05
-0.4744684160512406,-0.4744684160512406,0.9995308012580152,6.933317350056547e-05
-0.4743477397991228,-0.4743477397991228,0.9996417830191859,6.84137734041376e-05
-0.47424659959215204,-0.47424659959215204,1.0000939979978132,7.009831104806268e-05
-0.4741968428461405,-0.4741968428461405,0.9998770896009145,7.004678723058606e-05
-0.4740615746821277,-0.4740615746821277,1.0002546229356613,6.857936716807763e-05
-0.47397297406714645,-0.47397297406714645,1.000081665601316,7.049764113768674e-05
-0.4738961018549162,-0.4738961018549162,0.9995211863688958,7.032489973925451e-05
-0.47376386219621053,-0.47376386219621053,0.9999303884632426,6.836422933361517e-05
-0.47355508385080614,-0.47355508385080614,1.000015554971577,7.008778270879216e-05
-0.47337017173194906,-0.47337017173194906,0.9998522248564168,6.900066039455963e-05
-0.4731535769678885,-0.4731535769678885,0.9998902724312959,6.94962350883343e-05
-0.47306170827141614,-0.47306170827141614,0.9992954084385379,6.942415207780455e-05
-0.4729783488022804,-0.4729783488022804,0.9997182496192002,6.987515737827494e-05
-0.4728726211935282,-0.4728726211935282,0.9998462823081502,6.876804575134675e-05
-0.47274309600543346,-0.47274309600543346,0.9996217251152115,6.974372659908697e-05
-0.47261591772330575,-0.47261591772330575,0.9995286719055786,7.093386434382986e-05
-0.472516255586379,-0.472516255586379,1.0000305040605715,6.978518937336462e-05
-0.47240851928872873,-0.47240851928872873,1.0000335352112892,6.929644405180215e-05
-0.4722800057323184,-0.4722800057323184,0.9998515391759641,6.939909666404669e-05
-0.47207243416050915,-0.47207243416050915,0.9996067893361253,6.963229070513435e-05
-0.47192279510272783,-0.47192279510272783,1.0002042177375796,6.918880639435144e-05
-0.4717608404302155,-0.4717608404302155,0.9997996379736589,6.823688959420607e-05
-0.471688570331753,-0.471688570331753,1.0001625189057193,6.894559478808043e-05
-0.47154901044414144,-0.47154901044414144,0.9999288476975694,6.898848276907367e-05
-0.47144618708407504,-0.47144618708407504,0.9997668425823051,6.913724361902708e-05
-0.47130419743989477,-0.47130419743989477,0.9997281240583746,6.909752319291551e-05
-0.4711562641481578,-0.4711562641481578,1.0000101496889973,7.035771281926838e-05
-0.47108773754225697,-0.47108773754225697,0.999943298055055,6.969619030933835e-05
-0.4709010960512387,-0.4709010960512387,1.0002912728380728,6.924483791504267e-05
-0.4707802723445639,-0.4707802723445639,1.0001278748661642,6.885188249057731e-05
-0.47061141911763116,-0.47061141911763116,1.000094681502217,7.001816201829261e-05
-0.47054371881022233,-0.47054371881022233,1.0000287956507854,6.79946510319163e-05
-0.47041294187583843,-0.47041294187583843,1.0000119311311293,6.895115980865199e-05
-0.4701686900494678,-0.4701686900494678,0.9997602930877223,6.833387342024371e-05
-0.4700441560562467,-0.4700441560562467,0.999901091191622,6.960891956738151e-05
-0.4699820537571213,-0.4699820537571213,1.0000396620501233,6.890970223505296e-05
