time,time,flux,flux_err
-0.4998889066308038,-0.4998889066308038,0.9999088276858898,0.0001234021506940537
-0.49975887933105695,-0.49975887933105695,1.0000895885707606,0.0001258159585180179
-0.49959850284285495,-0.49959850284285495,1.0000816412053055,0.00012454020417767712
-0.49946954159240703,-0.49946954159240703,0.9998254808339071,0.0001245462321820304
-0.4993430937094672,-0.4993430937094672,1.0000210566620564,0.0001247261467549432
-0.49910684874557776,-0.49910684874557776,1.0000201088058966,0.00012564371816401747
-0.4989524575008545,-0.4989524575008545,1.000092958211611,0.00012417578158393244
-0.4987727124047524,-0.4987727124047524,0.999936838457088,0.00012410513888867045
-0.4985837180138333,-0.4985837180138333,0.9999065462506704,0.00012493396802889191
-0.49843985470361074,-0.49843985470361074,0.9998366255779706,0.00012567149889633646
-0.4983379746816354,-0.4983379746816354,1.000050152573883,0.00012362585063858012
-0.498249339992617,-0.498249339992617,0.9998258849087271,0.00012377570534991263
-0.4981453262269497,-0.4981453262269497,0.9998943145263469,0.00012329698473358383
-0.49805167400772915,-0.49805167400772915,1.0000059457013617,0.00012569824317105747
-0.4979595145137864,-0.4979595145137864,1.0000052171772082,0.00012482533678218028
-0.49784049146110193,-0.49784049146110193,0.9998555070105892,0.00012365129285253577
-0.49769734268193133,-0.49769734268193133,0.9998662035688846,0.00012448472403569523
-0.49751180423409097,-0.49751180423409097,1.0000278350288208,0.00012393654599051894
-0.4973970406506851,-0.4973970406506851,0.9999143728840167,0.00012390259308530201
-0.4972223686891084,-0.4972223686891084,0.999963496903314,0.00012114398015994285
-0.4970403581479331,-0.4970403581479331,0.9999338550832173,0.00012097854359299946
-0.4968742136203218,-0.4968742136203218,1.0000461302389518,0.00012520894099777365
-0.4967862112054718,-0.4967862112054718,1.000119950114145,0.0001236333156842164
-0.4966622014508175,-0.4966622014508175,1.0000851542715916,0.00012557040758083945
-0.49653824619963416,-0.49653824619963416,0.9999010551972136,0.000128720488104389
-0.4964299118786585,-0.4964299118786585,0.9998715461923358,0.0001232606867472669
-0.496348066956125,-0.496348066956125,0.9998175814191474,0.00012359260831106274
-0.49621168395970017,-0.49621168395970017,0.9998991737055233,0.00012532070998254354
-0.49605046573196887,-0.49605046573196887,0.9998999033318354,0.00012500818774672644
-0.4958070390057401,-0.4958070390057401,1.000025008992202,0.00012416593714177567
-0.495591326381691,-0.495591326381691,1.0001645267500126,0.00012333830527578983
-0.49538593246543317,-0.49538593246543317,1.000030731167659,0.00012043803222071812
-0.4952723034359224,-0.4952723034359224,0.9999514866902157,0.00012553157417399845
-0.4950193677250354,-0.4950193677250354,0.9999492379620248,0.00012987487810623468
-0.4948920058282965,-0.4948920058282965,1.0001109492012223,0.00012420917707109015
-0.49481064654682994,-0.49481064654682994,0.99991771175699,0.00012697215342201553
-0.49468290185395747,-0.49468290185395747,1.000082388955453,0.0001272615556827508
-0.4944850342813879,-0.4944850342813879,0.9998443867024897,0.00012970363483343994
-0.4943622465121734,-0.4943622465121734,0.999864160301058,0.0001269501592062076
-0.49428643064020433,-0.49428643064020433,1.0000183035848467,0.0001227816587213608
-0.49416437854233664,-0.49416437854233664,1.000036410962142,0.0001235217024882535
-0.49403320693963904,-0.49403320693963904,0.9998330585947715,0.00012111002694742636
-0.4938947299408028,-0.4938947299408028,1.000020634647055,0.00012184359824322015
-0.49370699478531604,-0.49370699478531604,0.9999457831499095,0.00012399799911995472
-0.493491602584254,-0.493491602584254,1.0001518112746983,0.00012309090867694257
-0.49336856213121794,-0.49336856213121794,0.9999307723819228,0.00012476640163837225
-0.4932972747505119,-0.4932972747505119,0.9999611444989555,0.00012556784579457878
-0.49319274103909266,-0.49319274103909266,0.9998784175983857,0.00012570262095243882
-0.49300737213852697,-0.49300737213852697,0.9997455432187972,0.00012636304070632443
-0.4928265318783815,-0.4928265318783815,0.9999660444728555,0.00012502891472912422
-0.4926484844254446,-0.4926484844254446,1.000132294894518,0.00012270568021414762
-0.4925456855999073,-0.4925456855999073,0.9999605749400196,0.00012430597368455167
-0.49246161423725426,-0.49246161423725426,1.000066944448363,0.00012131508455451434
-0.49235002451896437,-0.49235002451896437,0.999999414101735,0.00012377550096689813
-0.4921068987481704,-0.4921068987481704,0.9999181680948075,0.00012147801155446458
-0.4919342032597342,-0.4919342032597342,0.9999239041509924,0.0001255427206431122
-0.49180049494971173,-0.49180049494971173,1.0000974369010023,0.00012463683216863756
-0.491720781083859,-0.491720781083859,1.0002364818172567,0.00012624055006901113
-0.4916185345849954,-0.4916185345849954,0.9999753986283938,0.00012496185031772605
-0.491431607738923,-0.491431607738923,0.9998308580894737,0.000125141340897769
-0.49134329567386886,-0.49134329567386886,1.0000493002787036,0.00012451117169609278
-0.4911558027102728,-0.4911558027102728,0.9999381900279527,0.00012587108673979585
-0.49101377460974616,-0.49101377460974616,0.9998661598739277,0.000122867112595006
-0.490914013593283,-0.490914013593283,1.0002494479055168,0.00012321558445524666
-0.4907589314490906,-0.4907589314490906,1.0000171890115817,0.0001242594320575023
-0.49060216151920033,-0.49060216151920033,0.9999989642734525,0.00012372572230359762
-0.49046130359056406,-0.49046130359056406,1.000131639441782,0.00012389476131311904
-0.4902287025928672,-0.4902287025928672,0.9999507433960986,0.00012341263103715438
-0.4900978652476624,-0.4900978652476624,1.0000325722429622,0.00012437290489081563
-0.48988638658338457,-0.48988638658338457,0.9999264395126533,0.00012475750968606836
-0.4897295493552519,-0.4897295493552519,1.000116482136404,0.0001236391795388398
-0.4896719333431975,-0.4896719333431975,0.9998489827888447,0.00012550932941910432
-0.4895196598925395,-0.4895196598925395,1.0000137903503628,0.0001248225924853036
-0.48939087880353327,-0.48939087880353327,0.9999861149300713,0.00012199145709286614
-0.4892516744417662,-0.4892516744417662,0.9999208119869094,0.00012334232394037902
-0.48912708579882747,-0.48912708579882747,0.9999459340755923,0.00012483437774141968
-0.48902324748341924,-0.48902324748341924,0.999986736671781,0.00012282008933970997
-0.4889234549787943,-0.4889234549787943,0.999899542490755,0.0001258089630719355
-0.4887542466909508,-0.4887542466909508,1.0001308840790546,0.00012508372288764084
-0.48861293717418447,-0.48861293717418447,1.0000929739302824,0.00012876965001359556
-0.48848388302285456,-0.48848388302285456,0.9999916234212621,0.00012031581724210388
-0.4883212707209168,-0.4883212707209168,1.0000451393894734,0.00012093701310290756
-0.4881517242756672,-0.4881517242756672,0.9997997126356134,0.00012499855454348418
-0.4880337182628864,-0.4880337182628864,0.9998247599946731,0.0001250892446476615
-0.4878486746070848,-0.4878486746070848,1.0001295761558704,0.00012681992857768354
-0.48773418832861354,-0.48773418832861354,0.9996823552365919,0.00012647830393642065
-0.4876190716015117,-0.4876190716015117,1.0001094554599246,0.0001234873194650274
-0.48756655467586824,-0.48756655467586824,0.999906895091085,0.00012278165313093077
-0.48743814120243767,-0.48743814120243767,0.9999142569608557,0.00012463467254997815
-0.4873272945718782,-0.4873272945718782,1.0000280741086713,0.00012524129116459195
-0.4871375920025457,-0.4871375920025457,0.9998364291040345,0.000128905151672306
-0.4869749561403296,-0.4869749561403296,1.0001480182536913,0.00012088220080043155
-0.48689895473071376,-0.48689895473071376,1.0000069008750596,0.00012010808964136464
-0.48676126857681085,-0.48676126857681085,0.9999438895176066,0.00012322904289576803
-0.4865871504582174,-0.4865871504582174,0.9998912149503856,0.0001251804762451338
-0.48643628047720994,-0.48643628047720994,0.9999703061514198,0.00012364115261573474
-0.4862111925955105,-0.4862111925955105,1.0001224663407826,0.0001255407016063698
-0.4861329080973519,-0.4861329080973519,0.9999483485981356,0.00012604080330417476
-0.4860723032848909,-0.4860723032848909,1.000058873739216,0.00012122683539286744
-0.4859777714242227,-0.4859777714242227,0.9999635376705811,0.00012873070930284668
-0.4857840473341639,-0.4857840473341639,0.9999872594651832,0.00012652488704877762
-0.48561279876739716,-0.48561279876739716,0.999707603200837,0.00012806655635529192
-0.48551228520591394,-0.48551228520591394,0.99989441644137,0.0001259219054383556
-0.4853926626077737,-0.4853926626077737,0.9998705144479055,0.00012458036537138357
-0.48524439419270493,-0.48524439419270493,1.0002031578217254,0.0001202295855204302
-0.48509019064658787,-0.48509019064658787,0.9999606355931384,0.00012397815121585048
-0.4849027154290525,-0.4849027154290525,0.9999313777676229,0.00012702156153564768
-0.4847034129750682,-0.4847034129750682,1.0000200341903187,0.00012363981185014593
-0.48465644966127003,-0.48465644966127003,0.999991557127184,0.00012170762247320881
-0.48455696079472543,-0.48455696079472543,0.9999192576050622,0.0001267141269819181
-0.48450655015403754,-0.48450655015403754,1.0001907996518202,0.00012647454540923553
-0.4843332304561045,-0.4843332304561045,0.9999309675005102,0.0001248572467909871
-0.48414926240366185,-0.48414926240366185,0.9999998539267457,0.00012911400095802324
-0.48402411100832976,-0.48402411100832976,1.0000128503389527,0.00012828158913271592
-0.48388213659927715,-0.48388213659927715,0.9999381989816346,0.00012460746728816278
-0.48379707248022896,-0.48379707248022896,0.9999399506298365,0.00012101874493966426
-0.4836473294832103,-0.4836473294832103,0.9999361443231095,0.00012099312058376677
-0.48349337622712485,-0.48349337622712485,0.9998364960252569,0.0001243844002253037
-0.48324790000842766,-0.48324790000842766,0.9998399400778812,0.0001206149072727238
-0.4831306917410984,-0.4831306917410984,1.0001443926486704,0.0001234001714475543
-0.4829970813341788,-0.4829970813341788,0.9999641350351715,0.00012543628911060355
-0.48288388421424316,-0.48288388421424316,1.0000865145868378,0.00012567710332109266
-0.48272770205512644,-0.48272770205512644,0.999985088562086,0.00012695842730403882
-0.48261533354307173,-0.48261533354307173,0.9999894403330696,0.00012753630613566465
-0.482480065159325,-0.482480065159325,0.9999063790848906,0.0001248527640138695
-0.48227168196826825,-0.48227168196826825,1.0000789077988868,0.000124935952841507
-0.48218976755742915,-0.48218976755742915,1.0000941356499395,0.00012105232463127118
-0.48204305247272716,-0.48204305247272716,1.000186760439699,0.00012438991472062794
-0.4818135290719511,-0.4818135290719511,1.000074262593317,0.0001239277895865865
-0.48165450844244334,-0.48165450844244334,0.9998489154724307,0.00012117439876264987
-0.48147374927357306,-0.48147374927357306,1.0000633296345423,0.0001248760409951722
-0.4813569651116268,-0.4813569651116268,0.9998020017613362,0.00012825937247997404
-0.4812338245654246,-0.4812338245654246,1.000050333397174,0.00012508212835146587
-0.48108259224900396,-0.48108259224900396,1.000026922972888,0.00012665740123468677
-0.4809834491315996,-0.4809834491315996,0.9998272019896804,0.00012592210342606106
-0.48090218029974496,-0.48090218029974496,0.9997607350244928,0.00012543023024873576
-0.4807371976916329,-0.4807371976916329,0.9998666183636308,0.00012613500484776483
-0.48057035985402763,-0.48057035985402763,1.0000127752513048,0.00012487064176872292
-0.48045283786923393,-0.48045283786923393,0.9998464279614536,0.00012464963795538796
-0.4803142891367315,-0.4803142891367315,1.000123056002143,0.00012400589753341017
-0.4801097003488394,-0.4801097003488394,1.0000053978792454,0.0001246571951343008
-0.4799046243526391,-0.4799046243526391,1.0003443933267733,0.000125724844771278
-0.4798071129407617,-0.4798071129407617,1.0000377710274946,0.00012354878745929977
-0.47959728170244487,-0.47959728170244487,1.000073530320592,0.0001224989705060399
-0.47938513754779705,-0.47938513754779705,0.9997941261709844,0.00012504995549163136
-0.4792688435198215,-0.4792688435198215,0.9999374121416054,0.00012564488492504462
-0.4791501942425384,-0.4791501942425384,0.9999822926774268,0.0001242944060934517
-0.47904329664088435,-0.47904329664088435,1.0000615167055034,0.0001221933977183888
-0.4789643632720981,-0.4789643632720981,0.9997781175359105,0.000127461612461186
-0.47884914941023454,-0.47884914941023454,0.9999564449019532,0.00012397321732875903
-0.47881071231822714,-0.47881071231822714,0.9999829613726023,0.0001227048975735898
-0.47871639999648324,-0.47871639999648324,0.9999874255088408,0.00012476841171521241
-0.4785176010271243,-0.4785176010271243,0.9999915989931804,0.00012426501427363976
-0.4783370408076735,-0.4783370408076735,0.999965909999492,0.00012578496417980372
-0.478178378217126,-0.478178378217126,0.9999641824095645,0.00012090453142796142
-0.4780351870700542,-0.4780351870700542,1.000266530705052,0.00012306738079086242
-0.47794733470800566,-0.47794733470800566,1.000012797951991,0.0001200146035292599
-0.4777440131998446,-0.4777440131998446,1.0001571236711715,0.00012532055566992292
-0.4774820387327054,-0.4774820387327054,1.0000471125163601,0.00012509457429113536
-0.47736534733703595,-0.47736534733703595,1.0001324814816988,0.0001293509893721451
-0.47726657605016953,-0.47726657605016953,0.999802600569585,0.00012106798101586998
-0.4771594852718408,-0.4771594852718408,0.9998272088299007,0.00012595021264909587
-0.4769886538764695,-0.4769886538764695,0.9999569662349863,0.00012529237816716356
-0.4767495884480013,-0.4767495884480013,0.9998824711121934,0.00012424489110277528
-0.4766001872900233,-0.4766001872900233,0.9999975679509088,0.00012104299187244234
-0.4764710110881424,-0.4764710110881424,0.9999669055733482,0.00012109541437479247
-0.47622639058026833,-0.47622639058026833,0.9999717564682744,0.00012533797128816442
-0.4759996249085816,-0.4759996249085816,1.0002114179003778,0.0001262548109259158
-0.47584970365205664,-0.47584970365205664,0.999897711512632,0.00012593522210572387
-0.4757682580042456,-0.4757682580042456,0.9999130048580442,0.00012191144387417653
-0.475671176941978,-0.475671176941978,1.0000350873761434,0.00013347153143354124
-0.4755549629837333,-0.4755549629837333,0.9999798688260482,0.00012400124256506986
-0.47537813457092853,-0.47537813457092853,0.9999124841909796,0.00013031164253143093
-0.4752070942566206,-0.4752070942566206,1.000029311312988,0.00012403124752705263
-0.4751759517370374,-0.4751759517370374,0.9998115261938993,0.0001256820233162779
-0.47505013880945623,-0.47505013880945623,0.9998810672961026,0.00012098666668830559
-0.4749350271456933,-0.4749350271456933,1.0002854124206508,0.00012135162820828763
-0.47480464701802705,-0.47480464701802705,1.0000157725994272,0.00012160637664378374
-0.4746415158479067,-0.4746415158479067,1.000056468679435,0.00012662577215629393
-0.47441394013076205,-0.47441394013076205,1.0001233598350558,0.0001223725405696264
-0.4743213742367516,-0.4743213742367516,1.0000079097112178,0.00012419313150992947
-0.4742034238515771,-0.4742034238515771,0.9999738238803332,0.0001244600161794107
-0.47407093512811116,-0.47407093512811116,1.0000959450462024,0.00012503939105582574
-0.4739054142606619,-0.4739054142606619,1.0000723429115301,0.00012448820738590033
-0.4737873654710711,-0.4737873654710711,0.9999518848204936,0.00012718437718075307
-0.4735500241091358,-0.4735500241091358,0.999960434919711,0.00012108525851593802
-0.47345306526331116,-0.47345306526331116,1.0001563025582239,0.00012372399955825643
-0.47333264362314365,-0.47333264362314365,0.9999619102949691,0.00012185788989105147
-0.4732238026204868,-0.4732238026204868,0.9999984377825701,0.00012577661913166165
-0.47305845353330367,-0.47305845353330367,0.9999024110704251,0.00012279456283888495
-0.472845711633272,-0.472845711633272,1.0001215902941871,0.00012211036636373
-0.4726766332096304,-0.4726766332096304,1.0001365321782816,0.00012318878236705877
-0.4725663417331816,-0.4725663417331816,1.00005078080127,0.0001281690978052334
-0.4723801768668636,-0.4723801768668636,0.9999546754951926,0.00012721005844701827
-0.4722800357529195,-0.4722800357529195,0.9998994786993147,0.00012613349227687997
-0.4721867091051536,-0.4721867091051536,1.0001722522501442,0.0001273937193001733
-0.47199785561388125,-0.47199785561388125,1.0000166222963982,0.0001234195806735549
-0.47183524148204015,-0.47183524148204015,1.0003318752049541,0.00012455965404833285
-0.47167795763816683,-0.47167795763816683,0.9998786736248135,0.00012460233054279577
-0.47150450011031353,-0.47150450011031353,0.9999366057450036,0.00012415467523261295
-0.4713811847359466,-0.4713811847359466,0.9999988984901996,0.00012222400932017277
-0.4711765033964184,-0.4711765033964184,0.9999978687510938,0.00012478854893345248
-0.4710636283089116,-0.4710636283089116,1.0000656264298904,0.0001237555261268698
-0.4709608983757789,-0.4709608983757789,1.000102927021132,0.00012561301068801143
-0.4707982926243858,-0.4707982926243858,0.999940101216741,0.0001222376147753022
-0.47070090099732625,-0.47070090099732625,0.9999187045278954,0.0001232153355949156
-0.4706039379045251,-0.4706039379045251,0.9999894724865447,0.0001260206501549614
-0.47048325536670743,-0.47048325536670743,0.9998657967452204,0.00012588601850009509
-0.4703582884860225,-0.4703582884860225,1.0000022015078556,0.00012196357108472287
-0.4702438393665943,-0.4702438393665943,0.9999023408203535,0.00012431666139246493
-0.47013897247306885,-0.47013897247306885,0.9999198630751536,0.0001259642319617973
-0.470047398085444,-0.470047398085444,0.9999218489407763,0.00012282583337030692
-0.4699544752453221,-0.4699544752453221,0.9999056404730382,0.00012423123063833141
-0.46986866130901034,-0.46986866130901034,0.9998369791617947,0.00012498402959701323
-0.4697374653747829,-0.4697374653747829,1.0001277928979673,0.0001238152011333722
-0.4695729246428527,-0.4695729246428527,0.9999810125792866,0.00012531702474105855
-0.4694244254998921,-0.4694244254998921,0.9998883220668656,0.00012191835179660191
-0.4692814354035363,-0.4692814354035363,0.9998304315406312,0.00012104586143712876
-0.46911505442330964,-0.46911505442330964,0.9999383581683693,0.00012279189912390833
-0.4689692833642766,-0.4689692833642766,1.0000309982259112,0.00012370177423634692
-0.4688773229572689,-0.4688773229572689,0.9999650297227192,0.00012238789740489451
-0.46871948749685544,-0.46871948749685544,0.9999762714199679,0.00012425464716887846
-0.4686011838624836,-0.4686011838624836,0.9999898916795591,0.00012832608586440665
-0.4684958975230984,-0.4684958975230984,1.0001249051053032,0.0001233416920063805
-0.46839371327951085,-0.46839371327951085,1.0001012072435256,0.0001254733634044269
-0.46821118814477813,-0.46821118814477813,1.000228105062775,0.0001247947644473965
-0.46799093576628364,-0.46799093576628364,1.0000817877090757,0.0001246039670871198
-0.46783930539750146,-0.46783930539750146,0.9999691049434659,0.00012206402020091527
-0.46764432258787564,-0.46764432258787564,1.000015795637887,0.0001234188413408909
-0.4674337755663146,-0.4674337755663146,0.9998720258458211,0.00012310275443678452
-0.46729591372641155,-0.46729591372641155,1.0000103079173503,0.00012569612097743652
-0.46706294977120705,-0.46706294977120705,0.9998285234743325,0.00012913341561022644
-0.466986488764087,-0.466986488764087,0.9999205068169064,0.00012188667460378661
-0.4668849954541656,-0.4668849954541656,1.0004468976289767,0.00012896507882501778
-0.4667617338083801,-0.4667617338083801,1.000222801723313,0.00012285994111938038
-0.46660647869866806,-0.46660647869866806,1.0000911743538619,0.00012657364215014512
-0.4664504752625362,-0.4664504752625362,0.9999889516229482,0.00012647522027763863
-0.46637915788087414,-0.46637915788087414,1.0000097220460422,0.00012408450835237002
-0.4661956623684091,-0.4661956623684091,1.0000320054813185,0.0001209383428112722
-0.46600548035930844,-0.46600548035930844,0.9999122472894303,0.00012460662953261054
-0.46572358581106527,-0.46572358581106527,1.0000086620150948,0.00012377193057497749
-0.4655774277503951,-0.4655774277503951,0.9999408806586587,0.00012362196667393407
