time,time,flux,flux_err
-0.49993261183468957,-0.49993261183468957,1.0000403885551183,9.824941779924864e-05
-0.4998217029794129,-0.4998217029794129,0.9998781903138355,9.7399424195074e-05
-0.4997362014837563,-0.4997362014837563,1.0000320319162124,9.047445551384518e-05
-0.49963654256062,-0.49963654256062,0.999923515042483,9.025882101726556e-05
-0.4995659091859125,-0.4995659091859125,0.9999718554024281,9.027451090902903e-05
-0.49948460501182124,-0.49948460501182124,1.000047115687236,9.102300521469724e-05
-0.49938624061396697,-0.49938624061396697,0.9999671099604128,8.996797348322836e-05
-0.49923571199396977,-0.49923571199396977,0.9999299613164055,8.976778951353105e-05
-0.49912767005735076,-0.49912767005735076,0.999857873184878,8.957079267531867e-05
-0.49900317304709463,-0.49900317304709463,0.99988153721703,8.982514419213488e-05
-0.49883902385045076,-0.49883902385045076,1.0000500648403696,9.029978331752831e-05
-0.49872577734131485,-0.49872577734131485,1.0000421028816588,8.907535926026063e-05
-0.4986167589893739,-0.4986167589893739,1.0001610707404471,8.844915932804267e-05
-0.4985410930967191,-0.4985410930967191,0.9999326673984893,8.932259976995889e-05
-0.4983849782285688,-0.4983849782285688,0.9999020885300942,8.721430371688543e-05
-0.4982440880557988,-0.4982440880557988,1.0000801610666343,8.977857330485252e-05
-0.4981940214369388,-0.4981940214369388,1.0001018598055107,8.943367281637402e-05
-0.49808113421022426,-0.49808113421022426,0.9999602295542471,9.054921120688122e-05
-0.4978899830908631,-0.4978899830908631,0.999789234491829,8.946376747211492e-05
-0.4977028818575491,-0.4977028818575491,1.0000303035643026,9.172404569915544e-05
-0.49759679886192315,-0.49759679886192315,0.9999446427520393,9.047871358839169e-05
-0.49752367312394197,-0.49752367312394197,0.9998932170028034,8.87842173616633e-05
-0.4974447683576727,-0.4974447683576727,0.9998706979626011,9.124840192083387e-05
-0.49733569644959064,-0.49733569644959064,1.0001766789740596,8.951224755655332e-05
-0.49724090328163584,-0.49724090328163584,1.000118998073129,8.906878375867029e-05
-0.49716282747758667,-0.49716282747758667,0.9999710552897353,9.120138031999349e-05
-0.497056970828271,-0.497056970828271,0.9999541420355784,8.975926983713944e-05
-0.49695359460820326,-0.49695359460820326,1.0000694787983497,8.880168741085322e-05
-0.49688041787158,-0.49688041787158,1.0001437950485008,9.125434791639263e-05
-0.4967663539078785,-0.4967663539078785,1.0001463629820408,8.981507910193169e-05
-0.4965831789486401,-0.4965831789486401,0.9998710770419785,9.236398173684322e-05
-0.4965376075793756,-0.4965376075793756,1.0000850372049677,8.831676906365845e-05
-0.49645114810700763,-0.49645114810700763,0.99994886256836,8.802422337970442e-05
-0.49628797195182417,-0.49628797195182417,1.0000324790468027,8.829498602717472e-05
-0.4960845834626525,-0.4960845834626525,1.000067010585067,8.971326892110201e-05
-0.49601731492002726,-0.49601731492002726,0.9999568232348064,8.859782172800715e-05
-0.49594802073333993,-0.49594802073333993,0.9999330983173653,8.930442006773067e-05
-0.49583626530293257,-0.49583626530293257,1.0000752723121644,9.075134146696168e-05
-0.4956942551230895,-0.4956942551230895,1.0000367041767197,9.178960682522096e-05
-0.49553686359358834,-0.49553686359358834,1.0000934867710418,9.06593798557011e-05
-0.49538982358499195,-0.49538982358499195,1.0001765263809321,8.985591005558067e-05
-0.49531845052115386,-0.49531845052115386,1.0001457509459426,8.899670241093223e-05
-0.49525894186954245,-0.49525894186954245,1.0000163864930918,8.98018720307096e-05
-0.49518111811485144,-0.49518111811485144,0.9999603187647044,9.087960553362087e-05
-0.4950502749343286,-0.4950502749343286,1.0000870709918375,8.950999287252396e-05
-0.49496106713122573,-0.49496106713122573,0.9999315224667926,9.334280775532196e-05
-0.4948888177626941,-0.4948888177626941,1.0000587624522215,8.975077299450442e-05
-0.4947774713851686,-0.4947774713851686,0.999923342609853,9.009822017188279e-05
-0.4946491783448437,-0.4946491783448437,0.999818578520367,8.986556105803976e-05
-0.49443453747298916,-0.49443453747298916,0.9999949064224815,8.925026133283874e-05
-0.4943469010431727,-0.4943469010431727,1.0000129617356732,8.903210155339004e-05
-0.4942929795179225,-0.4942929795179225,0.999963168960859,8.973299716349045e-05
-0.49417496280002526,-0.49417496280002526,1.0001096351170395,8.936346403975903e-05
-0.4940721971921448,-0.4940721971921448,0.9998509912740865,8.956996534354525e-05
-0.49386727573437383,-0.49386727573437383,0.9999240196497785,9.06893921069822e-05
-0.49372792284048045,-0.49372792284048045,1.0000360562861035,8.963246950544884e-05
-0.4935990203230176,-0.4935990203230176,0.9999704997670177,9.159910378375423e-05
-0.4934770299048978,-0.4934770299048978,1.0001286138370131,8.981196549891973e-05
-0.493242905173247,-0.493242905173247,0.9999306245357644,8.957516627911042e-05
-0.4931452245553373,-0.4931452245553373,0.9999354762285012,9.16603459788706e-05
-0.4930801827889809,-0.4930801827889809,0.9998737736669903,8.976992186725065e-05
-0.4929672712612955,-0.4929672712612955,1.0001422650266982,9.014900616089262e-05
-0.4928534507896984,-0.4928534507896984,0.9998013010613132,8.914554914398089e-05
-0.492771389936388,-0.492771389936388,0.9998204691514531,8.962496859621184e-05
-0.49268577361362986,-0.49268577361362986,0.9999281003699263,9.057329340575576e-05
-0.49257855384785215,-0.49257855384785215,1.0001178115444096,8.978732600589399e-05
-0.4924783633185143,-0.4924783633185143,1.0000278497212316,8.92882131268535e-05
-0.49227000132377724,-0.49227000132377724,1.000146864709865,8.90701727156536e-05
-0.4921707330722711,-0.4921707330722711,1.000041947679844,8.820873334605061e-05
-0.49212314039978083,-0.49212314039978083,0.9998585822515634,9.091317643113164e-05
-0.4920012366528681,-0.4920012366528681,1.0000413438678213,8.898859744506266e-05
-0.49194261132870454,-0.49194261132870454,0.9999995357444057,9.091594160088454e-05
-0.49175004180360704,-0.49175004180360704,1.0000702907819288,9.102141616002819e-05
-0.49156291323597545,-0.49156291323597545,0.9998998830653585,8.943217628086853e-05
-0.49145174670193226,-0.49145174670193226,1.00003743303243,9.053847779637815e-05
-0.49137112802709454,-0.49137112802709454,0.9999165595659087,8.988220261777331e-05
-0.49127932576448075,-0.49127932576448075,1.000074696461175,9.38014861505482e-05
-0.4911047553498065,-0.4911047553498065,1.0000588340058445,9.022025056323524e-05
-0.490983527397475,-0.490983527397475,1.0000106101376356,9.039243585700102e-05
-0.4909251954588399,-0.4909251954588399,0.9998427240397498,8.947062102649037e-05
-0.49085438331821934,-0.49085438331821934,0.9999534511827672,8.957521337513491e-05
-0.49073712958343096,-0.49073712958343096,1.0000399906222406,9.023510909900856e-05
-0.4906184738967568,-0.4906184738967568,0.9998687645799189,9.624448230013193e-05
-0.490526531933574,-0.490526531933574,0.9999799920666657,8.921052143955967e-05
-0.4904362155641138,-0.4904362155641138,0.9999388071855984,9.053109124038697e-05
-0.49038718164520106,-0.49038718164520106,1.0001076344749364,9.095495766477867e-05
-0.49033402559362005,-0.49033402559362005,1.0001061018932034,8.915696825165215e-05
-0.4901614272064762,-0.4901614272064762,1.000055123595252,9.117407106074701e-05
-0.49003266754298236,-0.49003266754298236,1.0000439739163736,8.835732887644362e-05
-0.48996551481541245,-0.48996551481541245,1.0000507459587857,8.846225373002747e-05
-0.4898557443484606,-0.4898557443484606,1.0000436994323003,9.028827755191483e-05
-0.48979085650353227,-0.48979085650353227,1.000040349101115,8.903187406105966e-05
-0.4896906749032496,-0.4896906749032496,1.0000335550264368,9.093664144601687e-05
-0.48941365883365506,-0.48941365883365506,1.0001744019625762,8.945226776359535e-05
-0.4892500749861938,-0.4892500749861938,0.9998627839389082,8.994444955533853e-05
-0.48904842388583347,-0.48904842388583347,0.9999644150918098,9.078185449809763e-05
-0.48893603560063637,-0.48893603560063637,0.999902013204015,8.952543113809146e-05
-0.4888156265864382,-0.4888156265864382,1.0001196609896712,9.103091263133791e-05
-0.48873972184519515,-0.48873972184519515,1.000084470401108,8.878170843988683e-05
-0.48856995278329124,-0.48856995278329124,1.0001273072103285,9.043155487406738e-05
-0.48845472733155476,-0.48845472733155476,1.0001761308198467,8.90910809391988e-05
-0.4883347866067197,-0.4883347866067197,0.9999708574816782,8.806838356558458e-05
-0.48824198859438184,-0.48824198859438184,0.9999169524190445,8.885828278570816e-05
-0.4881389706664777,-0.4881389706664777,1.0000817539226232,9.001610998722287e-05
-0.4879858358952333,-0.4879858358952333,0.9999579650101532,8.929795128986685e-05
-0.48780143140102156,-0.48780143140102156,0.9999176827579925,8.832400252182923e-05
-0.4877126528037479,-0.4877126528037479,1.0001030719021022,8.904089963867199e-05
-0.48761125833407276,-0.48761125833407276,0.9999824966047962,9.105061962645078e-05
-0.48755400066729637,-0.48755400066729637,1.0001119499544688,8.976160208213328e-05
-0.48746408215229164,-0.48746408215229164,0.9999682857470565,9.176572845694028e-05
-0.48736568261447244,-0.48736568261447244,1.000078154510169,9.047874744566184e-05
-0.48720475585505485,-0.48720475585505485,0.9998965243940839,8.975686363070306e-05
-0.4869607045126031,-0.4869607045126031,1.0001999471691567,9.126841818835468e-05
-0.486813583613548,-0.486813583613548,1.000095875915091,8.933412100671816e-05
-0.48674642101468635,-0.48674642101468635,0.9999692010008203,9.028340559733007e-05
-0.48663756695677873,-0.48663756695677873,0.9999764441666826,9.143933992037192e-05
-0.48655798100517134,-0.48655798100517134,0.9998784228159103,8.83772058761555e-05
-0.48636666545280605,-0.48636666545280605,1.0000372252278653,9.04704283548683e-05
-0.4863154053928156,-0.4863154053928156,1.0000469462956925,9.029299049386021e-05
-0.4861436530271021,-0.4861436530271021,1.0001360963607566,8.849842019557504e-05
-0.4860419766679115,-0.4860419766679115,0.9999737163271739,8.817915917005299e-05
-0.48583671765300096,-0.48583671765300096,0.9999120801172872,8.963092262168296e-05
-0.4857174812241283,-0.4857174812241283,0.9999465876464665,8.9469703596869e-05
-0.48565358915147955,-0.48565358915147955,1.0001643924491606,8.881651824768118e-05
-0.48553086456813616,-0.48553086456813616,1.0001047669547138,9.084709301731182e-05
-0.4854708593215037,-0.4854708593215037,1.0000748094802563,8.968046249786025e-05
-0.48541406978911256,-0.48541406978911256,1.0000654935151794,9.069351216257595e-05
-0.48537031036394185,-0.48537031036394185,1.0000299675536073,8.99676078695428e-05
-0.4852671352120524,-0.4852671352120524,0.9998452239709034,8.984908707147511e-05
-0.4851718125217303,-0.4851718125217303,1.0000502504872264,9.000438197892564e-05
-0.48511091437903814,-0.48511091437903814,0.9999481905049871,8.944541368625926e-05
-0.4849137159471866,-0.4849137159471866,1.0001543488392453,9.075214486412998e-05
-0.48460559355880833,-0.48460559355880833,1.0000071060288553,9.026033616050509e-05
-0.48451245188043685,-0.48451245188043685,0.9999218600315796,9.052687223698965e-05
-0.48444304800941607,-0.48444304800941607,1.000010099183551,9.003958842739983e-05
-0.48431819566030754,-0.48431819566030754,0.999808607823541,8.854762534233924e-05
-0.4841875498757872,-0.4841875498757872,1.00000942557492,8.893143909196225e-05
-0.4841176170179097,-0.4841176170179097,0.9998348017245764,9.029009768569217e-05
-0.4839869407995138,-0.4839869407995138,0.9998708083944917,8.918843128927643e-05
-0.4837645678424451,-0.4837645678424451,0.9999778883096482,8.926237645418881e-05
-0.4836368533913628,-0.4836368533913628,1.0000279059353092,8.958887681225741e-05
-0.48350485579358066,-0.48350485579358066,0.9999836678674064,8.95484831679978e-05
-0.4833642238874745,-0.4833642238874745,0.9999732345932012,9.00107553658656e-05
-0.483270988586446,-0.483270988586446,0.999988844208344,9.046200620746583e-05
-0.483241918485146,-0.483241918485146,0.9999235004180976,9.007088754921095e-05
-0.4832174857816426,-0.4832174857816426,0.9999436062021342,9.083122061032441e-05
-0.4831215452570177,-0.4831215452570177,0.9998743705441673,8.883604134596516e-05
-0.4830275225896912,-0.4830275225896912,0.9999351008756383,8.966305059197053e-05
-0.4829183560555975,-0.4829183560555975,1.0001273096851615,8.893287802720408e-05
-0.4828483298588253,-0.4828483298588253,0.9999499320735212,8.896999297541556e-05
-0.4827718324835587,-0.4827718324835587,0.9999400685339077,9.006815618868112e-05
-0.48260901178073257,-0.48260901178073257,0.9999434358780072,8.888262454696813e-05
-0.48237091819755734,-0.48237091819755734,1.000135106681895,9.043777641881432e-05
-0.4822925572807435,-0.4822925572807435,0.99991890967122,8.972841275615166e-05
-0.4822575501384563,-0.4822575501384563,1.000023774193958,9.172344844499578e-05
-0.4821643738883722,-0.4821643738883722,0.99996114629225,8.91937315909918e-05
-0.4820495187828783,-0.4820495187828783,1.0000376573141654,8.937814738675174e-05
-0.4819053366270964,-0.4819053366270964,1.0001464131613695,8.889815221964564e-05
-0.4817618821398355,-0.4817618821398355,1.0000888896499918,8.920303588369659e-05
-0.48166525316701153,-0.48166525316701153,1.0002521735444743,8.902741542508974e-05
-0.4814823778477148,-0.4814823778477148,0.9998526970312833,9.074706487438267e-05
-0.481402540646377,-0.481402540646377,0.9998755883658751,8.996202578243816e-05
-0.4813088950468227,-0.4813088950468227,1.0000432677582396,8.910764947217344e-05
-0.4812144897761755,-0.4812144897761755,1.0000207969203385,8.997786572130153e-05
-0.4811031933997583,-0.4811031933997583,1.0000156143879333,8.97437544336133e-05
-0.4810325747042953,-0.4810325747042953,1.0000755412476823,9.046969415151514e-05
-0.4809702592850954,-0.4809702592850954,0.9999114695851281,9.065356009338519e-05
-0.4808490049334068,-0.4808490049334068,1.0001257372637,8.884566032817145e-05
-0.4807752997679927,-0.4807752997679927,1.0000235125792092,8.996419632558426e-05
-0.48064378064809715,-0.48064378064809715,0.9999783838163454,8.963356030479544e-05
-0.4805393527421984,-0.4805393527421984,0.9999077972468056,8.979734157378919e-05
-0.48039478835635235,-0.48039478835635235,1.0000929145438144,9.032299158758649e-05
-0.4802017000154592,-0.4802017000154592,1.0001109952546154,8.863773848699703e-05
-0.4800814955488022,-0.4800814955488022,0.9999389036545256,8.853126091862153e-05
-0.4799793809048424,-0.4799793809048424,0.9999209722925437,9.015256988211416e-05
-0.4798048835771624,-0.4798048835771624,0.999993682544928,8.868487142886656e-05
-0.47962504282186275,-0.47962504282186275,0.9999454800222146,8.98788613387759e-05
-0.4794710255198879,-0.4794710255198879,0.9998199435333215,8.911559499442954e-05
-0.47929342994466423,-0.47929342994466423,1.0000370157857759,8.970671756986079e-05
-0.47919252498904824,-0.47919252498904824,0.9999732864016468,8.925403869813067e-05
-0.4790844741524779,-0.4790844741524779,0.9999897333826725,8.957538860514319e-05
-0.4790069013048196,-0.4790069013048196,0.9997574169554635,9.00315925583721e-05
-0.4789422516281775,-0.4789422516281775,0.9997897502179296,8.960310997585475e-05
-0.4788722280522052,-0.4788722280522052,0.9999548467338396,9.099837053006866e-05
-0.47879817178327355,-0.47879817178327355,0.9998859532558388,8.955590000572272e-05
-0.47870991604504526,-0.47870991604504526,0.9999766877879214,9.094264775767585e-05
-0.47863880015647736,-0.47863880015647736,1.0000928440809846,9.034414818723596e-05
-0.47851357934705446,-0.47851357934705446,0.9999372283433587,8.952477825472101e-05
-0.47842392897291575,-0.47842392897291575,0.999971732651189,9.016860869940702e-05
-0.4783432940777857,-0.4783432940777857,0.9999874588291258,8.864010064720562e-05
-0.4782109021674842,-0.4782109021674842,1.000030470682669,8.984952507170707e-05
-0.47802242168327214,-0.47802242168327214,0.9998380205966679,8.941061662344123e-05
-0.47794253082756766,-0.47794253082756766,0.999947423656859,8.909754979625817e-05
-0.4778256079669518,-0.4778256079669518,0.9998542544935309,8.844998532381179e-05
-0.4777405607179389,-0.4777405607179389,1.00002735441789,8.848323510773542e-05
-0.4775481515825959,-0.4775481515825959,0.9999589008045702,8.851152572450868e-05
-0.4774447598028928,-0.4774447598028928,1.000002307039147,8.897099578921275e-05
-0.4773560561538034,-0.4773560561538034,0.999843505874798,9.096386971126099e-05
-0.4772168081108248,-0.4772168081108248,0.999988537203882,8.931070035917503e-05
-0.47702827010289184,-0.47702827010289184,0.9998867631285975,9.143327969000342e-05
-0.4769093154376606,-0.4769093154376606,1.0000593390765065,9.069438380586932e-05
-0.47682962414837676,-0.47682962414837676,1.0000839503538905,9.052181783972824e-05
-0.4767562382156029,-0.4767562382156029,1.0000954513148872,8.908059002763018e-05
-0.4767184708689456,-0.4767184708689456,0.9999502145940216,9.048894620092719e-05
-0.47660203041668864,-0.47660203041668864,0.9999410957370527,9.025523625135692e-05
-0.4765120765485335,-0.4765120765485335,1.0000597146125862,8.894817143612904e-05
-0.47643952795770017,-0.47643952795770017,1.0000251202773147,9.037043527070711e-05
-0.4763465217212797,-0.4763465217212797,1.0000314332398084,9.022886619902534e-05
-0.4762545811550808,-0.4762545811550808,1.000015262782655,8.921679475370795e-05
-0.4761633411879302,-0.4761633411879302,0.9999688705482683,8.917944362945025e-05
-0.4760905562507105,-0.4760905562507105,0.9999801933949982,8.950923501911056e-05
-0.4758811052372039,-0.4758811052372039,0.9999710851670441,9.148415263721505e-05
-0.4757918532995973,-0.4757918532995973,0.99985086631627,8.995220947260809e-05
-0.4757381001523754,-0.4757381001523754,0.9998973952813334,8.840966083568964e-05
-0.4756308636002359,-0.4756308636002359,0.9999768023756002,9.016296559714477e-05
-0.47549773652863225,-0.47549773652863225,1.0000280812056057,8.861598608296003e-05
-0.4753011739252543,-0.4753011739252543,0.9999615022618269,8.939230607210539e-05
-0.47522446262228185,-0.47522446262228185,0.9999906272450867,8.823758668912236e-05
-0.4751023738201184,-0.4751023738201184,1.000103259502773,9.141481623403353e-05
-0.4750110581895569,-0.4750110581895569,0.9999045620644148,8.936478579850707e-05
-0.4748564165965945,-0.4748564165965945,1.0001213717110653,8.863232417900473e-05
-0.474751286341052,-0.474751286341052,1.0002445920741057,9.12708941930716e-05
-0.47465146172835376,-0.47465146172835376,0.9999390917973695,9.120342282665473e-05
-0.4745580455513846,-0.4745580455513846,1.0000053464614198,8.996941459522196e-05
-0.4745067693525925,-0.4745067693525925,1.0000939766577672,8.936482161039534e-05
-0.47440063711837865,-0.47440063711837865,0.9999747104339493,9.050437033697491e-05
-0.4742836553741654,-0.4742836553741654,1.0000020905952578,8.992821705356137e-05
-0.4741888918353652,-0.4741888918353652,1.0000000663615694,8.99606322063776e-05
-0.47409946010157,-0.47409946010157,1.000061906424337,8.979408742268784e-05
-0.47398214457425636,-0.47398214457425636,1.0001194940007496,9.03853417768263e-05
-0.47389188158122125,-0.47389188158122125,1.0000101316530656,8.923396567382055e-05
-0.4737055586731003,-0.4737055586731003,1.0001029475886392,8.982393031332519e-05
-0.4735999007993087,-0.4735999007993087,0.9999569087091107,8.800671203140486e-05
-0.4735648578920518,-0.4735648578920518,0.9999162598108173,9.03546176589773e-05
-0.47352251162883474,-0.47352251162883474,0.9999638781165181,9.653107285834372e-05
-0.4733789739992062,-0.4733789739992062,1.0001587385861936,8.997714679373949e-05
-0.4732262366953364,-0.4732262366953364,0.9999503600341051,8.946235558277157e-05
-0.47306274237053003,-0.47306274237053003,0.9999639198458159,8.888836212661176e-05
-0.47296124728018185,-0.47296124728018185,1.0000426679020546,8.898027831576864e-05
-0.4728531330671103,-0.4728531330671103,0.9999562406852863,9.146944908211656e-05
-0.47276893267189735,-0.47276893267189735,0.9999510978628031,8.870784920692554e-05
-0.472631224890938,-0.472631224890938,1.0000268761775493,9.048833489503567e-05
-0.472453741976642,-0.472453741976642,1.0000381101164575,9.012617338152482e-05
-0.472359571816196,-0.472359571816196,0.9999331290584175,9.119338293404983e-05
-0.4722695995173126,-0.4722695995173126,1.0001525658177488,9.005347982368327e-05
