time,time,flux,flux_err
-0.4992932439862443,-0.4992932439862443,1.000159942679245,0.0004829956949488704
-0.4974232842191384,-0.4974232842191384,0.9999478940667789,0.0004802484214312747
-0.49553582378504757,-0.49553582378504757,0.9997954168630616,0.00048288014973967025
-0.4938049290657773,-0.4938049290657773,1.0003939485091073,0.0004391337639179552
-0.4922708463510389,-0.4922708463510389,0.9993819939389678,0.00043883926357759644
-0.4906601137662733,-0.4906601137662733,0.9997966068784125,0.00043876840289721713
-0.48914278267636746,-0.48914278267636746,1.0002968818026623,0.00044202301124525694
-0.48754256189512263,-0.48754256189512263,1.0001702340293783,0.00043902539737425146
-0.48600851007400936,-0.48600851007400936,0.9998541835012711,0.00043890447782789455
-0.4843977648813052,-0.4843977648813052,1.0004350368484873,0.0004387992503254759
-0.482880406132972,-0.482880406132972,0.9999132241613318,0.0004418322977340799
-0.4812801950940525,-0.4812801950940525,0.999655869341313,0.00043878943536133366
-0.4797461742269434,-0.4797461742269434,0.9998215014025534,0.0004385905919899036
-0.47813541633904605,-0.47813541633904605,1.0005005218091494,0.0004387063214030514
-0.4766180299187113,-0.4766180299187113,1.0001533309460475,0.0004414337712273028
-0.4750178286692176,-0.4750178286692176,1.0004381956569495,0.0004387702950688444
-0.473483838820016,-0.473483838820016,0.9997973860267872,0.0004386616801246246
-0.47187306819309927,-0.47187306819309927,0.9994361604189688,0.00043843711979709603
-0.47035565405720947,-0.47035565405720947,0.9995276884871249,0.00044112866749295126
-0.46875546264749346,-0.46875546264749346,1.000410332853732,0.00043873206236749675
-0.46722150383296823,-0.46722150383296823,1.0004841159191828,0.0004387703401518352
-0.46561072036973883,-0.46561072036973883,0.9997238428106867,0.0004384131040476146
-0.4640932785249561,-0.4640932785249561,1.0001493005879496,0.00044103002635700417
-0.4624930969952743,-0.4624930969952743,1.0000387235808887,0.00043846569197532326
-0.4609591693061816,-0.4609591693061816,0.9997225012926299,0.00043820352935479044
-0.45934837294946645,-0.45934837294946645,1.0001158507501184,0.0004381552512586399
-0.4578309033420965,-0.4578309033420965,0.9998315657377349,0.00044064860392376145
-0.4562307317328191,-0.4562307317328191,0.9996510524566865,0.0004382199507374532
-0.4546968352228191,-0.4546968352228191,1.000040291842518,0.0004380536843214281
-0.4530860258954476,-0.4530860258954476,1.0001724519964743,0.0004381485377843696
-0.4515685285086306,-0.4515685285086306,1.00000190657219,0.0004404652129564996
-0.44996836686004826,-0.44996836686004826,1.0000913108065248,0.0004384137335399805
-0.4484345015795611,-0.4484345015795611,0.9998249872488433,0.00043804532894420296
-0.44682367922090405,-0.44682367922090405,0.9998590992712592,0.00043811297742498475
-0.4453061540447038,-0.4453061540447038,1.0005329690990916,0.00044026534220949524
-0.4437060023803042,-0.4437060023803042,1.0000788753894212,0.000438239088651402
-0.44217216841000206,-0.44217216841000206,0.9997629733812232,0.0004379545875489993
-0.44056133292610866,-0.44056133292610866,0.9999904121667882,0.0004378560238686571
-0.43904377993344496,-0.43904377993344496,1.000066771951478,0.0004401800484713287
-0.4374436383070474,-0.4374436383070474,0.9999612372343538,0.0004381605440185846
-0.43590983569058606,-0.43590983569058606,1.0004107774445585,0.0004381494021636921
-0.434298987007503,-0.434298987007503,1.0002980111755715,0.0004381370152721939
-0.4327814061816525,-0.4327814061816525,1.0000674979616178,0.00043974757180885606
-0.4311812746268515,-0.4311812746268515,0.9993898922123776,0.00043791144369776275
-0.4296475034482114,-0.4296475034482114,0.9997301468962192,0.0004378049571395048
-0.42803664148532333,-0.42803664148532333,0.9998279123234909,0.00043765119591610636
-0.426519032799456,-0.426519032799456,1.0004070897409538,0.0004397851234884392
-0.4249189113565194,-0.4249189113565194,1.0001080195299434,0.00043778171551469604
-0.4233851716794561,-0.4233851716794561,1.0002273638953725,0.00043792541297790267
-0.42177429635954694,-0.42177429635954694,1.0002002774906191,0.0004379174090075796
-0.42025665979354015,-0.42025665979354015,0.9992355948074522,0.000439289932332846
-0.4186565484892526,-0.4186565484892526,0.9997035495187838,0.00043747161339079924
-0.41712284038781033,-0.41712284038781033,1.0005676856796513,0.0004376812624493507
-0.4155119516133823,-0.4155119516133823,1.0003271555129378,0.000437727492843283
-0.41399428716044895,-0.41399428716044895,0.9997510011944281,0.0004391538171506731
-0.4123941860420359,-0.4123941860420359,1.000305255834115,0.00043748364761319925
-0.4108605095899634,-0.4108605095899634,0.9994361195156187,0.00043728968953641304
-0.4092496072737276,-0.4092496072737276,0.9994619394763464,0.0004372262291916105
-0.40773191491032323,-0.40773191491032323,0.9999966246983563,0.00043859985962756273
-0.4061318240079004,-0.4061318240079004,1.0001397946831068,0.00043731700642159964
-0.40459817927256836,-0.40459817927256836,0.9999328023557144,0.0004372561052264235
-0.40269195827647764,-0.40269195827647764,1.0001922503959186,0.00043856934971284726
-0.40102173770355876,-0.40102173770355876,1.0006236642733353,0.0004371826911720112
-0.39948811840661164,-0.39948811840661164,0.9996923204649398,0.0004369614456252506
-0.3978624155674879,-0.3978624155674879,0.9996063757890162,0.0004382506821419199
-0.3962740277866715,-0.3962740277866715,0.9997759907980214,0.00043725932893245556
-0.3947593764320686,-0.3947593764320686,0.9999588829064328,0.00043698379060566226
-0.39322578899289057,-0.39322578899289057,1.0000007941933178,0.00043713597232932866
-0.3916000443050393,-0.3916000443050393,1.0002877954902076,0.00043803953057454354
-0.3900116846833043,-0.3900116846833043,1.0000975153759435,0.00043693248345979375
-0.3884970156107329,-0.3884970156107329,0.9994971478562379,0.0004367322315306705
-0.3869634600999007,-0.3869634600999007,1.0003642331715505,0.00043695404068183933
-0.3853376734457242,-0.3853376734457242,1.0000647629654744,0.00043794974654993567
-0.3837493419930752,-0.3837493419930752,1.0001417868309777,0.0004368330320466092
-0.38223465519588445,-0.38223465519588445,0.9993417492109608,0.00043655205387622644
-0.38070113174434256,-0.38070113174434256,1.0002565118995737,0.0004368128443277022
-0.37907530298959957,-0.37907530298959957,0.9999085268538771,0.00043793714456927534
-0.3774869997160636,-0.3774869997160636,0.9996812012470008,0.0004367145380068901
-0.3759722952244715,-0.3759722952244715,1.000888175854889,0.0004367399744970208
-0.37443880389942025,-0.37443880389942025,0.9999509864428319,0.00043667107410974804
-0.37281293294329315,-0.37281293294329315,1.000166039558368,0.00043780278219426795
-0.37122465786242176,-0.37122465786242176,0.9999633500182746,0.0004365373157296464
-0.3697099357100001,-0.3697099357100001,0.9997694986236256,0.0004365542536995961
-0.3679660582432575,-0.3679660582432575,0.9998542791890355,0.00043664680840298535
-0.3661177320228603,-0.3661177320228603,0.9999177186412693,0.0004353103788503518
-0.364596702665483,-0.364596702665483,0.999652520307594,0.0004376790915118921
-0.36306641591121436,-0.36306641591121436,0.9998834526388268,0.00043648847742537025
-0.36135521061900133,-0.36135521061900133,0.9998269574725231,0.00043628570703972767
-0.359840460191765,-0.359840460191765,1.0001041953715808,0.0004363902439871154
-0.3583343335429959,-0.3583343335429959,1.0005726445081868,0.0004375206982695053
-0.35680408959143506,-0.35680408959143506,1.0003950320246373,0.00043646628798794083
-0.355092869884038,-0.355092869884038,0.9994962397976046,0.00043618492430192596
-0.3535781018328862,-0.3535781018328862,0.9999073158073319,0.0004362326627365707
-0.3520719648573049,-0.3520719648573049,1.0001202401348506,0.0004372568278172576
-0.35054176382268454,-0.35054176382268454,0.9996255157170323,0.0004362019771382107
-0.3488305295958412,-0.3488305295958412,1.0001201311627228,0.00043627965313238143
-0.3473157439242868,-0.3473157439242868,0.9999450506609863,0.00043621341035186573
-0.3457995768875094,-0.3457995768875094,1.0001803677023111,0.00043745030931030505
-0.3442293401352913,-0.3442293401352913,0.9996164778250769,0.00043612800116266755
-0.34250625181012995,-0.34250625181012995,1.0003256626679389,0.0004363125160608434
-0.34100009615269755,-0.34100009615269755,1.0003832481867974,0.0004372572542038526
-0.3394699727153693,-0.3394699727153693,0.9996489865535985,0.0004363346846469055
-0.33795910592471046,-0.33795910592471046,0.999855587648127,0.0004362989380549859
-0.3362438947345936,-0.3362438947345936,1.0003558043614083,0.0004362895501127333
-0.33473772864607554,-0.33473772864607554,1.0003963464735515,0.0004370952910017462
-0.3332076485557195,-0.3332076485557195,0.999248488339109,0.0004361119178188114
-0.3316967668660709,-0.3316967668660709,0.9999354866091258,0.00043604017114837147
-0.32998153813600767,-0.32998153813600767,1.0006151390767495,0.00043634353806819423
-0.32847536158971025,-0.32847536158971025,0.998988589859889,0.0004368612634408298
-0.32694532496384454,-0.32694532496384454,1.000407846394451,0.0004364040500516479
-0.3254344282710008,-0.3254344282710008,1.0006539593886334,0.0004363353705830627
-0.32371918200781236,-0.32371918200781236,1.0000855770870725,0.0004363053558910176
-0.32221299498673944,-0.32221299498673944,1.0001983416932554,0.00043711995410947716
-0.3206830019665972,-0.3206830019665972,0.9999310223164418,0.00043611517991954524
-0.31917209014293346,-0.31917209014293346,0.9991062903164012,0.000436099866282493
-0.31745682637342726,-0.31745682637342726,0.9997451284199469,0.00043615089902654944
-0.3159506288205421,-0.3159506288205421,1.000383946226426,0.0004370063236162836
-0.31442067958744246,-0.31442067958744246,0.9998688131514368,0.0004364527419839081
-0.31290975248181213,-0.31290975248181213,1.0004511770068365,0.00043632928621643283
-0.31119447121940313,-0.31119447121940313,0.9999412403175161,0.00043628243217577945
-0.30968826311468545,-0.30968826311468545,1.0003726493754495,0.00043697231833313523
-0.3081583578331447,-0.3081583578331447,0.9999198864275858,0.0004361568204771439
-0.3066474152976639,-0.3066474152976639,0.9999019259498081,0.0004361601950002802
-0.30493211656933,-0.30493211656933,1.0007929540388834,0.0004360874716972051
-0.3034258978621779,-0.3034258978621779,1.000158771262805,0.0004368008989153139
-0.30189603669369947,-0.30189603669369947,0.9993159152881066,0.0004360751984673238
-0.3003850785872828,-0.3003850785872828,0.999695477784502,0.00043615132542007193
-0.2986697624164208,-0.2986697624164208,1.0004184177681725,0.00043599219476486456
-0.2971635331002517,-0.2971635331002517,0.9999147667198915,0.0004369263988334169
-0.29563371620253065,-0.29563371620253065,1.0002611780039803,0.00043602557023833565
-0.29412274237067776,-0.29412274237067776,1.0003324292749143,0.00043606763398638287
-0.29240740878427685,-0.29240740878427685,0.9999129009119573,0.0004358345708398781
-0.2908911491046865,-0.2908911491046865,0.9999915139143024,0.00043684398587501413
-0.2893212979237546,-0.2893212979237546,0.9996386092944916,0.0004360409620209998
-0.2877602097558224,-0.2877602097558224,1.0000374528715705,0.0004359328820480704
-0.28609495720659195,-0.28609495720659195,1.000397204869637,0.00043587433745937907
-0.2845887065346119,-0.2845887065346119,1.000254387395591,0.0004368293584941181
-0.28305897875297886,-0.28305897875297886,0.999919487958701,0.00043612334082009097
-0.28149787453370434,-0.28149787453370434,0.9998913621356543,0.00043589276283257153
-0.27983260461256804,-0.27983260461256804,0.9996613767988132,0.0004358119272877004
-0.27832634322393235,-0.27832634322393235,1.000315401185386,0.00043645053233481567
-0.2767966602606634,-0.2767966602606634,0.9997810447028878,0.0004357070909197518
-0.2752355398221198,-0.2752355398221198,1.0000011488604574,0.0004357791306574312
-0.2735702525391616,-0.2735702525391616,0.9998613904656318,0.000435687749112437
-0.2720639803902941,-0.2720639803902941,1.0007482394716978,0.00043633720328341616
-0.2705343424503212,-0.2705343424503212,0.9998067819819756,0.00043571424892350385
-0.26897320562451343,-0.26897320562451343,1.0004557557739102,0.00043575080654865837
-0.26730790100658625,-0.26730790100658625,0.9995449210940375,0.0004356693984413953
-0.2658016180706454,-0.2658016180706454,1.0002169259060492,0.00043651664588476876
-0.26427202534217714,-0.26427202534217714,0.9994905148456826,0.00043588819523019735
-0.2627108719678176,-0.2627108719678176,0.999991165308891,0.00043592424759776203
-0.26104555002167446,-0.26104555002167446,0.9995764423643049,0.00043581851419606044
-0.2595392562481379,-0.2595392562481379,1.0002788977642703,0.0004366028989175857
-0.2580097089461219,-0.2580097089461219,1.000189344454709,0.00043607374697930245
-0.2564485387949048,-0.2564485387949048,1.0002461529168536,0.00043618275091781314
-0.25478319957084067,-0.25478319957084067,1.0001416118510567,0.000436019761112421
-0.2532768949498404,-0.2532768949498404,1.000179280484526,0.00043668448742187
-0.2517473932622806,-0.2517473932622806,1.0001479269358744,0.0004361990500354442
-0.2501862061795805,-0.2501862061795805,0.9993865645187417,0.0004360955196610301
-0.24852084968442795,-0.24852084968442795,0.9999736555668184,0.00043625061844150044
-0.24701453417212632,-0.24701453417212632,1.0004892396364962,0.0004366869969220085
-0.24548507832432734,-0.24548507832432734,0.9996384541317285,0.00043599315161592866
-0.24396760682129753,-0.24396760682129753,1.000275503081833,0.00046317717609392964
-0.24271513903305503,-0.24271513903305503,0.9997592562762948,0.0004625549941772901
-0.24142469349948215,-0.24142469349948215,1.000385000262418,0.00046201755612630576
-0.2399997906670933,-0.2399997906670933,0.9995618728372323,0.00046153333744124804
-0.2386070453974071,-0.2386070453974071,0.9994019736208115,0.0004609874076359699
-0.23735457767634216,-0.23735457767634216,1.00052971458744,0.0004606400720703695
-0.23610210998896264,-0.23610210998896264,1.0003143253097055,0.00046013679271602074
-0.2348496423183633,-0.2348496423183633,0.9999402424519266,0.00045975064724143404
-0.23359717465441462,-0.23359717465441462,1.0003014845800395,0.00045944274083610184
-0.232344707010634,-0.232344707010634,0.9997694104035165,0.00045908196664774803
-0.23109223939038656,-0.23109223939038656,1.0003034241800137,0.00045884338064264605
-0.2298397717801663,-0.2298397717801663,0.9994437047401187,0.0004583906721163532
-0.22858730419695802,-0.22858730419695802,0.9995902574443619,0.00045823926623540876
-0.227334836630439,-0.227334836630439,1.00014139898382,0.00045801659932875936
-0.22608236908743037,-0.22608236908743037,1.0000001765888373,0.0004576861682919995
-0.2248299015612588,-0.2248299015612588,0.9998842517679636,0.0004574830284041543
-0.22357743405858627,-0.22357743405858627,1.0005095089441935,0.00045742944481426374
-0.22232496656594095,-0.22232496656594095,1.0003437366909835,0.0004572993642067912
-0.22107249910364998,-0.22107249910364998,1.0001029784088957,0.00045700185847538427
-0.21982003165804825,-0.21982003165804825,0.9999547368493417,0.0004568518448082392
-0.2185675642259639,-0.2185675642259639,1.0002367654137707,0.00045646407606923025
-0.2173150968173559,-0.2173150968173559,1.0004415366926125,0.000456280836737387
-0.2160626294322924,-0.2160626294322924,0.999459128869152,0.00045604925310976566
-0.21481016206064396,-0.21481016206064396,0.9995670511859039,0.0004560631905813316
-0.21355769470916358,-0.21355769470916358,0.9998503472365456,0.00045590254649497563
-0.21230522738444507,-0.21230522738444507,0.9998577255959,0.00045567219454679985
-0.21105276007327803,-0.21105276007327803,1.0002713960102954,0.000455513410300548
-0.2098002927889752,-0.2098002927889752,1.000174385469292,0.0004552343024331303
-0.20854782551142534,-0.20854782551142534,0.9994259696386936,0.0004551086017576545
-0.20729535826741313,-0.20729535826741313,1.0002976513093895,0.00045507937890431726
-0.205827823390257,-0.205827823390257,0.9996710725526665,0.0004724791088912851
-0.20431562048569277,-0.20431562048569277,1.0000882388892778,0.0004543656414229098
-0.20272810457014429,-0.20272810457014429,1.0011100413035272,0.0004542283511460248
-0.20116281049529333,-0.20116281049529333,1.0009183379239186,0.0004542579488575267
-0.19956546096686906,-0.19956546096686906,0.9992542419080888,0.00047123602413866057
-0.19805323733427257,-0.19805323733427257,0.9996203480303661,0.0004537567393721054
-0.19646575000444955,-0.19646575000444955,1.000047574675929,0.0004535041635326888
-0.19490043881640987,-0.19490043881640987,1.0000051437297355,0.00045333258198658883
-0.193303098748288,-0.193303098748288,0.9995304506189905,0.0004696745719147846
-0.19179085446166938,-0.19179085446166938,1.0003741219804374,0.0004530332620300407
-0.19020339572083458,-0.19020339572083458,1.0000366345948941,0.00045255096034647863
-0.18863806741286454,-0.18863806741286454,0.999845592189247,0.0004523929959534548
-0.1870407367514872,-0.1870407367514872,1.0002211434610593,0.00046758712539740675
-0.18552847184774918,-0.18552847184774918,1.0004789221580572,0.0004517934514967793
-0.18394104172957668,-0.18394104172957668,1.000234782214632,0.0004513834701535413
-0.18232559764726375,-0.18232559764726375,1.0000437952837185,0.00045092661419163254
-0.18071896084021546,-0.18071896084021546,1.000324549907127,0.00045087007722260626
-0.17917520748420657,-0.17917520748420657,1.0001467437311948,0.0004646738383348838
-0.1776285892955684,-0.1776285892955684,0.9992490588245195,0.000450009862367027
-0.17606322688869797,-0.17606322688869797,0.9994039535511412,0.00044998325393082487
-0.17445657873361142,-0.17445657873361142,0.9999279455485229,0.0004498266733856526
-0.17291284599136816,-0.17291284599136816,1.0009092312129586,0.00046274981778130983
-0.171366235878736,-0.171366235878736,0.9996465585715372,0.0004490898847777229
-0.1698008564560496,-0.1698008564560496,0.9997816846527906,0.00044905803041639554
-0.16819419690241375,-0.16819419690241375,1.0004047911628369,0.000449095294468998
-0.1666504847235956,-0.1666504847235956,1.0000204542690596,0.0004612392166279115
-0.16510388276096818,-0.16510388276096818,1.00036609767546,0.0004486717681719938
-0.16353848633930285,-0.16353848633930285,1.0003955433598584,0.0004485781755608699
-0.1619318153568429,-0.1619318153568429,0.9991740983034051,0.00044855065129843124
-0.16038812368416303,-0.16038812368416303,1.0001929677738466,0.0004608042130138647
-0.15884152992861117,-0.15884152992861117,1.0000382962630523,0.00044834433524899473
-0.15727611655162263,-0.15727611655162263,0.9996172854818074,0.00044843606567786313
-0.15566943410005935,-0.15566943410005935,0.9995551997776859,0.00044831814229217204
-0.15412576289000982,-0.15412576289000982,1.0000833841411472,0.00046058929559214957
-0.15257917740208313,-0.15257917740208313,1.0001695821602534,0.00044840611811395524
-0.15101374709992116,-0.15101374709992116,1.0007504592854901,0.00044796912308025437
-0.14940705313229047,-0.14940705313229047,1.0001971431844905,0.00044807328131300924
-0.14786340233774808,-0.14786340233774808,1.0001143668281238,0.0004595282341098527
-0.14631682517443778,-0.14631682517443778,0.9996369506538588,0.0004475335476852191
-0.14475137796400758,-0.14475137796400758,0.9994251342052264,0.00044751210547830584
-0.14314467245673085,-0.14314467245673085,1.000009022524429,0.00044756583104149465
-0.14160104203413085,-0.14160104203413085,1.000269905540614,0.00045862272399006647
-0.14005447326603643,-0.14005447326603643,1.0002491742126,0.00044711412989012115
-0.138489009177556,-0.138489009177556,0.9997134065581978,0.00044712295681597936
-0.13688229207008362,-0.13688229207008362,1.000194710627078,0.00044697853481666914
-0.13533868198246637,-0.13533868198246637,1.0007758728094813,0.0004575247295405223
-0.13379212165318677,-0.13379212165318677,1.000021345496859,0.00044651295210344934
-0.13222664072693532,-0.13222664072693532,0.998756290757953,0.0004465853538337023
-0.13061991199260775,-0.13061991199260775,0.9997160979045152,0.00044651538322843496
-0.1290763221860402,-0.1290763221860402,1.0007653594019297,0.00045648333408132525
-0.12752977035615914,-0.12752977035615914,0.9998403447969755,0.00044602657434039336
