time,time,flux,flux_err
-0.4998988855465238,-0.4998988855465238,0.9997603920492167,0.0003863935448319007
-0.4997474888926566,-0.4997474888926566,0.9998622050602791,0.0004291913782407582
-0.49959148428145755,-0.49959148428145755,1.0002597818172965,0.0004187058946009419
-0.49942803148733217,-0.49942803148733217,1.000050669132688,0.00040152677419501043
-0.49912840559627514,-0.49912840559627514,1.0001225163838265,0.00040035564004180913
-0.4989733096808777,-0.4989733096808777,1.000001296636184,0.00038424481589467046
-0.4988266864558682,-0.4988266864558682,1.0002169527932725,0.00039144312531689954
-0.4986652840889292,-0.4986652840889292,0.9999294940042412,0.00040709645970531756
-0.498424374035676,-0.498424374035676,1.0000527375056159,0.00039001978363083407
-0.49826783702810645,-0.49826783702810645,1.0004675571864499,0.00037853649427014517
-0.49815523539800777,-0.49815523539800777,0.9996554229065946,0.00039049803633354113
-0.4980316556247999,-0.4980316556247999,0.9995569443987222,0.00040627472694459527
-0.497873204073403,-0.497873204073403,0.9997297932944399,0.00036751500545116297
-0.49770840751371,-0.49770840751371,1.0003798315484829,0.0003768422711822535
-0.49758299838358655,-0.49758299838358655,0.9996862734596021,0.000389218733307259
-0.49754820612070033,-0.49754820612070033,1.0000788670993792,0.00036869780839074754
-0.4974469587265048,-0.4974469587265048,1.0000815627914594,0.0003775931578799715
-0.4972784127901832,-0.4972784127901832,1.0002769651198054,0.0003935292511842201
-0.497150247785612,-0.497150247785612,1.0000702380802085,0.00041732771049094255
-0.4969960633803566,-0.4969960633803566,0.9996823413807439,0.00037598028999365066
-0.49688529534396364,-0.49688529534396364,1.0000242193086977,0.00035358563691770663
-0.496737098772428,-0.496737098772428,1.0002033913732904,0.00040706108736281177
-0.4966031902185932,-0.4966031902185932,0.9999269128087327,0.0003656653823056121
-0.49650127736022115,-0.49650127736022115,0.999644918101934,0.0003895834588707555
-0.49631594773891263,-0.49631594773891263,1.0004640451493851,0.0003980541475561864
-0.49621229618496726,-0.49621229618496726,0.9997760825357103,0.00034564356899194153
-0.4960723279160447,-0.4960723279160447,0.9993732219942864,0.000377584587845284
-0.4959531938977307,-0.4959531938977307,0.9996961109634886,0.00041060936452696285
-0.49578495962632585,-0.49578495962632585,0.9998950657315657,0.00036867744525461213
-0.4956470054108649,-0.4956470054108649,0.9997161278186197,0.0003964994225587212
-0.49542485120546187,-0.49542485120546187,0.9999912505373068,0.00036217295284801795
-0.4952922310119902,-0.4952922310119902,0.9999075661151003,0.0003335287020561935
-0.4951512194624229,-0.4951512194624229,0.9999141633680235,0.00041050809121342556
-0.49493931487522785,-0.49493931487522785,1.0000037279701008,0.00037007472504151735
-0.49476320509347715,-0.49476320509347715,1.0002705038499358,0.00038130892965641437
-0.494601397603401,-0.494601397603401,1.0000720736152366,0.00039602337379459853
-0.49446526233150506,-0.49446526233150506,1.000187411263926,0.00038961345736766205
-0.49430852293371574,-0.49430852293371574,1.00003916759217,0.000381900709966585
-0.49411288549745225,-0.49411288549745225,1.0002889723362327,0.000366838993833621
-0.49403276543089303,-0.49403276543089303,0.9996793557527546,0.0003614750896046993
-0.49395969928373235,-0.49395969928373235,0.9996689910572488,0.00041359956644800385
-0.4937906246552302,-0.4937906246552302,1.0004865086581536,0.0003870718323508461
-0.4936985993379494,-0.4936985993379494,0.999778545544807,0.0003684415942990168
-0.49359752012533137,-0.49359752012533137,0.9999758690483322,0.00035489616453479567
-0.4934820871138072,-0.4934820871138072,0.9994028205017559,0.00038658088296549643
-0.4933617221278837,-0.4933617221278837,0.9997921931198286,0.0003561556810184229
-0.49323072700281045,-0.49323072700281045,0.9999964052636783,0.0004090727996569064
-0.49308437013605727,-0.49308437013605727,1.0001845935024036,0.00034921727370658623
-0.49294643176181124,-0.49294643176181124,1.0000926592434307,0.0003896767981283269
-0.492795210301847,-0.492795210301847,1.0000211266960266,0.0003648160818803905
-0.49270813735201957,-0.49270813735201957,0.9998544011685491,0.00036929809981913993
-0.4924962358782068,-0.4924962358782068,0.9999812486549601,0.00041492932473593787
-0.4922368477258715,-0.4922368477258715,0.9998800128542555,0.00037565084310307303
-0.49208845564571674,-0.49208845564571674,0.9999264595625494,0.00040368239321625875
-0.49193715572182556,-0.49193715572182556,1.000359456250064,0.00040112127103508017
-0.4916260179496021,-0.4916260179496021,1.0000291005974138,0.00038894548294242566
-0.49144614231117884,-0.49144614231117884,0.9998643002793359,0.00039263544331356496
-0.49132292320282434,-0.49132292320282434,1.000227775369865,0.0003553775523444767
-0.49120164062187543,-0.49120164062187543,1.0004605498400594,0.0004184140431879547
-0.4910730541480007,-0.4910730541480007,1.0000795447958064,0.0003839098587900797
-0.4909206079581054,-0.4909206079581054,0.9999777520086927,0.0003685229855688528
-0.4907938481563178,-0.4907938481563178,1.0000993539043297,0.0003659344494440094
-0.49075134026788875,-0.49075134026788875,1.0002706671567276,0.0003918075989572621
-0.49069175693002764,-0.49069175693002764,1.0000847632633332,0.00034527400067402644
-0.49055833131133114,-0.49055833131133114,1.000038505422542,0.00037140804214000356
-0.49041484053595924,-0.49041484053595924,0.9999238819623735,0.00040800817901403874
-0.49025312188314274,-0.49025312188314274,0.999816178019962,0.0003804072429402461
-0.4901052612593048,-0.4901052612593048,0.999972895820458,0.0003882704906314179
-0.4900227161240764,-0.4900227161240764,0.999929323208525,0.0003764180588652502
-0.4898670726448472,-0.4898670726448472,0.9997789356095715,0.0003908618165780229
-0.48977429110891535,-0.48977429110891535,1.000147810613783,0.00037373099446137166
-0.4895676135645772,-0.4895676135645772,0.9999852070036764,0.00038789789273517474
-0.48936904857910124,-0.48936904857910124,0.9999767545116216,0.0003665354344188775
-0.4892156695008453,-0.4892156695008453,1.0001887214585445,0.00039998396129658706
-0.4891333523017238,-0.4891333523017238,1.0002283488898782,0.0004279582985928294
-0.4889878449161188,-0.4889878449161188,0.9997620562099637,0.0003750106027163496
-0.48885085928632177,-0.48885085928632177,0.9997187307372147,0.0003857979074806279
-0.48861214173666667,-0.48861214173666667,0.9999332418316607,0.000374255170988018
-0.48849288475539654,-0.48849288475539654,0.9999413231681885,0.00033367650653176074
-0.48834242228040237,-0.48834242228040237,1.0002194291771833,0.0003746508485079923
-0.4881378585872881,-0.4881378585872881,1.0001523892610678,0.00037197715675001255
-0.4879746343154693,-0.4879746343154693,1.0006342158715298,0.00037299738162195823
-0.4878528950292093,-0.4878528950292093,0.9991174233209834,0.000380870051197578
-0.4877402082551271,-0.4877402082551271,1.0000850821477205,0.0003918631687115982
-0.4876484370135586,-0.4876484370135586,0.9999752287057213,0.0003744250323573321
-0.4874912291605142,-0.4874912291605142,1.0000659193650858,0.00041606060252292657
-0.4872931707825046,-0.4872931707825046,0.9998583868505666,0.00035741006905886074
-0.4872196922311559,-0.4872196922311559,1.0004422721792694,0.00038311416045688914
-0.4871074465525453,-0.4871074465525453,1.0000147535688757,0.0004038782474312647
-0.4869681440817658,-0.4869681440817658,0.9997991597203771,0.00037212438571022444
-0.4868902875998174,-0.4868902875998174,0.9994468834634572,0.00036912692725517613
-0.48680506897653686,-0.48680506897653686,1.0000469616552536,0.0003677812060517379
-0.48671644653222756,-0.48671644653222756,0.9999374753607053,0.00040591951560213534
-0.4865842596947914,-0.4865842596947914,1.0005065346940303,0.00035446087194661107
-0.48639972993332775,-0.48639972993332775,1.0000425236826629,0.0003699715917900968
-0.486266326950863,-0.486266326950863,0.9997176450371729,0.0003897694464771633
-0.4861176525533665,-0.4861176525533665,0.9995399282872557,0.00037149219958866175
-0.48600040026358327,-0.48600040026358327,0.999831348280672,0.0003638063825106722
-0.4859167251830513,-0.4859167251830513,1.0004921790393826,0.0003774051573600248
-0.48570881874475164,-0.48570881874475164,1.0006905099436625,0.0004089940595193457
-0.48554560331249375,-0.48554560331249375,0.9997228359779733,0.00036492299028075546
-0.48533274147266636,-0.48533274147266636,0.9999759940059432,0.0004021183165127711
-0.4852111404921743,-0.4852111404921743,0.9996337503761212,0.0003914069609766204
-0.48497896299522836,-0.48497896299522836,1.000035654816127,0.0004084573527222472
-0.48464157535199776,-0.48464157535199776,0.9993768484234457,0.00038891399729909856
-0.48453713293711187,-0.48453713293711187,0.9996434806469869,0.0004284793645894412
-0.4843811078899307,-0.4843811078899307,1.000133491296873,0.00038297392196139275
-0.48427698594678076,-0.48427698594678076,1.0001389382558534,0.0003924348826477386
-0.48417805501958355,-0.48417805501958355,1.000469835101495,0.00037192955397520816
-0.4840382006703294,-0.4840382006703294,0.9997822555205135,0.00036801022485771984
-0.48397548708962856,-0.48397548708962856,0.9999699445768954,0.00037313333981261196
-0.48392099726188464,-0.48392099726188464,0.9995371514008179,0.0003970133365713487
-0.4837859801540617,-0.4837859801540617,1.0000600357272305,0.0003533347921200253
-0.4836273917615472,-0.4836273917615472,1.0000781135782142,0.000392643535991613
-0.48348558336147107,-0.48348558336147107,0.9996233325672472,0.00038674752326270205
-0.48338293839333346,-0.48338293839333346,0.9997789286128599,0.0003458203528248986
-0.48324206594843416,-0.48324206594843416,1.0001592243075974,0.0003768517282843702
-0.48306313144712476,-0.48306313144712476,0.9997669321940599,0.0003867946109583795
-0.4829743788854103,-0.4829743788854103,1.000330726996478,0.0003756351924216206
-0.48283002520547597,-0.48283002520547597,1.0001383368583956,0.0004089158522575573
-0.48256592153411476,-0.48256592153411476,1.0000411780669698,0.0003956641515108561
-0.482465158229752,-0.482465158229752,0.9997617286624058,0.0003807092906931966
-0.4823913624793931,-0.4823913624793931,1.0003716756032845,0.0003741360550810082
-0.4822566446760902,-0.4822566446760902,1.0003658205335635,0.0004035320031275536
-0.48210291764480645,-0.48210291764480645,0.9998546649196239,0.0003716561867584598
-0.4819228251224558,-0.4819228251224558,1.0005921949651604,0.0004178536174343204
-0.48177697473292935,-0.48177697473292935,1.000200889286805,0.00036517683151317037
-0.48163722608296666,-0.48163722608296666,0.999797137889062,0.0003430820703319504
-0.48151638780909706,-0.48151638780909706,1.0000562348348823,0.0004032039889058983
-0.481339257057698,-0.481339257057698,1.0000730208673878,0.0003696322824780649
-0.4811693422612734,-0.4811693422612734,0.9995720077346885,0.00035568611686200523
-0.4810451973113231,-0.4810451973113231,1.0005596744168523,0.00038694651702794573
-0.4809066770743812,-0.4809066770743812,1.0001777966468137,0.00038789155874021915
-0.48072863818524636,-0.48072863818524636,0.9997887706683904,0.0004217866074740541
-0.4805578418454388,-0.4805578418454388,1.000040653419898,0.0003565917614607607
-0.48045650301137355,-0.48045650301137355,0.9998457924897334,0.0003569850457593306
-0.4804195261320274,-0.4804195261320274,1.0000858497298233,0.0003965112559520606
-0.48032575069155425,-0.48032575069155425,0.9997862697020246,0.00041354592035675893
-0.48019669661225634,-0.48019669661225634,0.999912354704853,0.00039045030772815934
-0.480105363977782,-0.480105363977782,1.0000657143301104,0.0004591388495283192
-0.4800062441674527,-0.4800062441674527,0.9999616325248406,0.00039194005244730867
-0.4799025966822228,-0.4799025966822228,0.9999769099351841,0.0004159983863767003
-0.47972462520410775,-0.47972462520410775,0.9997792952813315,0.00036663758546469415
-0.4795562274004624,-0.4795562274004624,1.0002048723995416,0.00038437993661559727
-0.4793764010944869,-0.4793764010944869,1.0000828727780624,0.0003770234586155535
-0.47923944869544355,-0.47923944869544355,1.000370837597076,0.00038056060977515295
-0.47915985206636835,-0.47915985206636835,0.9997424692127497,0.00036426485753872037
-0.4789458083425416,-0.4789458083425416,1.000272928528244,0.0004008319994877512
-0.47872471306327496,-0.47872471306327496,0.9998114617903997,0.0003736299708408903
-0.47850668657629286,-0.47850668657629286,1.0000658729747154,0.0004111464364343974
-0.4783955323480768,-0.4783955323480768,0.9997371175320389,0.00037841355295416273
-0.4782551350261201,-0.4782551350261201,0.9993746735441442,0.0004002313580986503
-0.47786598992606744,-0.47786598992606744,1.0001914283107904,0.0003894405871332015
-0.47772553483519004,-0.47772553483519004,0.9999623943404197,0.0003815847556724066
-0.4775657965954451,-0.4775657965954451,0.9998409633334658,0.0003661664890791035
-0.4774634914378112,-0.4774634914378112,0.9997742781778438,0.0004001781104753167
-0.4773379394573567,-0.4773379394573567,1.0000751138441832,0.0003682889448587447
-0.4772241771323024,-0.4772241771323024,1.0003202594459766,0.0003810163211505594
-0.4771701741454308,-0.4771701741454308,0.9998250838535492,0.0003417356274705901
-0.4771155304981221,-0.4771155304981221,0.9995995875373836,0.00038968194651738347
-0.47696089280652815,-0.47696089280652815,1.0001690406047927,0.0003850589387873651
-0.4768253387002915,-0.4768253387002915,0.9998096946285138,0.0004192881394168074
-0.4766836112074088,-0.4766836112074088,0.9994889634735852,0.00036573994668605725
-0.47658418476057707,-0.47658418476057707,1.0000095349409752,0.0003537867162789727
-0.4764541530545102,-0.4764541530545102,0.999590788169068,0.00037975618004558594
-0.47635866723940123,-0.47635866723940123,0.9997204762171789,0.0003751714802487273
-0.4762430448208761,-0.4762430448208761,1.0002493552075191,0.00039256550049582647
-0.476170339568489,-0.476170339568489,1.000086462852784,0.0003839031934502559
-0.47606885089116985,-0.47606885089116985,1.000306466152272,0.00041202404316452413
-0.47585094988535276,-0.47585094988535276,1.0003514555502213,0.0003907826427118592
-0.4756698779798171,-0.4756698779798171,1.0000408676602357,0.0003842923611778084
-0.47555223586023204,-0.47555223586023204,0.9995273952368631,0.00038123861884935284
-0.4754100341524463,-0.4754100341524463,0.999550635659779,0.00039895197888824014
-0.47529392312426355,-0.47529392312426355,0.999434576551417,0.00037161570522000755
-0.4750894984128536,-0.4750894984128536,0.9998893165485667,0.00039284128177849545
-0.4749349975143559,-0.4749349975143559,0.9998033611690819,0.0003609720931628512
-0.47477191803918684,-0.47477191803918684,1.0002536905051287,0.00041683918290241474
-0.4746007234112767,-0.4746007234112767,1.0001333167219415,0.0003592196503499062
-0.4744315145217115,-0.4744315145217115,0.9995432528425544,0.00038706320746991163
-0.474306199815328,-0.474306199815328,1.0000802709688783,0.0003948894275547299
-0.4742436207627179,-0.4742436207627179,1.0001774817158826,0.0003821747910130737
-0.4740073784341803,-0.4740073784341803,0.9993129776795071,0.00039311398445911574
-0.4738317011448089,-0.4738317011448089,1.0003168480402806,0.00038013376983542767
-0.4736762337721302,-0.4736762337721302,0.999794219521618,0.000368765277819609
-0.47361400659865466,-0.47361400659865466,1.0003724655324457,0.0003572179366750666
-0.4734822070633527,-0.4734822070633527,0.9993215373327665,0.0004006443711529791
-0.47335984395976993,-0.47335984395976993,1.0000749984050525,0.0003727816412746061
-0.47328429240369585,-0.47328429240369585,1.0006466129629115,0.0005089313272687724
-0.4731018967635464,-0.4731018967635464,0.9994579433593245,0.00041717925661185405
-0.4729464059215388,-0.4729464059215388,1.0001895416329059,0.00035830226075834017
-0.4727989844948752,-0.4727989844948752,1.0004522535981226,0.00037656664875955004
-0.47272329042170896,-0.47272329042170896,1.0001947995918121,0.00037392170416274926
-0.4725692173880816,-0.4725692173880816,1.0001690922235729,0.0003753187821421857
-0.4724429855428752,-0.4724429855428752,1.0000187559611782,0.00038722949842237976
-0.47232381141293445,-0.47232381141293445,0.9998521829282782,0.0003702909165318828
-0.47213844996440457,-0.47213844996440457,1.0003461116386805,0.000361820047900219
-0.4719491916432162,-0.4719491916432162,1.000286738637723,0.00036216442068316235
-0.4717008195591916,-0.4717008195591916,1.0001245650577169,0.0003692273713208071
-0.4715670931102068,-0.4715670931102068,0.9999083900381713,0.00036391601327346977
-0.4714499600318959,-0.4714499600318959,1.0001157663166051,0.000386019061650967
-0.4712956823517743,-0.4712956823517743,1.0003183729039478,0.0004240716076039497
-0.4711001446659793,-0.4711001446659793,0.999500585842689,0.0003898437998025127
-0.47094564188300864,-0.47094564188300864,1.0000285921740335,0.0003850742574443212
-0.4708098819675797,-0.4708098819675797,1.0005605918673386,0.00036347368065484467
-0.4707250295643462,-0.4707250295643462,0.9999996772521402,0.0004073703460862175
-0.4706275813507091,-0.4706275813507091,1.000094218165692,0.0003712610666618887
-0.4704762373366975,-0.4704762373366975,1.0001199596179666,0.00038524851142705704
-0.4704048402381886,-0.4704048402381886,1.0000859392640695,0.00036155061421229797
-0.4703394887561444,-0.4703394887561444,1.0005849255210038,0.00036637103895017945
-0.4702338435272395,-0.4702338435272395,0.9997669275257735,0.00037206813419999706
-0.4701382395352994,-0.4701382395352994,1.0003922095313662,0.0003897217296841698
-0.4700072745341458,-0.4700072745341458,1.000210929786493,0.00037358811915556215
-0.46989941790525336,-0.46989941790525336,1.0000138906932547,0.0003581994901042132
-0.4697753834720061,-0.4697753834720061,1.000317041414041,0.0003528254688675585
-0.46964751412015177,-0.46964751412015177,0.9997656851475071,0.0003786719442545112
-0.4695470926213602,-0.4695470926213602,0.9998201046282468,0.00038119451828359953
-0.46944567204918713,-0.46944567204918713,0.9996725232852459,0.0004532779103994482
-0.46932309976473335,-0.46932309976473335,0.9998766909888654,0.0004148373045023501
-0.4690695754965418,-0.4690695754965418,1.0002166043741973,0.00040273765002443225
-0.46889208093562046,-0.46889208093562046,1.000140250700222,0.00039472352289575424
-0.4687261264800327,-0.4687261264800327,1.0002213937622593,0.0003951132330182493
-0.46856438378526943,-0.46856438378526943,0.9996668516301306,0.0003982241134239224
-0.46829242812091254,-0.46829242812091254,1.0004970562755569,0.0003891859069308904
-0.468163391588314,-0.468163391588314,1.0000819690671825,0.00037037327353020734
-0.4680303224726231,-0.4680303224726231,1.000290164357968,0.0004113699086612871
-0.46789375976732117,-0.46789375976732117,1.0004106409724984,0.0003845930126832869
-0.46773336797996307,-0.46773336797996307,0.9999441183721792,0.0003696676088388112
-0.4675730739829305,-0.4675730739829305,1.0001661199599794,0.0003753555372022777
-0.46748830262513363,-0.46748830262513363,1.0002985758463645,0.00040154044953144016
-0.4674225490860408,-0.4674225490860408,0.9995378181980403,0.00037341627832029824
-0.467219643410499,-0.467219643410499,1.000329974941939,0.0004006820258611733
-0.46707977425176067,-0.46707977425176067,1.0004045658766976,0.000414105249210812
-0.46694819587646635,-0.46694819587646635,1.0002295106267893,0.0003825456016550717
-0.46685671422237646,-0.46685671422237646,0.9997254330043315,0.00040771034450351305
-0.4667807251760678,-0.4667807251760678,0.9999199005876799,0.00035888610482396265
-0.46659125250007494,-0.46659125250007494,0.9993412054563455,0.00038662472848988757
-0.4664871248503914,-0.4664871248503914,0.9998704647228465,0.0003575657088352741
-0.4664007775609207,-0.4664007775609207,1.000340662472262,0.0003929262685711427
-0.46625470761428006,-0.46625470761428006,1.000252684038482,0.0003994079020947605
-0.4660945676274423,-0.4660945676274423,0.9994921465640431,0.0003575691624970479
-0.465969352277898,-0.465969352277898,0.9998922307240315,0.00037710772852229566
-0.46585181242699036,-0.46585181242699036,1.0002087287517232,0.00040344307662206516
-0.46569552102009765,-0.46569552102009765,0.9999800621815972,0.0003633523166223998
