time,time,flux,flux_err
-0.4999420326337713,-0.4999420326337713,1.0001204309682294,0.00031619589491569636
-0.49978694534911483,-0.49978694534911483,1.0000745809182052,0.00029526249216831047
-0.4996599170142872,-0.4996599170142872,0.9998719804341188,0.0002937690836443217
-0.4995049580185878,-0.4995049580185878,1.0001058290811937,0.00029608952297302543
-0.4994478346565302,-0.4994478346565302,1.0003727528469324,0.0003072782777354613
-0.4993419603790244,-0.4993419603790244,1.0004831096927074,0.0003339615953891023
-0.49921096361649686,-0.49921096361649686,1.0004134691982514,0.0002864954487887674
-0.4990852904360509,-0.4990852904360509,1.000003513305122,0.00031519967053074275
-0.49900768784063987,-0.49900768784063987,1.00006724590634,0.000284514641937602
-0.49887156070690253,-0.49887156070690253,0.9997548755233016,0.0002758120955924615
-0.49880866302410143,-0.49880866302410143,0.9997955355712038,0.0003068241876294922
-0.498721800590647,-0.498721800590647,1.000171268634507,0.00032359460893952475
-0.4985833114700654,-0.4985833114700654,1.0000029642825476,0.00029820983688297846
-0.49847867823118575,-0.49847867823118575,0.9995597206962978,0.00029028544939450445
-0.49836829096129803,-0.49836829096129803,1.0000661948225424,0.0003045313792418067
-0.4982649062290875,-0.4982649062290875,0.9998183702986267,0.0003305030411933896
-0.4980839173957065,-0.4980839173957065,0.9998912677925755,0.0002996977653930458
-0.4979544992565934,-0.4979544992565934,1.0003349426106658,0.0003045360667939947
-0.4978795867315057,-0.4978795867315057,0.9999901728908366,0.000296919963300297
-0.49778641386074013,-0.49778641386074013,0.9999293042127562,0.0003066501156284979
-0.4976274680964707,-0.4976274680964707,0.9998332415588636,0.00033759921082715484
-0.4975220328618889,-0.4975220328618889,1.0003094191995157,0.0003069838743442562
-0.49728989095892756,-0.49728989095892756,1.0000193692376131,0.0002781082447183503
-0.49721084436278035,-0.49721084436278035,0.9996338505591247,0.0002893116857450635
-0.49709778363176155,-0.49709778363176155,0.9997799581853736,0.0002871450563729588
-0.4969648874113773,-0.4969648874113773,1.0019680574781182,0.0002968982054325731
-0.49691619045806873,-0.49691619045806873,0.9996370873726118,0.00031629313364966386
-0.49674722314557584,-0.49674722314557584,0.9995177861743073,0.0003206669742637089
-0.4966553447611659,-0.4966553447611659,0.9997583948405623,0.00030673807458151054
-0.4965963382503105,-0.4965963382503105,0.999751480312109,0.00028151993493203873
-0.49641430884548754,-0.49641430884548754,0.9995290787228512,0.00030036462721515835
-0.4963517540621979,-0.4963517540621979,0.9997731330794141,0.0002853963953171007
-0.49627700217679377,-0.49627700217679377,1.0005914632142623,0.00029828739122520967
-0.49619268828719215,-0.49619268828719215,0.9999460105419626,0.0003041225745395046
-0.4960741076440172,-0.4960741076440172,1.0003397469698154,0.00031755230717132513
-0.4959319919038535,-0.4959319919038535,0.9999854730188134,0.00028553868731189577
-0.49580404382759297,-0.49580404382759297,1.0001077115369825,0.0002947778073238502
-0.49569026658027726,-0.49569026658027726,0.9996029092437698,0.0002877825210750945
-0.495583548360446,-0.495583548360446,1.000262793190004,0.0003102836254168579
-0.4953944373421109,-0.4953944373421109,1.0001532921943745,0.0002920549551467776
-0.4952678076293523,-0.4952678076293523,1.0002406347378283,0.0003133812072774096
-0.49516749944850746,-0.49516749944850746,0.9998523390851686,0.00029076203122585883
-0.4950546073891019,-0.4950546073891019,0.9998840187291206,0.00032083961744211107
-0.4948913277221436,-0.4948913277221436,1.000173751578479,0.0003064254204065733
-0.4947379292934784,-0.4947379292934784,1.0004027078338584,0.0003202543357041488
-0.494584768049026,-0.494584768049026,0.999726930355022,0.0003146296816853143
-0.4944954288566805,-0.4944954288566805,1.0000436023045447,0.00032490727299671403
-0.4943527867362718,-0.4943527867362718,1.0006535637889624,0.0002936642455222289
-0.49417741159850265,-0.49417741159850265,1.0003225595021068,0.0003101970831495766
-0.4940782332574599,-0.4940782332574599,1.0002439191109018,0.0003007238799014533
-0.49395589491286956,-0.49395589491286956,0.9996353397292198,0.0003156337822917409
-0.49384381543532074,-0.49384381543532074,1.000233669780571,0.00029089033762176646
-0.49369376815739086,-0.49369376815739086,1.000146788078018,0.0002993752102647497
-0.4935034157730115,-0.4935034157730115,0.9996283861157431,0.0003088586751420938
-0.4934125187308382,-0.4934125187308382,1.0002297380269198,0.0002979488190860341
-0.4933263333437935,-0.4933263333437935,1.000395575117233,0.00030766599267079484
-0.49311611237426406,-0.49311611237426406,0.9999398875976562,0.0002977796197421275
-0.4930243139500817,-0.4930243139500817,1.0001997273440306,0.00028309701036604873
-0.4929089355533506,-0.4929089355533506,1.0000260575958495,0.0003026501232272302
-0.49274413408602413,-0.49274413408602413,0.9998679529475506,0.0002901156456178874
-0.4926499216544471,-0.4926499216544471,1.0001282109157734,0.00031999530044278903
-0.4925306955563428,-0.4925306955563428,0.9999193131723574,0.0002927054828196381
-0.492385907330754,-0.492385907330754,1.000134297617454,0.0003025661020665575
-0.49227042581951536,-0.49227042581951536,1.0004697070029562,0.0003277795295705052
-0.492163251765669,-0.492163251765669,1.0002734692057822,0.00029466977470496875
-0.4919693331063172,-0.4919693331063172,1.0000955541944905,0.0002728396685323117
-0.49182060934981564,-0.49182060934981564,1.000059053203163,0.0002902931805088435
-0.4916845985735563,-0.4916845985735563,0.9998785393485988,0.000303015878814087
-0.49161665206847827,-0.49161665206847827,0.9995804045401104,0.0003104309739839066
-0.4914546535092086,-0.4914546535092086,1.000231554057987,0.00029940874290756926
-0.4912951025529765,-0.4912951025529765,1.0003696721682211,0.00028935459532990773
-0.491198225520202,-0.491198225520202,1.0002703781910336,0.00028841516610924624
-0.49109338597736496,-0.49109338597736496,1.0001108264695935,0.0002743959813285244
-0.4909777484430379,-0.4909777484430379,0.9996690549843901,0.00032156718762789595
-0.49087587515823544,-0.49087587515823544,0.9996577397639292,0.00030509536598473483
-0.49069694301906563,-0.49069694301906563,0.9997481853073061,0.00030044294948889305
-0.4905950182717788,-0.4905950182717788,1.0001188026134902,0.00028439095020932255
-0.4904747086926363,-0.4904747086926363,0.9999116805584582,0.0003378701497760839
-0.49030417247486185,-0.49030417247486185,1.0002233340435354,0.0002917806244488258
-0.4901579610188492,-0.4901579610188492,1.0004311120116096,0.0003217941808220882
-0.49008568497447413,-0.49008568497447413,0.9999742010445619,0.0002838904284403896
-0.48996203450660686,-0.48996203450660686,1.0000210677583206,0.00031799795795896854
-0.48982986769333364,-0.48982986769333364,0.9998462481328924,0.00031101391131393156
-0.48974082167915184,-0.48974082167915184,0.9997669050237052,0.0003346761301217489
-0.4895911409133987,-0.4895911409133987,0.9998151191232487,0.00031271188856874654
-0.48944883106742054,-0.48944883106742054,0.999921663965884,0.00028945950074959115
-0.4893619882725034,-0.4893619882725034,0.9998947227377066,0.00030960364652772717
-0.4892442026950448,-0.4892442026950448,0.9996983240881832,0.00027479080742248647
-0.4891340834470611,-0.4891340834470611,0.9999970952483445,0.0002931182281563331
-0.489077326669576,-0.489077326669576,0.9994539444167547,0.0003342852751261624
-0.48889544208905134,-0.48889544208905134,0.9998405101756381,0.0003057980915562434
-0.4888050981571723,-0.4888050981571723,0.9998428052342676,0.0002972457497981954
-0.48866365433750614,-0.48866365433750614,1.0010781208576016,0.00028295934157288277
-0.48854865455577967,-0.48854865455577967,1.0000581799108492,0.00029031877167460705
-0.48848183393383804,-0.48848183393383804,1.0002460238718796,0.00029282205613942794
-0.4883871944475686,-0.4883871944475686,1.0000487052353895,0.0003053113176265863
-0.488304718528525,-0.488304718528525,1.0006272415978938,0.0002841486645583088
-0.48820857493337827,-0.48820857493337827,0.9999747654375153,0.0003331355219631471
-0.4880479139312229,-0.4880479139312229,1.000416854764808,0.0002862926875534222
-0.4879345519690105,-0.4879345519690105,1.000261248273023,0.0003036634139505654
-0.4877828506745573,-0.4877828506745573,0.9996296923412334,0.00030721897992991954
-0.4876110173852794,-0.4876110173852794,1.0001239417159637,0.0002810589359878224
-0.4875248012816883,-0.4875248012816883,1.000276138566322,0.00031934082630859174
-0.48740030672379364,-0.48740030672379364,1.0007022724744743,0.00031091894310286846
-0.4873324754586065,-0.4873324754586065,1.0001171908327475,0.0003073142812322647
-0.48719105864074663,-0.48719105864074663,1.0000743974360327,0.00029822074951522135
-0.48698255453236927,-0.48698255453236927,1.000029600699173,0.0003135524876651663
-0.4867929638407077,-0.4867929638407077,1.0004811179474333,0.0003262839509525974
-0.4866726071908488,-0.4866726071908488,0.9999197493168008,0.0003143678474844204
-0.48654616455823996,-0.48654616455823996,0.9997937509731637,0.0002991777551803122
-0.4863862478385272,-0.4863862478385272,0.99993532316149,0.00028307587071070946
-0.4862768388375116,-0.4862768388375116,1.0001826571167682,0.0003242930188832337
-0.4861809282705508,-0.4861809282705508,1.0000381903902127,0.0002994707047638514
-0.48604337280230536,-0.48604337280230536,1.0002036289773855,0.0003234537493981585
-0.48598928469291425,-0.48598928469291425,1.0007118112869764,0.0003092478082253849
-0.48578197757269664,-0.48578197757269664,0.9993841867888639,0.00030242353004004887
-0.4856245061560912,-0.4856245061560912,1.0005808069763806,0.0003011963220093282
-0.4855326309952943,-0.4855326309952943,1.0001148711952403,0.0003044892462507723
-0.4853851582854986,-0.4853851582854986,1.0000793087381163,0.00031208646420982216
-0.4852068458960275,-0.4852068458960275,0.9997154454977762,0.00028763300934343074
-0.4850906126001064,-0.4850906126001064,1.0004060431640085,0.00031383554936317316
-0.4849285033866181,-0.4849285033866181,1.0000498086572374,0.0002877915054812461
-0.48482386031537317,-0.48482386031537317,0.9999541876641571,0.00030926643649927384
-0.48468218445595995,-0.48468218445595995,1.0003766950722828,0.00029268799739082545
-0.4845622236320196,-0.4845622236320196,0.9998994293327806,0.00033225917226671565
-0.4844658474619791,-0.4844658474619791,0.9998078766284113,0.0003040975276334879
-0.4843457373437559,-0.4843457373437559,0.9999786871319944,0.00033352148693799246
-0.48419572725506443,-0.48419572725506443,1.0002341868194278,0.00027989532406538255
-0.48409632741459063,-0.48409632741459063,0.9993899713049181,0.0002698902544077558
-0.4840010448842804,-0.4840010448842804,1.000404409186063,0.0002992705134084178
-0.48387766373598423,-0.48387766373598423,1.0000972716892835,0.00028949979715102973
-0.4838321451912634,-0.4838321451912634,1.000272830204505,0.00033286912968667634
-0.4837802986563474,-0.4837802986563474,1.0000762750991465,0.00028597472517501746
-0.48361967026903585,-0.48361967026903585,0.9996968881786199,0.0002932767187372951
-0.48348266150424024,-0.48348266150424024,0.99973115561352,0.0002869634925647724
-0.4833677166992857,-0.4833677166992857,1.0023275332663726,0.00028616316462049956
-0.4832601298858208,-0.4832601298858208,1.000013381782638,0.0003009134865582127
-0.4831611909252388,-0.4831611909252388,0.9998210539450048,0.00029745263198136576
-0.4830929662428389,-0.4830929662428389,1.0002608745856283,0.0003079244421615941
-0.4829496740556351,-0.4829496740556351,0.9999719841742231,0.0003108414273446873
-0.48278613202346604,-0.48278613202346604,1.0003372887043778,0.0002826346663548194
-0.4826594914105954,-0.4826594914105954,1.0004093480232545,0.0003138143232749013
-0.48248793270286117,-0.48248793270286117,1.000301849383885,0.0002917000752735052
-0.482348790987453,-0.482348790987453,0.9998421371918823,0.0003176264735294597
-0.4822555225662654,-0.4822555225662654,1.000593993898574,0.00028549399844438343
-0.4820528162697883,-0.4820528162697883,0.9999242345303664,0.00029858469362896976
-0.4819426775138709,-0.4819426775138709,0.9998203988804166,0.00035382626277060493
-0.4818816580405837,-0.4818816580405837,1.0005802861227715,0.0003077763104989612
-0.4816716203680699,-0.4816716203680699,0.9998648587457755,0.00028631722187156107
-0.4815898567838303,-0.4815898567838303,0.9999867356455618,0.0002971633868785916
-0.4814339768872742,-0.4814339768872742,1.0000413924413836,0.00027350983930224566
-0.4813073667657591,-0.4813073667657591,1.0001934253719746,0.000324733192040578
-0.4811826442612073,-0.4811826442612073,0.9997436408241199,0.00032177707742243086
-0.4810369736405846,-0.4810369736405846,1.0000551307710641,0.0002848757705689022
-0.4809723770376877,-0.4809723770376877,1.0003783225130616,0.0002893664110342726
-0.48083208816788103,-0.48083208816788103,0.999959891695483,0.0003341046368322767
-0.48071892781517817,-0.48071892781517817,1.000039795761111,0.00027737492441558953
-0.48065011397302443,-0.48065011397302443,0.9996627942598684,0.00030014789946932233
-0.4805417826759367,-0.4805417826759367,1.0002903825346554,0.0003061501182847035
-0.4804289718857035,-0.4804289718857035,0.9997473111464512,0.00030337216493597785
-0.48033561436022865,-0.48033561436022865,1.0000009429330372,0.00030587100675663257
-0.4801791448597214,-0.4801791448597214,0.9998421733673807,0.000283072709173797
-0.4800884197720734,-0.4800884197720734,1.0001367458984693,0.00033070206646901133
-0.4799838789858768,-0.4799838789858768,1.0005002585216227,0.0003089200304690912
-0.47984486074201416,-0.47984486074201416,1.000201152391449,0.0002997707299513232
-0.47973913446148797,-0.47973913446148797,1.0036841862169494,0.00030323788162104715
-0.47964545069298764,-0.47964545069298764,0.9993487130910234,0.0003027151080293238
-0.4795495695718273,-0.4795495695718273,1.0004445976466312,0.00031310200296371667
-0.4794562590330315,-0.4794562590330315,0.9998917246342602,0.00031587802040386036
-0.4792925130066578,-0.4792925130066578,1.0001161825913343,0.0002880100818200955
-0.4791404207513551,-0.4791404207513551,0.9998922864945017,0.0003252518378817617
-0.479010952662793,-0.479010952662793,0.9999910484500356,0.00031954285816016193
-0.4789028898190736,-0.4789028898190736,0.9998273478354802,0.0003162315852250865
-0.4788400878449465,-0.4788400878449465,0.9996781614717577,0.00031244204390420873
-0.47867856793964164,-0.47867856793964164,0.999525849160519,0.00029814159332850366
-0.4785444065659249,-0.4785444065659249,0.9996716027711511,0.0002841980128747995
-0.478444975259481,-0.478444975259481,1.0005442573047414,0.00032741516623089315
-0.4783139248462248,-0.4783139248462248,1.0000093637112772,0.0003055782527389116
-0.4782107457620441,-0.4782107457620441,1.0003676975198488,0.00032277580592742687
-0.4781553439723211,-0.4781553439723211,0.9999856712988135,0.0003028154570131808
-0.47796115629353153,-0.47796115629353153,1.0004944391587687,0.0003024963921181378
-0.4778490105374658,-0.4778490105374658,1.0003097869697932,0.0002975965630377483
-0.47770937739987857,-0.47770937739987857,0.9998558874907262,0.0003036281806082845
-0.4775385319320776,-0.4775385319320776,0.9999560898705363,0.00029728534576602226
-0.4773879474840214,-0.4773879474840214,1.0001614505294156,0.00029053365392001226
-0.4773006190906017,-0.4773006190906017,1.0001909255786507,0.00028947908544550455
-0.47710628191416615,-0.47710628191416615,0.9997762279454783,0.0002806664202714218
-0.47694437823920455,-0.47694437823920455,0.9998562300909131,0.00030461961233992617
-0.47677368792137714,-0.47677368792137714,1.0002585867004516,0.0003019079956014577
-0.4766329138197761,-0.4766329138197761,0.9995687473938026,0.0003270110168082538
-0.47650733204209245,-0.47650733204209245,1.0003103861957485,0.0003151337608200249
-0.4763362525874982,-0.4763362525874982,1.000411656347645,0.0002957203896236004
-0.47624064367919344,-0.47624064367919344,0.9996123667466461,0.0002907420383630833
-0.47613004078521043,-0.47613004078521043,1.0001462064948483,0.00028114485929581136
-0.476029930007644,-0.476029930007644,0.9999480959498396,0.0003158023031883326
-0.47596815171018536,-0.47596815171018536,1.0000502891640983,0.00031287682245306774
-0.47583858416473956,-0.47583858416473956,0.9983390595923831,0.0002906457125308686
-0.475664227764355,-0.475664227764355,1.000084052530036,0.00028531727679313474
-0.4755509500289918,-0.4755509500289918,1.0004703674735858,0.0002777951273188872
-0.47538590788753937,-0.47538590788753937,1.000313956682565,0.0003202768902579766
-0.4753037793107069,-0.4753037793107069,1.000077308251025,0.00030420120856061115
-0.47523076856123225,-0.47523076856123225,1.000044721292112,0.000313106929478324
-0.47505941495219306,-0.47505941495219306,0.9998948026665925,0.00030022333066518747
-0.47490605193852387,-0.47490605193852387,1.0004387630883422,0.0002811645537161785
-0.4747080423428997,-0.4747080423428997,1.0000709514694315,0.00030323127997888117
-0.47454484251538814,-0.47454484251538814,0.9999715505070534,0.00027825307398165404
-0.4744752730286564,-0.4744752730286564,1.0006679694931475,0.00030289579412038134
-0.4743536287005554,-0.4743536287005554,0.9999426706860488,0.00028304169541999854
-0.47420600138466396,-0.47420600138466396,1.0000998011535547,0.0003068660441517187
-0.47410950600969953,-0.47410950600969953,1.0003331098309394,0.00035188164885303615
-0.47398434872666256,-0.47398434872666256,1.0000901567859253,0.0002783966110072086
-0.47382761516128086,-0.47382761516128086,1.0004462204150517,0.0002975796942844222
-0.47376806431602747,-0.47376806431602747,0.9996123610164609,0.0002964363490571
-0.47363141029527467,-0.47363141029527467,1.0001413579823353,0.000268764608395303
-0.4734988030035311,-0.4734988030035311,1.000177992758655,0.0003029413557269894
-0.473435173175676,-0.473435173175676,1.0001902054350036,0.00033348885525037855
-0.4732840120090259,-0.4732840120090259,1.0010996778755834,0.00032151936751583735
-0.47312274098258056,-0.47312274098258056,0.9997022880801767,0.0002850909578151458
-0.4729167873003462,-0.4729167873003462,1.000183887926245,0.00031029892299521734
-0.47285027277175684,-0.47285027277175684,0.9997174785229234,0.0002928786493803836
-0.4727080913336977,-0.4727080913336977,1.000587544198686,0.00029732294719639904
-0.472582605788557,-0.472582605788557,0.9999831759802182,0.00032136451709075724
-0.47243468265260163,-0.47243468265260163,0.9999081319121725,0.00030210072305862184
-0.4722675701072149,-0.4722675701072149,0.99977040085654,0.0002805660786862061
-0.4720875710241671,-0.4720875710241671,0.9995292951146292,0.00032074921643406566
-0.4719491193682188,-0.4719491193682188,1.0001657466759624,0.00028737496592963366
-0.4718104281284468,-0.4718104281284468,1.000251138940855,0.0002933800330445806
-0.47168510768133276,-0.47168510768133276,0.9994511221680366,0.0003097011113807915
-0.4716072857387189,-0.4716072857387189,0.9997984066119654,0.0003052109812447165
-0.4714064416682959,-0.4714064416682959,1.0004723655401586,0.00030152838767912883
-0.4712750826340198,-0.4712750826340198,1.0006969467946965,0.0003082373190081145
-0.471136944724276,-0.471136944724276,1.000236001391935,0.0003121066667019424
-0.47104336312331724,-0.47104336312331724,0.9996859936853081,0.0003140144498007271
-0.470902320933601,-0.470902320933601,1.0003778370030618,0.000297120692288726
-0.4707152825394587,-0.4707152825394587,1.0000769519767942,0.0002884430517184345
-0.47058972851482395,-0.47058972851482395,1.000166552705545,0.0003332405739349479
-0.4704437659573159,-0.4704437659573159,0.9995025042822931,0.0003147339486474411
-0.470370998571525,-0.470370998571525,0.999966997548143,0.00031333030371899647
-0.470281585095654,-0.470281585095654,0.9997776618344941,0.0003030661694444002
-0.4701311874352541,-0.4701311874352541,0.9999889256543077,0.00028653676051885053
-0.47001094735533117,-0.47001094735533117,1.0003908843119427,0.0003165665757058684
-0.46989004563984055,-0.46989004563984055,0.9999120515994029,0.0003034354019440389
-0.4697482109462726,-0.4697482109462726,1.0002168150639008,0.00030421674054453585
-0.4696125440037576,-0.4696125440037576,1.0002877706610205,0.000289896736313105
