time,time,flux,flux_err
-0.499939579556667,-0.499939579556667,0.9999988660528896,0.0001476911327245975
-0.4997490036500191,-0.4997490036500191,0.9997030593428359,0.0001440197520064583
-0.49959464130248915,-0.49959464130248915,0.9999309898424488,0.00014688442315601463
-0.4995047060299839,-0.4995047060299839,1.0000720699394186,0.00013162595272843292
-0.4994569778245932,-0.4994569778245932,0.9998936123974339,0.0001312726955520729
-0.49938599878369133,-0.49938599878369133,1.0000060282400907,0.00013692183329856595
-0.4992629020285676,-0.4992629020285676,0.9999298139813286,0.00013330605680647562
-0.4991643138295331,-0.4991643138295331,1.000181095137632,0.00013634859353623636
-0.49904341712026506,-0.49904341712026506,1.000026539731618,0.00012951136173799976
-0.49893273274283273,-0.49893273274283273,1.000050933843904,0.00013245627183100598
-0.49879973967108526,-0.49879973967108526,1.0001727348905578,0.00013222036267878536
-0.49868406961322764,-0.49868406961322764,0.9998004840198466,0.0001285255323640133
-0.4985559966233268,-0.4985559966233268,1.0001271983227196,0.00013134575107394576
-0.49847192438319327,-0.49847192438319327,1.0000888117335556,0.0001332156884325429
-0.49838531762507043,-0.49838531762507043,1.000013581980378,0.00013145064307695768
-0.49830749396423923,-0.49830749396423923,1.0002302762440825,0.00013056843289683458
-0.49812822740786944,-0.49812822740786944,1.0001314742469862,0.0001325248698738385
-0.49799623385624725,-0.49799623385624725,1.0000247131653581,0.00013545862709411126
-0.497908029370592,-0.497908029370592,1.0000962978211017,0.00013161481717966959
-0.4978605142205197,-0.4978605142205197,0.9999802035005481,0.00013340466452877868
-0.4977882706501987,-0.4977882706501987,0.9998947195739276,0.00013088456703863662
-0.4976956455873733,-0.4976956455873733,1.0002029487520017,0.00013138951498192916
-0.49757938393959195,-0.49757938393959195,1.0001060297099706,0.00013024022434467652
-0.49747832791908875,-0.49747832791908875,1.0000429691106958,0.0001322760384944221
-0.4973649165345705,-0.4973649165345705,0.9996733192371433,0.00013391668984957366
-0.49723627044004387,-0.49723627044004387,1.000171377751947,0.0001357671956471667
-0.4970616145859822,-0.4970616145859822,1.0000461048023455,0.00013392427762828261
-0.49688766775361726,-0.49688766775361726,1.0001692252551755,0.00013513096665020385
-0.49677917212902684,-0.49677917212902684,0.9997523282563501,0.00012763063958207247
-0.49663844712486027,-0.49663844712486027,1.0000142229538285,0.00013510891824950513
-0.4965161796113534,-0.4965161796113534,1.0001275054073968,0.00013920488673907098
-0.496336166846595,-0.496336166846595,0.999940621326649,0.00013075190273125842
-0.49619927529856794,-0.49619927529856794,1.000049473064707,0.00013057219220800526
-0.4961309552862076,-0.4961309552862076,0.9996994238366241,0.00013026548816820715
-0.4960248958712327,-0.4960248958712327,1.0001528656442786,0.0001314769265353409
-0.4958766174335324,-0.4958766174335324,1.0000624945011407,0.00013193591598038786
-0.49574172177162834,-0.49574172177162834,1.000072272603567,0.00013402932728521393
-0.4955838514128118,-0.4955838514128118,1.0001643040920256,0.0001335864688955201
-0.49540596459119113,-0.49540596459119113,1.0000934929880376,0.00013209455535485615
-0.49530848926006,-0.49530848926006,0.9999678673859889,0.00013490453295342646
-0.49522281097160886,-0.49522281097160886,1.0001005862574568,0.00013330370593066612
-0.49516606795805274,-0.49516606795805274,0.999851802335583,0.00013371239399414614
-0.4950885592486884,-0.4950885592486884,0.9998629615602752,0.0001330734790251507
-0.49499213913368295,-0.49499213913368295,1.0000667159608285,0.0001314053835675771
-0.49489380356462787,-0.49489380356462787,1.0001665666874142,0.00012767885763647005
-0.4948016913484025,-0.4948016913484025,1.0000486722613917,0.0001350699565265949
-0.49464651557718753,-0.49464651557718753,0.9999525413410287,0.00013382226468002363
-0.49449169157887807,-0.49449169157887807,1.0000429996721407,0.00012986300656362402
-0.49434576038547673,-0.49434576038547673,1.00011893029449,0.00013067657853454967
-0.4942047408643703,-0.4942047408643703,0.9999811517132763,0.00013344668732915974
-0.49404153555515223,-0.49404153555515223,1.000150510271407,0.00013047932161244373
-0.49392328836765953,-0.49392328836765953,1.000103803405644,0.00013276853555507702
-0.49383028663505685,-0.49383028663505685,1.0000795435891967,0.00013257879511599177
-0.49365398239970093,-0.49365398239970093,0.9999058964334064,0.00013247034970256764
-0.493515936449694,-0.493515936449694,1.0000783635913095,0.00013018022090886152
-0.4933707766482257,-0.4933707766482257,1.0000237117414683,0.00012989842146816124
-0.49320557415194344,-0.49320557415194344,0.9999835972656171,0.00013093175058062699
-0.4930385688188835,-0.4930385688188835,1.0002384412023835,0.00013363008620953168
-0.4929171751486138,-0.4929171751486138,0.999956833640573,0.00013407392030741222
-0.49281666148308434,-0.49281666148308434,1.0001459877990457,0.00013017034551165098
-0.4926851774260285,-0.4926851774260285,1.0000903698124737,0.0001339279540004547
-0.4926085179351503,-0.4926085179351503,1.000024371578784,0.00013308904922902304
-0.4925242815639649,-0.4925242815639649,0.999853905277407,0.00013177454333526564
-0.49243953452969436,-0.49243953452969436,1.0001528265944066,0.00013377476514561378
-0.4923959742307488,-0.4923959742307488,0.9999495594351355,0.0001320159390399518
-0.49220657684418256,-0.49220657684418256,1.0001419914641256,0.00013111841388541338
-0.4920214672318252,-0.4920214672318252,1.0001406409581417,0.00013105279498131303
-0.49183961971502865,-0.49183961971502865,1.0000027037183177,0.00012979610256991925
-0.49174362807752914,-0.49174362807752914,0.999977349327974,0.00013141552958351635
-0.49163333453980157,-0.49163333453980157,1.0000793933215468,0.00013419570041891778
-0.4913511843500601,-0.4913511843500601,1.0000072830414484,0.00013254103250989532
-0.4912758102880616,-0.4912758102880616,1.0000830739218454,0.00013500440523512826
-0.49114931693839026,-0.49114931693839026,0.9999584851787505,0.00013358267916578265
-0.4910827007937769,-0.4910827007937769,0.9999645919578771,0.0001324552128104413
-0.49093487536229075,-0.49093487536229075,0.9999639347586736,0.00013254565952399046
-0.4908156720623083,-0.4908156720623083,1.0000676647407896,0.00013350119743284406
-0.490702921916818,-0.490702921916818,1.000032302645859,0.00013333268026697605
-0.4905774304344959,-0.4905774304344959,1.0001352922378737,0.00013411800644471292
-0.490476503224636,-0.490476503224636,1.0001016667999263,0.00013030828504354878
-0.49033632564314755,-0.49033632564314755,0.9999984487649876,0.00013114513416279637
-0.49023794115928465,-0.49023794115928465,1.000188067444959,0.00013386146185553362
-0.49013205068258686,-0.49013205068258686,0.9998697207024051,0.00013246037786038018
-0.48997080119152087,-0.48997080119152087,0.999897040964194,0.00013484311864887165
-0.489860701130965,-0.489860701130965,0.9999750349163034,0.00013465522276357036
-0.48974213648834847,-0.48974213648834847,0.9998931881669341,0.00013322929647857735
-0.48959982255328216,-0.48959982255328216,1.0000320872217852,0.0001304581803878752
-0.4893514277668146,-0.4893514277668146,1.0000592757925062,0.00013164958517306188
-0.48925450293609174,-0.48925450293609174,1.0000565331069804,0.00013396013013348079
-0.48913875127909706,-0.48913875127909706,0.9996396003876005,0.00015943743739909997
-0.48905434838743533,-0.48905434838743533,1.0002213130276107,0.0001304990495712359
-0.4889302675052022,-0.4889302675052022,1.0000370622330617,0.0001485359603311866
-0.4887036568186886,-0.4887036568186886,1.0000123387532625,0.00015660585964100542
-0.4886534461642441,-0.4886534461642441,0.9997920213403088,0.0001351114088950425
-0.4885861234033655,-0.4885861234033655,1.0001526004540924,0.00013105015140449708
-0.4884743728885951,-0.4884743728885951,0.9998594507228591,0.00013203429299143212
-0.4883847517950926,-0.4883847517950926,1.0002087883380975,0.00013506627190992287
-0.48823615823566796,-0.48823615823566796,0.9999910356970675,0.0001337632356377405
-0.48807985693056255,-0.48807985693056255,1.0000161835610784,0.00013109105058782986
-0.48791529712834747,-0.48791529712834747,1.0000125436110312,0.00013460399266026558
-0.48779850447535866,-0.48779850447535866,1.0001759740797276,0.00013240106211587568
-0.48758444128907286,-0.48758444128907286,1.0001150498478815,0.00013147634278683155
-0.4875411556015024,-0.4875411556015024,0.9998093625044747,0.00013399777367409548
-0.4874975606027874,-0.4874975606027874,1.000053160588358,0.00013369628948641267
-0.4873660251760157,-0.4873660251760157,1.0001207276172712,0.0001348512641889195
-0.48729510660268716,-0.48729510660268716,0.9999778245870438,0.00013484651459545738
-0.48717874857320564,-0.48717874857320564,0.9999785106459352,0.00013440936744985886
-0.4871285248627828,-0.4871285248627828,1.0000978049577611,0.00013013582089570948
-0.48705417827368364,-0.48705417827368364,1.0000981007805596,0.00013589262683427254
-0.4869899467805226,-0.4869899467805226,0.9998148851613733,0.00013310353899157837
-0.48677491624548563,-0.48677491624548563,1.0001368581186838,0.00013031600917122032
-0.48665597184372017,-0.48665597184372017,1.0002157296616898,0.00012990816511708396
-0.486546944269503,-0.486546944269503,0.9999500858325956,0.00013243456611405075
-0.48647292442110485,-0.48647292442110485,1.00003054412671,0.00013773261539164818
-0.48636326022897264,-0.48636326022897264,0.9997643093028163,0.0001376234293472619
-0.48619819627565447,-0.48619819627565447,0.9999397080470075,0.0001336180292778506
-0.486058671396313,-0.486058671396313,1.0000052681315545,0.000136124899620071
-0.4859789050380641,-0.4859789050380641,1.0001346384503857,0.0001347655252914873
-0.48581439613481053,-0.48581439613481053,0.9999747366399783,0.00013326079554218829
-0.48568025676358956,-0.48568025676358956,1.0002069203587667,0.00013304762048216396
-0.4855418742481561,-0.4855418742481561,1.000135530135271,0.00013168128951636705
-0.4853881519069546,-0.4853881519069546,1.0001679652182323,0.00013298824560758896
-0.48527458559910885,-0.48527458559910885,0.9998929018320958,0.00013116074860844575
-0.4851558146365278,-0.4851558146365278,0.9997817778272641,0.00013246116541392768
-0.48498430706385987,-0.48498430706385987,0.9999082732258419,0.00013104852855692025
-0.4848940706055146,-0.4848940706055146,0.999874035305407,0.00013490746153182212
-0.4848198809821042,-0.4848198809821042,0.9998509765799233,0.00013460535519201994
-0.4847577159962384,-0.4847577159962384,0.9999035632477595,0.00013341385857178976
-0.4846440450863156,-0.4846440450863156,0.9999616044492763,0.0001344003590723184
-0.4845611707183707,-0.4845611707183707,0.9999608784697452,0.00013228502634529373
-0.4844814875003067,-0.4844814875003067,1.0000263563286607,0.00013010400798543016
-0.48441672075132375,-0.48441672075132375,0.9999060551055046,0.00013222759535054697
-0.48432858389205646,-0.48432858389205646,1.000016955202169,0.0001281800113024929
-0.4841755323628604,-0.4841755323628604,1.00012612070203,0.00012779719892764882
-0.484035151360149,-0.484035151360149,0.9998247154450712,0.00013395417708452438
-0.4838810222514439,-0.4838810222514439,0.9999931421225835,0.00013707909256594665
-0.4838082195354218,-0.4838082195354218,0.999626853098242,0.000132350563588383
-0.4837186710894457,-0.4837186710894457,1.0001258349495028,0.00013220770286209726
-0.48359438130282795,-0.48359438130282795,1.000137187833163,0.0001333715045160122
-0.48348832378396767,-0.48348832378396767,1.0001131442938038,0.00013255739937046213
-0.4834067128394963,-0.4834067128394963,1.0000679022172752,0.0001347683302853491
-0.48329278298042483,-0.48329278298042483,0.999983840166505,0.00013562107637584732
-0.48318330550173416,-0.48318330550173416,1.0000412973119943,0.00013208057610686748
-0.4830528088234132,-0.4830528088234132,1.0000473058955222,0.00012803742713518368
-0.4829140162633848,-0.4829140162633848,0.9999054792431362,0.00013289740368832627
-0.48278434123203623,-0.48278434123203623,1.0000852887664449,0.00013004396339456496
-0.4826819672794954,-0.4826819672794954,1.0001178028556805,0.00013322343876765466
-0.4826029468102206,-0.4826029468102206,0.9997917363791105,0.00013289367069823732
-0.48253781276289376,-0.48253781276289376,1.000062106952647,0.0001341497020905551
-0.4823668590048328,-0.4823668590048328,1.000006032637788,0.000131797522073253
-0.4821946969947021,-0.4821946969947021,1.0001191212839837,0.00013226284127667594
-0.4820701964381442,-0.4820701964381442,0.9998914972594525,0.0001327590108717986
-0.4819378373431391,-0.4819378373431391,1.0000702215735264,0.00013505813580782052
-0.48187093333908704,-0.48187093333908704,1.000040205823424,0.00013169455376107494
-0.4818027519831958,-0.4818027519831958,1.0001749147951031,0.0001303025553046653
-0.48171513102061,-0.48171513102061,0.9996723196337799,0.00013364191568472126
-0.48157579233520664,-0.48157579233520664,0.9998506231918061,0.0001301082526822871
-0.48139477872100545,-0.48139477872100545,1.000081484883583,0.00013379084726474266
-0.48128426939219937,-0.48128426939219937,1.0000159813263085,0.00013619142201943673
-0.4811186143560917,-0.4811186143560917,1.0001336138251304,0.00013431778414823946
-0.4809591943230771,-0.4809591943230771,0.9998911168045101,0.00013333835844947154
-0.4808412624566699,-0.4808412624566699,1.0000188004356692,0.00014060474775192197
-0.4806867818129831,-0.4806867818129831,0.9998451706887896,0.0001345312192793913
-0.48054700790307836,-0.48054700790307836,1.0000272386450044,0.00013652807844213537
-0.48039313669287365,-0.48039313669287365,1.0002331317817965,0.00013022720399245765
-0.4802536754046741,-0.4802536754046741,1.0001517788854453,0.00013212104859013578
-0.4801139416093065,-0.4801139416093065,0.9999561095587566,0.00012944676325179135
-0.4800138076971052,-0.4800138076971052,1.0001727289739226,0.00012902192423200023
-0.4799352815920429,-0.4799352815920429,1.0000048012303924,0.00013131467711643697
-0.4798437539655424,-0.4798437539655424,1.0000585699953555,0.00013323065578876666
-0.479761803328438,-0.479761803328438,1.0000182505118353,0.00013161411743516964
-0.47967362718918594,-0.47967362718918594,0.999926793320785,0.00016294713218819484
-0.47952003388782033,-0.47952003388782033,0.9999430536642029,0.0001314101454552301
-0.4793869213965081,-0.4793869213965081,1.0000908672772943,0.00013566268971990612
-0.47928797144413693,-0.47928797144413693,1.0001268628339697,0.0001327454200764184
-0.4792409625741129,-0.4792409625741129,0.9997699879866447,0.0001322492535724683
-0.47916629128158095,-0.47916629128158095,0.9999853261917299,0.0001309470027526396
-0.47906235183545504,-0.47906235183545504,1.0002872527695394,0.00013159472798078624
-0.4789425867755199,-0.4789425867755199,0.9998860196044099,0.00012997306589766075
-0.4788122099605971,-0.4788122099605971,0.9998289025909456,0.00012936691476035824
-0.4787082725742948,-0.4787082725742948,1.0001650820021162,0.00013633532144500247
-0.47857282628465325,-0.47857282628465325,1.0001690769225067,0.00013445685887077948
-0.4784130884851038,-0.4784130884851038,1.000082319852364,0.00013950550528710526
-0.47827477342725616,-0.47827477342725616,1.0002082312975678,0.00013350862593041837
-0.47820664547907654,-0.47820664547907654,0.9998309350384613,0.00013058684853836433
-0.4781261409254512,-0.4781261409254512,0.9998903209355492,0.00012954163126436391
-0.47801642649792486,-0.47801642649792486,1.0000847468331677,0.00013428589149049578
-0.47790802231465934,-0.47790802231465934,0.999791372081426,0.00013474503347030666
-0.4777090004310594,-0.4777090004310594,1.0002387951896041,0.00013057534602870194
-0.47757445298630047,-0.47757445298630047,0.9998314004607931,0.0001323419689249874
-0.47748407453327674,-0.47748407453327674,1.0000053677739889,0.00012810371911972367
-0.477394279656437,-0.477394279656437,0.999921288939077,0.00013141304845807944
-0.4772742469795048,-0.4772742469795048,1.00015340853064,0.0001377840230551698
-0.4771273428843415,-0.4771273428843415,1.0003820641861805,0.00013131301630574919
-0.4770090123092814,-0.4770090123092814,0.9998348702039384,0.00013433058721718313
-0.4767951352543605,-0.4767951352543605,0.9999383017261456,0.0001336463675119202
-0.47669346705224597,-0.47669346705224597,0.9997914519021922,0.00013486326225796015
-0.4766059032881458,-0.4766059032881458,1.000138961698175,0.00013331701204459344
-0.47652961395215243,-0.47652961395215243,1.0001397449026268,0.0001342831999702894
-0.476458538055158,-0.476458538055158,0.9999564132348219,0.0001334234947905846
-0.47641174516247703,-0.47641174516247703,0.9999846989037466,0.00013424802123862756
-0.47628793314288487,-0.47628793314288487,1.0002621288236342,0.00012826255490447336
-0.47616906638722867,-0.47616906638722867,0.9996447835316145,0.00013220525338665675
-0.4760006957294536,-0.4760006957294536,1.0000720881915164,0.00013369278340268903
-0.47588553663154015,-0.47588553663154015,0.999902600263589,0.00013002088051713656
-0.47574253156635676,-0.47574253156635676,1.0000443193824058,0.00013059665644774352
-0.47557886613794836,-0.47557886613794836,1.0003543516083422,0.00013015466918429118
-0.47534476274668125,-0.47534476274668125,1.000040685272705,0.00013171436441938871
-0.4752888388284191,-0.4752888388284191,1.0001861381790274,0.00013543944445056492
-0.4751454498626117,-0.4751454498626117,1.0002616184755428,0.00013052217731173368
-0.4750391373112507,-0.4750391373112507,1.0000073223407582,0.00013102202037801178
-0.47491549730693805,-0.47491549730693805,1.0001170369215733,0.00013225137412812941
-0.4748235089915397,-0.4748235089915397,1.0000450869930972,0.00012820145589086647
-0.47468495121429444,-0.47468495121429444,1.0001485461060013,0.00013315584226751605
-0.4744947869592579,-0.4744947869592579,1.0000166689575147,0.00013001668526952157
-0.4743170531692158,-0.4743170531692158,1.000062726197618,0.00013478239658942586
-0.47417145534127486,-0.47417145534127486,1.0000121658446999,0.00013178454705583365
-0.47404753560040264,-0.47404753560040264,0.9997598002503402,0.00013227109139402648
-0.47397843760481917,-0.47397843760481917,0.9999137944833956,0.00013429124587775422
-0.47387311908532864,-0.47387311908532864,1.0002091100332582,0.00013193517363340994
-0.47380389379832194,-0.47380389379832194,0.9998124924694511,0.0001349553474034121
-0.47373482282127954,-0.47373482282127954,0.99989489190653,0.00013119949222367428
-0.4735210348480905,-0.4735210348480905,0.9997243213921847,0.00013126497760362828
-0.47340111077355684,-0.47340111077355684,0.9999531213119373,0.00012919313480935568
-0.47318951568449846,-0.47318951568449846,1.0000834535496712,0.00013021929441798337
-0.47309178637588045,-0.47309178637588045,1.0000934035318463,0.00013218320325325067
-0.4728983069289825,-0.4728983069289825,1.000027246890023,0.00013177072614491424
-0.47269840427834425,-0.47269840427834425,1.0002403637322863,0.0001353127048929408
-0.47264177755714626,-0.47264177755714626,1.000077734794746,0.00013396592317791014
-0.47251626441720873,-0.47251626441720873,1.0000343344982618,0.00013101424476290535
-0.4724379041057546,-0.4724379041057546,1.0000432172667426,0.00013442142140876367
-0.4722573446815659,-0.4722573446815659,1.000008732969933,0.0001333928893643687
-0.4721612965753593,-0.4721612965753593,1.000128923862739,0.00013280144934878642
-0.4720227186058764,-0.4720227186058764,1.0001834426351521,0.00013345915004106678
-0.4718975560223043,-0.4718975560223043,0.9999312407044474,0.00013160400152830868
-0.4718257208529394,-0.4718257208529394,0.9997872019386536,0.00013027269934762846
-0.47168210924282905,-0.47168210924282905,1.000078122631002,0.00013189730259692106
-0.4716061217572133,-0.4716061217572133,1.000023997324361,0.00013355712336556304
-0.4715166967376717,-0.4715166967376717,0.9999775923931707,0.00013335464313324186
-0.4713508324311988,-0.4713508324311988,1.0002070849460296,0.00013320058375309183
-0.4712298464466585,-0.4712298464466585,0.999894861701361,0.00013328011152469903
-0.4711203970960923,-0.4711203970960923,1.0001644703502823,0.00013325656309689583
-0.4710066717299924,-0.4710066717299924,1.000147391144801,0.00013047240004511056
