time,time,flux,flux_err
-0.49993411690350814,-0.49993411690350814,1.0001204228895382,7.96170901547152e-05
-0.499776536221907,-0.499776536221907,1.0000563636181283,7.211189638534696e-05
-0.49964820478853655,-0.49964820478853655,1.0002167959972166,7.256712522056403e-05
-0.49954682958632474,-0.49954682958632474,0.9999618737311385,7.23922114026122e-05
-0.4994100886600791,-0.4994100886600791,1.0000282350136191,7.279686016352127e-05
-0.49924827858485515,-0.49924827858485515,1.000013222547611,7.379004663478564e-05
-0.49909241743444,-0.49909241743444,1.000083899599762,7.256269483462682e-05
-0.4989272727660136,-0.4989272727660136,1.0000678586080358,7.271725045469973e-05
-0.498823039150011,-0.498823039150011,1.0000043379411647,7.25153267069396e-05
-0.4986964681498648,-0.4986964681498648,1.0001229219691383,7.266961191174278e-05
-0.4984913741318451,-0.4984913741318451,1.000051447395213,7.270697031523513e-05
-0.4983744566088717,-0.4983744566088717,1.0000717037938212,7.784958187022837e-05
-0.4982595602734364,-0.4982595602734364,1.0000940402201626,7.280178175778632e-05
-0.49814342310855864,-0.49814342310855864,0.9999531063540357,7.298942019858612e-05
-0.4980340735208301,-0.4980340735208301,0.9999867051906927,7.340508721114393e-05
-0.49789600257208805,-0.49789600257208805,0.9998975006557684,7.371026413062517e-05
-0.4977597683762724,-0.4977597683762724,0.9999612763527521,7.330350833719261e-05
-0.4976732463335793,-0.4976732463335793,0.9999823836787078,7.244722933374199e-05
-0.49752825275136275,-0.49752825275136275,0.9999338825961143,7.303016635780867e-05
-0.497436820412986,-0.497436820412986,1.0000812993393389,7.279910911055094e-05
-0.49737380737278725,-0.49737380737278725,0.9998261883335731,7.182001087954598e-05
-0.4971317108051153,-0.4971317108051153,1.0000541257232514,7.642302067694477e-05
-0.49701265495386904,-0.49701265495386904,0.9999938954581381,7.175358011245876e-05
-0.4969234285126731,-0.4969234285126731,1.000090496137819,7.222209300912082e-05
-0.49677358936169186,-0.49677358936169186,1.0001147040167808,7.38066397338712e-05
-0.49659552102020826,-0.49659552102020826,0.9999040083484501,7.327809728326238e-05
-0.49649063377073616,-0.49649063377073616,1.0000524630525625,7.349867872030727e-05
-0.496373157283233,-0.496373157283233,1.0000477915487784,7.263108833662543e-05
-0.4962547371877008,-0.4962547371877008,1.0000339628876078,7.232820319932645e-05
-0.4960603522209567,-0.4960603522209567,1.0000803659038944,7.21334373666287e-05
-0.4960142999276286,-0.4960142999276286,0.9999292872496028,7.241208249274774e-05
-0.4959041750538745,-0.4959041750538745,1.000050959759848,7.091095522544187e-05
-0.4957206003178726,-0.4957206003178726,1.000068387945586,7.283970929296949e-05
-0.49559548615361565,-0.49559548615361565,0.9999295401398616,7.165132678672361e-05
-0.4954648296828964,-0.4954648296828964,0.9999263009139423,7.282386138585281e-05
-0.495325305818551,-0.495325305818551,1.0000131938203272,7.318434682143142e-05
-0.4952105160293286,-0.4952105160293286,0.9999728359920523,7.339592431944943e-05
-0.495113737959764,-0.495113737959764,0.9998238019398699,7.382456797444921e-05
-0.494983047345886,-0.494983047345886,1.0001809845474638,7.306390197772919e-05
-0.4948817270058498,-0.4948817270058498,0.9999800793195437,7.169020165668625e-05
-0.49468674918753097,-0.49468674918753097,0.999930340490996,7.325378311523333e-05
-0.4946311038285785,-0.4946311038285785,0.9999836685787,7.239507724643505e-05
-0.49454299805729535,-0.49454299805729535,1.000035997548332,7.207872480484727e-05
-0.49436361250882327,-0.49436361250882327,0.9999709912614245,7.173476949086018e-05
-0.49423381231972596,-0.49423381231972596,1.0000654100895354,7.204203124714503e-05
-0.494102125223435,-0.494102125223435,0.9999502224554458,7.276045482163351e-05
-0.4940209635977226,-0.4940209635977226,1.0000536025462883,7.279407852640406e-05
-0.49386760804554797,-0.49386760804554797,1.000079049961452,7.331057846473592e-05
-0.49375107602681967,-0.49375107602681967,1.0001182825873465,7.437140198092592e-05
-0.493653283934691,-0.493653283934691,0.9999300169525046,7.286031537347628e-05
-0.4935402395654819,-0.4935402395654819,0.9999354218689929,7.233701303038728e-05
-0.4933385758573422,-0.4933385758573422,1.000257189883331,7.216888113812918e-05
-0.4931999538137461,-0.4931999538137461,0.9998620723528401,7.293004032824863e-05
-0.49305483006464784,-0.49305483006464784,0.9999751284528184,7.208998994736945e-05
-0.4928838369756704,-0.4928838369756704,0.9999955453566993,7.230862550447207e-05
-0.49272771761679907,-0.49272771761679907,1.0002733904651744,7.267804690812365e-05
-0.4925970217656868,-0.4925970217656868,1.0000355234012899,7.254092654631554e-05
-0.49244181156682315,-0.49244181156682315,0.9999734989518977,7.289351284898928e-05
-0.4923398807091871,-0.4923398807091871,1.0000138423176044,7.328106972514649e-05
-0.4922069916843611,-0.4922069916843611,1.0000011129786457,7.288509996905135e-05
-0.4920581904716528,-0.4920581904716528,1.0000344925643307,7.128443418237783e-05
-0.49186832669220165,-0.49186832669220165,1.0000268409715183,7.271318248969944e-05
-0.4916458323816187,-0.4916458323816187,1.0000854939789139,7.247157466528661e-05
-0.4913902941785636,-0.4913902941785636,0.9999884255153889,7.368878694074427e-05
-0.4912211235809082,-0.4912211235809082,0.9999671042087451,7.270583241374964e-05
-0.49112601841843573,-0.49112601841843573,0.99999718129085,7.289573413605575e-05
-0.4910469298927637,-0.4910469298927637,1.0001703076197914,7.321291628811379e-05
-0.49096345888610815,-0.49096345888610815,0.9998874605844706,7.25835221805269e-05
-0.4908221336765564,-0.4908221336765564,1.0002224810108415,7.390103680995157e-05
-0.49066597329365325,-0.49066597329365325,1.0002245975638808,7.124647259123842e-05
-0.4904499500262318,-0.4904499500262318,0.9999781421210179,7.22805339722108e-05
-0.490277968103328,-0.490277968103328,0.9998893941881392,7.22927237257772e-05
-0.49007478397033993,-0.49007478397033993,1.0000449777286398,7.366799946349487e-05
-0.48996085307007886,-0.48996085307007886,0.9999859676976619,7.373448481557525e-05
-0.48985270440243767,-0.48985270440243767,1.0000322327352014,7.294434389603181e-05
-0.4896849150674825,-0.4896849150674825,0.9999848862445291,7.328183894288403e-05
-0.48955723639155624,-0.48955723639155624,0.9999450455536449,7.246661305155462e-05
-0.48943536633451,-0.48943536633451,0.9999260522219563,7.411306350897069e-05
-0.48935031751097996,-0.48935031751097996,0.9998360697287605,7.206374055234828e-05
-0.4892056276505173,-0.4892056276505173,1.0000022034806964,7.120485464460315e-05
-0.4889885347045492,-0.4889885347045492,0.9999285584550173,7.279843161651778e-05
-0.4888368901360082,-0.4888368901360082,0.9998610688799634,7.297519477477637e-05
-0.48867997325069157,-0.48867997325069157,0.9999170016719893,7.289005472174698e-05
-0.48857071274178454,-0.48857071274178454,1.0000596609375119,7.346920234306397e-05
-0.4884545022934617,-0.4884545022934617,0.9999349931755376,7.342696305557501e-05
-0.4882816740035196,-0.4882816740035196,1.000005648853901,7.269038191559931e-05
-0.48817650647761185,-0.48817650647761185,0.9999359383767616,7.306271731134366e-05
-0.48806534486575404,-0.48806534486575404,1.0000054173794861,7.296629670951933e-05
-0.48795276773889784,-0.48795276773889784,0.999992231378185,7.221127567981648e-05
-0.4878309088984679,-0.4878309088984679,1.0001192352981942,7.127061621967624e-05
-0.48773261408023244,-0.48773261408023244,0.9999815341766498,7.22526686617547e-05
-0.48752267258096255,-0.48752267258096255,0.9999517450517448,7.306235360256407e-05
-0.4873746530560311,-0.4873746530560311,1.0000830590878298,7.334592683603667e-05
-0.487233336736972,-0.487233336736972,1.0000330312738603,7.263134253654904e-05
-0.487107229490357,-0.487107229490357,1.000096934181424,7.413379917666818e-05
-0.4870007456323947,-0.4870007456323947,0.9999589058399125,7.227974524113279e-05
-0.4867943145436584,-0.4867943145436584,1.000050162871683,7.336852932832037e-05
-0.4866877572225349,-0.4866877572225349,0.9999930333248452,7.325131315247407e-05
-0.48654192430185506,-0.48654192430185506,1.0000225498755353,7.293187987012095e-05
-0.48635318284650564,-0.48635318284650564,1.0001358210245208,7.264093404106767e-05
-0.48620120270643385,-0.48620120270643385,1.0000285806433737,7.276937556454827e-05
-0.4860332390329859,-0.4860332390329859,0.9999646131210576,7.341675869459141e-05
-0.48596608601583285,-0.48596608601583285,0.9999123648027549,7.279157383580574e-05
-0.4858738642440585,-0.4858738642440585,1.0000592375785806,7.287568134421366e-05
-0.48572640922066057,-0.48572640922066057,0.9998165335211826,7.397234635681817e-05
-0.4856003940774826,-0.4856003940774826,0.9999217788307379,7.226264479221672e-05
-0.485393092254526,-0.485393092254526,0.9999816061302574,7.311146646096823e-05
-0.48530838795704767,-0.48530838795704767,1.0001117421511432,7.268872382079576e-05
-0.4851698161299282,-0.4851698161299282,0.999995321554161,7.234574690325279e-05
-0.4849548721314932,-0.4849548721314932,1.0000602298565329,7.263051362859881e-05
-0.4847674824610294,-0.4847674824610294,1.0001128207128658,7.363039879548837e-05
-0.48459088464951494,-0.48459088464951494,1.0000526070296165,7.267967904090442e-05
-0.48450438181534994,-0.48450438181534994,0.99986589645202,7.34068848705128e-05
-0.48433290863904405,-0.48433290863904405,1.00005197739965,7.440201006816627e-05
-0.4841886422902462,-0.4841886422902462,0.999967686057673,7.211462324004156e-05
-0.4840797270386247,-0.4840797270386247,1.000102066808969,7.222795878267538e-05
-0.4839468106867571,-0.4839468106867571,1.0000400402691807,7.303832851347712e-05
-0.4838425889975042,-0.4838425889975042,1.0000899779108932,7.283831655908066e-05
-0.4835825077498157,-0.4835825077498157,0.9999846812392983,7.297783967592517e-05
-0.4834257536982477,-0.4834257536982477,1.000026237629148,7.324390445899774e-05
-0.48327104022173445,-0.48327104022173445,0.9999010786047782,7.278645110592528e-05
-0.4832051602686988,-0.4832051602686988,1.0001214010083923,7.372499233119943e-05
-0.48312046704595557,-0.48312046704595557,1.0000625565316006,7.321885590196747e-05
-0.48295295766947677,-0.48295295766947677,1.000021969218638,7.358201991769323e-05
-0.4828076496494759,-0.4828076496494759,1.0000531859524284,7.239516167849416e-05
-0.4826846510579344,-0.4826846510579344,0.9999846334436896,7.231621868839594e-05
-0.4825576438990538,-0.4825576438990538,0.9999902905839189,7.30824598247229e-05
-0.48241902042209406,-0.48241902042209406,0.9999255885013166,7.291576298638256e-05
-0.48225155844338585,-0.48225155844338585,0.9999291371756431,7.489706928738059e-05
-0.48206673709573805,-0.48206673709573805,0.9999970405956816,7.275731941523572e-05
-0.48197462827229176,-0.48197462827229176,1.0000453024018057,7.219481688246951e-05
-0.48185055047433706,-0.48185055047433706,1.0000030857275228,7.30897443618083e-05
-0.48174816495156847,-0.48174816495156847,0.9999047430790405,7.251621689938488e-05
-0.48159915077339976,-0.48159915077339976,0.9999168542332463,7.393099119940957e-05
-0.48145859697688137,-0.48145859697688137,1.0000211783000612,7.6870763385065e-05
-0.4813088231101574,-0.4813088231101574,1.000156854486234,7.241370204256862e-05
-0.48118011126716737,-0.48118011126716737,0.9993686746686491,7.298161417791203e-05
-0.4810795918718213,-0.4810795918718213,0.9999245541645945,7.321348191578387e-05
-0.480876668903511,-0.480876668903511,1.0000238386615485,7.260276468229994e-05
-0.4807012801495148,-0.4807012801495148,1.0000366013601014,7.221899242982198e-05
-0.48061344960005953,-0.48061344960005953,1.000009463755093,7.25510819288246e-05
-0.4805156903275929,-0.4805156903275929,1.0000019573621937,7.238538992476708e-05
-0.48040385223794146,-0.48040385223794146,1.000054692344777,7.268244880601555e-05
-0.480311929724121,-0.480311929724121,1.0001224576050782,7.266672199708642e-05
-0.48019736380229006,-0.48019736380229006,0.9999873190231596,7.248119372784134e-05
-0.47997263339784696,-0.47997263339784696,1.000025342948753,7.20429496136455e-05
-0.4797903116319503,-0.4797903116319503,0.999824836711755,7.220440391853659e-05
-0.4797037153330166,-0.4797037153330166,1.0000179688962998,7.234329822677938e-05
-0.4795998874928046,-0.4795998874928046,1.0000002925758613,7.277692562893478e-05
-0.47937929114486905,-0.47937929114486905,1.0001216009486187,7.327560037296116e-05
-0.47924131200052217,-0.47924131200052217,1.0000834712987388,7.262886283987954e-05
-0.4791663301835797,-0.4791663301835797,1.0000609054803211,7.220459453006734e-05
-0.47905499777116345,-0.47905499777116345,0.9999534992928136,7.250422328614308e-05
-0.4789521574246464,-0.4789521574246464,1.000026351852251,7.334955872436818e-05
-0.47888337733456865,-0.47888337733456865,0.9999988872608929,7.182104671923764e-05
-0.4788406182429753,-0.4788406182429753,1.0000699588936888,7.295654218567718e-05
-0.4786377350144903,-0.4786377350144903,1.0000737628279095,7.28288621273711e-05
-0.4784222087037051,-0.4784222087037051,1.0000677014951875,7.27968779106135e-05
-0.478356722008175,-0.478356722008175,0.9999610025056382,7.301982358340837e-05
-0.47823160794432623,-0.47823160794432623,1.0001586142133483,7.324761306517561e-05
-0.478071571997134,-0.478071571997134,0.9998076203428177,7.405386292235814e-05
-0.4779138639045414,-0.4779138639045414,1.000058991105179,7.273747341691169e-05
-0.4777883129529073,-0.4777883129529073,0.9999495493112113,7.334496502490602e-05
-0.4776943254975777,-0.4776943254975777,0.9999221176590082,7.281165525425205e-05
-0.47754768141312526,-0.47754768141312526,0.999945345722758,7.239229734954557e-05
-0.47745001492003214,-0.47745001492003214,0.9999534152187369,7.230207213998038e-05
-0.47736944889402366,-0.47736944889402366,0.999948679483355,7.266786467614969e-05
-0.47712596522978856,-0.47712596522978856,1.0000010070785568,7.380053386192482e-05
-0.4770128169569944,-0.4770128169569944,0.9999469559054525,7.367982853618848e-05
-0.4769423539823038,-0.4769423539823038,1.0000113221885993,7.2887059509782e-05
-0.4767407137202099,-0.4767407137202099,0.9999746239639393,7.628217946873265e-05
-0.4764976975733589,-0.4764976975733589,0.9999226054898751,7.914780843922589e-05
-0.4763599400874227,-0.4763599400874227,1.0000858238283792,7.381917901358849e-05
-0.47627496288187104,-0.47627496288187104,1.000183134926213,7.259114401591743e-05
-0.47610230938298626,-0.47610230938298626,1.0000659204433457,7.28242131120425e-05
-0.47603894934945856,-0.47603894934945856,1.00005444348364,7.212555659487953e-05
-0.47594746322865833,-0.47594746322865833,1.0000766967314116,7.271076311065045e-05
-0.4756804469579947,-0.4756804469579947,0.9999621047915646,7.30196461808486e-05
-0.4756074500219256,-0.4756074500219256,0.9999050847509942,7.374310449566939e-05
-0.47547108468279475,-0.47547108468279475,1.000015823522777,7.328464341915447e-05
-0.47533169227426697,-0.47533169227426697,0.9998408823146336,7.39736720278837e-05
-0.4752104852319462,-0.4752104852319462,1.000044444017283,7.222239605694572e-05
-0.4750473003208754,-0.4750473003208754,0.999976464185315,7.31764737124489e-05
-0.47492585573054386,-0.47492585573054386,1.0000059976227669,7.375028552616695e-05
-0.47481272118675405,-0.47481272118675405,0.9999656386402884,7.234157095135551e-05
-0.4746581528721435,-0.4746581528721435,0.9999504695565686,7.346690385916495e-05
-0.4746092696521373,-0.4746092696521373,0.9999741603759957,7.189175031025198e-05
-0.4744506837792869,-0.4744506837792869,1.0001166986038637,7.234213619126144e-05
-0.47428690153974457,-0.47428690153974457,0.9999488544839956,7.291862274240141e-05
-0.47414808035391615,-0.47414808035391615,1.0000616712897346,7.32214609495631e-05
-0.4738882846184424,-0.4738882846184424,0.9999956502370086,7.323789293196738e-05
-0.4737023095083714,-0.4737023095083714,1.000031681365489,7.27459788150768e-05
-0.4735805437761883,-0.4735805437761883,1.00017277832004,7.500430504907766e-05
-0.473494265582849,-0.473494265582849,0.9999529418793738,7.256449026937765e-05
-0.4733888949776883,-0.4733888949776883,0.9998538907892737,7.247963785276545e-05
-0.4732602723095624,-0.4732602723095624,1.000081155752115,7.336710458479917e-05
-0.47317984174515004,-0.47317984174515004,0.9999803432607578,7.212276840515478e-05
-0.4730143528089684,-0.4730143528089684,0.9999747808711842,7.505189334629188e-05
-0.4729177294691908,-0.4729177294691908,1.0000031236824385,7.238402404220089e-05
-0.4727831394135137,-0.4727831394135137,0.9999431684840397,7.313219391467843e-05
-0.4725720119786274,-0.4725720119786274,1.000117858516343,7.32188291210294e-05
-0.47243344853486635,-0.47243344853486635,1.0001355464065602,7.252277107613699e-05
-0.4722816946145031,-0.4722816946145031,1.0000888093198863,7.26596334808251e-05
-0.4721345029756776,-0.4721345029756776,1.000024027974574,7.322305904449384e-05
-0.4720354700075404,-0.4720354700075404,1.0000400892070025,7.2912383233769e-05
-0.471900807703787,-0.471900807703787,1.0001464736003716,7.264930991462122e-05
-0.47175479265206377,-0.47175479265206377,0.9999995036244457,7.147436898468562e-05
-0.47160532185662307,-0.47160532185662307,0.9999611685964073,7.679965011304259e-05
-0.4715045755408937,-0.4715045755408937,0.9999994611788574,7.313325750316684e-05
-0.47137847893027357,-0.47137847893027357,1.0000148064720322,7.372861645945844e-05
-0.4712524959410075,-0.4712524959410075,1.0001315799605748,7.277746867154812e-05
-0.47106196580207327,-0.47106196580207327,1.0001676619009763,7.265610459224837e-05
-0.4708911539171822,-0.4708911539171822,1.0001219297113657,7.274689313001713e-05
-0.4707374945966876,-0.4707374945966876,1.000076955570604,7.263485681684223e-05
-0.4706290417430864,-0.4706290417430864,0.9999374838927235,7.202131850413593e-05
-0.47043062883021775,-0.47043062883021775,0.999916140568037,7.321526626389037e-05
-0.4702795671284548,-0.4702795671284548,1.0000886312986272,7.210172171401295e-05
-0.47014883212177666,-0.47014883212177666,1.0000670498146556,7.226480997214472e-05
-0.47005469646101117,-0.47005469646101117,1.0000148691232564,7.301616022475562e-05
-0.4699428910469578,-0.4699428910469578,0.9999849144189575,7.304645386047894e-05
-0.4698004151447094,-0.4698004151447094,1.0000290870901183,7.37581370922224e-05
-0.4696454398486821,-0.4696454398486821,1.0000022052751802,7.294839320168109e-05
-0.4695137745475222,-0.4695137745475222,1.00011157713953,7.316805559319026e-05
-0.4693656046933029,-0.4693656046933029,0.9999450878599111,7.250950174871984e-05
-0.46930528816883454,-0.46930528816883454,1.0000455841323954,7.247791791560509e-05
-0.4691151519145933,-0.4691151519145933,0.9999702877660204,7.669970998619365e-05
-0.4689781408269482,-0.4689781408269482,0.9999871072587474,7.232096733135414e-05
-0.46886064564168917,-0.46886064564168917,1.0000356936433281,7.22001361699687e-05
-0.46871857690348406,-0.46871857690348406,0.9999577059560524,7.278783676902417e-05
-0.4686051597585902,-0.4686051597585902,1.0000795329889,7.328472936853139e-05
-0.46848509376795844,-0.46848509376795844,1.000117329352229,7.312866565186721e-05
-0.46838320753304286,-0.46838320753304286,0.9999791423422417,7.388338193864266e-05
-0.4682354182710696,-0.4682354182710696,1.0000026995548024,7.216389712652244e-05
-0.46801873919248466,-0.46801873919248466,0.9999404830309853,7.227242798272114e-05
-0.4679377862623369,-0.4679377862623369,1.0000134456141203,7.279231862802577e-05
-0.4678802802802238,-0.4678802802802238,1.0000563913225158,7.125793124570875e-05
-0.4677257474308135,-0.4677257474308135,1.0001114032246448,7.234997823082708e-05
-0.46761350823799147,-0.46761350823799147,0.9999604854652627,7.28797062897714e-05
-0.4674844633722387,-0.4674844633722387,1.0002176066362058,7.16992841424336e-05
-0.46735432974019203,-0.46735432974019203,0.9999754829539358,7.310641723702175e-05
-0.4672079822383239,-0.4672079822383239,1.0001004968534934,7.362808327533356e-05
-0.467093410956295,-0.467093410956295,1.0000594879151417,7.442842563250087e-05
-0.4669952101285162,-0.4669952101285162,1.0000040971241597,7.338403150184066e-05
-0.4668677636931534,-0.4668677636931534,0.9999563031348615,7.262653955538066e-05
-0.46675020455440974,-0.46675020455440974,1.0000933418188445,7.181451567682989e-05
