time,time,flux,flux_err
-0.4980160856963873,-0.4980160856963873,1.0001652062069084,0.00032653574435850043
-0.4951838157273111,-0.4951838157273111,0.9999334483930914,0.00032644139994278214
-0.4937242486782149,-0.4937242486782149,1.0003270978291081,0.00032866176071018034
-0.492108850618024,-0.492108850618024,1.0002093641987257,0.0003267241047647488
-0.4906739585414471,-0.4906739585414471,1.0000483198587524,0.00029888058554619986
-0.4896683278893761,-0.4896683278893761,1.000304548864715,0.0002985464184323411
-0.4884204620160745,-0.4884204620160745,1.0000288825441752,0.00029811212987729713
-0.4875695314956829,-0.4875695314956829,1.000069612555085,0.0003000928215303136
-0.48581395564979174,-0.48581395564979174,1.0001845274190302,0.0002999442436329006
-0.4836298532078217,-0.4836298532078217,0.9998179263134259,0.0002980947666855547
-0.48078487822858734,-0.48078487822858734,1.0003375606487688,0.0002983147926002256
-0.47864837514207464,-0.47864837514207464,0.9997282843615979,0.00029791983724765446
-0.47746557315476823,-0.47746557315476823,1.0001231614692678,0.00029841708153268125
-0.4758375671386602,-0.4758375671386602,1.0003951665174333,0.000298155707711423
-0.4747198485914851,-0.4747198485914851,1.0000652860174863,0.00029834080573131036
-0.4734283154568402,-0.4734283154568402,0.9999157121499781,0.00029877345851870245
-0.4724030733108521,-0.4724030733108521,0.999876997150125,0.0002978907735158022
-0.47134125007869443,-0.47134125007869443,1.0001763264542072,0.0002996782979229604
-0.46985496863126175,-0.46985496863126175,1.0003214109236613,0.0002995840395293408
-0.46855174932061344,-0.46855174932061344,1.000639559438498,0.00029835824623718774
-0.4663548772528884,-0.4663548772528884,0.9997338867106054,0.000301087608178297
-0.4635200944525423,-0.4635200944525423,1.0001179433369916,0.0002983266466703554
-0.4611963896692032,-0.4611963896692032,1.0005065115983425,0.00029828017380591215
-0.4595215629895392,-0.4595215629895392,1.0002006781087227,0.00029804339384151344
-0.4585790833873034,-0.4585790833873034,0.9998993070335368,0.0003003420730384416
-0.4572415348942741,-0.4572415348942741,0.9999287766490786,0.00029835969110994276
-0.45590603001983254,-0.45590603001983254,1.000551674218148,0.0002985232969942063
-0.45489700132311556,-0.45489700132311556,0.9998487095882223,0.0002990922763711955
-0.4534731026207737,-0.4534731026207737,1.000078156633691,0.00029918623312070547
-0.4525345651811222,-0.4525345651811222,1.0002380539360747,0.00029945535426673754
-0.450636566207686,-0.450636566207686,0.9996530928034361,0.0003000875625405049
-0.44831337836003515,-0.44831337836003515,0.9998183941600048,0.0002979991449563605
-0.4455368471841211,-0.4455368471841211,1.0001681836732863,0.00029806122966456695
-0.4435184846159245,-0.4435184846159245,0.9995342711883625,0.0002981219914047707
-0.4423836507550732,-0.4423836507550732,1.000569176267072,0.0002984388162766966
-0.44092056515073635,-0.44092056515073635,0.9998777374930492,0.00029830004873432337
-0.4395593113877112,-0.4395593113877112,0.9999904498006819,0.0002986464508476195
-0.4385546399396844,-0.4385546399396844,0.9999549348697834,0.0002983809476045577
-0.4373193472783896,-0.4373193472783896,1.0004252228981112,0.0002980722875832014
-0.43646041950923975,-0.43646041950923975,1.0000540715959159,0.00029968481997580024
-0.4347449689703353,-0.4347449689703353,0.9998157053663832,0.00029966097876113983
-0.433378125634772,-0.433378125634772,1.0000653498812482,0.00030133536918813635
-0.4307486212885124,-0.4307486212885124,0.999719745967574,0.0002979985432273812
-0.4275841127397143,-0.4275841127397143,1.0004097408308883,0.00029793886526266217
-0.4260282682065736,-0.4260282682065736,0.9997907191888226,0.0002986384042648217
-0.4246008086447546,-0.4246008086447546,1.0004560191217975,0.0002981299185274614
-0.42347929378665866,-0.42347929378665866,1.0001696175935284,0.0003003985073930739
-0.42231690611006345,-0.42231690611006345,1.000225273472886,0.00029879285417475093
-0.42101748299101016,-0.42101748299101016,0.9997027743087775,0.0002981180730240858
-0.42012432966439517,-0.42012432966439517,0.9998612112433068,0.0002991607232036199
-0.4187016493822739,-0.4187016493822739,0.9998511034900239,0.00029917830617737196
-0.41776476854865907,-0.41776476854865907,1.0006162903494271,0.0002994457735880969
-0.4158644476112386,-0.4158644476112386,1.0005418435617577,0.0003003237818374754
-0.4134985710341425,-0.4134985710341425,1.0002095532834565,0.00029825199821063576
-0.41033849798186567,-0.41033849798186567,1.0001666684475992,0.00029823117303095733
-0.4084274390632345,-0.4084274390632345,0.9997257873649208,0.00029810571468061656
-0.40744737118657215,-0.40744737118657215,1.0002920324919606,0.0003000163571283978
-0.40614314568447296,-0.40614314568447296,0.9996483222515883,0.00029833687414312443
-0.404789672359766,-0.404789672359766,1.0002203659427717,0.0002987829296743211
-0.40378454331148533,-0.40378454331148533,0.999726369562412,0.00029856739527675416
-0.4025433187300223,-0.4025433187300223,1.000108451054704,0.00029802700437057896
-0.4016881802046555,-0.4016881802046555,0.9999101667293491,0.00029994153210138804
-0.3999748315647594,-0.3999748315647594,1.0000418989165305,0.0002999386269417402
-0.39874098628060894,-0.39874098628060894,1.0000736698892037,0.00029815146319124184
-0.3966291661847208,-0.3966291661847208,1.0001299419683898,0.000301266154423756
-0.39405508559939334,-0.39405508559939334,0.9999802167784043,0.0002982090733765274
-0.392011312500108,-0.392011312500108,0.9997544268253984,0.00029823618952132453
-0.39066428152364097,-0.39066428152364097,0.9994638735686078,0.00030809512678451565
-0.3896551459140028,-0.3896551459140028,1.0001434326868157,0.0002984586303546637
-0.38839937852026196,-0.38839937852026196,1.0001353190895192,0.00030136907197106236
-0.3874415005215269,-0.3874415005215269,0.9999392852149965,0.0002983828424111946
-0.38592554269416723,-0.38592554269416723,1.0001890662688018,0.00029865428319337617
-0.3852131509607716,-0.3852131509607716,0.9998324592330909,0.00029861527302528707
-0.38363179202133324,-0.38363179202133324,1.000280362423124,0.0002995036215468595
-0.38226711877432534,-0.38226711877432534,0.9999234768123815,0.0002982050456715176
-0.38005066973855717,-0.38005066973855717,0.9997431140187603,0.0003007797118320284
-0.37698262373232866,-0.37698262373232866,1.0005615053627848,0.0002981010331021583
-0.3747151511073753,-0.3747151511073753,1.0001226908401422,0.0002980856699602413
-0.3733282400266035,-0.3733282400266035,1.0006034767573375,0.0002982976758635665
-0.3720505571734975,-0.3720505571734975,1.0000911325218922,0.0002998883434360513
-0.3710939759752364,-0.3710939759752364,1.000568214150334,0.0002988041830907459
-0.369379077355552,-0.369379077355552,0.9997862895942127,0.00029866203710758767
-0.3686474645182898,-0.3686474645182898,0.9997078851628487,0.00029817077875276496
-0.3672895971263642,-0.3672895971263642,0.9997691430762012,0.00029913854625842094
-0.36628557758886016,-0.36628557758886016,0.9999935511398768,0.00029936281442556964
-0.36442427509464326,-0.36442427509464326,1.0000525649686431,0.000299748207691837
-0.3619193993297813,-0.3619193993297813,1.000353021045472,0.0002981871237767356
-0.35923227816747383,-0.35923227816747383,1.0002375934475536,0.0002980903635944292
-0.35733395299030235,-0.35733395299030235,0.9995918687168366,0.00029805098988212777
-0.356129923799017,-0.356129923799017,0.9999993315629736,0.0002982686273181714
-0.3548800548851432,-0.3548800548851432,1.000411955291474,0.00029841934646696625
-0.3533529164822539,-0.3533529164822539,0.9999914652282362,0.00029849725699998195
-0.35254935416814986,-0.35254935416814986,1.0000343971835024,0.0002984847063535676
-0.3511507170391269,-0.3511507170391269,0.9995371758345405,0.00029872069722773067
-0.3503073960768234,-0.3503073960768234,0.9998507570037756,0.00029884334436176596
-0.34865917730276125,-0.34865917730276125,1.000185803852502,0.0002992734538852839
-0.34712826094109916,-0.34712826094109916,1.0000087998724343,0.0003012105600639336
-0.34462547957227796,-0.34462547957227796,0.9997597768826809,0.00029826982725447997
-0.34170829046488504,-0.34170829046488504,0.9996986280274716,0.0002978411937154205
-0.33978033258827056,-0.33978033258827056,0.9998088580442239,0.0002982378596061218
-0.3385526936675888,-0.3385526936675888,0.999815814486755,0.00029820396518412623
-0.3372805353035801,-0.3372805353035801,0.9997588063487541,0.0003000903556893264
-0.3363266090673278,-0.3363266090673278,1.000028833617613,0.0002988586917094555
-0.3346078260488866,-0.3346078260488866,1.0001764340585204,0.0002987169021616948
-0.3338404965827067,-0.3338404965827067,1.0000390141528683,0.0002985517839154307
-0.3323322575146449,-0.3323322575146449,1.0001104903892037,0.00029909413078513535
-0.33114968854861215,-0.33114968854861215,1.000278350272756,0.00029957082458306815
-0.3292865725408774,-0.3292865725408774,0.9999370775285812,0.0003001018030753212
-0.32578787925231156,-0.32578787925231156,0.9999833000184843,0.00029821183445273217
-0.3236078410234768,-0.3236078410234768,1.000219356139297,0.0002981799487138682
-0.32222678872421967,-0.32222678872421967,1.0004394949144924,0.00029846295834618154
-0.32068991233754784,-0.32068991233754784,1.0001570344465187,0.0002983989419392249
-0.3196755236276658,-0.3196755236276658,0.9999961369625323,0.00029837350119544127
-0.3181340634640947,-0.3181340634640947,1.0003391385417346,0.0002984492229377256
-0.3172772080222785,-0.3172772080222785,1.0003541812065861,0.00029830605104958993
-0.3160063098730461,-0.3160063098730461,0.9995551612132783,0.00029876425857044346
-0.314790588793403,-0.314790588793403,0.9998721958883078,0.0002991872295077894
-0.3134914254827891,-0.3134914254827891,1.000169101889251,0.0002994817206886817
-0.3112261133595894,-0.3112261133595894,0.9993202297449454,0.0003013726670134972
-0.30809341700733056,-0.30809341700733056,0.999928521250629,0.00029817573120141015
-0.30592809844602015,-0.30592809844602015,1.0003227156293721,0.00029828605830247546
-0.3043602226876828,-0.3043602226876828,1.0002386218074613,0.000298409189432054
-0.30346533833653666,-0.30346533833653666,0.9999231583162634,0.00030046425890423585
-0.3019457925656752,-0.3019457925656752,1.0001431081923102,0.00029823187816195893
-0.30105287185506313,-0.30105287185506313,1.0000060807506652,0.00029839277740794734
-0.2996813709527487,-0.2996813709527487,0.9998770482499152,0.00029847252686668373
-0.29869791281889774,-0.29869791281889774,1.0003841076406184,0.00029884774667140025
-0.29748412341068614,-0.29748412341068614,0.9999323742745254,0.0003003844062838566
-0.2960111662658164,-0.2960111662658164,0.9994395318730309,0.000300347546244385
-0.2940989871225611,-0.2940989871225611,0.999793515949581,0.00029809883726461095
-0.29061004622344627,-0.29061004622344627,0.9998581311419137,0.0002979556663642449
-0.2884430543112103,-0.2884430543112103,1.0003121759220637,0.0002980800062664565
-0.28727478665314266,-0.28727478665314266,1.000017791193891,0.00029855561437395513
-0.28562778295527097,-0.28562778295527097,1.0000323903982273,0.00029826874278266857
-0.2845318859901454,-0.2845318859901454,0.999975520877278,0.00029827931933844044
-0.28323288794854307,-0.28323288794854307,0.999665222043961,0.0002988510629586329
-0.2821935066021979,-0.2821935066021979,0.9998953278265639,0.00029787463205018536
-0.2811471286957385,-0.2811471286957385,1.0005411476215005,0.0003000126373629941
-0.27966326176392614,-0.27966326176392614,0.9995926849068164,0.0002998846745215702
-0.278430275178107,-0.278430275178107,0.9997027544800915,0.00029803082654405343
-0.2764566717276466,-0.2764566717276466,0.9998771467225589,0.000301335318030459
-0.2737421171354072,-0.2737421171354072,0.9999637005181855,0.0002980788101097451
-0.2713579562070663,-0.2713579562070663,0.9997005120109055,0.0002981286231698433
-0.26989706964450305,-0.26989706964450305,0.9997496223843669,0.00029805146614683383
-0.2688564358795702,-0.2688564358795702,1.0000139965427406,0.000298730426993735
-0.2678042644969537,-0.2678042644969537,1.000115121598589,0.00030235556377628594
-0.2668921341195528,-0.2668921341195528,0.9998854742524845,0.00029867058552321
-0.2655898871096724,-0.2655898871096724,0.9997526138961206,0.00029805997841293025
-0.26469833116352676,-0.26469833116352676,0.9999009961676055,0.0002992717306494238
-0.2632767026356305,-0.2632767026356305,0.9998732498204651,0.0002993316893201708
-0.26201449065411,-0.26201449065411,1.0003731812483612,0.0002982086907144737
-0.26009443089496925,-0.26009443089496925,0.999732590282788,0.0003004777714902921
-0.25770856243907475,-0.25770856243907475,0.9998745981785264,0.00029824859757450006
-0.2549118380055006,-0.2549118380055006,0.999759094849459,0.0002980304182702874
-0.25299553226068383,-0.25299553226068383,0.9999341198466782,0.0002980761111998448
-0.25203096020122756,-0.25203096020122756,0.9998550616358447,0.00030003640634883517
-0.2507130038946343,-0.2507130038946343,0.9995753342419101,0.0002983349924812121
-0.24936632816898055,-0.24936632816898055,1.0005170915433965,0.0002988818950594727
-0.24836080754466822,-0.24836080754466822,1.0001667653607056,0.00029851906875143414
-0.24711441478211782,-0.24711441478211782,0.9998295676684963,0.0002980706114306081
-0.24626255353941814,-0.24626255353941814,1.0002793914339705,0.00030012474977059926
-0.24482941558017046,-0.24482941558017046,0.9999774221009282,0.00030976836191042115
-0.24331650198582794,-0.24331650198582794,0.9996620897477358,0.00029811571004248916
-0.241202392942796,-0.241202392942796,0.9997542259305392,0.00030153905691041396
-0.2385789914536872,-0.2385789914536872,0.9996950895223493,0.0002981415298727914
-0.2366814151246217,-0.2366814151246217,0.9998907890043691,0.00029803118206948767
-0.23547591703172657,-0.23547591703172657,0.9999156635252954,0.00029826976029491273
-0.23422693321481347,-0.23422693321481347,1.0004142360778574,0.00029839934013239114
-0.2326996119656542,-0.2326996119656542,1.0001757046234736,0.00029857239304275317
-0.23189540985913482,-0.23189540985913482,0.9999700968723705,0.00029848921603869657
-0.23049756300097216,-0.23049756300097216,0.9998700680397705,0.0002986869952716702
-0.22965368574150488,-0.22965368574150488,0.999955815960394,0.0002989630433511661
-0.22800608281540918,-0.22800608281540918,0.9999363659523324,0.0002992990590338475
-0.22647430369033827,-0.22647430369033827,0.9996411638860099,0.0003010174489028297
-0.22397157150917338,-0.22397157150917338,0.9995624192210147,0.00029830889684174004
-0.22105543286670581,-0.22105543286670581,1.0001487094359862,0.0002979106731007479
-0.21912637598143192,-0.21912637598143192,1.0000837782191065,0.00029825927956355177
-0.21789962862603715,-0.21789962862603715,0.9999763786345109,0.0002982377364959124
-0.2166267822496593,-0.2166267822496593,0.9996281384692951,0.00030013504193271667
-0.21567252431123052,-0.21567252431123052,0.9996781915001296,0.00029875368790325353
-0.21395422801870154,-0.21395422801870154,1.0004868570722647,0.00029876807831898106
-0.2131869389988424,-0.2131869389988424,1.0001220916300628,0.0002985456366012487
-0.2116792005712341,-0.2116792005712341,1.00005357899391,0.00029922301348180567
-0.2104953067107999,-0.2104953067107999,0.9996580745498488,0.0002995591547189053
-0.20863303696241928,-0.20863303696241928,1.000516058720216,0.0003000619628385344
-0.20513452748200506,-0.20513452748200506,1.000471558610884,0.0002982525832962757
-0.20295449055556675,-0.20295449055556675,0.999962412665977,0.0002980489460184795
-0.20157378517469624,-0.20157378517469624,1.0000000541348129,0.00029818893465966435
-0.20003670134829007,-0.20003670134829007,0.9996121222912603,0.00029835441287817124
-0.19902123013453094,-0.19902123013453094,0.9996738020580265,0.0002983727852496289
-0.19748114340764006,-0.19748114340764006,1.0000109372170902,0.0002984455353458503
-0.19662381774614915,-0.19662381774614915,0.9998837216348857,0.0002983222993956024
-0.19535329305726917,-0.19535329305726917,1.000178743956916,0.00029871053339058175
-0.19413624416993117,-0.19413624416993117,0.9997907867181528,0.0002991066717486511
-0.19283807241590695,-0.19283807241590695,1.0001870714325931,0.0002995394077341895
-0.19057229849495344,-0.19057229849495344,1.0002265769277605,0.00030125962181032037
-0.18744007592249545,-0.18744007592249545,0.9998483564558225,0.0002980550570920352
-0.18511814520534245,-0.18511814520534245,1.0000881482158328,0.00029816228107429864
-0.18343728498657583,-0.18343728498657583,0.9994490746996794,0.00029826467808885423
-0.18250803263872512,-0.18250803263872512,1.0001952406038335,0.00030050524526706063
-0.1811587422998855,-0.1811587422998855,1.0001013643517482,0.0002983586446651173
-0.18002730139851336,-0.18002730139851336,1.0001399063662881,0.0002983076062830914
-0.1789209333641338,-0.1789209333641338,1.0003350882325115,0.00029933968685188947
-0.17771600281994324,-0.17771600281994324,0.999987597857071,0.0002980255602764108
-0.17671854223153788,-0.17671854223153788,1.000458932728919,0.0003006321554451435
-0.174962389699067,-0.174962389699067,0.9998184845213028,0.00030021327927057516
-0.1727904365718132,-0.1727904365718132,1.0003007794282803,0.0002982222596748387
-0.16945640017438562,-0.16945640017438562,0.9995643355885437,0.00029805680531070933
-0.16743437295372132,-0.16743437295372132,1.0001214757065116,0.00029830728156325214
-0.1663088324406999,-0.1663088324406999,1.00013946430755,0.00029837719561388805
-0.16483748938335338,-0.16483748938335338,1.0001059326198694,0.00029825395231596486
-0.1634820720872085,-0.1634820720872085,1.0001486309478034,0.000298616687966089
-0.16247705695059267,-0.16247705695059267,0.999759242890429,0.0002985074494430916
-0.16123731195693836,-0.16123731195693836,0.999895603706318,0.0002980894293031934
-0.16038123072648885,-0.16038123072648885,0.9997336941387713,0.00029979036061358595
-0.1586673578254704,-0.1586673578254704,1.0000254856250181,0.0002998966042874434
-0.15743371253847727,-0.15743371253847727,1.000174106951088,0.00029807270813254173
-0.15532254744466628,-0.15532254744466628,0.9997135883915156,0.0003012479136155626
-0.15255078424088425,-0.15255078424088425,1.000451543533972,0.0002980045789526759
-0.15070460088099935,-0.15070460088099935,0.9997094066724788,0.0002981795393854062
-0.14924386641796444,-0.14924386641796444,1.0002248841251953,0.00029806839038640297
-0.14820241940324194,-0.14820241940324194,0.9997930013500291,0.0002986672143883209
-0.14707165653453558,-0.14707165653453558,1.0002289008224765,0.00030114070703608694
-0.14613410833044327,-0.14613410833044327,1.0002914416753987,0.0002984353391991165
-0.14461926958247204,-0.14461926958247204,0.9997762521215352,0.0002985727880731261
-0.14390662639634683,-0.14390662639634683,0.9997281285773264,0.00029854826880952026
-0.14232438462713617,-0.14232438462713617,1.0000906743226992,0.00029939086733208025
-0.14133277651344542,-0.14133277651344542,0.9996484108625803,0.0002998196430356776
-0.13944149044691584,-0.13944149044691584,1.0000029906183656,0.00030020623355492265
-0.13705502879529377,-0.13705502879529377,1.0002058948421395,0.00029842303526887075
-0.13425849724881117,-0.13425849724881117,1.0002664428447712,0.0002980624724675165
-0.13234294067660812,-0.13234294067660812,0.9998965010280945,0.00029817643675229404
-0.1313761573357624,-0.1313761573357624,1.000052239062174,0.00030009673016710025
-0.1300601624752744,-0.1300601624752744,0.9997657658447576,0.00029829298916798333
-0.12871251525430125,-0.12871251525430125,1.0002482257090133,0.00029880643210004356
-0.12770704931754154,-0.12770704931754154,0.9998521451144227,0.0002984660063491939
-0.12646139537391718,-0.12646139537391718,0.9999124013668933,0.00029812719784985014
-0.12560906617727596,-0.12560906617727596,0.9999456419129586,0.0003000305649144582
-0.12385361654669395,-0.12385361654669395,0.9999083562930202,0.00029978582861321207
-0.1223038694166462,-0.1223038694166462,0.999975994047692,0.0003016701477875307
-0.11990363348231767,-0.11990363348231767,0.9999343553650402,0.0002979892165485101
-0.11750741639843909,-0.11750741639843909,1.0000490378315288,0.00029834278744913893
-0.11588116739003454,-0.11588116739003454,1.0002228132054731,0.0002980347508982881
