time,time,flux,flux_err
-0.4999134203011636,-0.4999134203011636,0.9998426162002831,0.00013189052301433747
-0.49979354983515806,-0.49979354983515806,1.000031165157494,0.0001428384722883077
-0.49963127763039666,-0.49963127763039666,1.0002370878837745,0.00012801329099749092
-0.49954232370946555,-0.49954232370946555,1.0002493429052735,0.0001262895639232825
-0.49941973278691876,-0.49941973278691876,1.0000337361056733,0.00013123333659387687
-0.49927542212462866,-0.49927542212462866,1.0000050606493012,0.00012596256010599625
-0.4991768197709462,-0.4991768197709462,1.0002519975702766,0.0001290373714403283
-0.49908290171806585,-0.49908290171806585,0.9999126656519394,0.00012546524430227644
-0.4989749834596296,-0.4989749834596296,1.000154634733934,0.00012954782737667204
-0.4988866336549108,-0.4988866336549108,1.0001401480712486,0.0001307239155659882
-0.49874515751653237,-0.49874515751653237,0.9998922014828929,0.000136262770481691
-0.498526858684636,-0.498526858684636,1.0001301128199092,0.00012656725584453245
-0.4983476868183061,-0.4983476868183061,1.0000173568587885,0.0001344699696425942
-0.4982050994280144,-0.4982050994280144,1.0002102734561673,0.00013317180860037848
-0.49814367905783,-0.49814367905783,1.0001009455915288,0.00012583525643899995
-0.49809202347460085,-0.49809202347460085,0.9998772743327479,0.00013028435563431699
-0.49799619410332524,-0.49799619410332524,1.0000853324810062,0.00012864774169535316
-0.4978880190748896,-0.4978880190748896,0.9999757768314073,0.00013592763011484262
-0.49774573741524364,-0.49774573741524364,0.9998613208612819,0.00012908752518685414
-0.49759735552870554,-0.49759735552870554,1.000074495786615,0.00012808177428916135
-0.4974760152457748,-0.4974760152457748,0.9998613690133096,0.00012755980013512874
-0.4972857545348234,-0.4972857545348234,0.9997271017304502,0.000129654397114094
-0.49712454135369627,-0.49712454135369627,1.0001846155177438,0.00012718991090787326
-0.49699854839855107,-0.49699854839855107,0.9999092579951558,0.0001252236079930017
-0.49689189452547,-0.49689189452547,0.9998498797751971,0.00013327761392685532
-0.4968088588997489,-0.4968088588997489,0.999970077121362,0.00013549030087706078
-0.4966013953089714,-0.4966013953089714,0.9999294892993564,0.0001312167733056081
-0.49646996931551257,-0.49646996931551257,1.000065482378287,0.00013002888679378887
-0.49640056743301103,-0.49640056743301103,0.9999214269781243,0.0001308785568928741
-0.4963452904834412,-0.4963452904834412,0.999988631397964,0.0001358821240541501
-0.4961884252188611,-0.4961884252188611,1.0001328390529252,0.00013547019929783524
-0.49601460396515906,-0.49601460396515906,1.0000065523528627,0.0001254451893642566
-0.49587541769942617,-0.49587541769942617,0.9999638361819521,0.00013046458990861678
-0.49572494961394115,-0.49572494961394115,1.0000201975611134,0.00012951542608531451
-0.4956236743964837,-0.4956236743964837,1.0002149932680238,0.00012851385646441704
-0.49544957329708267,-0.49544957329708267,1.000052544271176,0.0001277790607051685
-0.49539204716202223,-0.49539204716202223,0.9998698975847897,0.00012848015701960895
-0.49530704475473614,-0.49530704475473614,1.0000571576629278,0.00013277449536193436
-0.4951693883667758,-0.4951693883667758,0.9999627222462489,0.00013467475213464053
-0.4950531173235504,-0.4950531173235504,0.9999263199878555,0.00013471727423991866
-0.4948621064686449,-0.4948621064686449,1.000000299786865,0.00013796124733081544
-0.49460473616491074,-0.49460473616491074,1.0001898452860982,0.00013408971062902687
-0.4944607375095075,-0.4944607375095075,0.999937379520752,0.00013036461734335737
-0.494413436861214,-0.494413436861214,1.00009004049411,0.00012773516485462468
-0.494305992063164,-0.494305992063164,0.9999355435813893,0.00012874642076914837
-0.49419743108082914,-0.49419743108082914,1.0000617785475114,0.00013730065767941828
-0.4941262862208532,-0.4941262862208532,0.9998664560596158,0.00013037523042243554
-0.4939830142800929,-0.4939830142800929,0.9999501719233821,0.00012889856805734288
-0.49378681277812575,-0.49378681277812575,0.9999830138127915,0.00012752309759446484
-0.49366007888893365,-0.49366007888893365,1.0001002348361754,0.00012846376359347588
-0.49352713053667685,-0.49352713053667685,0.9996619002417617,0.00013364025336265573
-0.4932943006955611,-0.4932943006955611,0.9999801218455694,0.00012966616078569158
-0.49319837117072896,-0.49319837117072896,1.0001836380439362,0.00013018510683331243
-0.4931107822638296,-0.4931107822638296,1.0001817200951468,0.0001331924800932178
-0.4930246422154596,-0.4930246422154596,1.0000313732406332,0.00012962270272943714
-0.4928461958566913,-0.4928461958566913,0.9999474734704545,0.0001312562245873755
-0.4927548023384588,-0.4927548023384588,1.0000957062884737,0.00013119444228820972
-0.492692161926243,-0.492692161926243,0.9999724646417697,0.0001292084828010429
-0.49264764055915294,-0.49264764055915294,0.9999931933853127,0.00013708442696505583
-0.4925869353268354,-0.4925869353268354,1.0001609603146093,0.00013550609778148758
-0.4924322825645504,-0.4924322825645504,1.0000707262103252,0.00013357013051010252
-0.49228747011948143,-0.49228747011948143,1.0000399835122482,0.0001284238921653191
-0.4921462929851259,-0.4921462929851259,0.9999867413322207,0.00012923533739631692
-0.49199997360774433,-0.49199997360774433,1.0000123936786713,0.00013289643652223125
-0.4918223631873843,-0.4918223631873843,0.9999133890214011,0.00012928334081979565
-0.4916581283257983,-0.4916581283257983,0.9999664715897051,0.00013193945161367747
-0.4915796834073262,-0.4915796834073262,0.9997633150938897,0.00013247538035691484
-0.49148704885228656,-0.49148704885228656,1.0001477587428076,0.0001245785538749806
-0.49141848462677445,-0.49141848462677445,0.9999847284059017,0.00013352352419339402
-0.49126151883101554,-0.49126151883101554,0.9999458931133518,0.00013345587486989933
-0.4911492766448646,-0.4911492766448646,1.0000098695431272,0.00012827177660104818
-0.49099101073225027,-0.49099101073225027,1.0000825380113427,0.00013476632307246088
-0.49076329616073056,-0.49076329616073056,0.9996185247748215,0.000130311781761092
-0.49069538481053315,-0.49069538481053315,1.0000419251117363,0.00013312013086592454
-0.4905764891576837,-0.4905764891576837,1.0000023141777585,0.00012867043277064958
-0.49047851476789217,-0.49047851476789217,0.9998790809344079,0.00013262522638918408
-0.4904059364540444,-0.4904059364540444,0.9999631196510517,0.000126197430230917
-0.49035966365845524,-0.49035966365845524,1.0001389501142355,0.00012863717898439588
-0.49015362808131613,-0.49015362808131613,1.0000317851065077,0.00012731084210666955
-0.48998061751553906,-0.48998061751553906,0.9999434327339083,0.00013134021245655956
-0.4898523419753474,-0.4898523419753474,1.0002014389774474,0.0001298967216444734
-0.4896494268265087,-0.4896494268265087,1.0001078439394582,0.0001277112865760006
-0.48951779377093774,-0.48951779377093774,1.0000005217461134,0.0001276237074554036
-0.4894477612120681,-0.4894477612120681,1.0000217872363741,0.00013191023684862023
-0.48935198411563763,-0.48935198411563763,0.9999192652614756,0.00013271288306877202
-0.4892479305897723,-0.4892479305897723,1.0001124870204516,0.00012689173377979765
-0.48913675803414663,-0.48913675803414663,0.9999222670606244,0.00012876515931851368
-0.4889704663095472,-0.4889704663095472,1.0000685247149228,0.00013334437875695928
-0.4888721264898777,-0.4888721264898777,1.0000535026413078,0.00013368853966229326
-0.4887786081082595,-0.4887786081082595,0.9999713066247103,0.00012863531814134968
-0.48865669338265433,-0.48865669338265433,0.999752078792055,0.00013451231289838235
-0.488501252282731,-0.488501252282731,0.9997905260380637,0.00013067940406573175
-0.48840046008335775,-0.48840046008335775,0.9999259205164158,0.0001324142683300085
-0.48827772295553584,-0.48827772295553584,1.0000787714000177,0.00012565484805781535
-0.4880984252144117,-0.4880984252144117,0.9999375733344165,0.0001299973977105831
-0.4879732927431178,-0.4879732927431178,0.9998645922940927,0.00013450380500680607
-0.48790540887857786,-0.48790540887857786,0.9998250872087544,0.00012722974607870635
-0.48782546366855967,-0.48782546366855967,1.0000564218518826,0.00013175769001051523
-0.48771205394295974,-0.48771205394295974,1.0001430302141003,0.00013130421047929654
-0.4876141380700574,-0.4876141380700574,1.0000465499327489,0.00013144223402861897
-0.4875089729561296,-0.4875089729561296,0.9999916184327361,0.00013058590716546282
-0.48736537378790673,-0.48736537378790673,1.000107633255766,0.0001303366859711977
-0.4872102545523376,-0.4872102545523376,1.0000928362366677,0.00013733045239331637
-0.48702582932455696,-0.48702582932455696,1.0000425273484972,0.00012900238547663954
-0.48685347569262377,-0.48685347569262377,0.9998138849597753,0.0001305580874273561
-0.4867301965787192,-0.4867301965787192,0.9998591691469774,0.0001273792747253449
-0.48664212551375385,-0.48664212551375385,0.999852938902819,0.00013050541823301243
-0.48649685382843016,-0.48649685382843016,0.9998460887833416,0.00012440195269139038
-0.48639692849465066,-0.48639692849465066,0.9999964905308619,0.00013201522173875163
-0.4862569440345396,-0.4862569440345396,0.9998213491614909,0.00013135474330516541
-0.4860561239467643,-0.4860561239467643,1.000001035504149,0.00012790011762820347
-0.48588350653080853,-0.48588350653080853,1.000048863917415,0.0001301814794429968
-0.485771300207125,-0.485771300207125,1.0000207924935376,0.00012993863933499544
-0.4856911446840968,-0.4856911446840968,1.0001265733426143,0.00013824240031526104
-0.4855607238081575,-0.4855607238081575,1.0000018291736972,0.00012817079210129763
-0.48548310545229467,-0.48548310545229467,0.9999192952340399,0.00012679325550024717
-0.48542496960508286,-0.48542496960508286,0.9999574062016796,0.00012979158482668041
-0.48528096445661506,-0.48528096445661506,0.9999843344082724,0.00013165161255008524
-0.48512174452262113,-0.48512174452262113,1.0001604802799566,0.00012533832549503702
-0.48506372251795254,-0.48506372251795254,1.0000440977031166,0.0001366577507783878
-0.4849763933409122,-0.4849763933409122,1.000133423750866,0.00013015496553385128
-0.4848734224207874,-0.4848734224207874,0.999880098589402,0.00012747327864348626
-0.4846322871679149,-0.4846322871679149,1.0002330517823466,0.0001359288728565577
-0.4845516558911186,-0.4845516558911186,1.0001175889482445,0.00012482535845250518
-0.4844435200400767,-0.4844435200400767,1.00012704248475,0.0001277747522157747
-0.48428725751582535,-0.48428725751582535,0.9999624920481871,0.0001297464973841699
-0.4842124290764332,-0.4842124290764332,1.0000994774677037,0.00013221671443033127
-0.4841053343407111,-0.4841053343407111,1.0000326136244209,0.0001305035755015214
-0.4839352795162995,-0.4839352795162995,1.000190833723451,0.0001306807024786305
-0.4838765315464116,-0.4838765315464116,0.9999456357400174,0.00012874106762626145
-0.48381946172594326,-0.48381946172594326,0.999956338814021,0.00013451475821796697
-0.4837428219456342,-0.4837428219456342,1.0000698973861302,0.00012850041525689528
-0.48358086828593516,-0.48358086828593516,1.0000865883980254,0.00013248284842494603
-0.4834174332820112,-0.4834174332820112,1.0000583791040858,0.00013481203793948114
-0.4833007841363724,-0.4833007841363724,1.0000298318957577,0.00012843391368381476
-0.4831559549173107,-0.4831559549173107,1.0000625593217518,0.00012901380790794403
-0.4830524858210993,-0.4830524858210993,0.9998776532383585,0.00013108703958521922
-0.4829132798899082,-0.4829132798899082,1.0000765183097204,0.00012836623155670408
-0.482797376155213,-0.482797376155213,0.9999650883214748,0.00012645469900215463
-0.4826698181546817,-0.4826698181546817,1.0001989877285833,0.0001362803456284118
-0.4825267970860295,-0.4825267970860295,1.0000557524495604,0.00012844643698640406
-0.48236118937056743,-0.48236118937056743,0.9999596562678047,0.00013232416083986998
-0.48212835567464934,-0.48212835567464934,0.999852418717356,0.00013229185201502517
-0.4820091106441396,-0.4820091106441396,0.9999582663346895,0.0001321750404818869
-0.4818892672228685,-0.4818892672228685,0.9997594492274017,0.00013070262102638785
-0.4818346127132827,-0.4818346127132827,0.9997667244538814,0.0001256617570653865
-0.4817850759449357,-0.4817850759449357,1.000057462771518,0.00013202859904929405
-0.4816733916384692,-0.4816733916384692,0.9999601449036982,0.00012602740190029735
-0.4815798086965515,-0.4815798086965515,1.0000587178533284,0.0001423422391898334
-0.48149248996633104,-0.48149248996633104,0.9999267096639809,0.00012990871816205714
-0.48132515947436333,-0.48132515947436333,1.0000297209928068,0.00012737697762573545
-0.48119278008671246,-0.48119278008671246,0.9998875270577472,0.0001258351139531106
-0.48113000307566833,-0.48113000307566833,1.0001270898470687,0.0001278960149625735
-0.48093935937140486,-0.48093935937140486,1.0000711009367884,0.00013593540457288063
-0.48078745343445917,-0.48078745343445917,0.9999248965789551,0.00013069665690714882
-0.48063910068449334,-0.48063910068449334,0.9999320542741368,0.00012778698277701495
-0.4805614191034692,-0.4805614191034692,1.0000279123198452,0.0001299659206724671
-0.48046567038036303,-0.48046567038036303,1.000155602660047,0.00013378775051553084
-0.4802970587501477,-0.4802970587501477,1.000186619485642,0.00013073390248072558
-0.4802000474322995,-0.4802000474322995,0.9999849399755838,0.00012705430792292244
-0.4801587311223557,-0.4801587311223557,1.0000487623389893,0.00012915152848661226
-0.48009999937276004,-0.48009999937276004,1.0000533328180132,0.00013066874279911894
-0.479990900226403,-0.479990900226403,0.9998611860034338,0.0001319169616827076
-0.47981004063112775,-0.47981004063112775,1.000228975991209,0.0001308710610458634
-0.47963018615118924,-0.47963018615118924,0.9999180260155667,0.00013087520211391187
-0.47948022251948713,-0.47948022251948713,1.0000491484217846,0.00012728872859925835
-0.47940135545359225,-0.47940135545359225,0.9998560550315888,0.0001339715654188364
-0.4791646665027656,-0.4791646665027656,1.0001523434207265,0.00012840642721877692
-0.47903992058563744,-0.47903992058563744,1.0000954226539873,0.0001313172629312364
-0.4788779943737609,-0.4788779943737609,0.9998273925710592,0.00013365280640158716
-0.47878805703876426,-0.47878805703876426,0.9999727182366197,0.0001270022483157464
-0.4786481437127804,-0.4786481437127804,0.999925379068894,0.00013393294816188905
-0.4784602225809067,-0.4784602225809067,0.9997247103744143,0.00013318499620498635
-0.47821191443581484,-0.47821191443581484,1.000001753583623,0.00012976889318660535
-0.47810847385553645,-0.47810847385553645,0.999906179754214,0.00013276480389841152
-0.47798701473875554,-0.47798701473875554,1.000149675259102,0.00012917959432675398
-0.4778796752616472,-0.4778796752616472,0.9999864605195284,0.00013433280282759192
-0.47783184674626683,-0.47783184674626683,0.9999240453847007,0.00013170337405328162
-0.4777344217603968,-0.4777344217603968,1.0001945185287162,0.0001264346579287379
-0.4775343430621433,-0.4775343430621433,1.000090037408101,0.00012736006584015852
-0.47738473139907,-0.47738473139907,0.9998688739218589,0.0001315070392581874
-0.4772741021559341,-0.4772741021559341,1.0001140490686808,0.0001307268897855002
-0.47709519067284417,-0.47709519067284417,1.0001229490707264,0.00012750440818005585
-0.4769630648894235,-0.4769630648894235,1.0000868823445894,0.00013285367124095008
-0.4768840128315787,-0.4768840128315787,0.9996893452285052,0.00012819242126012553
-0.4767853003279015,-0.4767853003279015,1.0000816357143263,0.00013373033081816047
-0.47662439574341986,-0.47662439574341986,0.9999477731545354,0.00013072667128421247
-0.47652838989451995,-0.47652838989451995,0.9998680203252928,0.00012749477664951312
-0.4764468878594926,-0.4764468878594926,0.9999506718462715,0.00013219318143632786
-0.4763870268703613,-0.4763870268703613,0.9999799194246701,0.00013211126936596199
-0.4763085217025946,-0.4763085217025946,1.000118654330619,0.00013274259090605213
-0.47617302182043203,-0.47617302182043203,1.0001793944132802,0.00012905297875452756
-0.47600723621362706,-0.47600723621362706,1.000264494692,0.00012801078056627344
-0.4759094119690417,-0.4759094119690417,0.9999636973804226,0.000132168325327888
-0.4758288048848044,-0.4758288048848044,0.9997305413634001,0.00012913607986955524
-0.47558668586352726,-0.47558668586352726,1.0000837130119864,0.0001295246827120739
-0.47540166894323194,-0.47540166894323194,1.0001937862125885,0.00013212934481767968
-0.4753137090774544,-0.4753137090774544,0.9999747884489094,0.00013711164908291815
-0.47525369808572576,-0.47525369808572576,0.9998957975587099,0.00013075099542757314
-0.47512941397289976,-0.47512941397289976,1.0000654796919703,0.00013162277234999957
-0.4750182251751539,-0.4750182251751539,0.999792824686884,0.0001340113654167529
-0.47489163189820827,-0.47489163189820827,0.9999840180605026,0.00012636391633244967
-0.474751540471334,-0.474751540471334,1.0001853765520143,0.00013488153624400528
-0.47453259557951244,-0.47453259557951244,1.0000000333893675,0.0001271505592695262
-0.4743950825170032,-0.4743950825170032,0.9997127942160766,0.00013393624671637598
-0.47424082985744465,-0.47424082985744465,0.9999547523805438,0.00012744262381816565
-0.47415983515311383,-0.47415983515311383,0.9999500705879335,0.00012570909074426207
-0.47408571451378523,-0.47408571451378523,0.9999074749740167,0.00013148995333566016
-0.47399546489177735,-0.47399546489177735,0.9999479543838051,0.00012894622336196007
-0.47380043447192294,-0.47380043447192294,0.9999249872600199,0.0001304175622364695
-0.47362358217142175,-0.47362358217142175,1.0000192084369819,0.00012942068451077024
-0.4734504693646159,-0.4734504693646159,0.9999242076192527,0.00012621483055913087
-0.47328057017875835,-0.47328057017875835,1.0000033244682052,0.00013052466252374423
-0.47319495464325884,-0.47319495464325884,1.0000184171673578,0.0001295871152835917
-0.4730825301747245,-0.4730825301747245,0.9999362723777876,0.00013503100074687237
-0.4729668778265477,-0.4729668778265477,0.9998763963429045,0.000130205727904312
-0.47284049013251206,-0.47284049013251206,0.9998039828846382,0.00012910399204328895
-0.47267135993679404,-0.47267135993679404,1.000016743743665,0.00013160967667921936
-0.47257965232638527,-0.47257965232638527,0.9999629171512628,0.00013066298114421983
-0.4724920469539938,-0.4724920469539938,1.0001379060191493,0.00013021387410306037
-0.472401687195088,-0.472401687195088,0.9999561791310724,0.00012858140831298348
-0.4722761310498754,-0.4722761310498754,0.9999114127153685,0.0001349671957622264
-0.4720451512876025,-0.4720451512876025,0.9998991305941896,0.00013027632743366923
-0.4718196576555783,-0.4718196576555783,1.0000636116945738,0.00012918828538439152
-0.47167006427043817,-0.47167006427043817,0.999739520092127,0.00013583945308072201
-0.4716106500804017,-0.4716106500804017,1.000163515733157,0.00013008950373498413
-0.471470238231268,-0.471470238231268,0.999914621955625,0.00013110541701929313
-0.471349074185855,-0.471349074185855,0.9998834652045921,0.00013197023530287064
-0.47126614923690796,-0.47126614923690796,1.0000979675586006,0.00013455924351431255
-0.47118452578797587,-0.47118452578797587,1.0000780915644352,0.00012713778710135264
-0.47102569346752715,-0.47102569346752715,1.000253114338935,0.00013134801327316175
-0.4709251328815299,-0.4709251328815299,0.9999813204512658,0.00014639102342762096
-0.47076972835566266,-0.47076972835566266,1.0001192794054354,0.00012907122410374736
-0.47062559604964915,-0.47062559604964915,1.000075760449596,0.00012963968954756336
-0.47054569624888243,-0.47054569624888243,1.0001787643565907,0.00013087304402021056
-0.4704114441359707,-0.4704114441359707,1.0000564790578266,0.00012734890521231754
-0.4703163193378714,-0.4703163193378714,1.000088651141752,0.00012877727360481134
-0.4702070122177247,-0.4702070122177247,0.9996929783515487,0.00012612157126311744
-0.47007461404718925,-0.47007461404718925,1.0000131862246104,0.00013173179661756152
-0.4699158753966913,-0.4699158753966913,0.9999335285430762,0.00013106126182253964
-0.46960176742650217,-0.46960176742650217,0.999945814852387,0.0001285554421559747
-0.46947332543713854,-0.46947332543713854,0.9999529903346902,0.00013149200634332502
