time,time,flux,flux_err
-0.4988711820163492,-0.4988711820163492,1.0001305765336974,0.0004892720561029039
-0.4956570976792136,-0.4956570976792136,0.9995974395580648,0.0004725842890816923
-0.4940881863585673,-0.4940881863585673,1.0000310732350952,0.0004700517145323664
-0.493064351027715,-0.493064351027715,1.0000442369014366,0.00042787700685847555
-0.4923073277604999,-0.4923073277604999,1.0001406031874756,0.0004277529796869326
-0.4916556701209629,-0.4916556701209629,0.9999264153674525,0.0004276733373889701
-0.4911158492090181,-0.4911158492090181,0.9996491993031575,0.0004270834143752322
-0.4907628453191137,-0.4907628453191137,0.9997919356873949,0.00042870880640905236
-0.4906910749996314,-0.4906910749996314,1.0001784615916658,0.00043974011435796953
-0.48973342776298523,-0.48973342776298523,1.0000157394918108,0.00043476973024225214
-0.4868891667603748,-0.4868891667603748,0.9999022784149428,0.0004292433899232115
-0.4839861925371224,-0.4839861925371224,0.9994405580498859,0.0004294220201399002
-0.48125481106399093,-0.48125481106399093,0.9997930359845271,0.0004286837972422732
-0.4795955403213156,-0.4795955403213156,1.0003099458530413,0.00042882820697898665
-0.4776669699785998,-0.4776669699785998,1.0004959994937495,0.0004313318041450231
-0.4756559489032952,-0.4756559489032952,1.000678303432748,0.000439581132015184
-0.47363979076035323,-0.47363979076035323,1.0001927353812965,0.00044412946836063427
-0.4708952002954902,-0.4708952002954902,0.9999605568342315,0.0004361588553632413
-0.4699371275579324,-0.4699371275579324,1.0000351032632655,0.0004285566519839976
-0.46902956181147604,-0.46902956181147604,1.000842602050705,0.0004290342189996513
-0.46821091741730925,-0.46821091741730925,0.9999474988640419,0.00042773860390890204
-0.46750841620669237,-0.46750841620669237,0.9991112213722577,0.00042687430631370774
-0.46695251162163914,-0.46695251162163914,1.000489134699386,0.00042783616312992554
-0.4664655753062107,-0.4664655753062107,1.0010634837323409,0.00042793901701391996
-0.46630515409633516,-0.46630515409633516,1.0000735663744034,0.0004396424171490957
-0.4653882876475109,-0.4653882876475109,1.0000218499282343,0.0004346593984252278
-0.4631722073390847,-0.4631722073390847,0.9998781625963566,0.0004288733363209467
-0.46081426421587823,-0.46081426421587823,0.9995485666745593,0.0004293371059396871
-0.45801976960792673,-0.45801976960792673,0.9999832153623659,0.0004290937772838549
-0.45568879026104697,-0.45568879026104697,0.9998330167872396,0.00042847894052818424
-0.4539493800897617,-0.4539493800897617,1.0000491983377127,0.0004298699908387325
-0.45166770426149017,-0.45166770426149017,0.9996237365008207,0.00043692335663592124
-0.4497547688544728,-0.4497547688544728,1.0003532885857511,0.00044438700546969173
-0.4463118508807383,-0.4463118508807383,1.00043341775739,0.00042799760822199214
-0.445258436378208,-0.445258436378208,0.9997087750592233,0.0004294319662531989
-0.4444657877815189,-0.4444657877815189,1.0000329626781235,0.00042789388758135704
-0.44366800171555953,-0.44366800171555953,1.0004743182264515,0.0004278020306703092
-0.443194773956202,-0.443194773956202,0.9998569740649735,0.0004268340314372993
-0.4426905545726186,-0.4426905545726186,1.0005841681534036,0.00042778888069955524
-0.44219788510818037,-0.44219788510818037,1.0002349217635296,0.0004272110647354519
-0.4419657080405159,-0.4419657080405159,0.999529288514343,0.0004367205424129413
-0.44163741102966014,-0.44163741102966014,1.0007806808125888,0.0004374279523267982
-0.4391696324251825,-0.4391696324251825,0.9996730166128632,0.0004293280755306219
-0.43644866037066093,-0.43644866037066093,1.000759717765785,0.00042940622497007503
-0.4336522227997193,-0.4336522227997193,0.9998556636405344,0.0004291521454021153
-0.43131956738070587,-0.43131956738070587,1.00009286842792,0.000428504511753054
-0.42961046335694847,-0.42961046335694847,0.9996347616263115,0.0004297757695167242
-0.4272956762026297,-0.4272956762026297,0.9998094136040528,0.0004367941592917981
-0.42403632223431487,-0.42403632223431487,0.9999321625836091,0.0004405926127877117
-0.42168291002744807,-0.42168291002744807,1.0014485224400134,0.0004290296874503851
-0.42072375378047583,-0.42072375378047583,1.000077359688169,0.0004282475260975663
-0.41993408389680553,-0.41993408389680553,0.9998447320447635,0.0004277408950739306
-0.41914908883627505,-0.41914908883627505,0.9996546594706215,0.0004276499845739224
-0.41871784184186256,-0.41871784184186256,0.9998027761795647,0.0004269143988239887
-0.4181908602506155,-0.4181908602506155,0.9999551591524307,0.00042769911464230257
-0.41770047370519026,-0.41770047370519026,1.0001798263059132,0.00042787010582904925
-0.41753285322047307,-0.41753285322047307,1.00016894740703,0.00043957840726540937
-0.416498031039373,-0.416498031039373,1.0000291439027502,0.0004344311942267785
-0.4137958577979589,-0.4137958577979589,0.9997747837856265,0.00042929754199273214
-0.41183516509772744,-0.41183516509772744,1.000227071213346,0.00043335949981227005
-0.4098485899739899,-0.4098485899739899,1.0004081055509064,0.00042852960601016683
-0.4074762490869034,-0.4074762490869034,1.0003378207743918,0.0004286052130699617
-0.4053396886825794,-0.4053396886825794,0.9999069321227733,0.00042964649625545654
-0.4029236586182378,-0.4029236586182378,1.0003250276142577,0.00043675967979164176
-0.40017190657381435,-0.40017190657381435,0.9997782699856668,0.00044443083252625247
-0.39753612923377657,-0.39753612923377657,0.9992979715689392,0.00042827704516260794
-0.3966616027057171,-0.3966616027057171,1.0001406495483567,0.0004285095250704484
-0.396002197265625,-0.396002197265625,1.000132034669202,0.000428143975517588
-0.39523256284592206,-0.39523256284592206,0.9997899845002614,0.00042852618097175823
-0.39459613917570097,-0.39459613917570097,0.9997343798658349,0.0004269645322703094
-0.3941367504914524,-0.3941367504914524,1.0006392151549277,0.00042767412459316924
-0.3935982612514636,-0.3935982612514636,0.9996266858308772,0.0004271291770861545
-0.3932929675647756,-0.3932929675647756,1.000228019709947,0.0004278521538799339
-0.39313218418683393,-0.39313218418683393,0.999917386894945,0.00044944104804383575
-0.39256182523677124,-0.39256182523677124,0.9997825927458752,0.0004358700752452564
-0.38983368191402407,-0.38983368191402407,0.9997956634382266,0.00042878679452588764
-0.38774994120176415,-0.38774994120176415,1.0008041971458925,0.0004292763269324042
-0.38587458651745693,-0.38587458651745693,1.000174592047231,0.0004289340902301626
-0.38312844302563465,-0.38312844302563465,1.0002390253240123,0.00042843286631314955
-0.38150825358752627,-0.38150825358752627,0.9994941256209481,0.0004284705409652559
-0.37952882306999525,-0.37952882306999525,1.0012685626167237,0.0004332292991599598
-0.37709082106885033,-0.37709082106885033,0.9998678976669106,0.00044450785597398176
-0.3743011545884656,-0.3743011545884656,1.0000773943526542,0.0004365650961343431
-0.3727141163282795,-0.3727141163282795,1.000539571297481,0.0004287942272177076
-0.371820909314556,-0.371820909314556,1.000340121163937,0.000428148033491261
-0.37118067932024135,-0.37118067932024135,0.9999486840680909,0.00042779348772956354
-0.3704818878264632,-0.3704818878264632,1.0003824599758002,0.00042772982367562517
-0.36986217952508016,-0.36986217952508016,0.9998907654485407,0.00042765965772583223
-0.3693349130335264,-0.3693349130335264,1.0001979889428427,0.0004269440908430845
-0.3689941604592605,-0.3689941604592605,0.9996552087263225,0.0004276427403557024
-0.3688160757970763,-0.3688160757970763,1.0007727348758377,0.0004285491885168098
-0.36873262710287236,-0.36873262710287236,1.0003172614922797,0.00045425788050182364
-0.3681826219719369,-0.3681826219719369,1.0002903900657443,0.00043582168707986997
-0.3652414695301559,-0.3652414695301559,0.9999670884442453,0.00042936222229460273
-0.3627960688376334,-0.3627960688376334,1.0005645544054675,0.00042932595049942183
-0.3604462106130086,-0.3604462106130086,1.0001855359159597,0.0004292886893882999
-0.35827713781618514,-0.35827713781618514,0.9994465487077304,0.00043620205774512103
-0.3562731010984862,-0.3562731010984862,1.0008755206445799,0.00043022793576968037
-0.3545691585459281,-0.3545691585459281,0.9998701569266141,0.00043540168588467173
-0.3526518296537688,-0.3526518296537688,1.0002952307376933,0.0004423442042085659
-0.34986767404770946,-0.34986767404770946,1.0004717158583358,0.00043235687851676173
-0.3482039957190864,-0.3482039957190864,0.9992274730588597,0.00042862415760009157
-0.34736039683339187,-0.34736039683339187,1.000299198583772,0.0004281445263414548
-0.34665441704564726,-0.34665441704564726,1.0001127035934556,0.00042788785003343595
-0.34605694341880733,-0.34605694341880733,1.0009488875131791,0.00042858374079257085
-0.3454828192392597,-0.3454828192392597,0.9993499233845157,0.00042760801267349176
-0.3449598710372811,-0.3449598710372811,1.0000938279663565,0.0004273406280325792
-0.3446538391843205,-0.3446538391843205,0.9997892989878746,0.00042773742445544147
-0.3444763041799888,-0.3444763041799888,0.9996588515213677,0.00042766123122454637
-0.3443585413857363,-0.3443585413857363,1.0007085043769521,0.0004581190185390933
-0.3443339973600814,-0.3443339973600814,1.0001121416809384,0.0004462278515163668
-0.34337631819944364,-0.34337631819944364,0.9998279201058786,0.0004341086995465488
-0.34032998264592607,-0.34032998264592607,1.000520521095312,0.0004333497141660324
-0.3384211525815772,-0.3384211525815772,0.9998035667216587,0.0004293417737062448
-0.3353982315864414,-0.3353982315864414,0.9999287529655021,0.00042898297112639133
-0.3327210659248522,-0.3327210659248522,1.0001505338946395,0.00042896380707393305
-0.33096920352836606,-0.33096920352836606,0.9996185978955143,0.00043242574351255085
-0.3291987546661403,-0.3291987546661403,0.9997099869258526,0.0004397130985441422
-0.3263174146122765,-0.3263174146122765,0.9993501699599658,0.0004484799523071431
-0.32419006145501045,-0.32419006145501045,1.000091204212415,0.00042899097882460435
-0.32316271039599087,-0.32316271039599087,1.000218909403643,0.00042821258207470834
-0.32242736502957997,-0.32242736502957997,0.999617320407866,0.0004278105841001889
-0.3218320037762169,-0.3218320037762169,0.9999086514905315,0.0004277197255988835
-0.3212231759360293,-0.3212231759360293,0.9999798436777809,0.0004270866818587178
-0.3206766630144557,-0.3206766630144557,0.9998841121041797,0.0004275592199686661
-0.32027193931280634,-0.32027193931280634,1.0004380728880062,0.00042772706896901624
-0.32008585674047935,-0.32008585674047935,1.0003508155922087,0.00042786763536986183
-0.3199591343553038,-0.3199591343553038,0.9998549614827652,0.0004628832571707339
-0.3199406345898751,-0.3199406345898751,0.9995327619286396,0.00044447423808955733
-0.31900243876152673,-0.31900243876152673,1.000415154800734,0.0004341273784326771
-0.31604806692921555,-0.31604806692921555,1.0002519219435961,0.00042883443306728625
-0.31358290047792253,-0.31358290047792253,1.0005169443121125,0.0004293895285953185
-0.31126987960014957,-0.31126987960014957,1.0001487172190935,0.0004300856702854143
-0.3086709852243075,-0.3086709852243075,0.9993607661056083,0.000428606251106567
-0.30703856065811125,-0.30703856065811125,1.0008501315440466,0.00043168058967904587
-0.3052824948274065,-0.3052824948274065,0.9992361765746726,0.00043580688624079934
-0.30345375622273424,-0.30345375622273424,1.0002754357363481,0.00044601056694980486
-0.3005911339132581,-0.3005911339132581,1.0003742264762416,0.00043741278290976033
-0.2994363808684284,-0.2994363808684284,0.9999098230958922,0.0004287434035619458
-0.29860920474748126,-0.29860920474748126,0.9995387655189598,0.0004280870978237932
-0.297900499595562,-0.297900499595562,1.0002267894818933,0.000427897611445679
-0.2973704193282174,-0.2973704193282174,1.0002301886113054,0.0004277781956411555
-0.29675331005419137,-0.29675331005419137,1.0001001090682278,0.0004276734915188594
-0.29613081356801557,-0.29613081356801557,1.001144470721066,0.00042768501233483554
-0.29574310045572927,-0.29574310045572927,0.9996319600118259,0.00042723543674854335
-0.2955994771939004,-0.2955994771939004,0.9997374192237626,0.0004376550434127272
-0.2955657200101996,-0.2955657200101996,0.9994321237155905,0.00046083733306706895
-0.29554863589291924,-0.29554863589291924,0.9999503884228857,0.00044308653545546017
-0.29408201314799953,-0.29408201314799953,1.0005297385956349,0.0004313157164958526
-0.2913185938698007,-0.2913185938698007,1.0002731347304161,0.00042922057163877593
-0.2891759450576501,-0.2891759450576501,1.0003309964537312,0.0004294225655096523
-0.28740600822493434,-0.28740600822493434,0.9997422124463226,0.0004288027538684642
-0.28476306071970614,-0.28476306071970614,0.9997300571108239,0.0004284845906316275
-0.28266767353343314,-0.28266767353343314,0.9998968312882166,0.00043154551532388505
-0.2810093050182331,-0.2810093050182331,1.000933481069594,0.00043591888574845243
-0.2795119658083422,-0.2795119658083422,1.0001777118263044,0.0004439187693181106
-0.2764165499596857,-0.2764165499596857,1.0002059711060434,0.000435289780320244
-0.27506242686649784,-0.27506242686649784,1.000341591283395,0.0004287957349463842
-0.27418258765246717,-0.27418258765246717,1.000170137989445,0.0004289613547759811
-0.273385523550678,-0.273385523550678,0.9996082716708352,0.00042702235258680133
-0.2728577645117184,-0.2728577645117184,1.0007708367042187,0.00042783977472765015
-0.2722120395163074,-0.2722120395163074,1.0004329854453795,0.00042761258890420417
-0.27167259556008505,-0.27167259556008505,0.9996995852412848,0.0004275728775290699
-0.27135529057413804,-0.27135529057413804,0.9999330414789551,0.0004273085295764979
-0.2711895967629971,-0.2711895967629971,1.0004941358204849,0.00045207283931977295
-0.2711701614345657,-0.2711701614345657,1.00076132720625,0.00045181516452234794
-0.27115105871343986,-0.27115105871343986,0.999838326372565,0.0004415770097255773
-0.2690003685595002,-0.2690003685595002,0.9999243626637812,0.00042950770861983174
-0.2662508910958422,-0.2662508910958422,0.9995493701918537,0.0004291766231349116
-0.26375733309250793,-0.26375733309250793,0.9996993703612205,0.00042942289543318425
-0.2616262199968332,-0.2616262199968332,1.0004446680094827,0.00042877340708560185
-0.2591443519020686,-0.2591443519020686,1.0004557292215885,0.0004288215765460954
-0.257724782981677,-0.257724782981677,1.000275511813533,0.0004318926149468978
-0.25631225177203304,-0.25631225177203304,0.9995285562166389,0.0004366219705862062
-0.25483692947309466,-0.25483692947309466,0.999891028753308,0.00044499027751231796
-0.2519842964160489,-0.2519842964160489,0.9992737833481511,0.00043254209853828333
-0.2506885068811243,-0.2506885068811243,1.0005248226318597,0.00042882623088794466
-0.24981114838737994,-0.24981114838737994,0.9998149487096949,0.0004290738999413974
-0.24899738470558078,-0.24899738470558078,0.9999190707646874,0.0004270601223303544
-0.24833141959097702,-0.24833141959097702,1.0000341555845538,0.0004278011365742232
-0.24774489230185281,-0.24774489230185281,0.9997094358044427,0.0004275415039725441
-0.24724032769154292,-0.24724032769154292,1.0003640083820557,0.0004276712588350165
-0.24696749376889784,-0.24696749376889784,0.999637535130136,0.00042726378627898587
-0.24682827272627036,-0.24682827272627036,0.9992352969825411,0.0004372931058101353
-0.2467869123269338,-0.2467869123269338,0.9997400183170218,0.00045467852908770743
-0.24677277195150965,-0.24677277195150965,1.0001712911715004,0.0004467586679046089
-0.24676116593764164,-0.24676116593764164,1.0002066805332679,0.000440540972081227
-0.24554348304809537,-0.24554348304809537,1.000280944846361,0.00043148729281569946
-0.24331057639210485,-0.24331057639210485,1.0002813985560737,0.000429358942902748
-0.24123336631455458,-0.24123336631455458,1.000009015386166,0.00042931757778120344
-0.23928180445509498,-0.23928180445509498,1.000342649222712,0.0004327558343805594
-0.23773884021211417,-0.23773884021211417,0.9996046416616441,0.00043411492736600537
-0.2355119705636753,-0.2355119705636753,1.0007465299801186,0.0004384485769377331
-0.23356123583216687,-0.23356123583216687,1.0001577531824766,0.00043255776637879677
-0.23170950416824782,-0.23170950416824782,0.9997952104693744,0.0004393922933979874
-0.2293226696900092,-0.2293226696900092,0.9998598604786334,0.00044800845751531774
-0.2266977388615487,-0.2266977388615487,1.0001938977222045,0.000429042098958674
-0.22582614910206758,-0.22582614910206758,1.0004312260514054,0.00042832463556118745
-0.22492100205563476,-0.22492100205563476,1.0009213143140185,0.0004281047276310326
-0.22424355718831065,-0.22424355718831065,0.9999155445128027,0.0004279383086080584
-0.22353726984001696,-0.22353726984001696,1.0004494958628602,0.00042766017688503885
-0.22313235064793843,-0.22313235064793843,1.0003272562603533,0.00042743403765610314
-0.22278207674680744,-0.22278207674680744,1.0006657877450713,0.00042776293180210215
-0.2225438532215776,-0.2225438532215776,1.000319686845307,0.00042750510892857336
-0.2224294114363147,-0.2224294114363147,1.0001638509160782,0.00044364324858458415
-0.2223932291730307,-0.2223932291730307,0.9999507972447843,0.00044772176284481525
-0.22237840441521256,-0.22237840441521256,1.0012128074355882,0.0004473128852208667
-0.22236895096721127,-0.22236895096721127,1.000042442686897,0.000441077567179947
-0.2209619698347524,-0.2209619698347524,0.9995561366773981,0.00042962928235149803
-0.21856659501208925,-0.21856659501208925,0.9999851001454843,0.00042914856070428364
-0.21655107132683044,-0.21655107132683044,1.0001556561415899,0.00042935123237373166
-0.21415430676133837,-0.21415430676133837,1.0005519434058558,0.0004293095328311342
-0.21270134273217992,-0.21270134273217992,1.0002745398847765,0.0004363269563338715
-0.21109435552789363,-0.21109435552789363,1.0005548802778192,0.00042881697528253783
-0.20880020056501963,-0.20880020056501963,0.9999700232859631,0.0004335538748010009
-0.20715916806657333,-0.20715916806657333,0.9996925907632009,0.0004400690052166127
-0.20554644721851217,-0.20554644721851217,0.9996054871511447,0.0004477035868817337
-0.20232474128133618,-0.20232474128133618,1.0000490318391468,0.0004290778586791489
-0.2012716059020022,-0.2012716059020022,0.998920919854168,0.0004282104956289495
-0.20039293157169596,-0.20039293157169596,1.0000546109850905,0.0004279376912214944
-0.19953726246312725,-0.19953726246312725,1.0000032238892662,0.000427849285087013
-0.19891970921307803,-0.19891970921307803,1.000654524437556,0.0004277110074853574
-0.19858556715771555,-0.19858556715771555,0.9996428582653017,0.00042759750116528884
-0.19833709274535066,-0.19833709274535066,1.0003681589786146,0.00042777761157693564
-0.19809454285423272,-0.19809454285423272,0.9998363153456225,0.00043456948583306496
-0.19800606054777745,-0.19800606054777745,0.9999739431089653,0.00044813662954954896
-0.19798553303116934,-0.19798553303116934,0.9996382484350365,0.0004461393061785389
-0.19775581696885638,-0.19775581696885638,1.0005118602613237,0.00043509841535908385
-0.19497096257400698,-0.19497096257400698,1.0001991282548373,0.0004294496514223341
-0.19175197661679705,-0.19175197661679705,1.0002738029311788,0.0004294031696689718
-0.18915967119683047,-0.18915967119683047,1.0000249577980906,0.00042895771179159755
-0.18724951818876434,-0.18724951818876434,1.0004377039360581,0.0004291692815547552
-0.18532692329899875,-0.18532692329899875,1.0004505366364649,0.00043346364677040994
-0.18335132620704825,-0.18335132620704825,0.9996827516674364,0.0004375795207981044
-0.18151697667199188,-0.18151697667199188,0.9998181834720988,0.00044627342384295245
-0.1785690736171091,-0.1785690736171091,1.0000141083660476,0.0004339184298248904
-0.1771369049907662,-0.1771369049907662,1.0007188906142959,0.00042838208692898744
-0.17616795729554724,-0.17616795729554724,0.9993016132832283,0.00042783597625224045
-0.17537844502076042,-0.17537844502076042,0.9991956354851788,0.0004284507423679474
-0.17476734223891982,-0.17476734223891982,0.9992059262732548,0.000428180414958392
-0.17438679876504465,-0.17438679876504465,0.9993752249453733,0.000426979002374102
-0.17414148932730314,-0.17414148932730314,1.0001418854215998,0.00042762195163561996
