time,time,flux,flux_err
-0.4999683816682629,-0.4999683816682629,1.0001220693511046,5.7023946705262136e-05
-0.4998250403025442,-0.4998250403025442,0.9999204510623412,5.680423911164549e-05
-0.4996721139645596,-0.4996721139645596,0.9998881618203611,5.6294735610705934e-05
-0.49948699202111585,-0.49948699202111585,1.0000573985737609,5.1876926801252066e-05
-0.49930579028864486,-0.49930579028864486,1.000006174624671,5.168203119033805e-05
-0.49918922956438794,-0.49918922956438794,0.9999765449677103,5.2150004499838646e-05
-0.4990419489865644,-0.4990419489865644,0.9999601094584968,5.172764527396882e-05
-0.4989167595353308,-0.4989167595353308,0.9997745919609227,5.171537029054805e-05
-0.49878187102605126,-0.49878187102605126,1.0000395385659553,5.1536412569454365e-05
-0.4985771638606252,-0.4985771638606252,1.0000337220254032,5.196491937116341e-05
-0.4984434109587653,-0.4984434109587653,0.9999843392760306,5.1994657266252706e-05
-0.4983251322737544,-0.4983251322737544,0.9999793182238843,5.119443462428189e-05
-0.49817519995730775,-0.49817519995730775,0.9998909857532826,5.227913779893886e-05
-0.4980627380117994,-0.4980627380117994,1.0000136224513525,5.1364144056309245e-05
-0.4978514645087671,-0.4978514645087671,1.0000292305669158,5.216605763465558e-05
-0.4976954375714911,-0.4976954375714911,0.9999247044509658,5.1691387281607944e-05
-0.49761133132213897,-0.49761133132213897,1.0000037429464248,5.1808273712939754e-05
-0.49745653625634534,-0.49745653625634534,1.0000092795708084,5.160233717649546e-05
-0.4973239250138022,-0.4973239250138022,0.9999624331823928,5.190504849936288e-05
-0.4971573546605669,-0.4971573546605669,1.0000983791153946,5.1824594103135174e-05
-0.4969730048134693,-0.4969730048134693,0.9999784223393904,5.179248278724558e-05
-0.4968901178040028,-0.4968901178040028,0.9999724378692262,5.1996153740248154e-05
-0.49675010010191156,-0.49675010010191156,0.9999561377209985,5.134424100192258e-05
-0.4965929903019514,-0.4965929903019514,1.0000101266743808,5.1426368412400323e-05
-0.49645118691140055,-0.49645118691140055,0.9999129616900346,5.217359583512062e-05
-0.4962702611882378,-0.4962702611882378,0.9999901906761919,5.2133709124816224e-05
-0.49613013647149273,-0.49613013647149273,1.000024159986726,5.201722778311772e-05
-0.4960038771914583,-0.4960038771914583,0.9999569200584005,5.1197999386631974e-05
-0.49585031377666267,-0.49585031377666267,0.9999576712717871,5.168178030746108e-05
-0.495720360928118,-0.495720360928118,1.000122536915748,5.1971874605794e-05
-0.4955302229969277,-0.4955302229969277,0.9999499669259146,5.217986582130959e-05
-0.4953723609585893,-0.4953723609585893,0.9999392806833007,5.1920193934007624e-05
-0.49526072846467173,-0.49526072846467173,1.0001971098843954,5.1486723204786206e-05
-0.4951051589613428,-0.4951051589613428,0.9998427879532681,5.169087226463238e-05
-0.4949776785535505,-0.4949776785535505,0.9998995630107611,5.198341011862011e-05
-0.49479646967157576,-0.49479646967157576,1.0000627416146044,5.1914104717739855e-05
-0.49462277092437146,-0.49462277092437146,0.9999944599898403,5.188103409449506e-05
-0.4945454402045698,-0.4945454402045698,1.000061028445835,5.202807001815435e-05
-0.49439193849933644,-0.49439193849933644,0.9999296442745301,5.123672326218604e-05
-0.49425040222902794,-0.49425040222902794,0.9999527032869336,5.1619982611079703e-05
-0.49412364531785896,-0.49412364531785896,0.99989291671621,5.192043019780358e-05
-0.49394902020846415,-0.49394902020846415,1.0000709741521607,5.2151534526405264e-05
-0.4938088933322035,-0.4938088933322035,1.000071682960269,5.2016619386481284e-05
-0.4936826221038245,-0.4936826221038245,1.0001614268280452,5.120029388718826e-05
-0.49352905928803353,-0.49352905928803353,0.99996307940934,5.167948940349675e-05
-0.4933991120940391,-0.4933991120940391,0.999994493632452,5.196304347379196e-05
-0.4932089815185634,-0.4932089815185634,0.9999359532403866,5.219003209741691e-05
-0.49305112239347865,-0.49305112239347865,1.0000236943749474,5.1917109879198254e-05
-0.49293971742528697,-0.49293971742528697,0.9999190557693985,5.1576575926854264e-05
-0.49281402200359137,-0.49281402200359137,0.9999305998177478,5.159597313792153e-05
-0.4926754780392059,-0.4926754780392059,1.0000705867404602,5.172434291524932e-05
-0.49250223479436955,-0.49250223479436955,1.0000208465595448,5.1991348675518184e-05
-0.4923305347445819,-0.4923305347445819,0.9999026040753277,5.181924634851835e-05
-0.4922254954236621,-0.4922254954236621,1.0000112937507095,5.214858316702146e-05
-0.49209874861911657,-0.49209874861911657,0.9999800602036408,5.118527559464203e-05
-0.4919504816993026,-0.4919504816993026,0.9998235136870868,5.141819825782224e-05
-0.4917795124927352,-0.4917795124927352,0.9998676988224023,5.2251736973483425e-05
-0.491626019325173,-0.491626019325173,1.000071195364524,5.20783657195539e-05
-0.49148765024579577,-0.49148765024579577,0.9999424864187247,5.20123917308073e-05
-0.4913631928533846,-0.4913631928533846,0.9999731838899091,5.1245328901862954e-05
-0.49123639748924575,-0.49123639748924575,1.0000274543418552,5.169124779165947e-05
-0.49109684760805977,-0.49109684760805977,0.9999499966595395,5.163712647436313e-05
-0.49089647603263414,-0.49089647603263414,1.000035600199429,5.2275236469639385e-05
-0.4907540507690385,-0.4907540507690385,0.9998646096076527,5.18700851812769e-05
-0.4906475821075105,-0.4906475821075105,0.9999690594574829,5.1807330785398666e-05
-0.4905228208350024,-0.4905228208350024,0.9999909516253227,5.133830744652889e-05
-0.4903795121081373,-0.4903795121081373,1.000134382277303,5.189302266759837e-05
-0.4901936170158422,-0.4901936170158422,1.0000558166049616,5.182122813689493e-05
-0.490021699768846,-0.490021699768846,0.9998956929841365,5.201373123175535e-05
-0.48992646935270157,-0.48992646935270157,1.0000569641622337,5.206385593845117e-05
-0.4897886087461359,-0.4897886087461359,0.9999800523074353,5.112496526313157e-05
-0.4896603018453277,-0.4896603018453277,1.0000783207405082,5.1673921457747634e-05
-0.48950348912949265,-0.48950348912949265,1.0001044068535543,5.187610215002614e-05
-0.4893065383573457,-0.4893065383573457,1.000036057699674,5.2175844701715605e-05
-0.4891810744093391,-0.4891810744093391,0.9998006804132619,5.202963411457364e-05
-0.4890709660146456,-0.4890709660146456,1.0001251793027293,5.158172330664301e-05
-0.4889452601797416,-0.4889452601797416,0.999970281349498,5.159515896015244e-05
-0.48880672204405756,-0.48880672204405756,0.9999142109615942,5.1710027125948614e-05
-0.4886064702199235,-0.4886064702199235,1.0000900211057524,5.1946913453848836e-05
-0.48844550335231246,-0.48844550335231246,1.0001059246231925,5.188791367980349e-05
-0.48835675443260695,-0.48835675443260695,1.0000379882217376,5.215535726617669e-05
-0.4882299700097974,-0.4882299700097974,1.000056493908651,5.1183536444136455e-05
-0.488063154467676,-0.488063154467676,1.0000152315674047,5.141288506269046e-05
-0.4879107718530918,-0.4879107718530918,0.9998948682078286,5.224099940048763e-05
-0.4877263382929016,-0.4877263382929016,0.9999132861814821,5.2093533797929054e-05
-0.48761891188680695,-0.48761891188680695,1.0000636114434511,5.20123535611777e-05
-0.48749443687691496,-0.48749443687691496,0.999936487257395,5.124408228788974e-05
-0.48736758013251913,-0.48736758013251913,0.9999496019295968,5.162996596460779e-05
-0.48719719659669636,-0.48719719659669636,1.000073928672853,5.168370840737535e-05
-0.48701900440627244,-0.48701900440627244,0.999797833023495,5.222198217755571e-05
-0.486861153093156,-0.486861153093156,1.0000835861256294,5.1921563994803266e-05
-0.48676222421419196,-0.48676222421419196,1.0000994478585497,5.1826034285360705e-05
-0.48665405393903144,-0.48665405393903144,0.9998237943153654,5.1333179492147326e-05
-0.4864857788483107,-0.4864857788483107,1.0000844579291628,5.196578609834206e-05
-0.4863188976164963,-0.4863188976164963,1.0000595619902266,5.1723736833138374e-05
-0.48614057490044615,-0.48614057490044615,0.9999554197385159,5.185600187499013e-05
-0.48603918069479735,-0.48603918069479735,0.9999454251606862,5.2244230106014514e-05
-0.48591983924707166,-0.48591983924707166,0.9999785988283408,5.112521923434459e-05
-0.48578853556306856,-0.48578853556306856,0.9999023406850174,5.163441575149828e-05
-0.48560679995386524,-0.48560679995386524,0.999894674893403,5.1889221041656174e-05
-0.4854378035926118,-0.4854378035926118,1.0000027130571176,5.219304185859425e-05
-0.48529766894396287,-0.48529766894396287,1.00002433720453,5.2013414369438574e-05
-0.4851731832869973,-0.4851731832869973,0.9998301228527049,5.1237880162328116e-05
-0.4850706839260056,-0.4850706839260056,1.0000182255826946,5.194550007367951e-05
-0.4849070158981135,-0.4849070158981135,1.0000310100735557,5.1700396316849174e-05
-0.48473772066579957,-0.48473772066579957,0.9999250952995471,5.196228358663057e-05
-0.4845640987806462,-0.4845640987806462,0.9999918402865624,5.1878158163378696e-05
-0.4844575828891493,-0.4844575828891493,1.000025215679279,5.1812100840154875e-05
-0.4843424105604015,-0.4843424105604015,1.000052162492851,5.15341262748738e-05
-0.4841918073606507,-0.4841918073606507,0.9999121164065414,5.1929960319065734e-05
-0.4840322412272201,-0.4840322412272201,0.9999008996832487,5.170702855921076e-05
-0.4838530961691617,-0.4838530961691617,0.9999163035582119,5.189422821944023e-05
-0.48373649009138264,-0.48373649009138264,1.0000277763716945,5.205614408911652e-05
-0.4835985775432675,-0.4835985775432675,0.999959173727597,5.11192517686529e-05
-0.4834822192062802,-0.4834822192062802,0.9999714502419229,5.192461291346578e-05
-0.48332843784355645,-0.48332843784355645,1.0000378073168879,5.1672967139164363e-05
-0.4831502688326566,-0.4831502688326566,1.0000943124980644,5.225155419780994e-05
-0.48299242243512025,-0.48299242243512025,0.9999939277135159,5.192011195978369e-05
-0.4828809638131418,-0.4828809638131418,0.9999806453999417,5.157531282297768e-05
-0.48273705371195774,-0.48273705371195774,1.0000636453355312,5.193920308435888e-05
-0.48261588134500927,-0.48261588134500927,0.9999007080822213,5.160838117594263e-05
-0.4824501454921517,-0.4824501454921517,0.9999121219799406,5.171571089244961e-05
-0.4822718501416546,-0.4822718501416546,1.000177315566494,5.188558492551024e-05
-0.48216676914736356,-0.48216676914736356,0.9999804232463531,5.215139044870721e-05
-0.482012121865165,-0.482012121865165,1.0000301773126512,5.132726946015848e-05
-0.481869549207903,-0.481869549207903,0.9999189069771031,5.151677218471788e-05
-0.4817380521033613,-0.4817380521033613,1.000049360478887,5.188486629896312e-05
-0.48156906892878626,-0.48156906892878626,1.000129276118631,5.222229792210364e-05
-0.48142893082595606,-0.48142893082595606,0.999990381268421,5.201576088152814e-05
-0.48130283804712803,-0.48130283804712803,1.0000889269200408,5.129352517860503e-05
-0.48114820429040606,-0.48114820429040606,0.9999624073619906,5.1577023077064386e-05
-0.48100718261080144,-0.48100718261080144,1.0001227548338087,5.167051023724683e-05
-0.48085013732314225,-0.48085013732314225,0.9999475023407374,5.232362027781667e-05
-0.48069537895332815,-0.48069537895332815,0.9998453555833429,5.187285864704658e-05
-0.48058883342494596,-0.48058883342494596,0.9999865459892444,5.181083746316668e-05
-0.48043422766833144,-0.48043422766833144,0.9998709033720579,5.167718506504086e-05
-0.48029462762758046,-0.48029462762758046,1.0001203711329918,5.160829662904633e-05
-0.48013849004955206,-0.48013849004955206,0.9999832635438679,5.1867676516872846e-05
-0.47998436462823973,-0.47998436462823973,0.9999523653179068,5.1920339870410215e-05
-0.4798677532506133,-0.4798677532506133,1.0000484358071193,5.206251660011882e-05
-0.4797277540610082,-0.4797277540610082,1.000066675872754,5.143997230275015e-05
-0.4795696276605213,-0.4795696276605213,0.9999146010194695,5.1319766085327704e-05
-0.4794168034115728,-0.4794168034115728,1.00004107688387,5.1881452334669185e-05
-0.4792774584232518,-0.4792774584232518,1.0000160859068425,5.234604189608864e-05
-0.4791236918976779,-0.4791236918976779,1.0000844921155474,5.191933610884054e-05
-0.4790122124780737,-0.4790122124780737,1.0000023774529958,5.157585227247045e-05
-0.47885630971297244,-0.47885630971297244,1.0000443816380824,5.162497336793885e-05
-0.4787162262441257,-0.4787162262441257,1.0000391120332621,5.1651339988532096e-05
-0.47856238632917325,-0.47856238632917325,1.0000612587690536,5.198048541422996e-05
-0.4783949438426873,-0.4783949438426873,0.9999918069659005,5.2132697274829836e-05
-0.4782675837654665,-0.4782675837654665,0.9999870306422197,5.180989100023989e-05
-0.47811297120759944,-0.47811297120759944,1.0000710282583014,5.1680197412247885e-05
-0.4779733739353276,-0.4779733739353276,0.9999898523196791,5.1605900728044015e-05
-0.4778172418526367,-0.4778172418526367,0.9999652838458596,5.186954889029509e-05
-0.47765524333353254,-0.47765524333353254,1.0000770142560076,5.198917425212532e-05
-0.4775358237679484,-0.4775358237679484,1.0000601795743649,5.201415772270952e-05
-0.4774064923796402,-0.4774064923796402,0.9999319488470478,5.1437533892770674e-05
-0.47724837330376885,-0.47724837330376885,0.9999654361632428,5.1314776237702666e-05
-0.47709555473290377,-0.47709555473290377,0.9999518739477613,5.187151795912666e-05
-0.4769562171709367,-0.4769562171709367,1.0000317532777538,5.2365826989661265e-05
-0.47679227731700846,-0.47679227731700846,1.0000370392693536,5.21298227279063e-05
-0.47666032891793864,-0.47666032891793864,0.9999731162369156,5.1289256319870354e-05
-0.47651396370889076,-0.47651396370889076,0.9999929376549593,5.1688732524447354e-05
-0.476388781242531,-0.476388781242531,1.000129580283713,5.1648336656903436e-05
-0.47624114165449216,-0.47624114165449216,0.9999683334584202,5.197583884688538e-05
-0.4760737074469546,-0.4760737074469546,1.0000436435193332,5.215442199400819e-05
-0.47594633412131204,-0.47594633412131204,0.9999126764866098,5.181243833064065e-05
-0.47579882731681666,-0.47579882731681666,1.0000318058183655,5.144187527082995e-05
-0.47564347017814723,-0.47564347017814723,1.0000400326365213,5.142916771174805e-05
-0.47550539847641177,-0.47550539847641177,1.0000259950131052,5.203025190166972e-05
-0.47537734887990835,-0.47537734887990835,1.0000557747586898,5.219163711314374e-05
-0.47522526924533964,-0.47522526924533964,0.9999533040139873,5.206011225726042e-05
-0.4750852306942079,-0.4750852306942079,0.999998808457849,5.143711946595453e-05
-0.4749353917882672,-0.4749353917882672,0.9999129003492933,5.14331099332551e-05
-0.4747472441373361,-0.4747472441373361,0.9998884555962497,5.16955468287618e-05
-0.47463940814581634,-0.47463940814581634,1.0001343641708456,5.2276388529470816e-05
-0.4744955714045432,-0.4744955714045432,0.9999220595184279,5.208099799374232e-05
-0.47436971092280944,-0.47436971092280944,0.999941043857201,5.157145810861742e-05
-0.47422129043779365,-0.47422129043779365,1.0001271413127535,5.170889137752539e-05
-0.4740645069684888,-0.4740645069684888,0.9999993757765184,5.1086220405919635e-05
-0.4738989397154512,-0.4738989397154512,1.0001129992591071,5.255318525650893e-05
-0.4737524711098615,-0.4737524711098615,0.9999483825547404,5.217722142372103e-05
-0.47363687858818937,-0.47363687858818937,0.9999698677198591,5.1814767681370515e-05
-0.47350593804674757,-0.47350593804674757,0.9999873224692977,5.129802396740547e-05
-0.4733555052615543,-0.4733555052615543,1.0000233963991143,5.149582368999243e-05
-0.47317474551843475,-0.47317474551843475,1.000023344562308,5.1867041994813785e-05
-0.473053965472252,-0.473053965472252,1.0000623668359137,5.246243659659781e-05
-0.47290402732718917,-0.47290402732718917,0.9999456240287895,5.206174487937087e-05
-0.47276602289937275,-0.47276602289937275,1.000091780720353,5.1122249678486114e-05
-0.4726422560250342,-0.4726422560250342,0.9999328108851552,5.1712602461803314e-05
-0.47244319482826996,-0.47244319482826996,1.000036145573158,5.1305632775562096e-05
-0.4723326939956394,-0.4723326939956394,1.0000838339596405,5.271534269599156e-05
-0.47217433496172134,-0.47217433496172134,0.9999889368949869,5.2080155337897957e-05
-0.47204846016604163,-0.47204846016604163,1.0001341091608944,5.1574469784440534e-05
-0.4719298259590744,-0.4719298259590744,1.0001645077741548,5.135623134613145e-05
-0.4717437617611665,-0.4717437617611665,1.0000846136185408,5.142680051426156e-05
-0.47160611337358205,-0.47160611337358205,1.00005022138915,5.237958425825591e-05
-0.47146527691824075,-0.47146527691824075,1.000088676180561,5.2057747377839277e-05
-0.4713342958125509,-0.4713342958125509,1.0000384298840306,5.215538275149481e-05
-0.4711949638912074,-0.4711949638912074,1.0000803656399821,5.1173024376361545e-05
-0.4710417549724582,-0.4710417549724582,0.9999385882663822,5.1581902307387166e-05
-0.4708724356421328,-0.4708724356421328,0.9999619737857636,5.154729661381083e-05
-0.4707623537338236,-0.4707623537338236,1.0000025027883632,5.259619962432003e-05
-0.4706022992951091,-0.4706022992951091,0.99993687010717,5.2127950642001564e-05
-0.47047031672742606,-0.47047031672742606,1.0000104370128517,5.128590218791505e-05
-0.4703231831228948,-0.4703231831228948,1.0000008100493205,5.1653480093609265e-05
-0.47016479213169193,-0.47016479213169193,0.9999917727276582,5.1084940504413946e-05
-0.470015524774584,-0.470015524774584,0.9999410169021269,5.266598070468025e-05
-0.4698798570568954,-0.4698798570568954,1.0001124374341095,5.209962579731017e-05
-0.4697563351505778,-0.4697563351505778,0.9999684359112726,5.180901222068359e-05
-0.469608817659622,-0.469608817659622,0.9999957717467446,5.144016688236112e-05
-0.4694526707646219,-0.4694526707646219,0.9999842780261163,5.1398592656117173e-05
-0.469303804950323,-0.469303804950323,0.9999927774630899,5.205181051060365e-05
-0.46915643001821083,-0.46915643001821083,0.9999973652264618,5.226215381949743e-05
-0.46903529092372764,-0.46903529092372764,1.0000487880305629,5.205915711825871e-05
-0.46889519951841974,-0.46889519951841974,0.9998950382720129,5.143124253531791e-05
-0.46874461080359425,-0.46874461080359425,0.9999536485160592,5.140150098666116e-05
-0.46857444101290185,-0.46857444101290185,1.0000520087699833,5.1304028685006026e-05
-0.46844285137674435,-0.46844285137674435,0.9999685464724838,5.269385876606124e-05
-0.4682957603142313,-0.4682957603142313,1.0000148878845179,5.2151250133259926e-05
-0.4681797089384645,-0.4681797089384645,1.0000468948712296,5.156953613741487e-05
-0.46803128902126334,-0.46803128902126334,0.9999464086599115,5.1703213783778714e-05
-0.46784353332878936,-0.46784353332878936,0.9998746489887133,5.1084457577958164e-05
-0.4677147323494353,-0.4677147323494353,1.0000819039823998,5.2195092695745866e-05
-0.4675752104600178,-0.4675752104600178,0.9999785332248262,5.226570557561497e-05
-0.46746555562403386,-0.46746555562403386,1.0001148531555697,5.215287523610951e-05
-0.4673159092804383,-0.4673159092804383,1.0000064230898713,5.129563292436569e-05
-0.46713460360286946,-0.46713460360286946,0.9999430781330044,5.153464942099133e-05
-0.4669825565221856,-0.4669825565221856,1.0000489969643145,5.205403140487563e-05
-0.4668533329319587,-0.4668533329319587,0.9999168948130757,5.195018843017625e-05
-0.46673224091441057,-0.46673224091441057,1.0000195689426836,5.2237838801737346e-05
-0.4666015591019857,-0.4666015591019857,0.9999626408782436,5.128840074790078e-05
-0.4664522578590777,-0.4664522578590777,1.0000914269309946,5.1713263814601056e-05
-0.46625318875094307,-0.46625318875094307,1.0000978508833243,5.1307994174549564e-05
-0.46612989892418,-0.46612989892418,0.9999976505464317,5.244083124428791e-05
-0.4659843713581154,-0.4659843713581154,0.9999192171259601,5.207433185843876e-05
-0.4658648332258736,-0.4658648332258736,0.9999991595634887,5.18373456633175e-05
-0.4657400616732332,-0.4657400616732332,1.00004407337122,5.144058490919181e-05
-0.46555356600629805,-0.46555356600629805,0.9999230066511089,5.135941778780821e-05
-0.4653881289088645,-0.4653881289088645,0.9999685688496112,5.2269069410314726e-05
-0.4652659229644712,-0.4652659229644712,1.0000828033927633,5.194965685081629e-05
-0.4651443115847826,-0.4651443115847826,0.9999600957113037,5.214970676377025e-05
-0.46499916230202987,-0.46499916230202987,1.0001382461058856,5.1533365425910054e-05
