time,time,flux,flux_err
-0.4999232929336965,-0.4999232929336965,1.0006070215297684,0.001321628731579159
-0.49984339579289855,-0.49984339579289855,0.9981616928537034,0.0014012572292830179
-0.4997606032287877,-0.4997606032287877,0.9994584392891245,0.0011097845347094793
-0.49955164350540143,-0.49955164350540143,1.0014008573759559,0.0013611731381765562
-0.49940108945957035,-0.49940108945957035,0.9995533597455797,0.0010097861811161695
-0.4992724359377462,-0.4992724359377462,0.9995956619061881,0.0013629675267749315
-0.49916336185269755,-0.49916336185269755,0.9997474905118041,0.0012390352483428139
-0.4990634292931645,-0.4990634292931645,0.9994300000314842,0.0013724198676822168
-0.4989650689763948,-0.4989650689763948,0.9999502916476455,0.0011659142948557879
-0.4988952925392368,-0.4988952925392368,1.0002455529615388,0.0012262014700471057
-0.4986945282274974,-0.4986945282274974,1.0007951474132892,0.00138011434761845
-0.4985553908634756,-0.4985553908634756,1.0000885262215922,0.0012633665034485395
-0.4984778176622058,-0.4984778176622058,0.9999940545575029,0.001335144816444929
-0.4983435979062051,-0.4983435979062051,1.0005105276244106,0.0010351265819552144
-0.49822502349634307,-0.49822502349634307,1.0010477318237883,0.0013010783205140394
-0.4981599032653321,-0.4981599032653321,1.000799540948998,0.0012736188166357551
-0.4980571813604911,-0.4980571813604911,0.9997923864304799,0.0011432196358395776
-0.4979193142549775,-0.4979193142549775,1.0000234854938033,0.0013842609146888082
-0.49775241724637453,-0.49775241724637453,1.0003840893604636,0.0010559976384525603
-0.49761550165494556,-0.49761550165494556,1.0005760149189655,0.0010784811237587227
-0.4974713895244349,-0.4974713895244349,1.0012459890937964,0.0012074170718100563
-0.49737978565317464,-0.49737978565317464,0.9996955850215979,0.0012135251608174588
-0.4973046951672586,-0.4973046951672586,1.0004682677516779,0.0010491262986456107
-0.4972370479765232,-0.4972370479765232,1.0002220153338413,0.0013663975265589177
-0.49703035004276896,-0.49703035004276896,0.9995642279904992,0.0012035434306894679
-0.49687069171923215,-0.49687069171923215,1.0004875129715827,0.0012614545359080568
-0.49669509967789055,-0.49669509967789055,0.9991020693482856,0.0011717571927778194
-0.49660599426133556,-0.49660599426133556,1.0007656305194224,0.0012154856520678163
-0.49648381275546855,-0.49648381275546855,1.0008118985616279,0.0014187684318355098
-0.4964104389349814,-0.4964104389349814,0.9991475181020629,0.0011277845016378762
-0.4961471615657501,-0.4961471615657501,0.9983228408763241,0.001315367950797194
-0.4959763661048783,-0.4959763661048783,1.0004054480012807,0.0012036357688634922
-0.4958400997566059,-0.4958400997566059,0.9995294180293423,0.0012739158630156921
-0.495763965453807,-0.495763965453807,1.0009544789074973,0.0010534661472575905
-0.4956721582217142,-0.4956721582217142,0.9989245161640662,0.001277956277394839
-0.49558663516581875,-0.49558663516581875,1.001872019777702,0.0011174190528560962
-0.49535801592210194,-0.49535801592210194,1.0020584629318994,0.0014527484469573772
-0.49524504170403816,-0.49524504170403816,1.0002172593478273,0.001197907769824419
-0.49508214651286836,-0.49508214651286836,0.9988263105573673,0.0012027979878702936
-0.4949167968319671,-0.4949167968319671,1.0003238601756426,0.0012536580874936971
-0.4948105109171593,-0.4948105109171593,1.000098116942003,0.0011531462651467623
-0.494708434947097,-0.494708434947097,1.0006702696615581,0.0011881431282730354
-0.49456566086009845,-0.49456566086009845,1.002252325853435,0.0014032074822434544
-0.4944279911542253,-0.4944279911542253,1.0000781708593875,0.0013414637480967564
-0.4942625521856826,-0.4942625521856826,1.0000440371680903,0.0012021486683641439
-0.4941452350176405,-0.4941452350176405,1.0008262614402703,0.0011093807367007504
-0.4940305745163641,-0.4940305745163641,1.0007959876536165,0.0010188620466562571
-0.4939109733146324,-0.4939109733146324,0.9998620684820392,0.0010829817574789084
-0.4937935354093497,-0.4937935354093497,1.0002562376384518,0.001246840522437911
-0.49366319939726966,-0.49366319939726966,0.9996309104306528,0.0013603202521790749
-0.4935015210845449,-0.4935015210845449,1.0002493532973873,0.001093589742245605
-0.49341213449370114,-0.49341213449370114,0.9993439408537693,0.0011641514434496954
-0.49329812444120763,-0.49329812444120763,1.0010166732285317,0.0010192306336164044
-0.49309904468173044,-0.49309904468173044,1.0002841414721366,0.0011556295321934157
-0.49301149422535673,-0.49301149422535673,0.9996382770499487,0.0012363963347868066
-0.4929148761657416,-0.4929148761657416,1.0007246904038687,0.0012691443112414318
-0.4927893521104124,-0.4927893521104124,0.999601283214066,0.0011156865159560481
-0.49264653118370916,-0.49264653118370916,0.9989872341149656,0.0011494367426021803
-0.49252939412690466,-0.49252939412690466,1.0009579425983708,0.0010768829985109284
-0.49238391671024145,-0.49238391671024145,1.0008335532380332,0.0011250307842274655
-0.4922853116913757,-0.4922853116913757,1.002171387429878,0.0013519850116955172
-0.49216271830882763,-0.49216271830882763,0.9995620984538064,0.0012159014466481878
-0.49203278694403707,-0.49203278694403707,0.9998553388935028,0.0011844519402273103
-0.4918424755102023,-0.4918424755102023,1.000356655490417,0.0012579459999185975
-0.49166808002628387,-0.49166808002628387,1.0006526502775726,0.0009422418635809362
-0.4915600884582091,-0.4915600884582091,1.0000837286125321,0.0011807539975401094
-0.49143018815957473,-0.49143018815957473,0.9996480368724494,0.001319055355174001
-0.4913322056447214,-0.4913322056447214,1.0012674033903073,0.001198469714514096
-0.4911946189014998,-0.4911946189014998,1.0002973560347732,0.0011574040927267034
-0.4910023576194362,-0.4910023576194362,0.9993728282254877,0.0011478813855516797
-0.49082666512185824,-0.49082666512185824,1.0009616935383359,0.001336784803367246
-0.4906230943037372,-0.4906230943037372,0.9995005696154028,0.001294070828415277
-0.4904984131142555,-0.4904984131142555,1.0003268378723251,0.0012205813302385668
-0.4903606606821995,-0.4903606606821995,1.0013391201044843,0.0011342236597800587
-0.49024335364665605,-0.49024335364665605,0.999416522009758,0.0012037119493050273
-0.4901136582790059,-0.4901136582790059,1.0005154773014389,0.001164116054421102
-0.4900018677450134,-0.4900018677450134,0.999693073236031,0.0011270460518356727
-0.48981157702437483,-0.48981157702437483,0.9993745391179351,0.0011865121693901061
-0.4897073303327488,-0.4897073303327488,1.0003410301003017,0.0012189284943057046
-0.4895428630741662,-0.4895428630741662,0.9991988666905245,0.0012860697088152447
-0.48937224135370344,-0.48937224135370344,1.000658199865375,0.0009678983414651533
-0.4892353754948999,-0.4892353754948999,1.0012179817963447,0.0011953853403048056
-0.48912239372439215,-0.48912239372439215,1.000188225152921,0.0011939781072124182
-0.4890334498275479,-0.4890334498275479,1.0015845944394652,0.0013067639324071054
-0.4889324511816085,-0.4889324511816085,1.0002386377754044,0.0011783582566890713
-0.48887759637509587,-0.48887759637509587,0.9997374082507768,0.0011605338944517896
-0.4887765801475325,-0.4887765801475325,1.0012124598649705,0.0011932838716601423
-0.4886518345607328,-0.4886518345607328,0.9995773520329703,0.0010669935152561251
-0.48849580712994795,-0.48849580712994795,0.9998531358474818,0.00106647307555902
-0.48838172737523566,-0.48838172737523566,0.9998489503886321,0.00113613852806409
-0.4882279733363248,-0.4882279733363248,0.9997561901031405,0.0011735897803538155
-0.48810782851360274,-0.48810782851360274,1.0016715477266662,0.0013691094026557406
-0.48803405118233056,-0.48803405118233056,1.0002460922912113,0.0010912852211976223
-0.48798414047050753,-0.48798414047050753,0.9994294540616488,0.0012207570460817333
-0.4878746342576051,-0.4878746342576051,1.0004804969907033,0.0011401276550724007
-0.48772622035321544,-0.48772622035321544,0.9998863430803213,0.0011360871684442638
-0.4875820426204882,-0.4875820426204882,0.9996265139728289,0.0011291059479654694
-0.4874983091263857,-0.4874983091263857,0.9999184200163329,0.0011686705654557336
-0.48737058531769434,-0.48737058531769434,0.9988172547734864,0.0013027032191945747
-0.4872472954339173,-0.4872472954339173,0.9999309468629873,0.0010808799611006078
-0.48718244201227207,-0.48718244201227207,1.0017240900787718,0.0011686974394718253
-0.4870771896778024,-0.4870771896778024,0.9993110615167092,0.00129079813672806
-0.4869709589649574,-0.4869709589649574,1.0008928201507128,0.0012736899600245175
-0.4868473986025492,-0.4868473986025492,1.0001530195725985,0.00105362477764766
-0.48676105896156513,-0.48676105896156513,1.0000268698444,0.0013561003767616348
-0.4866474107897375,-0.4866474107897375,0.9980887240463409,0.0012058281558252227
-0.48655611575595686,-0.48655611575595686,0.9987985532298043,0.0012261237846914418
-0.4864585843999521,-0.4864585843999521,1.0004061891584652,0.0010964474676464022
-0.48638785139046375,-0.48638785139046375,0.9992152455691498,0.0011322793881608343
-0.4863029723353975,-0.4863029723353975,1.00037396698538,0.0012218951471171515
-0.4861711591191124,-0.4861711591191124,1.0004155881327654,0.0011165156378108595
-0.48609486300847493,-0.48609486300847493,1.0015670047147718,0.00120794670960734
-0.48592784935099187,-0.48592784935099187,1.0012501409159396,0.0012131689796750535
-0.4858156125344976,-0.4858156125344976,0.9993739870553264,0.0011244072148952618
-0.48570375608978794,-0.48570375608978794,1.0011765428652484,0.0013680490364113324
-0.48558304411999414,-0.48558304411999414,0.9988883833842571,0.0013066335317047186
-0.48543831505376145,-0.48543831505376145,0.9997943178599694,0.0013315191964164504
-0.48531276242429155,-0.48531276242429155,1.0000640193242705,0.0010570019894918334
-0.4851377974948264,-0.4851377974948264,0.998412951398332,0.001147907761993828
-0.4850194003811339,-0.4850194003811339,1.001713663681411,0.0012282089184983637
-0.4849006149015622,-0.4849006149015622,0.9986526090405066,0.0013146482663488651
-0.4847488395018445,-0.4847488395018445,1.000611847159248,0.0011442557989341812
-0.4845946070505306,-0.4845946070505306,0.9988414998853408,0.0014049792076833369
-0.4843915268647834,-0.4843915268647834,1.0015647447330747,0.0014179432620161025
-0.48429267788887953,-0.48429267788887953,1.0005988816188196,0.0010407029583091435
-0.48415499305410775,-0.48415499305410775,0.9991694924369604,0.0011159163564611629
-0.48405959716474173,-0.48405959716474173,0.9997070772760802,0.0013539625396971698
-0.48391880735289305,-0.48391880735289305,0.9998731142939109,0.001206762952408788
-0.48382705360199907,-0.48382705360199907,1.000262878263738,0.0013555368508693072
-0.48376205535023475,-0.48376205535023475,1.0004973046735826,0.0013443750370457541
-0.48358091061236336,-0.48358091061236336,1.001391309921417,0.001364057541068693
-0.4835129223421973,-0.4835129223421973,1.0001505421919332,0.0012217244302484816
-0.4833769984528772,-0.4833769984528772,1.0001903044302145,0.0012627396934815978
-0.48328700454949286,-0.48328700454949286,1.0005538494932786,0.0011885110872017122
-0.48322870560514275,-0.48322870560514275,0.9992583915086731,0.0011801612625167684
-0.4831056227427325,-0.4831056227427325,1.0012677790723958,0.0012306133796508912
-0.4830157908865658,-0.4830157908865658,0.9994430514306458,0.0012084332998569458
-0.4828955877906992,-0.4828955877906992,0.9985275625815273,0.0012440361609330245
-0.4827516873461718,-0.4827516873461718,1.0000110736217396,0.001316578276487892
-0.4826277729138383,-0.4826277729138383,1.000385909988863,0.0010870530395118362
-0.48251723208086333,-0.48251723208086333,1.0003930844926336,0.0013452889204690899
-0.4823834551483742,-0.4823834551483742,1.0003009751134897,0.0010300015145628203
-0.48228482375561726,-0.48228482375561726,0.9999028337247413,0.001465908206608208
-0.4821650209843938,-0.4821650209843938,1.0004568534959803,0.0010109191245620138
-0.4819837917806581,-0.4819837917806581,1.0002335895188443,0.0015259764049551554
-0.48187419704845524,-0.48187419704845524,1.0009172186639888,0.0012294385742216535
-0.48171950306496003,-0.48171950306496003,1.0000043622604613,0.0011932994266981144
-0.48153186460767755,-0.48153186460767755,1.0006083976157112,0.0012954135644099825
-0.4814420425580465,-0.4814420425580465,0.9997657353227465,0.0011122086598652154
-0.48127658819212227,-0.48127658819212227,1.0003290016648312,0.000955629073742867
-0.4811758529460349,-0.4811758529460349,0.9989894618087675,0.0014461089255225817
-0.4810723665490514,-0.4810723665490514,0.9997289163267963,0.001127552829588914
-0.48090992437500973,-0.48090992437500973,1.0013718600701664,0.0011881951061466786
-0.4807156625160133,-0.4807156625160133,1.0009687572217956,0.0014333777932434544
-0.480597058985586,-0.480597058985586,0.9991731197576421,0.001034130335402865
-0.48045066786726237,-0.48045066786726237,1.0007591868084451,0.0012725720930385556
-0.4803229910779919,-0.4803229910779919,1.0003279466704735,0.0012338191846872953
-0.48019638156474687,-0.48019638156474687,1.0017098480542002,0.0013730058674862103
-0.4800267818260181,-0.4800267818260181,1.0006304848612622,0.0010925480849168158
-0.47992069433021245,-0.47992069433021245,0.9999223678300968,0.0013112603350449253
-0.4798430722228659,-0.4798430722228659,1.0012599262449184,0.0011370534100860507
-0.4796903361202567,-0.4796903361202567,0.9983711471439685,0.0010765443250279649
-0.4795990402832103,-0.4795990402832103,1.0002387463470572,0.0012033185224257963
-0.4794904721697094,-0.4794904721697094,0.9997445516628577,0.0012125769615040527
-0.4794013707367412,-0.4794013707367412,0.9998553205830832,0.0014062129952489284
-0.47921858355985025,-0.47921858355985025,1.0003210562071614,0.001145327584471815
-0.4791165053291479,-0.4791165053291479,1.0000460958319355,0.001310310136895962
-0.4790468870931363,-0.4790468870931363,0.9999767540877856,0.0012141726420351472
-0.4789093843464798,-0.4789093843464798,0.9996312392793092,0.001078590461819782
-0.4787780461905641,-0.4787780461905641,0.9994820083310023,0.001247995223976063
-0.47864524389151486,-0.47864524389151486,1.0001449524729036,0.0011070475481219104
-0.4784773448605847,-0.4784773448605847,1.0010078508553968,0.0013495350733643118
-0.4782949221378658,-0.4782949221378658,0.9996528195448651,0.001243941334505022
-0.47819884224809356,-0.47819884224809356,1.0002818006588963,0.001162352402815437
-0.4780719722526555,-0.4780719722526555,0.999952283188785,0.0012559721818328376
-0.4779195886381785,-0.4779195886381785,0.9996022467556467,0.00118751919474062
-0.4778305237661698,-0.4778305237661698,0.9997103992224231,0.001050926377801424
-0.4776274091389496,-0.4776274091389496,1.0019944498216709,0.0011276278146471002
-0.47748230342331227,-0.47748230342331227,0.9991495842733176,0.0013152654219167237
-0.47733539108376133,-0.47733539108376133,1.000476667326288,0.0011814777246804819
-0.4771809881080117,-0.4771809881080117,0.9996473256570851,0.001191844021895413
-0.47708026628461087,-0.47708026628461087,0.9999902142082876,0.001421883448875349
-0.4769905076791474,-0.4769905076791474,0.9994181819989653,0.0011155198913799771
-0.47680949075656825,-0.47680949075656825,1.0003952009143882,0.0011697003478854588
-0.47666898472452884,-0.47666898472452884,0.9992036094526011,0.0011509221411896103
-0.47650581173948015,-0.47650581173948015,0.9999668875101669,0.0011587007240913543
-0.4763409424769634,-0.4763409424769634,1.0001464249976686,0.0013522878379325957
-0.4762475131683459,-0.4762475131683459,1.0019872290549983,0.0011166015931559103
-0.4760363685287302,-0.4760363685287302,1.0004795070180792,0.0010348037189483272
-0.4758786451624474,-0.4758786451624474,1.0000696334029697,0.00138233885082021
-0.4757666673111089,-0.4757666673111089,1.000133742619709,0.0011755704275843936
-0.4756652843985648,-0.4756652843985648,1.001301098359702,0.001405905845394971
-0.47557564536618885,-0.47557564536618885,1.0011255863378878,0.00119420250331569
-0.4754961616949004,-0.4754961616949004,0.9995536578580607,0.001272577891164931
-0.4753519859194057,-0.4753519859194057,1.0000433219888323,0.0013344599442633028
-0.4751817204487452,-0.4751817204487452,0.9990168830171962,0.0011833578301173012
-0.475036111123336,-0.475036111123336,0.9982782184187098,0.001326877159053707
-0.4748393026246049,-0.4748393026246049,1.0005763995621864,0.00122861694935941
-0.4748061424339539,-0.4748061424339539,0.9994290760306068,0.001063222350303037
-0.47473338883792165,-0.47473338883792165,1.0010062340669994,0.0014582943281454175
-0.4746500942892453,-0.4746500942892453,1.0007961000044427,0.0012961722699836586
-0.474418215580954,-0.474418215580954,0.9995958913982438,0.001303221398261806
-0.47430480022740085,-0.47430480022740085,1.0013520220158396,0.0012373367534298848
-0.4741785359154164,-0.4741785359154164,1.0007346180796168,0.001194247383819331
-0.4740446879121009,-0.4740446879121009,0.9990888418553514,0.0013157616308717417
-0.47399113816572935,-0.47399113816572935,1.0002796926601474,0.0011224662481934672
-0.47395286029568523,-0.47395286029568523,0.9993248912340131,0.0015969600669812959
-0.4738786190020619,-0.4738786190020619,0.9998956871772775,0.0012585594443778833
-0.47374840506890903,-0.47374840506890903,0.9994615664606578,0.001208178599103945
-0.4735414223170665,-0.4735414223170665,1.0015176460664021,0.0013490938439754312
-0.47344168252966484,-0.47344168252966484,1.0007948631213757,0.0012595542118442472
-0.47328270314392284,-0.47328270314392284,0.998666396068462,0.0012324946996340382
-0.47319797567251953,-0.47319797567251953,0.9986083566213478,0.0013429720548382082
-0.47311098777863664,-0.47311098777863664,0.9996987245615421,0.0011353760458932998
-0.4730202692298917,-0.4730202692298917,1.0005707872808383,0.0013179137403893076
-0.47290161283381166,-0.47290161283381166,0.9992737471671355,0.0010644717476844747
-0.472800521668978,-0.472800521668978,0.9996838887553416,0.0013106292768755876
-0.47266486542939673,-0.47266486542939673,1.0016698631510206,0.0014078071122092706
-0.4725060082033451,-0.4725060082033451,1.0001366263055131,0.0011447727744790853
-0.47240985200478464,-0.47240985200478464,0.9993634324400752,0.001327873361801904
-0.47232870834341156,-0.47232870834341156,1.0007189465814341,0.0011833318149558221
-0.4722457102543558,-0.4722457102543558,1.0010877035229266,0.0009588762151854647
-0.47218440146461943,-0.47218440146461943,0.9985200473916768,0.0011320326799032008
-0.47209462621976855,-0.47209462621976855,0.9982687908522919,0.0012535612093568416
-0.4719971059705131,-0.4719971059705131,1.0001609050731046,0.001249747897057312
-0.4718652052491962,-0.4718652052491962,0.9998301030217892,0.0010189863652678485
-0.4716779238435265,-0.4716779238435265,0.9996853048570076,0.001411182164454849
-0.4715624092415965,-0.4715624092415965,1.000199779468335,0.0012603555795640496
-0.4714123723599187,-0.4714123723599187,1.000066757922396,0.001207752755309361
-0.4713537896408525,-0.4713537896408525,1.0018533192759569,0.0011333708239778834
-0.4712532207442564,-0.4712532207442564,1.0002116342030105,0.0011425626464861148
-0.47115249700218553,-0.47115249700218553,1.0002425156036463,0.0011943622495319778
-0.47099023963455694,-0.47099023963455694,0.9997456789114765,0.001221433873900122
-0.47081867597662497,-0.47081867597662497,1.0014614991798108,0.0013425657957358498
-0.4707147225693916,-0.4707147225693916,1.0001245830857812,0.0012059277751455579
-0.47057633783115305,-0.47057633783115305,0.9987129445329124,0.001217087310982545
-0.4705094066564925,-0.4705094066564925,0.9987346253562107,0.0010571647649684436
-0.4703673107935174,-0.4703673107935174,0.9998855923565919,0.0012470924854001205
-0.4701991435744276,-0.4701991435744276,0.9992368470480171,0.0011815708242073153
-0.4700725243106717,-0.4700725243106717,1.001216060882018,0.0010813277491077116
-0.46996089457461493,-0.46996089457461493,1.00035816162708,0.0013802773875955712
-0.4698434968719084,-0.4698434968719084,0.9992228213650126,0.0012541087882633553
-0.46974745096886183,-0.46974745096886183,0.9994511820431933,0.0013021825929050703
-0.46967452046592373,-0.46967452046592373,1.000495283965695,0.001084614471626151
-0.4695362648475566,-0.4695362648475566,1.0008239105958143,0.0012566940334056494
