time,time,flux,flux_err
-0.4991850833624388,-0.4991850833624388,1.0008677777957633,0.00019510420825793356
-0.4976037902209403,-0.4976037902209403,0.9998209851985326,0.00017612575847178878
-0.4962143219042143,-0.4962143219042143,0.9998294140491106,0.0001761941024353784
-0.49442141248679644,-0.49442141248679644,1.000366452572597,0.00017602969167447374
-0.4926460463873809,-0.4926460463873809,0.9997510978671066,0.00016117138269044977
-0.4914959934874787,-0.4914959934874787,1.000181561874718,0.00016066248453721683
-0.49015048656146976,-0.49015048656146976,0.9995798903723397,0.00016123845457884287
-0.48878541185549695,-0.48878541185549695,0.9999550910977117,0.00016045226947799146
-0.4874797365351696,-0.4874797365351696,0.999926425183005,0.00016094104438219738
-0.4857662597409217,-0.4857662597409217,1.0001325728577717,0.00017745643382442754
-0.4844702682254137,-0.4844702682254137,0.9994400342841085,0.00016077569347421793
-0.4831990507969749,-0.4831990507969749,1.0009080355444424,0.0001606457137173707
-0.48202776969119443,-0.48202776969119443,1.000616432686935,0.00016055065902998046
-0.48065775241557274,-0.48065775241557274,0.9997176693077738,0.0001608113095243208
-0.4789140160675743,-0.4789140160675743,0.9998249055383159,0.00016071918076031815
-0.47728978569502944,-0.47728978569502944,0.9991571799752987,0.0001606847189750435
-0.4761470228069811,-0.4761470228069811,1.00077003694958,0.000161329046569125
-0.474766491833725,-0.474766491833725,0.9994611719556017,0.00016080535914023023
-0.4732474523640121,-0.4732474523640121,0.9996058928945295,0.00016077085280166131
-0.4717008813444409,-0.4717008813444409,1.0011860903084422,0.0001741815617643854
-0.47062970773404234,-0.47062970773404234,1.000099818014008,0.0001607796077965784
-0.4694105119211599,-0.4694105119211599,0.9998564321221945,0.000160815242950335
-0.46834571899380534,-0.46834571899380534,0.9998694282420738,0.00016040408495676415
-0.4670987080055056,-0.4670987080055056,1.0000912208695296,0.00016072872283417293
-0.46535130365227817,-0.46535130365227817,1.000164829503597,0.00016075342319621489
-0.4637285033430089,-0.4637285033430089,0.9998969632769376,0.00016063644200055435
-0.462584536607028,-0.462584536607028,1.00020273471291,0.00016142392978557446
-0.46121667034603886,-0.46121667034603886,1.0004095833600597,0.00016084655750599387
-0.45955648728704546,-0.45955648728704546,0.9995252106997903,0.000160723986232071
-0.45788523006776816,-0.45788523006776816,1.00004308556962,0.00017122381841408216
-0.4567637254789588,-0.4567637254789588,0.9996808824437704,0.0001607411220509445
-0.45564173926686635,-0.45564173926686635,1.000470346045576,0.00016082149385344844
-0.4546159348639776,-0.4546159348639776,0.9996103836717207,0.00016048503467088517
-0.45318758213979893,-0.45318758213979893,0.9997632626822879,0.00016070532039657383
-0.4514500721910736,-0.4514500721910736,0.9998049242866603,0.00016080194797650607
-0.44984983131143963,-0.44984983131143963,1.0001844509441817,0.00016059741170716218
-0.44810327270679406,-0.44810327270679406,0.9993498132579027,0.00016051944740402287
-0.44675790764595147,-0.44675790764595147,0.9988143009602801,0.00016086669265684436
-0.44486641508119645,-0.44486641508119645,1.0006919196575144,0.0001689756946053515
-0.4437919152536779,-0.4437919152536779,1.0000803759358186,0.00016078608201536482
-0.44251924482523464,-0.44251924482523464,1.0005054788054513,0.00016060001343606774
-0.4414028072744259,-0.4414028072744259,0.9997742026216129,0.00016067872812364074
-0.4402285777090583,-0.4402285777090583,1.00048557852007,0.00016059308545435458
-0.43863859952252826,-0.43863859952252826,1.0000016267828389,0.00016062791810678758
-0.43721552471251923,-0.43721552471251923,1.00071619906809,0.00016079769244017636
-0.4355613407140481,-0.4355613407140481,0.99998634737536,0.00016056198085975245
-0.43411729857616593,-0.43411729857616593,0.9994753510515594,0.00016084442564676284
-0.43244137193250937,-0.43244137193250937,0.9998947871857036,0.0001607600546613976
-0.4306185602428741,-0.4306185602428741,0.9997688898140297,0.00016684543198773106
-0.4293716042273445,-0.4293716042273445,1.0003862986733487,0.0001606301696515231
-0.42831746586452935,-0.42831746586452935,1.0006153397916093,0.00016085976301328782
-0.4272222957530175,-0.4272222957530175,1.0000573934821495,0.00016052593992452565
-0.4257739872453385,-0.4257739872453385,0.9998702209897538,0.00016077235701903993
-0.424139871445368,-0.424139871445368,0.9997215071892495,0.0001606795305133433
-0.4228610692327493,-0.4228610692327493,1.0002248768028232,0.00016315841318987058
-0.421603222626436,-0.421603222626436,1.0000435187169268,0.0001605490700917201
-0.42036276536236983,-0.42036276536236983,0.9990459741101825,0.00016095995882967043
-0.41875403773738074,-0.41875403773738074,0.9999032062854354,0.000160633786960167
-0.4170562601299025,-0.4170562601299025,1.0004272599261288,0.00016536777770762378
-0.4157440912342281,-0.4157440912342281,0.9996977436344933,0.00016082518043217535
-0.4144974533453933,-0.4144974533453933,0.9993366252801055,0.0001607275389705739
-0.4134832278461545,-0.4134832278461545,1.001103252471991,0.00016076436816787328
-0.4122149079936207,-0.4122149079936207,0.9994753020742531,0.00016074102152429848
-0.41058233218936946,-0.41058233218936946,0.9998322198552707,0.00016055083616111366
-0.409294466440042,-0.409294466440042,0.999644438755284,0.00016251306350951918
-0.40803666096035157,-0.40803666096035157,1.0006691011101088,0.00016059313357671514
-0.4068113731322228,-0.4068113731322228,1.0004894562000284,0.00016097577164996308
-0.4051983963028761,-0.4051983963028761,1.0001869187280108,0.00016070856409706303
-0.4034939816279802,-0.4034939816279802,1.0000622221894853,0.00016430969265498162
-0.4019855337872286,-0.4019855337872286,1.000479174473915,0.0001607502830177559
-0.40071706274466123,-0.40071706274466123,0.9995477298170835,0.00016074883562707757
-0.3996729087739368,-0.3996729087739368,1.0004795938897293,0.00016072067720173573
-0.39831089937506475,-0.39831089937506475,0.9999008474947914,0.0001606891659670506
-0.39685160851367984,-0.39685160851367984,1.0003775948540947,0.00016078041115552067
-0.39543524077162145,-0.39543524077162145,1.0001976577493388,0.00016198997224493966
-0.39414455320802516,-0.39414455320802516,1.0000918140448005,0.00016053376919970252
-0.39306102901900886,-0.39306102901900886,1.000137900596982,0.00016081254324206023
-0.3916428452677792,-0.3916428452677792,0.9996323895972934,0.0001606569746766332
-0.38979536671977255,-0.38979536671977255,0.9998364061790784,0.00016080052323108845
-0.3880458412997541,-0.3880458412997541,1.0003552027634253,0.00016077493887327852
-0.38697330685099585,-0.38697330685099585,0.9997254755264464,0.0001607955267218733
-0.3857199819642119,-0.3857199819642119,1.0004084213966506,0.00016095795006853148
-0.38438309099292384,-0.38438309099292384,1.0005730408298772,0.00016068869415321714
-0.3829910418702639,-0.3829910418702639,0.9989892653967614,0.00016183762603217794
-0.381683380783943,-0.381683380783943,1.0004006191377126,0.0001606601590803961
-0.3803405499100336,-0.3803405499100336,1.0000978380676915,0.0001606454977252469
-0.379505311739922,-0.379505311739922,0.9995885834719648,0.000160924805661397
-0.3780873872805387,-0.3780873872805387,0.9994981496311942,0.00016069629805329252
-0.3762411042072927,-0.3762411042072927,1.0006665353252917,0.00016077659949941938
-0.3744905336818192,-0.3744905336818192,0.9998677832014969,0.0001607286004036992
-0.3734093001825386,-0.3734093001825386,0.9993844214387495,0.00016085274698815637
-0.372106412811263,-0.372106412811263,1.000528327083092,0.00016077415970785217
-0.37048812109278517,-0.37048812109278517,1.0001682191506285,0.00016076918359370416
-0.3691242399843759,-0.3691242399843759,0.9989609940178639,0.00016145478787188582
-0.3678830600983929,-0.3678830600983929,1.000216055313715,0.00016075969947874439
-0.366556279467477,-0.366556279467477,1.0007434046170016,0.00016060713327123774
-0.3657315085292794,-0.3657315085292794,1.0003308239539925,0.0001609020022667146
-0.3640907529508695,-0.3640907529508695,0.9999643516998702,0.00016087198809877713
-0.36233393255533886,-0.36233393255533886,1.000669762938044,0.00016072403818481184
-0.3607372625730932,-0.3607372625730932,1.0003898981103299,0.0001608909890439727
-0.35930900783714603,-0.35930900783714603,0.9996378157940379,0.00016084799278793654
-0.3579795434969128,-0.3579795434969128,0.9992357386050301,0.00016075611035557281
-0.3562834836688126,-0.3562834836688126,1.0004367363178583,0.00016067365657344872
-0.3547301282946137,-0.3547301282946137,1.0006175203323688,0.00016108301830858237
-0.35348189985670614,-0.35348189985670614,1.000434857278996,0.00016057209549080712
-0.35241244895441926,-0.35241244895441926,0.9997724857392036,0.00016097084986484335
-0.3510082039516419,-0.3510082039516419,1.0003430050986086,0.00016071877597531456
-0.34952116935310185,-0.34952116935310185,0.99923156892667,0.000160769308744021
-0.3477655419992516,-0.3477655419992516,1.0003558471347014,0.0001607912366421392
-0.34631486308790044,-0.34631486308790044,0.9997707319385049,0.00016070711451039125
-0.3449910637486028,-0.3449910637486028,1.0003291813990725,0.00016078356276290183
-0.3433693408194813,-0.3433693408194813,0.9986630537446752,0.0001607030398376341
-0.3417445173035958,-0.3417445173035958,0.9997139903302571,0.00016103526737803426
-0.3404309352466953,-0.3404309352466953,1.0001527193260333,0.0001606780824665575
-0.33929957048094367,-0.33929957048094367,1.0001436106747765,0.00016118203375733954
-0.337939789412485,-0.337939789412485,1.0003503600748562,0.0001604497018130742
-0.33662480429775316,-0.33662480429775316,0.9998738748219724,0.00016087335519350505
-0.33491829796694217,-0.33491829796694217,0.9992935749566059,0.0001823058762443297
-0.3336215541086858,-0.3336215541086858,0.9999281763899376,0.00016091965718879284
-0.3323524833569536,-0.3323524833569536,0.9992150184499075,0.000160601383774911
-0.33115948045597177,-0.33115948045597177,0.9997443971901046,0.00016079371819150044
-0.3294585505325813,-0.3294585505325813,0.9996288176306278,0.000160692224426587
-0.3280437918176176,-0.3280437918176176,1.0000266205884962,0.00016100122794386945
-0.32676849923445844,-0.32676849923445844,0.9998155827027719,0.00016064344278297855
-0.32552482883329503,-0.32552482883329503,0.9999362090602135,0.00016132345069948785
-0.32410741480998695,-0.32410741480998695,1.0008725094713822,0.0001605601807316388
-0.3227248387876898,-0.3227248387876898,0.9997358638800378,0.00016089880260545758
-0.3210653019501478,-0.3210653019501478,1.0001238238645833,0.00017796627644156633
-0.31978287437959807,-0.31978287437959807,0.999864111360934,0.0001608042293900662
-0.31856694352754855,-0.31856694352754855,1.0002003359810767,0.00016078240808946973
-0.3174167164339451,-0.3174167164339451,0.9997371446308172,0.00016039566041470345
-0.31589919479592937,-0.31589919479592937,1.0003404579761397,0.00016076248810590078
-0.314179819826677,-0.314179819826677,1.0003489495676403,0.00016080182309361938
-0.3125935206640861,-0.3125935206640861,1.000210931937335,0.00016065828410142966
-0.31150302216701675,-0.31150302216701675,1.000850540809373,0.00016107703972902668
-0.3101611600533943,-0.3101611600533943,0.9992712676744044,0.00016089182194752987
-0.30847112423798534,-0.30847112423798534,0.9997672759672322,0.00016088637479482585
-0.3070443233838887,-0.3070443233838887,0.9991470185380591,0.0001746469340321597
-0.30591702176752733,-0.30591702176752733,0.9997162272532879,0.00016076214145263498
-0.30479073873284507,-0.30479073873284507,0.9999770114299078,0.0001607909615787078
-0.30377134473383194,-0.30377134473383194,0.9994583702890232,0.0001603815508896391
-0.30233993386500513,-0.30233993386500513,0.9999796253189743,0.00016076017947445946
-0.30061219056806293,-0.30061219056806293,0.9994948496669622,0.0001607318982491109
-0.29903205531154525,-0.29903205531154525,0.9998704914272446,0.00016061641732256733
-0.297944348611054,-0.297944348611054,0.9997444688181633,0.00016112502208662238
-0.29660940754693,-0.29660940754693,0.9986531363768828,0.00016088247168243803
-0.2946291487838607,-0.2946291487838607,1.0006286340009134,0.00016104163222037843
-0.29333690743515034,-0.29333690743515034,1.000530264313173,0.0001714757160338326
-0.29209029361081773,-0.29209029361081773,0.9992012858368323,0.00016063353114004303
-0.2910196655371692,-0.2910196655371692,1.0002310242428818,0.00016088215644176443
-0.2899485526533681,-0.2899485526533681,0.9997126492451937,0.00016062495761143402
-0.28848564796498977,-0.28848564796498977,0.9997728874339824,0.00016069403117888143
-0.2867401887415326,-0.2867401887415326,1.0006008304762732,0.00016070787233189303
-0.2850483037327649,-0.2850483037327649,0.99978205519201,0.00016054610510469555
-0.28343985551182416,-0.28343985551182416,1.000765146798679,0.00016057815501552798
-0.2819818554693484,-0.2819818554693484,0.9997505294839133,0.00016080542372664945
-0.2801773036786471,-0.2801773036786471,0.9988893857034904,0.00016923739011410856
-0.2791035512680537,-0.2791035512680537,1.0005176756295175,0.0001607724630191361
-0.2778791731485398,-0.2778791731485398,1.0003646366234549,0.00016076016983752845
-0.2768201322760433,-0.2768201322760433,1.0000416218399235,0.0001604289971960434
-0.275574036737089,-0.275574036737089,0.999904132911913,0.00016070146433806032
-0.27381989565037657,-0.27381989565037657,1.00047204209091,0.0001607410081544767
-0.2721745715054567,-0.2721745715054567,1.0004913352266227,0.0001607375271375191
-0.2704787497990765,-0.2704787497990765,1.0002880702275079,0.00016051070527286465
-0.2691672980799922,-0.2691672980799922,0.9996336239874075,0.00016092765705309116
-0.2671290946935187,-0.2671290946935187,1.0006189259008043,0.00016724282108995531
-0.26582584565621803,-0.26582584565621803,1.0002611096016152,0.00016076158570047742
-0.26455275101325243,-0.26455275101325243,0.9995271699473053,0.00016057725865912723
-0.26343446271348514,-0.26343446271348514,0.9992461230768057,0.00016067330534105646
-0.26226337947446154,-0.26226337947446154,0.9999337129015243,0.00016062397486810192
-0.2606685823528096,-0.2606685823528096,0.9999073838075265,0.00016060950324145053
-0.25927317613968626,-0.25927317613968626,0.9988864953717312,0.00016354715212257994
-0.2579152328791679,-0.2579152328791679,0.9999792911501473,0.00016061177872992127
-0.2563285964570241,-0.2563285964570241,0.9996751517976845,0.00016054917529083698
-0.2550488436289015,-0.2550488436289015,1.0001330064854008,0.00016068343462155408
-0.25326422200596427,-0.25326422200596427,0.9997687150330472,0.00016571992828964214
-0.2519322876774822,-0.2519322876774822,1.0000223391728285,0.00016080292069679903
-0.2505627880658722,-0.2505627880658722,0.9994658159828524,0.0001608640922276671
-0.2495247279657633,-0.2495247279657633,1.0011977252238116,0.00016052502419020416
-0.24810383294388885,-0.24810383294388885,0.9996559411787708,0.00016074835745326748
-0.24646595609374344,-0.24646595609374344,1.0000899485785066,0.0001607142632676077
-0.24517754296393832,-0.24517754296393832,1.000223242872584,0.00016265917413973193
-0.24385417972225695,-0.24385417972225695,0.9998554103205342,0.00016066036132888928
-0.24260985961154802,-0.24260985961154802,0.9992518147453628,0.00016082440762528292
-0.24112942371430107,-0.24112942371430107,1.0002309282927129,0.0001606198414730628
-0.23939462598063982,-0.23939462598063982,0.9999781029734809,0.00016457758915276358
-0.23794280895817793,-0.23794280895817793,0.9997886954156915,0.0001607284483725137
-0.23653338091826298,-0.23653338091826298,1.0007287521669777,0.00016079763535083985
-0.23551394709502346,-0.23551394709502346,1.0004624066176309,0.00016081226344395223
-0.23424908226152183,-0.23424908226152183,0.99983029341881,0.00016069679864308894
-0.23261922769306692,-0.23261922769306692,1.0006982927466352,0.00016066284976236554
-0.23132089106511558,-0.23132089106511558,0.9997116883355387,0.00016206984114459528
-0.2300645906230784,-0.2300645906230784,0.9999466045118144,0.0001605116734231965
-0.22885194326081545,-0.22885194326081545,0.9995773725563251,0.00016103544000388193
-0.22723543114989297,-0.22723543114989297,0.9994324840162804,0.00016067597911299423
-0.2253877524053678,-0.2253877524053678,1.0000204943379192,0.00016079935978194308
-0.22363839984463993,-0.22363839984463993,1.000305836049504,0.00016076764006757758
-0.22256731531379045,-0.22256731531379045,0.9995727175598702,0.0001608027968871278
-0.22131229004298802,-0.22131229004298802,1.000606963360649,0.00016095150671199747
-0.21997704212699318,-0.21997704212699318,0.9991897199977247,0.00016063693856692153
-0.2185848258799524,-0.2185848258799524,1.000389673491102,0.0001619074138749968
-0.2172773182479432,-0.2172773182479432,1.0002770026780712,0.00016064171264082384
-0.21589481922710546,-0.21589481922710546,1.0002272918948751,0.00016052776997085041
-0.21488042023120216,-0.21488042023120216,0.9994057142993851,0.000160809300313505
-0.213236265652813,-0.213236265652813,0.9997285550661283,0.00016084833589231952
-0.21148293201986235,-0.21148293201986235,1.0008045811591273,0.00016066151413053747
-0.2098882565522217,-0.2098882565522217,0.9996684989168522,0.0001608998699728487
-0.20875296654412523,-0.20875296654412523,0.9995357417672928,0.000160807300171362
-0.20742775407270528,-0.20742775407270528,0.9993114596502458,0.00016076073481278167
-0.205785572892637,-0.205785572892637,0.9996114269646258,0.00016072178397284734
-0.20447430329950295,-0.20447430329950295,1.0007818978747438,0.00016139220258739809
-0.20315654744917994,-0.20315654744917994,0.9998371918985967,0.0001607022460707469
-0.20202025223698,-0.20202025223698,1.0001603100517058,0.00016076092776238222
-0.20099164929997643,-0.20099164929997643,0.999700858496768,0.0001607265827112759
-0.19934556913940468,-0.19934556913940468,1.000521839057188,0.0001608613713947224
-0.19758585416857385,-0.19758585416857385,0.9997520548771774,0.0001607869908282427
-0.19605637440254214,-0.19605637440254214,1.0001260206082079,0.00016070252455111804
-0.19462792571575846,-0.19462792571575846,1.0001292169820157,0.00016095986834808364
-0.19322681592602747,-0.19322681592602747,0.9995591835639773,0.00016066404464654021
-0.1915367879482801,-0.1915367879482801,0.9998736869716547,0.00016125090594949816
-0.19015022388484795,-0.19015022388484795,1.0004544735784568,0.00016060966520314626
-0.18880584212311077,-0.18880584212311077,0.9997275112348951,0.0001605755401398387
-0.18777259224298176,-0.18777259224298176,0.9993871391481151,0.00016078435218277266
-0.18640896817232716,-0.18640896817232716,0.9991549226217666,0.0001608741626325776
-0.18472518578200833,-0.18472518578200833,0.9995594435024058,0.00016082563037431966
-0.18297268689057092,-0.18297268689057092,0.9999467454593283,0.0001606768963930097
-0.18163909651630092,-0.18163909651630092,0.9999850227712617,0.00016078491664943124
-0.18031084044487217,-0.18031084044487217,0.9992053393449473,0.0001607770787264199
-0.1786112506306381,-0.1786112506306381,1.0003901407330167,0.0001606643449108
-0.1770482833861024,-0.1770482833861024,0.9997092091528211,0.0001610276456744571
-0.17579946977639338,-0.17579946977639338,1.000550032398119,0.0001605518275314039
-0.17467596304486505,-0.17467596304486505,0.9992385792547817,0.00016120587859882579
-0.1732561272001476,-0.1732561272001476,1.0008378036516221,0.00016051143770706618
-0.17187087215424982,-0.17187087215424982,0.9999911696270203,0.00016083609031344515
-0.17021851546451217,-0.17021851546451217,0.9982894493737969,0.00018454853461973795
-0.1691982188975089,-0.1691982188975089,0.9993086301336067,0.00016095201133694415
-0.16777670907322317,-0.16777670907322317,1.0006405556386102,0.00016085912161289652
-0.16645550502871628,-0.16645550502871628,0.9998904544813236,0.00016078634649285096
-0.16475733779516305,-0.16475733779516305,1.0000325287618455,0.00016066569977011189
-0.1631883909678436,-0.1631883909678436,0.9998481861949845,0.00016091487944995197
-0.16174866682995342,-0.16174866682995342,0.9989908995732526,0.00016056856661573668
-0.1606548888274119,-0.1606548888274119,0.9998689053820341,0.000160910169094093
