time,time,flux,flux_err
-0.4999630536282898,-0.4999630536282898,0.9999844295293058,2.9651620816887804e-05
-0.49982115253045833,-0.49982115253045833,1.0000557946059156,2.961263307735022e-05
-0.49966622440228886,-0.49966622440228886,1.0001755604013,2.953081854047021e-05
-0.4995191506798271,-0.4995191506798271,0.999869808861165,2.963211574320774e-05
-0.4993946446707781,-0.4993946446707781,1.0000517031759295,2.7055104892248547e-05
-0.4992559453968809,-0.4992559453968809,0.9999048713822682,2.6985528473712755e-05
-0.499152254575651,-0.499152254575651,1.000051222839143,2.70288056639548e-05
-0.49904147287245026,-0.49904147287245026,1.000003242673772,2.712159025827879e-05
-0.4989040439211223,-0.4989040439211223,1.0000176074829965,2.6928952285163272e-05
-0.4988043092779634,-0.4988043092779634,1.000012275628444,2.7032370084648722e-05
-0.49868135129145796,-0.49868135129145796,1.0001047963633625,2.71081312318139e-05
-0.498552386386055,-0.498552386386055,0.9999426391895228,2.7022466959560357e-05
-0.4984569446499748,-0.4984569446499748,1.0000864298631167,2.7037406912517172e-05
-0.49831181641929445,-0.49831181641929445,1.0001286817925894,2.7115079526575585e-05
-0.49821332486111203,-0.49821332486111203,0.9999384205489399,2.7026160268654927e-05
-0.49810554056083023,-0.49810554056083023,1.0002145469474093,2.7094099542239924e-05
-0.49795666770189656,-0.49795666770189656,1.000036441388981,2.7069506914523294e-05
-0.4978721729716966,-0.4978721729716966,1.000019725201382,2.6977099216869247e-05
-0.49774161814681295,-0.49774161814681295,1.00002964319868,2.714809131541783e-05
-0.49762259598546876,-0.49762259598546876,1.0000258249222267,2.7017946003901942e-05
-0.49752617935286453,-0.49752617935286453,1.000180036688266,2.6970132551647163e-05
-0.4973816384444277,-0.4973816384444277,0.9999374451265524,2.7214935136181605e-05
-0.49728104430381564,-0.49728104430381564,0.9999811726611808,2.6939142978774955e-05
-0.4971713554294638,-0.4971713554294638,0.9999988293240012,2.7105637016576673e-05
-0.4970328267751768,-0.4970328267751768,1.0000004711247563,2.7077588177664043e-05
-0.49694094458036914,-0.49694094458036914,0.9999590333624642,2.698092294484001e-05
-0.4968168693201818,-0.4968168693201818,1.0000674287713578,2.7155473113010798e-05
-0.49669227364669694,-0.49669227364669694,0.9999285524483629,2.702463166408521e-05
-0.4965993844704343,-0.4965993844704343,1.0000264570163748,2.6967022458428747e-05
-0.4964473338442318,-0.4964473338442318,1.0000355494228308,2.7157691110723874e-05
-0.49633899637046286,-0.49633899637046286,0.9999787207614951,2.7028472738322913e-05
-0.49622984903442957,-0.49622984903442957,1.0003152610924628,2.6965618167142027e-05
-0.49607336395910406,-0.49607336395910406,1.0000336029230437,2.7154653263742435e-05
-0.4959753721934305,-0.4959753721934305,1.0000588352663378,2.703278128567543e-05
-0.4958564022900461,-0.4958564022900461,1.000009781679109,2.7082560669046342e-05
-0.4957246682148124,-0.4957246682148124,0.9999515661689274,2.7085342085940293e-05
-0.49563088817282475,-0.49563088817282475,1.0000106389713066,2.6957292431266905e-05
-0.49549674064161875,-0.49549674064161875,1.0000031428931024,2.717983157817747e-05
-0.49538900987031126,-0.49538900987031126,1.0000101397463583,2.7007896665416837e-05
-0.4952780367254007,-0.4952780367254007,1.0001832784554878,2.6975973727718924e-05
-0.49514008342896004,-0.49514008342896004,1.0000057898002115,2.7161256203174113e-05
-0.4950432347434656,-0.4950432347434656,1.0000411965485771,2.7020350222387826e-05
-0.49492517681222237,-0.49492517681222237,0.9999475454203074,2.7076599099673933e-05
-0.49479879751529127,-0.49479879751529127,0.999992970140687,2.710998668946735e-05
-0.4947016873879818,-0.4947016873879818,0.9999597280511733,2.6928915251262708e-05
-0.49456982731026355,-0.49456982731026355,1.0001185438131142,2.7099529973237207e-05
-0.4944549410404903,-0.4944549410404903,0.9999944376727676,2.7083364627998037e-05
-0.49434089591485986,-0.49434089591485986,1.000211332324735,2.6973503464951174e-05
-0.49421624299576195,-0.49421624299576195,0.9999103315670872,2.7158883184351194e-05
-0.49410461352310764,-0.49410461352310764,0.9999679411672433,2.701783010884105e-05
-0.49399046445817163,-0.49399046445817163,1.000042491206591,2.6959806131316367e-05
-0.49387105133832565,-0.49387105133832565,1.00000006312251,2.7226860765680853e-05
-0.493763067707566,-0.493763067707566,1.0000044618843802,2.6929558923087896e-05
-0.4936385985618202,-0.4936385985618202,1.0000030567650566,2.7099242425479863e-05
-0.49352962204626893,-0.49352962204626893,0.9999778289234745,2.708251282787862e-05
-0.49341558014509845,-0.49341558014509845,0.999999600250354,2.6976960031341778e-05
-0.49329240257787177,-0.49329240257787177,1.0000252215746888,2.7160579847911806e-05
-0.4931807736071988,-0.4931807736071988,1.0000887286830504,2.7019766509655613e-05
-0.4930666258995487,-0.4930666258995487,1.000052411286092,2.6962386547353164e-05
-0.492947212680923,-0.492947212680923,1.0000142797751919,2.722535944866355e-05
-0.49283922932878144,-0.49283922932878144,1.0000059100451224,2.6931798681391036e-05
-0.49271476047182716,-0.49271476047182716,0.9999340338197836,2.710078995239733e-05
-0.4926057811973578,-0.4926057811973578,1.0000975940386012,2.708436066892783e-05
-0.4924917425135803,-0.4924917425135803,1.0000201079075441,2.6984157626896434e-05
-0.49236856217567465,-0.49236856217567465,0.9999225139471875,2.7162544776039104e-05
-0.4922465868051674,-0.4922465868051674,1.0000175823131936,2.702072986463748e-05
-0.49213847183869175,-0.49213847183869175,1.0000439193803985,2.704881790082054e-05
-0.49201290826495664,-0.49201290826495664,0.9999876217072377,2.7142951450358314e-05
-0.4919006096748092,-0.4919006096748092,1.000017758229887,2.6935020951854396e-05
-0.4917905016275526,-0.4917905016275526,1.0000018116131968,2.7073030618381155e-05
-0.4916675798459849,-0.4916675798459849,0.9999294447000624,2.711389713616025e-05
-0.49155428629230047,-0.49155428629230047,0.9999840656447982,2.7048900530273817e-05
-0.49144355910104454,-0.49144355910104454,0.999997665772337,2.7104349866866893e-05
-0.49131831253392166,-0.49131831253392166,1.0000979757321626,2.702098153783261e-05
-0.49121463327914655,-0.49121463327914655,1.0000772148318546,2.705367706116734e-05
-0.49108906966147714,-0.49108906966147714,1.000010630906984,2.7141224499680493e-05
-0.4909767713213299,-0.4909767713213299,0.9999479457105327,2.69384795897231e-05
-0.49086370350483294,-0.49086370350483294,1.0000578064377443,2.7078710620577306e-05
-0.4907437428058813,-0.4907437428058813,1.000011666894143,2.711236036632626e-05
-0.49062305565033026,-0.49062305565033026,1.0000674991015355,2.7051803658487552e-05
-0.49051233033088265,-0.49051233033088265,1.0001742070495288,2.7108404872522053e-05
-0.49039447266444114,-0.49039447266444114,1.0000907859835475,2.702278642731149e-05
-0.4902834040152797,-0.4902834040152797,0.9999703765909052,2.7054846918762194e-05
-0.4901652310738811,-0.4901652310738811,1.0000203346158423,2.714185565175981e-05
-0.4900406134254851,-0.4900406134254851,0.9999279043709428,2.7046172214965993e-05
-0.4899344435780392,-0.4899344435780392,1.0000812216568231,2.6976931401151416e-05
-0.4898061613669711,-0.4898061613669711,0.999929237407909,2.7218618052601156e-05
-0.4896981788638811,-0.4896981788638811,1.0000171427343796,2.6944627430711886e-05
-0.4895737110029145,-0.4895737110029145,1.0000106021301267,2.7112179101154372e-05
-0.48946472243451067,-0.48946472243451067,1.0001274550692147,2.7079253454221934e-05
-0.48935069456648533,-0.48935069456648533,1.000124698969735,2.7005427152550167e-05
-0.4892266112158808,-0.4892266112158808,1.0000787985037498,2.714262816782735e-05
-0.489116771800515,-0.489116771800515,1.0000683741640344,2.705172012235227e-05
-0.4890017362924013,-0.4890017362924013,1.0001661801842725,2.6980312355054967e-05
-0.48888232278126936,-0.48888232278126936,0.999968697775472,2.721570763619437e-05
-0.4887699061122902,-0.4887699061122902,0.999927393170432,2.695111980793234e-05
-0.48864854679092673,-0.48864854679092673,1.000091383644302,2.706253774556338e-05
-0.4885348171301942,-0.4885348171301942,1.0000153419804678,2.7133945548954963e-05
-0.4884120756191166,-0.4884120756191166,0.9999712022527827,2.7009960323871505e-05
-0.4882953820177178,-0.4882953820177178,1.0001620337755277,2.714256923137145e-05
-0.48818553947688487,-0.48818553947688487,0.9999493631818017,2.705338577100093e-05
-0.4880579093274207,-0.4880579093274207,0.9999622454723761,2.7034058418575633e-05
-0.48794890990258183,-0.48794890990258183,1.0000461244665373,2.7159307664258614e-05
-0.4878357208733618,-0.4878357208733618,1.0000156727795126,2.695341902787964e-05
-0.48770992542619923,-0.48770992542619923,1.0001602089735964,2.7061947947046337e-05
-0.4876109783749939,-0.4876109783749939,1.000017947864638,2.713286901463019e-05
-0.487480847332958,-0.487480847332958,1.000089722587045,2.700908679841654e-05
-0.48736415277279976,-0.48736415277279976,0.9999815179042042,2.713785287800148e-05
-0.48726169788345003,-0.48726169788345003,0.9999871544177761,2.7053137771310832e-05
-0.487134072592319,-0.487134072592319,1.000029301724315,2.7029348696894267e-05
-0.48702506959272257,-0.48702506959272257,1.0000053246725578,2.715727913092239e-05
-0.4869118825764957,-0.4869118825764957,0.9999752874186545,2.695175834234542e-05
-0.4867860854249685,-0.4867860854249685,1.0001118175124961,2.70582811841452e-05
-0.48668713963827914,-0.48668713963827914,1.0001309285293205,2.7129289592801186e-05
-0.48655109719795175,-0.48655109719795175,1.0000417509160737,2.7005589178011937e-05
-0.48643884045988556,-0.48643884045988556,1.0000988729161402,2.7001457153562172e-05
-0.48633193939006103,-0.48633193939006103,1.0000026984567683,2.7180329674073743e-05
-0.48620284516143497,-0.48620284516143497,1.0000046144557038,2.702492259400457e-05
-0.4861001988354204,-0.4861001988354204,1.000040464027732,2.7058289002534405e-05
-0.4859816840501381,-0.4859816840501381,1.000057447245544,2.7046844803162472e-05
-0.48585689963771445,-0.48585689963771445,1.00004726970313,2.7029975681341656e-05
-0.48576125601304626,-0.48576125601304626,1.0000194983423207,2.7150750317993384e-05
-0.48562578149701635,-0.48562578149701635,0.999957175217661,2.7006448889420272e-05
-0.4855149997589933,-0.4855149997589933,1.0000254460545852,2.6998401432858778e-05
-0.485408100024182,-0.485408100024182,1.0001096579742652,2.7177887028979268e-05
-0.4852790084482933,-0.4852790084482933,1.0002053723095996,2.7022333156591985e-05
-0.48517636014903476,-0.48517636014903476,0.9999828735735946,2.705463823180469e-05
-0.48505784418880465,-0.48505784418880465,0.999925517307447,2.7043614388981177e-05
-0.48493306123496466,-0.48493306123496466,1.0000043903114595,2.702841675281161e-05
-0.4848374157422725,-0.4848374157422725,0.9999226118727338,2.7141568958478787e-05
-0.4847019439473357,-0.4847019439473357,0.9999884059940631,2.7006189365092456e-05
-0.4845882027571918,-0.4845882027571918,1.000027746388507,2.699649482452831e-05
-0.48448426067403716,-0.48448426067403716,1.0001036952232905,2.717038900436982e-05
-0.4843446820410932,-0.4843446820410932,0.9999641319303263,2.7077089323812153e-05
-0.4842437953035784,-0.4842437953035784,0.999948643977756,2.699514980431541e-05
-0.48412661354426517,-0.48412661354426517,0.9999929573462236,2.70383028011244e-05
-0.48399592095980354,-0.48399592095980354,1.0001035541347216,2.7148914706274254e-05
-0.48390470522152357,-0.48390470522152357,1.0000228810813883,2.7012389812173844e-05
-0.48377071561352664,-0.48377071561352664,1.0001445634431632,2.7003934815064152e-05
-0.4836560660791093,-0.4836560660791093,1.0001587832775118,2.7091623296207706e-05
-0.4835554140352684,-0.4835554140352684,1.0000104822594946,2.706054358862467e-05
-0.4834178910893314,-0.4834178910893314,1.0002319062945968,2.7072294498431762e-05
-0.48331256384915094,-0.48331256384915094,0.9999800154263816,2.6989726061900803e-05
-0.48319538291130615,-0.48319538291130615,1.0000676031148918,2.7031895616083445e-05
-0.48307194131668324,-0.48307194131668324,0.9999440175545928,2.7074986549433196e-05
-0.4829721373209154,-0.4829721373209154,1.0000653817519964,2.7072298908075755e-05
-0.4828336949470454,-0.4828336949470454,0.9999943463011445,2.706601793839638e-05
-0.4827306308368094,-0.4827306308368094,1.0000925252836352,2.7018676416419334e-05
-0.4826108768095693,-0.4826108768095693,1.0000605744897642,2.705423069632712e-05
-0.4824867814892059,-0.4824867814892059,1.0000411159238431,2.7012281854214543e-05
-0.4823812166386105,-0.4823812166386105,0.9999639667577895,2.703497200142023e-05
-0.48225522116377134,-0.48225522116377134,1.0000098137344788,2.7151175945524986e-05
-0.4821306887571509,-0.4821306887571509,0.999946329762451,2.695489414346579e-05
-0.48203473258058266,-0.48203473258058266,1.0000028675381494,2.7052005042789013e-05
-0.4818950775602772,-0.4818950775602772,0.999951054375526,2.7056645311967582e-05
-0.4817920110521257,-0.4817920110521257,1.0000269010559548,2.700868275096799e-05
-0.48167964302092797,-0.48167964302092797,1.000000995475098,2.7047202172898493e-05
-0.48154830853720937,-0.48154830853720937,1.0000446604308493,2.7071219645315583e-05
-0.4814529172047287,-0.4814529172047287,1.0000413766670266,2.7026355288325454e-05
-0.4813253506901972,-0.4813253506901972,1.0000058287475737,2.7075326157962133e-05
-0.4812068513900968,-0.4812068513900968,0.9999347213482206,2.694630185393902e-05
-0.4811108908861783,-0.4811108908861783,1.0000062872712219,2.7044277704406492e-05
-0.4809654026612307,-0.4809654026612307,0.9999964215769721,2.7118027077053944e-05
-0.48085923017534216,-0.48085923017534216,0.999978591226552,2.693072342069726e-05
-0.48074161262527754,-0.48074161262527754,1.0000545033086854,2.705655806425514e-05
-0.4805958676616626,-0.4805958676616626,0.999983110563617,2.711466845963625e-05
-0.4804677815069738,-0.4804677815069738,1.0000077147390636,2.694081671822908e-05
-0.4803599923992479,-0.4803599923992479,1.0000150679241513,2.7038899857779166e-05
-0.48022633266475057,-0.48022633266475057,0.999966662809794,2.711012709216118e-05
-0.4800982465686431,-0.4800982465686431,0.9999650787335794,2.69388743955255e-05
-0.47999489015789437,-0.47999489015789437,1.0000126786164398,2.7036586169546905e-05
-0.47985679767054423,-0.47985679767054423,1.0000118111954601,2.7108052959709445e-05
-0.4797287116331617,-0.4797287116331617,0.9999849854612682,2.6936417247527308e-05
-0.4796105720638749,-0.4796105720638749,1.0000621061542394,2.7032340276682484e-05
-0.4794872626789058,-0.4794872626789058,1.0001102625754126,2.7105413162445983e-05
-0.4793722224208807,-0.4793722224208807,0.9999438888890179,2.6920379851934005e-05
-0.4792634651167333,-0.4792634651167333,0.9999573582607152,2.7042872828304288e-05
-0.47912800404834144,-0.47912800404834144,1.0000390843905234,2.702866051024938e-05
-0.479021370114063,-0.479021370114063,1.0000113852768018,2.7008568931681862e-05
-0.47890723994767936,-0.47890723994767936,1.0000557545666826,2.7003111214825813e-05
-0.4787776767369209,-0.4787776767369209,1.000126661716375,2.706478090729632e-05
-0.4786805233615283,-0.4786805233615283,1.0000214196354413,2.6988278572738522e-05
-0.4785538330326474,-0.4785538330326474,1.0000319030609965,2.7047897412968204e-05
-0.478436212315421,-0.478436212315421,0.9999648776519656,2.6947667860753196e-05
-0.4783384930198807,-0.4783384930198807,0.9999243389714614,2.7003574649987794e-05
-0.4781997336435964,-0.4781997336435964,0.9999109570880618,2.7025115092428815e-05
-0.47809753005291356,-0.47809753005291356,1.000012177063255,2.7001429663281013e-05
-0.47798339871075796,-0.47798339871075796,0.9999524216719736,2.6995680503940414e-05
-0.4778538398356261,-0.4778538398356261,1.000106671258489,2.7059312603223024e-05
-0.47775668508630104,-0.47775668508630104,0.9999888097172229,2.6984189305968614e-05
-0.4776299938231787,-0.4776299938231787,1.0000510537229717,2.7041694548698656e-05
-0.4775123732273826,-0.4775123732273826,0.9999520597325076,2.6940863312147772e-05
-0.47741465316199766,-0.47741465316199766,0.9999545764090547,2.699869399363599e-05
-0.4772758976804326,-0.4772758976804326,0.9999964032869307,2.7021038275021256e-05
-0.47717369000853294,-0.47717369000853294,1.0000616121366057,2.699296656261594e-05
-0.4770595574886102,-0.4770595574886102,0.9999639206083645,2.6988729095586374e-05
-0.47693000294819254,-0.47693000294819254,1.0000458341466472,2.7049245643841813e-05
-0.4768328468279009,-0.4768328468279009,1.000065914624389,2.6980136396534267e-05
-0.4767061546303438,-0.4767061546303438,0.9999860212073841,2.703212064647549e-05
-0.4765885341539587,-0.4765885341539587,0.9999604955880652,2.6934027971085073e-05
-0.47649081331892945,-0.47649081331892945,1.0000332482224674,2.6994780534249253e-05
-0.47634614916056106,-0.47634614916056106,1.0000022773506958,2.7013140742750862e-05
-0.47624271507931437,-0.47624271507931437,1.0000740801007637,2.6998886210646698e-05
-0.47612659162863624,-0.47612659162863624,1.0000190897167045,2.696749550104313e-05
-0.4759929284709997,-0.4759929284709997,1.0000194731437975,2.7107342823654545e-05
-0.47590007412335067,-0.47590007412335067,0.999994735677,2.6910748169303452e-05
-0.4757601433868544,-0.4757601433868544,0.9999621646975964,2.7022430185099965e-05
-0.4756574492439526,-0.4756574492439526,0.9999935774975736,2.6995601693188175e-05
-0.4755520472742063,-0.4755520472742063,0.9999823602068263,2.692200494087621e-05
-0.4754084637652724,-0.4754084637652724,1.0000252621701438,2.7075406656177168e-05
-0.4753164645144608,-0.4753164645144608,1.0000505217947182,2.692590947258451e-05
-0.4751968384408613,-0.4751968384408613,1.000021686390766,2.6959492130724956e-05
-0.47506909013947335,-0.47506909013947335,0.9999735524966242,2.7102575503334633e-05
-0.47497623737222483,-0.47497623737222483,0.9999810099406237,2.6905507643564413e-05
-0.47483630422862005,-0.47483630422862005,0.9999887370223067,2.7015603598545618e-05
-0.474733610363829,-0.474733610363829,0.9999781633619307,2.6995702266321296e-05
-0.4746282072977678,-0.4746282072977678,1.0000525288380246,2.6917422416266e-05
-0.47448462459233126,-0.47448462459233126,0.9999698897694131,2.7068258241679416e-05
-0.47439262725678333,-0.47439262725678333,1.0001200078920416,2.692289580351494e-05
-0.4742729977805311,-0.4742729977805311,0.9999460586943585,2.695142637845335e-05
-0.4741452518258839,-0.4741452518258839,1.0001400822025226,2.710373032269434e-05
-0.4740524006352217,-0.4740524006352217,0.999977555594489,2.6898163214433646e-05
-0.473925243545456,-0.473925243545456,1.000015768292013,2.709354294136537e-05
-0.4738425942988897,-0.4738425942988897,0.9999168084945701,2.698504292893973e-05
-0.47372769726165986,-0.47372769726165986,0.9999723515221663,2.7007203996199714e-05
-0.47362938273282396,-0.47362938273282396,1.000012544201898,2.7005233465528373e-05
-0.4735339252627654,-0.4735339252627654,1.0000124411512519,2.6948042585518418e-05
-0.473416556788132,-0.473416556788132,0.9999936918322462,2.7114225494450933e-05
-0.47333483135962523,-0.47333483135962523,0.9999844937796796,2.690906376752984e-05
-0.47320316545125396,-0.47320316545125396,1.0000010363531409,2.7149962606943964e-05
-0.47312856391209407,-0.47312856391209407,1.0000500619592247,2.6892266919752054e-05
-0.47300140447340483,-0.47300140447340483,0.9999713096399425,2.7085437869125326e-05
-0.4729187594107572,-0.4729187594107572,0.9999853324870154,2.6979979238083054e-05
-0.472803858141738,-0.472803858141738,0.9999972165460305,2.7000628559568515e-05
-0.47270554555278893,-0.47270554555278893,1.000066429627989,2.7001387184801772e-05
-0.47261008462882614,-0.47261008462882614,0.9999734684004882,2.6942456050462887e-05
-0.4724927218004112,-0.4724927218004112,1.0000453727125123,2.711287069677861e-05
-0.47241099142522386,-0.47241099142522386,1.000042234749007,2.6905714152981e-05
-0.472279328149078,-0.472279328149078,1.0000081263082279,2.7145032760117944e-05
-0.472204727203129,-0.472204727203129,1.0000110135607818,2.689019444763982e-05
-0.472077565415357,-0.472077565415357,0.999946825233826,2.707749254404668e-05
-0.47199492453363945,-0.47199492453363945,0.9999815998362426,2.697815815105827e-05
-0.47188001903968624,-0.47188001903968624,0.9999619971766892,2.6994787877617232e-05
