time,time,flux,flux_err
-0.4993155272430158,-0.4993155272430158,1.0050021724691216,0.0036689127045303424
-0.4979601053164515,-0.4979601053164515,0.9995991850887764,0.0038870006375596616
-0.49720438428921626,-0.49720438428921626,1.0042139881087617,0.0036826820014669998
-0.49625909237729504,-0.49625909237729504,1.00100769237491,0.003885051218756902
-0.4948454142169794,-0.4948454142169794,1.0008478954071753,0.0038855980776367196
-0.49408589350787224,-0.49408589350787224,1.0038871404423775,0.003684030349914863
-0.49323229158399046,-0.49323229158399046,1.0004709561399268,0.003669594498312604
-0.4917580212750181,-0.4917580212750181,0.9972372567914138,0.0038818146526102986
-0.4909533446189016,-0.4909533446189016,1.000664373707445,0.003678409906433449
-0.4902724431056413,-0.4902724431056413,1.0002740749819103,0.003692032110733469
-0.48938642592256654,-0.48938642592256654,0.996662765066667,0.0038796001293952345
-0.488063616319414,-0.488063616319414,1.0058578454314637,0.003891809629688111
-0.4873889424612571,-0.4873889424612571,1.0035442241975638,0.0036741252345914082
-0.4867429884223384,-0.4867429884223384,1.0017274734547519,0.0038948297756768286
-0.4854970199819945,-0.4854970199819945,1.001141763434658,0.0034467580992141042
-0.4846179170126561,-0.4846179170126561,1.0031178220780983,0.0040916683085966375
-0.48395287251041735,-0.48395287251041735,0.9989566610030606,0.0036664876066543313
-0.4833076386545144,-0.4833076386545144,1.0031987858923683,0.003684020315873323
-0.4822131621360313,-0.4822131621360313,1.0004110732341442,0.003671825045376809
-0.4814464571158169,-0.4814464571158169,0.9992912632345297,0.003883303922452574
-0.480735537725559,-0.480735537725559,0.9956075496472365,0.0036736380139036373
-0.47980669899479833,-0.47980669899479833,1.0012108593783653,0.0036749847721603375
-0.47864801462710604,-0.47864801462710604,1.002308336756423,0.00345742253969798
-0.4778640209580772,-0.4778640209580772,0.9962196185352455,0.003884542193765188
-0.4772133000384201,-0.4772133000384201,0.9983562829618432,0.0036668933624012445
-0.4760476347335498,-0.4760476347335498,0.9987941291870406,0.0034509038702823245
-0.4749847293278435,-0.4749847293278435,0.9980337429747534,0.0036776215777709967
-0.4743332067540905,-0.4743332067540905,1.0040648838049795,0.0038904673209502355
-0.47363106332340976,-0.47363106332340976,1.0035120345936825,0.0034595017945514514
-0.47218925169290743,-0.47218925169290743,1.0035294656719471,0.003457399803941391
-0.4714039832804701,-0.4714039832804701,0.9994760701991587,0.004080873107286849
-0.4709235672642535,-0.4709235672642535,0.9997214190064649,0.0036842228190110187
-0.4702845937856182,-0.4702845937856182,1.0020431256281654,0.0034570148532879603
-0.46909831523007595,-0.46909831523007595,1.0010536551666092,0.0036950981762184044
-0.4682729716143513,-0.4682729716143513,0.9967849050121431,0.0036784015517570836
-0.46782788615237225,-0.46782788615237225,1.001231939101599,0.0038855945474955836
-0.46714563428104156,-0.46714563428104156,1.0078327670491174,0.0034601285977957272
-0.4661164739554806,-0.4661164739554806,0.9998737290896257,0.0036710282560596537
-0.4652998246259813,-0.4652998246259813,1.0005003208623973,0.0034524548854929457
-0.464654098542087,-0.464654098542087,1.0037195710097075,0.003878416879081041
-0.4642280220556131,-0.4642280220556131,1.0010195773552557,0.0036704988067742137
-0.4635263698495692,-0.4635263698495692,1.0012326503828939,0.003464177061449755
-0.4624787116095831,-0.4624787116095831,1.0029956418240795,0.003452895717340881
-0.4616999346711964,-0.4616999346711964,0.9979540913004058,0.00367496733670557
-0.4612785271201574,-0.4612785271201574,0.9987195162158147,0.004074297719636836
-0.4608148024424736,-0.4608148024424736,0.9991475871752872,0.003458347324646553
-0.46002707418301725,-0.46002707418301725,1.002017708637029,0.003454298026182935
-0.4590424822978093,-0.4590424822978093,0.9986340376389563,0.0034538456977070433
-0.4583555492106825,-0.4583555492106825,1.0011638985589446,0.0038897691825888563
-0.45797251221811164,-0.45797251221811164,0.9995791833506085,0.0038844389033246434
-0.4575273626738635,-0.4575273626738635,1.0016008983153917,0.0036917220939214207
-0.45691501822075226,-0.45691501822075226,0.9962507792406378,0.0035452985581317354
-0.45605491169990275,-0.45605491169990275,0.999109580487428,0.00367041320951011
-0.4553115107526537,-0.4553115107526537,1.0012400692564285,0.0036819332368807404
-0.4548022516253695,-0.4548022516253695,1.0013395425207148,0.0038839213851841366
-0.4544820570954471,-0.4544820570954471,1.0007681132658788,0.0036945433654240988
-0.4539651199258515,-0.4539651199258515,0.9988852341258043,0.0036745144353969132
-0.45327714085069604,-0.45327714085069604,1.00256154346026,0.0037299520709270506
-0.45246972617387654,-0.45246972617387654,1.0040643075177684,0.0034546268743387404
-0.45177804751801887,-0.45177804751801887,1.0057049328521028,0.0038870197108052213
-0.4513717539128265,-0.4513717539128265,0.9997730997662634,0.0038763976600705587
-0.4510438773853821,-0.4510438773853821,0.9990180730781008,0.0037071126732921766
-0.45042629424351616,-0.45042629424351616,0.9983900111248147,0.0036823341580066943
-0.4494673179957317,-0.4494673179957317,0.9980338862017053,0.003678873939772369
-0.44878024660938537,-0.44878024660938537,1.003033335444402,0.0036764384938192444
-0.4482013530221593,-0.4482013530221593,1.0022400378752168,0.0038839957672895976
-0.4479066770138161,-0.4479066770138161,1.0002213454372357,0.003881192122978287
-0.44747552653279854,-0.44747552653279854,1.0000888892679,0.0037318386935400348
-0.4467659997069859,-0.4467659997069859,1.0006854182847538,0.003963582633118122
-0.44589737412970865,-0.44589737412970865,0.9996671398382402,0.0034524682272173554
-0.44523009819895376,-0.44523009819895376,0.9995509770015051,0.003881821875868982
-0.444834436407109,-0.444834436407109,0.9990966575344661,0.003884184662890945
-0.4445521725465369,-0.4445521725465369,1.0012600839544123,0.003953309435544193
-0.4440786775761808,-0.4440786775761808,0.9972961050474085,0.0036684858323293053
-0.44338328295489193,-0.44338328295489193,0.9935028259211987,0.005128275829489085
-0.4427274047324318,-0.4427274047324318,1.003089189672342,0.003454563171193426
-0.442056276286894,-0.442056276286894,1.002802076942118,0.0036830248921263646
-0.44160303923417815,-0.44160303923417815,1.0002384549996246,0.0040819464130895464
-0.44129196680514726,-0.44129196680514726,1.0028306482833105,0.0038826992620762273
-0.4407834374447702,-0.4407834374447702,0.9976736010766505,0.0036692014166688847
-0.44008214189816497,-0.44008214189816497,1.0011568602630248,0.004834302026219992
-0.4393254094575241,-0.4393254094575241,1.0010101157511726,0.003460136533122704
-0.4386364584119292,-0.4386364584119292,0.9977543261416322,0.003880211457284421
-0.4382361898657109,-0.4382361898657109,0.9970625947660992,0.003880489693064841
-0.437892830256169,-0.437892830256169,1.002178079354969,0.004081584960722203
-0.4372708155249711,-0.4372708155249711,1.0012114321846288,0.004148207302484278
-0.43647833226132204,-0.43647833226132204,1.00077655210119,0.00369178314491356
-0.4357436813224922,-0.4357436813224922,0.998885193324757,0.003675274622769003
-0.43514205685060003,-0.43514205685060003,0.9985455381348638,0.00408475461806654
-0.43481095433817246,-0.43481095433817246,0.9974890333758044,0.0036749128625133
-0.4343908431357704,-0.4343908431357704,1.0005652559274036,0.0038845012999042102
-0.43365313997492194,-0.43365313997492194,0.9963744154643306,0.0040787479549430055
-0.4328838451307092,-0.4328838451307092,0.9975992457309755,0.0036804557529299723
-0.43230087089905284,-0.43230087089905284,1.001542395815796,0.003679048853840795
-0.43182074744108834,-0.43182074744108834,1.0009395706288422,0.0038811467823137657
-0.431514184363914,-0.431514184363914,1.0009912432073897,0.0036704811180460887
-0.4309781003634271,-0.4309781003634271,1.0024649058522446,0.0036804751256177743
-0.43005466431059175,-0.43005466431059175,0.9930142766097549,0.004091835024460954
-0.42928982694284057,-0.42928982694284057,1.0023044583259921,0.003458349145934291
-0.4286394974842551,-0.4286394974842551,0.9975421270062558,0.0040906943906261475
-0.42824551949233863,-0.42824551949233863,0.9996210465512425,0.00387451311299409
-0.42767962424622963,-0.42767962424622963,0.9993659622419407,0.0036892611049782137
-0.4265656974639569,-0.4265656974639569,1.0006223312559364,0.0038934628141419256
-0.4256667649147857,-0.4256667649147857,0.9994780401963981,0.003689202011696669
-0.4250528509357537,-0.4250528509357537,1.001658400064713,0.0038782669826598454
-0.42444523395897704,-0.42444523395897704,1.0012903766832777,0.0038862369065655496
-0.42346229092945575,-0.42346229092945575,1.0008739583669777,0.00368050017465382
-0.42221003228696646,-0.42221003228696646,1.000150331797659,0.003889557220159251
-0.4215683728871227,-0.4215683728871227,1.0030574755075539,0.00388549781633925
-0.42077198204569866,-0.42077198204569866,0.998502793602975,0.003684307193350529
-0.4196819482735009,-0.4196819482735009,1.0041977797644777,0.0036785887297486565
-0.41856236460080254,-0.41856236460080254,1.001851474555849,0.0036744657871272866
-0.41783650032957664,-0.41783650032957664,0.9960079339177345,0.0038797951256173994
-0.4168808896683913,-0.4168808896683913,1.0001091489484994,0.003671780780222141
-0.4157716243251343,-0.4157716243251343,1.0006070856247389,0.003969670744204374
-0.4149653339278302,-0.4149653339278302,0.9993297876019198,0.0038763063199079425
-0.41418492354496267,-0.41418492354496267,1.0010519580167423,0.0036760766546911697
-0.41319867281708866,-0.41319867281708866,1.0010971133473838,0.003850681340352527
-0.41189933246059807,-0.41189933246059807,1.0013129485164873,0.003879652656699132
-0.411058700956346,-0.411058700956346,1.001877744792345,0.0036768898652092125
-0.41009028209955434,-0.41009028209955434,0.9990380264908676,0.0036765800009566133
-0.40887675687117736,-0.40887675687117736,1.0039700907689186,0.004149147865784861
-0.40792433188253197,-0.40792433188253197,0.9986438769471928,0.0038767193900088514
-0.40700962400223945,-0.40700962400223945,1.0010722362456197,0.0036824940618255093
-0.4058025727099448,-0.4058025727099448,1.0016815640016952,0.004300625159293373
-0.40477902515485764,-0.40477902515485764,0.998519436827684,0.003874873199820387
-0.40391446295398054,-0.40391446295398054,0.9988288356881986,0.0034545708614480927
-0.40259466581919695,-0.40259466581919695,1.0019496479343075,0.0038842431860096676
-0.40147807590765294,-0.40147807590765294,1.0019473529052405,0.0038875796701489233
-0.4007575284987979,-0.4007575284987979,1.0003263572546115,0.0036743861791910656
-0.3999848025108804,-0.3999848025108804,0.9969542373734859,0.003912167206903171
-0.39869147344579686,-0.39869147344579686,1.0037051432554107,0.0038778630018165825
-0.39790826265816576,-0.39790826265816576,1.000803723064641,0.00388982733971001
-0.3971560093916196,-0.3971560093916196,1.000028178075603,0.003681727145388404
-0.39600467393465805,-0.39600467393465805,1.0010285027649755,0.003669040480074874
-0.394866986542911,-0.394866986542911,1.0007870772583902,0.004081027623977943
-0.3940517575429112,-0.3940517575429112,1.0053981215256784,0.0034648315895966174
-0.39301513494719986,-0.39301513494719986,1.0017229334905775,0.00388396271184591
-0.39169221787451536,-0.39169221787451536,1.0013352634654502,0.003885707489598807
-0.3910182904692192,-0.3910182904692192,1.0023448957013457,0.0038913724876556317
-0.3902705727283319,-0.3902705727283319,1.000282610128339,0.0036790662755358796
-0.3887866840530478,-0.3887866840530478,1.0001641241241859,0.0038864369304861144
-0.3879873530553596,-0.3879873530553596,0.9988816147823714,0.0036845636185234786
-0.3873107434999838,-0.3873107434999838,0.9995717731710808,0.003675382185751818
-0.38641758535595727,-0.38641758535595727,1.0006010644784533,0.00388152262966565
-0.38519857645223965,-0.38519857645223965,1.0022423599700794,0.003684291971827148
-0.38458353465466644,-0.38458353465466644,0.9986480712224859,0.0038845787730117107
-0.38387582058858244,-0.38387582058858244,1.0031711727741741,0.003671537424031721
-0.382981296532671,-0.382981296532671,1.0030905053296886,0.0038959604404364204
-0.3820818981155753,-0.3820818981155753,0.9991577220880978,0.00367247101651503
-0.3813965972753067,-0.3813965972753067,0.9995670698505709,0.0036798161960756165
-0.38056687955831875,-0.38056687955831875,1.001542439512694,0.0036752771942821913
-0.3793430113386421,-0.3793430113386421,0.9981467111005184,0.003458066271334074
-0.3784779340079695,-0.3784779340079695,0.9999661008684338,0.0038817564933880484
-0.37781553693494063,-0.37781553693494063,1.000068431164847,0.003670017639113108
-0.3769419649695919,-0.3769419649695919,1.000438842573682,0.003452856302871546
-0.3756857598396891,-0.3756857598396891,1.0011268254909143,0.0036726534477073158
-0.3748915460731951,-0.3748915460731951,0.9975796862544639,0.0038892728435745484
-0.37425381304419714,-0.37425381304419714,0.997989095573392,0.0036757507506058455
-0.37308899786658,-0.37308899786658,0.9994740534136115,0.0034537327786330666
-0.37201960968377534,-0.37201960968377534,0.9965492293846389,0.0036650076311972217
-0.3714598259488412,-0.3714598259488412,0.9994931224285993,0.0038920021230560856
-0.3708638134186913,-0.3708638134186913,0.9992880878765543,0.0036682863531225926
-0.3699220282731403,-0.3699220282731403,0.9984054883937137,0.0037006258202330654
-0.36891843487464937,-0.36891843487464937,0.9981931319799069,0.003453511340047835
-0.36829392163926966,-0.36829392163926966,1.0036698834677342,0.004086122561915978
-0.3677557391798473,-0.3677557391798473,0.9982566893192388,0.0034538707760115397
-0.36694290527739215,-0.36694290527739215,0.9965235374343905,0.0034558007768069367
-0.36594432498750395,-0.36594432498750395,1.0014079585737794,0.003448014087565009
-0.36518039414295345,-0.36518039414295345,1.002721220887981,0.003879359087662894
-0.364769039026578,-0.364769039026578,0.9952406933979645,0.0036707392817516794
-0.364185021394951,-0.364185021394951,0.9999596871921487,0.0034571852891826667
-0.36315391993848606,-0.36315391993848606,1.0009730194032618,0.0036795702915523496
-0.36233923700638115,-0.36233923700638115,0.9987351338500172,0.003452539885796709
-0.36174459362737255,-0.36174459362737255,0.9944191860342458,0.0040801947560858715
-0.36139281767755166,-0.36139281767755166,1.0031533395753232,0.003453894252193284
-0.36074008673240315,-0.36074008673240315,0.9995068795240677,0.0034564106551844137
-0.35967827532876984,-0.35967827532876984,0.9996192215187861,0.0036716418614254885
-0.35893134553698475,-0.35893134553698475,1.0028707184029653,0.003683038739366573
-0.35843689332468787,-0.35843689332468787,1.001495051157088,0.004076161444414637
-0.35810370342005626,-0.35810370342005626,0.9996244723887917,0.0034683985071360347
-0.3574491070015938,-0.3574491070015938,0.9996924476147326,0.003462231232597766
-0.35675197884629595,-0.35675197884629595,1.0013461225041387,0.0037593900944919356
-0.35592784506152386,-0.35592784506152386,1.0004890668359114,0.0036778729553145263
-0.3553006316236861,-0.3553006316236861,0.9989199045298441,0.003884108496760898
-0.35494514679085115,-0.35494514679085115,1.0004469862917869,0.003878391108327662
-0.3544932687371329,-0.3544932687371329,1.001356312363463,0.0036930177638838818
-0.353952321842371,-0.353952321842371,0.9987794316557498,0.0035159736207023167
-0.35309043968154585,-0.35309043968154585,0.9981664608847705,0.0036730067772093476
-0.3523714976814517,-0.3523714976814517,0.9979850048903922,0.003677745992645418
-0.3518303760312847,-0.3518303760312847,1.0042968335904665,0.0038770360580277093
-0.3515449660568265,-0.3515449660568265,0.997538459991644,0.0038740037291295146
-0.3510276443354087,-0.3510276443354087,0.9993051490520385,0.003489052508063229
-0.3501743719847582,-0.3501743719847582,1.0028109033029504,0.0036757602450551803
-0.34936466927465515,-0.34936466927465515,0.9943536542365882,0.0036835076376977014
-0.3487318681189208,-0.3487318681189208,0.9997359202866722,0.0038842467918586603
-0.34833696627174504,-0.34833696627174504,1.00215352037003,0.0038818278535285517
-0.34801290206669366,-0.34801290206669366,1.0060549816648607,0.0037313397707780293
-0.3474674274242716,-0.3474674274242716,1.00221372400159,0.00397309068433414
-0.34650304688111644,-0.34650304688111644,0.9992245714375965,0.0036795312161709537
-0.34588615543980267,-0.34588615543980267,0.997483245805953,0.0034475985737304157
-0.34538009670432074,-0.34538009670432074,1.0016132808743792,0.004082062741527802
-0.34503303701858384,-0.34503303701858384,0.9978697655497886,0.003874934140895915
-0.3447196629422251,-0.3447196629422251,1.0003283301344443,0.003753626816264715
-0.34417113589952353,-0.34417113589952353,1.002879042435903,0.004997582991574713
-0.34339512669539546,-0.34339512669539546,0.9991702419657651,0.003677180031007578
-0.3426525166105421,-0.3426525166105421,1.0010805811386216,0.0036758352629348303
-0.3420773952100717,-0.3420773952100717,0.9979652512091264,0.004088338823916043
-0.341734512392577,-0.341734512392577,1.0002259261225603,0.003677110356923123
-0.3413268884709396,-0.3413268884709396,0.9988275803538051,0.004067558014029127
-0.3407698879680538,-0.3407698879680538,0.9978828009255833,0.004698542688296248
-0.33991610454104376,-0.33991610454104376,0.9978663076744121,0.0036762906925972235
-0.33923636431572957,-0.33923636431572957,1.0010096809063156,0.003684789861951158
-0.3386853623756906,-0.3386853623756906,0.9986039508435326,0.004075098938966447
-0.3383831262879539,-0.3383831262879539,1.003917534841229,0.0036752337253106817
-0.3379053181226482,-0.3379053181226482,0.9962639390897896,0.003683142751873995
-0.33711110970689334,-0.33711110970689334,1.0038618257279486,0.004547240273172682
-0.33636814322962894,-0.33636814322962894,0.9967007531363921,0.0034562044136926826
-0.33566945779311935,-0.33566945779311935,1.0010736942290837,0.003891698382772305
-0.33526711203885495,-0.33526711203885495,1.0041980930945906,0.0038836587074438677
-0.33491510568783267,-0.33491510568783267,1.0040000301904282,0.004081019076345553
-0.3343062769374228,-0.3343062769374228,1.0004824392823644,0.003910083165698317
-0.3335141458934231,-0.3335141458934231,1.0014994645183521,0.0036697386833633343
-0.3327828695444623,-0.3327828695444623,1.0020124150934864,0.0036768783248101447
-0.33216990799992346,-0.33216990799992346,1.0042064078739619,0.004075052687118266
-0.3318438565351244,-0.3318438565351244,0.9999233563626765,0.003672709190531366
-0.3313079547289817,-0.3313079547289817,0.9977135151658352,0.003677450921724103
-0.3303842086963414,-0.3303842086963414,0.9941622683184803,0.004106798874440484
-0.32961842950098796,-0.32961842950098796,1.0008032962805742,0.0034570904267065953
-0.3289696361578535,-0.3289696361578535,1.0033428505360462,0.004086369611609994
-0.3285755433440499,-0.3285755433440499,1.0007168888101958,0.0038723761140431316
-0.32800946564311745,-0.32800946564311745,0.9984334410031384,0.0036847905295779035
-0.32689532017539025,-0.32689532017539025,1.0029433930832672,0.0038895568721737986
-0.3259961990217562,-0.3259961990217562,1.00277205308217,0.003685590172994139
-0.32538249824065135,-0.32538249824065135,0.9997041796212407,0.003879663805339282
-0.3247756843506068,-0.3247756843506068,1.002937598907486,0.003889440140315629
-0.32379137255484236,-0.32379137255484236,1.0024109665582546,0.0036793217728166225
-0.3227018918936665,-0.3227018918936665,0.9985318297373068,0.003695989091938085
-0.3220404883082665,-0.3220404883082665,0.9993450533247458,0.003884691543575908
-0.3212779043118644,-0.3212779043118644,0.9992257370587231,0.0036739081912837077
-0.32040686692562304,-0.32040686692562304,1.0051521459508912,0.003683072163861257
-0.31921909510638213,-0.31921909510638213,0.9992546761503525,0.0036682865065269217
-0.3184568418917479,-0.3184568418917479,1.0007112026386469,0.004074579503093929
-0.31758980473605336,-0.31758980473605336,1.001340397663188,0.0034585683757868747
-0.31659791455967934,-0.31659791455967934,1.002132945456569,0.003951835396487831
-0.31559746671555333,-0.31559746671555333,0.9988725127445178,0.003676806131703655
