time,time,flux,flux_err
-0.49993243869026216,-0.49993243869026216,0.999951741675857,2.72982448448363e-05
-0.49979629395360653,-0.49979629395360653,1.0000180366314975,2.7299191005213237e-05
-0.4996601492180804,-0.4996601492180804,1.0000186965412692,2.729932970405165e-05
-0.49952400448383055,-0.49952400448383055,1.0000143846987732,2.7299473989607825e-05
-0.4993980972541895,-0.4993980972541895,0.9999728679086257,2.496947416945954e-05
-0.4992849562876291,-0.4992849562876291,1.0000087296776607,2.491144876866358e-05
-0.49917420006460916,-0.49917420006460916,1.0000193793353267,2.4879115153576646e-05
-0.49905773606071835,-0.49905773606071835,1.0000216115026876,2.4971437698751516e-05
-0.498944594875762,-0.498944594875762,1.0000021547341666,2.491070504992803e-05
-0.49883383719586655,-0.49883383719586655,0.9999742472333069,2.4877752610868906e-05
-0.4987173748757794,-0.4987173748757794,0.9999989521458292,2.4971055375517115e-05
-0.49860423347330746,-0.49860423347330746,0.9999731686776705,2.4910311632472588e-05
-0.49849347433331204,-0.49849347433331204,1.0000178245703282,2.4878192305038113e-05
-0.49837701369945897,-0.49837701369945897,1.0000114251385335,2.4971634751549396e-05
-0.49826387208045053,-0.49826387208045053,1.0000104532435972,2.4911455598653164e-05
-0.4981531114770686,-0.4981531114770686,0.999978449665161,2.4878400004496046e-05
-0.49803665253196316,-0.49803665253196316,1.000064865443287,2.4972082574197338e-05
-0.49792351069718954,-0.49792351069718954,0.9999299650926821,2.49109640343929e-05
-0.4978127486271305,-0.4978127486271305,1.0000161931874025,2.4880338406913124e-05
-0.4976962913733363,-0.4976962913733363,0.9999876266854049,2.49701161135092e-05
-0.4975831493237379,-0.4975831493237379,1.0000215005756445,2.4912374019219802e-05
-0.49747238578389635,-0.49747238578389635,1.0000112459972552,2.4880863085760053e-05
-0.4973559302238815,-0.4973559302238815,1.0000042518855161,2.4972235994047557e-05
-0.4972427879599827,-0.4972427879599827,0.9999829136412568,2.491172283752866e-05
-0.49713202294723224,-0.49713202294723224,0.9999878657674326,2.4879812631340976e-05
-0.4970155690835405,-0.4970155690835405,1.000041344909589,2.497259288981626e-05
-0.496902426606173,-0.496902426606173,1.0000264351639858,2.4912591947416595e-05
-0.4967916601173467,-0.4967916601173467,1.0000184906694682,2.48799408217529e-05
-0.4966752079523893,-0.4966752079523893,0.9999530936263417,2.4970821761921873e-05
-0.4965620652622171,-0.4965620652622171,0.9999927121248948,2.49119854627878e-05
-0.4964512972942696,-0.4964512972942696,1.000002461082214,2.4880341091409683e-05
-0.4963348468305334,-0.4963348468305334,1.0000382953261566,2.4972772830934093e-05
-0.4962217039281569,-0.4962217039281569,0.9999967145065224,2.491403753526665e-05
-0.49611093447814125,-0.49611093447814125,0.9999751729922878,2.4879995155753386e-05
-0.4959944857179458,-0.4959944857179458,1.0000067372595303,2.497164783116006e-05
-0.49588134260401945,-0.49588134260401945,1.0000157475846116,2.4913460405952092e-05
-0.49577057166888105,-0.49577057166888105,0.9999828426310055,2.4880425821612128e-05
-0.49565412461461344,-0.49565412461461344,0.9999884555393239,2.4972437695715566e-05
-0.49554098128966223,-0.49554098128966223,1.000015871206173,2.4913670879524033e-05
-0.49543020886668926,-0.49543020886668926,1.0000017676009552,2.4881184093853136e-05
-0.4953137635205529,-0.4953137635205529,0.9999490479211097,2.4971402351650338e-05
-0.4952006199850743,-0.4952006199850743,1.0000250486436741,2.491401181510029e-05
-0.4950898460714505,-0.4950898460714505,1.0000163286476607,2.4880703336381946e-05
-0.49497340243552373,-0.49497340243552373,0.9999869424532634,2.497256308803084e-05
-0.4948602586901181,-0.4948602586901181,0.9999832243124913,2.491319909988571e-05
-0.4947494832831296,-0.4947494832831296,1.0000194926484487,2.48819955676211e-05
-0.49459786331574307,-0.49459786331574307,1.0000053336357517,2.48495112979433e-05
-0.49443025973282495,-0.49443025973282495,0.999985502191987,2.479064903277562e-05
-0.49425749903750216,-0.49425749903750216,1.000003433144118,2.4848802268206912e-05
-0.49408880607702627,-0.49408880607702627,1.0000027945746348,2.4792116036650228e-05
-0.49391168892539417,-0.49391168892539417,1.0000163460076612,2.485053945944094e-05
-0.4937413620041742,-0.4937413620041742,0.9999788191076598,2.4791625799013972e-05
-0.49357132465651077,-0.49357132465651077,0.9999940062754515,2.4850408773778337e-05
-0.49339609627214964,-0.49339609627214964,0.999978359477996,2.479285347644457e-05
-0.4932129891261585,-0.4932129891261585,1.0000133569524685,2.485151687595089e-05
-0.4930321876745129,-0.4930321876745129,1.0000223393076277,2.4850836322271145e-05
-0.4928569589575762,-0.4928569589575762,1.0000054917242625,2.479289519909311e-05
-0.4926803871582049,-0.4926803871582049,0.9999979288043359,2.4850994077998402e-05
-0.49249849654298605,-0.49249849654298605,0.9999963937907973,2.4850932778663226e-05
-0.4923259904135584,-0.4923259904135584,0.9999979490447946,2.4794126848787445e-05
-0.4921428839482129,-0.4921428839482129,1.000027782931106,2.4852835023215038e-05
-0.49195785218523513,-0.49195785218523513,1.0000133537145224,2.4794302123388302e-05
-0.4917905388617939,-0.4917905388617939,0.9999893599275274,2.4852995330365086e-05
-0.4916113711725014,-0.4916113711725014,0.9999616683787798,2.4851772462249564e-05
-0.4914404982586518,-0.4914404982586518,1.0000223052217847,2.4795824484027057e-05
-0.49126229359708057,-0.49126229359708057,1.0000215796085654,2.4853791821544538e-05
-0.49109468798079836,-0.49109468798079836,0.9999575362402661,2.4796327244301397e-05
-0.4909219293675779,-0.4909219293675779,1.000023248984847,2.4855183708640217e-05
-0.49075432354654397,-0.49075432354654397,0.9999929316383185,2.479644476156559e-05
-0.4905815651434409,-0.4905815651434409,0.999979757806124,2.4852911358710197e-05
-0.4904139591183082,-0.4904139591183082,0.9999530255030777,2.479689190613951e-05
-0.490241200924757,-0.490241200924757,1.0000218117280422,2.4853850326357477e-05
-0.49007359469591344,-0.49007359469591344,0.9999792785560608,2.4796348384640263e-05
-0.48990083671165435,-0.48990083671165435,0.9999622763145117,2.485391125855522e-05
-0.4897283290260702,-0.4897283290260702,1.0000656461433506,2.479824608603713e-05
-0.48955502666686324,-0.48955502666686324,1.0000019147605221,2.4853533060681226e-05
-0.4893846971136739,-0.4893846971136739,0.9999699223522809,2.479694340381144e-05
-0.4892146624650799,-0.4892146624650799,0.999986381758333,2.4853442333070394e-05
-0.48904433270979875,-0.48904433270979875,1.0000978428520442,2.479777534472419e-05
-0.4888742982690477,-0.4888742982690477,0.9999759863458648,2.4852539197634426e-05
-0.4887039683120985,-0.4887039683120985,0.999961393670987,2.479718400939826e-05
-0.48853393407868956,-0.48853393407868956,1.0000416610257683,2.4853779715841552e-05
-0.4883636039206987,-0.4883636039206987,0.9999866816869343,2.4798498090816116e-05
-0.4881935698942268,-0.4881935698942268,1.0000327851293767,2.4854895718022356e-05
-0.48802323953570836,-0.48802323953570836,0.999981521636092,2.4800380329464418e-05
-0.48784775987910545,-0.48784775987910545,1.0000156984155375,2.4856868281915718e-05
-0.4876604234680624,-0.4876604234680624,0.9999768437631745,2.4853062842183535e-05
-0.4874797457003627,-0.4874797457003627,1.0000245773320724,2.4800982718716315e-05
-0.48730317720596117,-0.48730317720596117,1.0000235195590015,2.4857299647724605e-05
-0.48713012341042444,-0.48713012341042444,0.9999697426423715,2.4801910187493167e-05
-0.4869557334560799,-0.4869557334560799,0.9999723136697071,2.485653071711079e-05
-0.4867694862206715,-0.4867694862206715,0.9999746516739642,2.485775174575435e-05
-0.4865875956560849,-0.4865875956560849,1.0000260233399956,2.4858091593059507e-05
-0.48634458877617703,-0.48634458877617703,0.9999431829876648,2.4909438641194817e-05
-0.4860330876010163,-0.4860330876010163,0.9999937560343197,2.4913233178497043e-05
-0.48583673887300555,-0.48583673887300555,0.9999912429543769,2.4809267105518526e-05
-0.4856694292805699,-0.4856694292805699,1.000007573096341,2.4861494065957923e-05
-0.485496374537426,-0.485496374537426,1.0000040796297913,2.4809483430531936e-05
-0.48532906514763213,-0.48532906514763213,0.9999749949055954,2.486112583393675e-05
-0.48515601020875393,-0.48515601020875393,0.9999906824840374,2.4809416297066906e-05
-0.48498870102100433,-0.48498870102100433,1.0000351937731145,2.4862496817501533e-05
-0.4848156458870772,-0.4848156458870772,1.0000032153187335,2.4810250231816324e-05
-0.48464833690088227,-0.48464833690088227,0.9999981404229246,2.4862687153653636e-05
-0.4844752815724746,-0.4844752815724746,1.0000015275892913,2.4810435466254955e-05
-0.4843079727872411,-0.4843079727872411,1.000015400355861,2.48623660882808e-05
-0.48413491726501723,-0.48413491726501723,0.9999865669409042,2.4811621545688632e-05
-0.48396760868015215,-0.48396760868015215,0.999992673424541,2.486151914079887e-05
-0.48379455296476837,-0.48379455296476837,0.9999866048116918,2.4812263159543523e-05
-0.4836272445797018,-0.4836272445797018,1.0000264538689865,2.4862890524115512e-05
-0.48345418867190587,-0.48345418867190587,1.000014446220418,2.4812045453031498e-05
-0.4832868804859153,-0.4832868804859153,0.999979814816224,2.4863319871533617e-05
-0.4831138243863098,-0.4831138243863098,0.9999747582961422,2.4813248764739996e-05
-0.4829465163988186,-0.4829465163988186,1.0000273536676478,2.486470492981875e-05
-0.4827734601081229,-0.4827734601081229,1.0000310278588436,2.481518523896977e-05
-0.4826061523185675,-0.4826061523185675,0.9999756615820804,2.4865530826517894e-05
-0.4824330958374766,-0.4824330958374766,0.9999895640260748,2.4818485156459168e-05
-0.48226578824511745,-0.48226578824511745,0.9999937193242887,2.4866768803117463e-05
-0.48209273157447824,-0.48209273157447824,0.9999970566945116,2.4820254443535458e-05
-0.4819254241785618,-0.4819254241785618,1.0000199636484426,2.4869211538719377e-05
-0.48175236731904364,-0.48175236731904364,0.9999898107736274,2.482196414766499e-05
-0.4815850601189897,-0.4815850601189897,1.0000220204648937,2.4869727792355497e-05
-0.4814120030713703,-0.4814120030713703,0.9999487759686844,2.4822115136551488e-05
-0.48124469606643033,-0.48124469606643033,1.0000388706603878,2.487040138203455e-05
-0.4810716388315342,-0.4810716388315342,1.0000016548196011,2.4822966427377334e-05
-0.4809043320209394,-0.4809043320209394,0.999985565160016,2.4868834366651104e-05
-0.4807312745995741,-0.4807312745995741,0.999967060878004,2.4822049201764994e-05
-0.48056396798256956,-0.48056396798256956,1.0000118100207895,2.4868808540227365e-05
-0.48039091037559023,-0.48039091037559023,0.9999999738921144,2.4821179905733118e-05
-0.480223603951422,-0.480223603951422,1.0000208561626094,2.486828332144142e-05
-0.4800763029361971,-0.4800763029361971,1.0000155106636417,2.4956881993870215e-05
-0.47989152803861546,-0.47989152803861546,1.0000269693230226,2.481766604415186e-05
-0.4796992903152617,-0.4796992903152617,0.9999562494803005,2.481772558991676e-05
-0.47952653845614535,-0.47952653845614535,0.9999969798022683,2.4867536741949637e-05
-0.47935892611583386,-0.47935892611583386,1.0000856000825553,2.4818797738741376e-05
-0.4791861744472136,-0.4791861744472136,1.000001491451247,2.4867873343853966e-05
-0.4790185619247126,-0.4790185619247126,0.9999488730645189,2.4817425612909302e-05
-0.4788370971131236,-0.4788370971131236,0.9999920765210891,2.4868329421168064e-05
-0.4786618602436402,-0.4786618602436402,1.0000202701018939,2.4818887688315e-05
-0.4784945547862559,-0.4784945547862559,1.000026081315608,2.486878251924562e-05
-0.47832149606984514,-0.47832149606984514,0.9999758955438601,2.4818128678675763e-05
-0.47815419080011595,-0.47815419080011595,1.0000052840663092,2.4867633448304865e-05
-0.47798113190463065,-0.47798113190463065,1.0000284437296283,2.4817826257077446e-05
-0.4778138268215528,-0.4778138268215528,0.9999794766654068,2.4867117446523485e-05
-0.477640767747986,-0.477640767747986,1.0000023019775044,2.481676282648021e-05
-0.47747346285075914,-0.47747346285075914,0.9999929714584621,2.486636692918375e-05
-0.47730040360013815,-0.47730040360013815,1.000018511376745,2.4817537587145142e-05
-0.47713309888765815,-0.47713309888765815,0.9999948546961651,2.4867064621779367e-05
-0.476960039461078,-0.476960039461078,0.9999958226634302,2.4815388439542347e-05
-0.47679273493243174,-0.47679273493243174,1.0000093582518268,2.486616183936932e-05
-0.4766196753308961,-0.4766196753308961,0.999957021640023,2.481321831695052e-05
-0.47645237098504545,-0.47645237098504545,1.000002543746121,2.4863308383272663e-05
-0.47627931120968336,-0.47627931120968336,1.0000162217928739,2.481151384360636e-05
-0.47611200704555506,-0.47611200704555506,1.0000107641909837,2.4861664079251253e-05
-0.47593894709763623,-0.47593894709763623,0.9999863361108858,2.4808795885383003e-05
-0.4757716431141329,-0.4757716431141329,0.9999952826311332,2.486008016089346e-05
-0.47559858299473595,-0.47559858299473595,0.9999841159043246,2.4806348787274347e-05
-0.47543127919076544,-0.47543127919076544,0.9999987124179398,2.4858870660624497e-05
-0.4752582189010955,-0.4752582189010955,1.0000044844790568,2.480575291380228e-05
-0.47509091527560476,-0.47509091527560476,1.0000159767321022,2.4858528088901725e-05
-0.4749178548169247,-0.4749178548169247,1.000004224436844,2.480516391638163e-05
-0.47474565012098396,-0.47474565012098396,1.0000197492946823,2.4858588347850075e-05
-0.4745693219961929,-0.4745693219961929,0.9999977207367433,2.4804225667815813e-05
-0.4744047416393279,-0.4744047416393279,0.9999801947857877,2.485738257827403e-05
-0.47422895793126224,-0.47422895793126224,1.0000158956657743,2.48048693894839e-05
-0.4740643777491808,-0.4740643777491808,1.0000071897529543,2.4857806528270313e-05
-0.47388859387598503,-0.47388859387598503,0.9999939123140686,2.480454243774218e-05
-0.47372401386747603,-0.47372401386747603,0.9999938675811443,2.4857963729968403e-05
-0.4735482298304422,-0.4735482298304422,1.0000277112803952,2.4804338362533662e-05
-0.47338364999415994,-0.47338364999415994,0.9999812998752018,2.4857319565333244e-05
-0.47320786579484986,-0.47320786579484986,0.9999879707558785,2.480411215713159e-05
-0.4730432861294844,-0.4730432861294844,0.9999852861648538,2.485760063670608e-05
-0.47286750176915254,-0.47286750176915254,1.0000253714990932,2.4804278771255586e-05
-0.4727029222733677,-0.4727029222733677,0.9999951021980692,2.4857981699494925e-05
-0.47252713775349553,-0.47252713775349553,1.000001506372426,2.4803408818250736e-05
-0.4723625584260809,-0.4723625584260809,0.9999705023068153,2.48578241162604e-05
-0.4721867737480281,-0.4721867737480281,1.0000027666193174,2.480360505051311e-05
-0.4720221945874446,-0.4720221945874446,0.9999669826570241,2.4858541105252075e-05
-0.4718464097528017,-0.4718464097528017,1.000002242826636,2.480370866573087e-05
-0.4716769295116869,-0.4716769295116869,1.0000223411974534,2.4857770460511307e-05
-0.47149939577908456,-0.47149939577908456,0.9999330166019765,2.485701156870059e-05
-0.4713345023537986,-0.4713345023537986,1.000004681019742,2.480479297835581e-05
-0.47115903196275966,-0.47115903196275966,1.0000359585601175,2.4858360531567154e-05
-0.4709941383843148,-0.4709941383843148,1.0000292254702923,2.4803891999421564e-05
-0.47081866815543627,-0.47081866815543627,0.9999653346520698,2.4856701369904497e-05
-0.4706450611003937,-0.4706450611003937,0.9999813723874077,2.480252883150541e-05
-0.47046741270090564,-0.47046741270090564,1.0000287152149707,2.4857418445295442e-05
-0.47031687979196624,-0.47031687979196624,0.9999993143019761,2.4984182243419815e-05
-0.4702071911177367,-0.4702071911177367,0.9999995168090846,2.5108432290601926e-05
-0.4700916261670983,-0.4700916261670983,1.0000183981253186,2.515879525938497e-05
-0.4699716157872249,-0.4699716157872249,0.9999358823574799,2.497816248720325e-05
-0.46985255598232384,-0.46985255598232384,1.0000168322192917,2.5152146070371784e-05
-0.4697312292765073,-0.4697312292765073,0.9999639811133505,2.5092991756886853e-05
-0.4696151199573805,-0.4696151199573805,1.000019669901595,2.5143088266204905e-05
-0.46950000918134477,-0.46950000918134477,0.9999992065910532,2.4971141413130997e-05
-0.46939032296962857,-0.46939032296962857,0.999982989980899,2.508030933242076e-05
-0.46927475838446603,-0.46927475838446603,1.0000230870202511,2.5130968018769037e-05
-0.46915093311636263,-0.46915093311636263,0.9999782607873824,2.496396580475433e-05
-0.4690351436254467,-0.4690351436254467,0.9999812519205247,2.512404417574064e-05
-0.4689203515589117,-0.4689203515589117,1.0000139020572427,2.5067304483577134e-05
-0.46880097510371,-0.46880097510371,1.000008470179028,2.5119938886243417e-05
-0.46867878195382495,-0.46867878195382495,0.9999878819619452,2.495943839307218e-05
-0.4685629940978629,-0.4685629940978629,1.0000043891984574,2.5116508116310052e-05
-0.468449290994878,-0.468449290994878,0.9999647418357378,2.5059326103776613e-05
-0.46832555808424525,-0.46832555808424525,0.999982577935514,2.5112659751965864e-05
-0.4682120766329579,-0.4682120766329579,1.0000331182984334,2.495733038723181e-05
-0.4681023943032262,-0.4681023943032262,0.999976589283159,2.505654396453547e-05
-0.46798410736443613,-0.46798410736443613,1.0000117954048493,2.5111354284483848e-05
-0.4678717139218744,-0.4678717139218744,0.9999903254927178,2.4955914712033962e-05
-0.46775876511485387,-0.46775876511485387,0.9999988397475927,2.505529105956652e-05
-0.4676410229020426,-0.4676410229020426,1.0000079166679432,2.5109057751709268e-05
-0.46752590539304817,-0.46752590539304817,1.0000236449328126,2.495638289625368e-05
-0.46741622509898095,-0.46741622509898095,1.0000002956203242,2.5055312487839315e-05
-0.46730066135819753,-0.46730066135819753,0.9999747380022228,2.5108813619508603e-05
-0.4671855426988504,-0.4671855426988504,1.0000062081506171,2.4956406275562756e-05
-0.4670758634207271,-0.4670758634207271,1.0000117767107641,2.5055310682898993e-05
-0.466960299819733,-0.466960299819733,0.9999858287052568,2.5108427160534874e-05
-0.4668451800130999,-0.4668451800130999,0.9999879602689479,2.4957064128584298e-05
-0.4667355017497819,-0.4667355017497819,1.0000010822028966,2.50527953338898e-05
-0.4666199382868722,-0.4666199382868722,0.9999846317334695,2.510647891992337e-05
-0.4665004606755758,-0.4665004606755758,1.000001537470449,2.4955511456402537e-05
-0.46638424843568915,-0.46638424843568915,1.0000014820127603,2.5052452814629647e-05
-0.4662741309343318,-0.4662741309343318,1.0000638573764922,2.5105542643299267e-05
-0.46615356301688565,-0.46615356301688565,0.9999784170918773,2.4954775295993727e-05
-0.46604388678004866,-0.46604388678004866,1.0000647808438248,2.5049839037126774e-05
-0.4659332248396414,-0.4659332248396414,0.9999644193440351,2.509883663174382e-05
-0.4658104774903705,-0.4658104774903705,0.9999895082814776,2.4952863048578093e-05
-0.46569807939816493,-0.46569807939816493,0.9999925333979578,2.504360029306925e-05
-0.46558796216366255,-0.46558796216366255,1.0000420170022268,2.5093001611348013e-05
-0.4654621646259205,-0.4654621646259205,0.9999812905499912,2.5092143268353713e-05
-0.4653503072551313,-0.4653503072551313,1.0000293642832934,2.495092587552212e-05
-0.4652379105770308,-0.4652379105770308,0.9999835332563685,2.503824716032152e-05
-0.46511962478828045,-0.46511962478828045,1.0000330122938457,2.50900708760561e-05
-0.46500994461551953,-0.46500994461551953,0.999970967128118,2.494794349828053e-05
-0.4648975489464792,-0.4648975489464792,1.0000346956815136,2.503405108809768e-05
-0.4647792632864796,-0.4647792632864796,1.0000453618744984,2.5087925153485026e-05
-0.46466958198451247,-0.46466958198451247,0.9999618190256291,2.4948774376923153e-05
-0.4645571873236225,-0.4645571873236225,0.9999928793532437,2.5035966946808813e-05
-0.4644389017906221,-0.4644389017906221,0.9999868458864933,2.5088324424049912e-05
-0.46432486270312695,-0.46432486270312695,1.000046070791787,2.4950328571303784e-05
-0.46421137988462463,-0.46421137988462463,1.0000089623406212,2.503788709582473e-05
-0.4640936390593282,-0.4640936390593282,0.9999842919039825,2.5088279753590984e-05
-0.46397796510121514,-0.46397796510121514,0.9999821831385443,2.4951125561353594e-05
