time,time,flux,flux_err
-0.49993959739488975,-0.49993959739488975,1.0000011624794654,0.00018006893225317445
-0.4998583187028999,-0.4998583187028999,0.9999679485245281,0.00015769708649522043
-0.49971253969561075,-0.49971253969561075,1.0001657705376858,0.0001857459073416057
-0.49947398460353726,-0.49947398460353726,1.0000786995026192,0.00018646976983602471
-0.49937218393897637,-0.49937218393897637,1.0001061868315235,0.00015491309518481938
-0.49920932085515235,-0.49920932085515235,0.9998833093648389,0.00017173177365268112
-0.49904097366088535,-0.49904097366088535,1.000132145882203,0.00017595835855660383
-0.49896329673938455,-0.49896329673938455,1.0000648882568623,0.0001612237606408705
-0.49880971845414024,-0.49880971845414024,0.9998260373079265,0.00017194176568651303
-0.4987620408195653,-0.4987620408195653,1.0001621333926085,0.0001645930507558465
-0.49870183783641553,-0.49870183783641553,0.9998128110941649,0.0001780274324644642
-0.49858407271822214,-0.49858407271822214,1.0002989965956484,0.00016339843212089526
-0.498489733794122,-0.498489733794122,1.000288751476905,0.0001780431024750535
-0.49841171969019343,-0.49841171969019343,0.9998488135357387,0.00018241439831625681
-0.49822574091958816,-0.49822574091958816,1.0002732259725369,0.0001536208757904316
-0.4980895627828431,-0.4980895627828431,0.9998965681353738,0.00020698882491166016
-0.49798692951735574,-0.49798692951735574,1.0001418440196979,0.00016417181747180673
-0.4978646738411044,-0.4978646738411044,0.9999709332351706,0.00015749433599777175
-0.49779474962415404,-0.49779474962415404,0.9999594750604377,0.00016119793946036808
-0.4977121595933568,-0.4977121595933568,0.9999537815338257,0.00015678599445474048
-0.4976368823699886,-0.4976368823699886,1.00004616060115,0.00017514748763883343
-0.49758993613941127,-0.49758993613941127,1.00015163944196,0.00015617433535889785
-0.4975091879750835,-0.4975091879750835,1.000108990741346,0.00016699912386888957
-0.4974210774889798,-0.4974210774889798,1.000166809463233,0.00017484217679733158
-0.4973511558928294,-0.4973511558928294,0.999912162404887,0.00015929586814219683
-0.4972377559330198,-0.4972377559330198,1.0000018215344944,0.00015844920020056136
-0.49711038866225865,-0.49711038866225865,0.9999805269497862,0.00019490066815845464
-0.4968811730024754,-0.4968811730024754,1.0001844980659995,0.00017534509262649023
-0.4967676023807144,-0.4967676023807144,0.999947273644441,0.0001609263710829006
-0.49670170981262346,-0.49670170981262346,0.9999016615917056,0.0001776340629941285
-0.4965439329331275,-0.4965439329331275,1.0001257703381523,0.0001747613327694216
-0.4964549183016061,-0.4964549183016061,0.9999573076976767,0.00015718623194164094
-0.496388674476475,-0.496388674476475,1.0000210100673648,0.00016326489705584103
-0.4963458227139199,-0.4963458227139199,1.0000603388381564,0.0001803224616412076
-0.4962718259659596,-0.4962718259659596,1.0001672931310719,0.0001597165182170016
-0.49609384562500053,-0.49609384562500053,0.9999840765187663,0.00017905678205486726
-0.4959846472440404,-0.4959846472440404,0.9997892478420678,0.00016122853314412696
-0.49590733057120817,-0.49590733057120817,1.0001518355680266,0.00017974515782195741
-0.49580818108079255,-0.49580818108079255,1.0000717932436403,0.0001601499316532741
-0.49569006367528345,-0.49569006367528345,1.000164351002591,0.00015274987867540325
-0.4955245770106558,-0.4955245770106558,0.9998259745111457,0.00018025709384269538
-0.49540600128966616,-0.49540600128966616,1.0000559937047764,0.00016600460199829033
-0.495241666988295,-0.495241666988295,1.0001158992379424,0.00015450594580175916
-0.49515223095659167,-0.49515223095659167,1.000016159390311,0.00016214481811486215
-0.49508493322791763,-0.49508493322791763,1.0001958710929963,0.00016549693484134225
-0.4950083461488248,-0.4950083461488248,0.9999337712347985,0.00017447779599857923
-0.4948904657198,-0.4948904657198,1.0000942180889667,0.0001769253978665087
-0.4947400440898491,-0.4947400440898491,0.999930325618721,0.0001657488640821884
-0.49460129284707366,-0.49460129284707366,1.0000398264027186,0.00018748052959060175
-0.494461697958468,-0.494461697958468,1.0003493474125211,0.00016228035859118393
-0.49429604300676144,-0.49429604300676144,1.000178493358161,0.00015870128706948385
-0.4942149609079934,-0.4942149609079934,1.0002322035587219,0.00016326216617574833
-0.4941367035367875,-0.4941367035367875,0.9997148484620849,0.00016101671040577562
-0.49394275576632934,-0.49394275576632934,0.9998390260482545,0.0001527996312602388
-0.49380567211628656,-0.49380567211628656,1.000099024523035,0.00017982887284477482
-0.4937213551223977,-0.4937213551223977,1.0001052370956238,0.00015801646584027784
-0.49364186287712075,-0.49364186287712075,0.9999347311505715,0.00015438132047659303
-0.493516827734129,-0.493516827734129,1.0002516509165422,0.00017359277276895468
-0.49341515673440883,-0.49341515673440883,1.0001691169447078,0.00018978518904275995
-0.49335339888057206,-0.49335339888057206,0.9999916613833003,0.00015949845612595097
-0.49323429851210676,-0.49323429851210676,0.9999833627669883,0.00018190163765468442
-0.4930863500529085,-0.4930863500529085,0.9998425272533751,0.00015689070505687006
-0.49291731354169316,-0.49291731354169316,0.9997075273172544,0.00016412067656952026
-0.49269348366651683,-0.49269348366651683,0.9998643406870411,0.0001683606254408344
-0.4925191493675811,-0.4925191493675811,1.0000766403727597,0.00016779726305862097
-0.492439610947622,-0.492439610947622,0.999893265791638,0.00017759132740530217
-0.4923183024977334,-0.4923183024977334,1.000026799840353,0.00015671069991032925
-0.492205239982286,-0.492205239982286,0.9998200674978499,0.00015838647983129291
-0.49213002372853226,-0.49213002372853226,1.000028928631778,0.00016694331350486925
-0.4919858966823085,-0.4919858966823085,1.00030579560044,0.00017408829491523858
-0.4918268197958241,-0.4918268197958241,0.9998625761334109,0.00015979236486149027
-0.4916291189423646,-0.4916291189423646,0.9999924138310021,0.00016995798332658488
-0.49144710069085706,-0.49144710069085706,0.999896455034324,0.0001725494314606714
-0.4913355117474566,-0.4913355117474566,1.0001063360686522,0.00017778097083148004
-0.4912037850997876,-0.4912037850997876,1.0000801664632895,0.00016069547807416313
-0.4910460303974105,-0.4910460303974105,0.9998024061822619,0.0001797127541660388
-0.4909507829754148,-0.4909507829754148,1.0001564111903878,0.00016197594719779523
-0.4908554542562342,-0.4908554542562342,1.000052052639145,0.0001820658250439001
-0.49072070004767737,-0.49072070004767737,0.9999979714566779,0.00017517706391648055
-0.4906302931063692,-0.4906302931063692,1.0001155466592273,0.00017978325010516033
-0.4904160157573642,-0.4904160157573642,1.0000292431048847,0.00015628495438043622
-0.49030805306247205,-0.49030805306247205,1.0001680925578806,0.0001713323044619541
-0.4902177091804333,-0.4902177091804333,1.000054397740528,0.0001617897481985294
-0.4901243972257362,-0.4901243972257362,1.0000759666905004,0.00016282102334997522
-0.49006104469299316,-0.49006104469299316,1.0000405144132518,0.00017775897035627014
-0.4899846939733834,-0.4899846939733834,1.0001039944125396,0.00017286477824250273
-0.4899084267191938,-0.4899084267191938,1.0000564888104553,0.00016794936303902796
-0.48982372821192255,-0.48982372821192255,1.0000204421034378,0.00017368123156731455
-0.4897705030263751,-0.4897705030263751,0.9998609559000187,0.00017475575703550526
-0.4897143501875689,-0.4897143501875689,0.9998030262939078,0.00018052339154876098
-0.4896890930089285,-0.4896890930089285,1.0000147248980502,0.00016446307084346345
-0.4896208471400314,-0.4896208471400314,1.0003609439900862,0.00016705460785765644
-0.48951120707642987,-0.48951120707642987,0.9999257763356795,0.0001553449888253111
-0.48933813554322114,-0.48933813554322114,0.99999203316257,0.00017837908311898578
-0.4892068251952878,-0.4892068251952878,1.0002246825992818,0.00016297025751031295
-0.489033606776502,-0.489033606776502,1.0002180319915293,0.00016273730427811213
-0.4889473745337455,-0.4889473745337455,0.9998809778940455,0.00016034188370540116
-0.48890069040935485,-0.48890069040935485,0.999909408573725,0.00018506887773905053
-0.48882385424367386,-0.48882385424367386,0.9998461414804855,0.00016570323438193181
-0.48873964130325476,-0.48873964130325476,0.999971952148471,0.00016323299683307618
-0.48869928629574133,-0.48869928629574133,1.0000282892368246,0.00017359624914259635
-0.4885657201128197,-0.4885657201128197,0.9999042300335294,0.0001767897326612539
-0.48845257790817415,-0.48845257790817415,1.0000338840502052,0.00016032151655262226
-0.4883270520265796,-0.4883270520265796,1.0000480176904145,0.00019391907546166212
-0.48823940338770627,-0.48823940338770627,1.0000025937520853,0.00016281367589332011
-0.48811341033288047,-0.48811341033288047,0.9999891110212278,0.0001543013653657593
-0.48795782481320205,-0.48795782481320205,1.000043768483952,0.0001625830759338067
-0.4878716872859513,-0.4878716872859513,1.0001298107272347,0.00018012012288480826
-0.4878070961596677,-0.4878070961596677,0.999959625451688,0.00015686869956850502
-0.4876614422042621,-0.4876614422042621,1.000048124635064,0.00016491418498454924
-0.48754740443691846,-0.48754740443691846,0.9997473640970694,0.00016466683515879455
-0.4874841907352675,-0.4874841907352675,1.0002789420099132,0.00016233872852260104
-0.48741572534345323,-0.48741572534345323,0.9998431975891281,0.00016316918844672335
-0.4872654568011058,-0.4872654568011058,0.9998906296421092,0.00017589439623743133
-0.4870925962401088,-0.4870925962401088,0.9999161759308098,0.0001643392506682747
-0.4870240645323065,-0.4870240645323065,1.0001564098217655,0.00015715265464011366
-0.48689888809749393,-0.48689888809749393,0.9997722906867704,0.00016089542850331363
-0.48673600276815704,-0.48673600276815704,1.0000000815601708,0.00016534374152423885
-0.4866052875702735,-0.4866052875702735,0.9998565145828154,0.0001633902187106916
-0.48640800148714336,-0.48640800148714336,0.9999908225074664,0.00015709304161793403
-0.48626211137598147,-0.48626211137598147,0.9999962219274744,0.00016332563024021638
-0.4861971239588456,-0.4861971239588456,0.999900952179196,0.00017922592356880935
-0.4860132260495448,-0.4860132260495448,0.9999735932264929,0.0001756395531375585
-0.48590601402829636,-0.48590601402829636,1.0000846837259127,0.00016182658855445854
-0.4858217737142695,-0.4858217737142695,1.0000810703933296,0.0001969745576932485
-0.48570375071285526,-0.48570375071285526,1.0000896907777796,0.00015644139695660263
-0.4855687856557779,-0.4855687856557779,0.9999440911211244,0.00015751176897618025
-0.48542788451886737,-0.48542788451886737,0.9998773725237452,0.00019902966877742616
-0.4850748147451668,-0.4850748147451668,1.0002411074161022,0.0001597185782800529
-0.48490413233375873,-0.48490413233375873,0.9999040960015911,0.00015737455730564987
-0.4847324363334337,-0.4847324363334337,1.000090902065148,0.00015689964085451193
-0.48458295050804734,-0.48458295050804734,1.000140054809498,0.00018644151834022548
-0.4844709180732025,-0.4844709180732025,1.000025624653769,0.00015681411093924338
-0.484369989654806,-0.484369989654806,0.9999380427541821,0.000174484781077221
-0.48421016771753783,-0.48421016771753783,0.9998833323854509,0.000163855136056803
-0.4839842174682417,-0.4839842174682417,1.000106971407826,0.0001930682574734032
-0.48377592542819914,-0.48377592542819914,0.9998146323843043,0.00017413947203822594
-0.48364788667531683,-0.48364788667531683,0.9998260120784757,0.00015878305773435838
-0.48354682130011495,-0.48354682130011495,0.9998104826582385,0.00017571228710498292
-0.48336597562447425,-0.48336597562447425,0.9998516529209219,0.00016990785215122468
-0.48322500878275604,-0.48322500878275604,0.9999744027772458,0.00016931501133974827
-0.48311753034067806,-0.48311753034067806,1.000055446722992,0.0001723177557703969
-0.48301179671252614,-0.48301179671252614,1.000142232523282,0.0001726533038375815
-0.48283624754549237,-0.48283624754549237,1.0001065225162409,0.00017169231835929653
-0.48265720823110314,-0.48265720823110314,0.9999698847266675,0.0001739908363801403
-0.48252798637695377,-0.48252798637695377,1.000089626739539,0.00016272119672856056
-0.48242232128686735,-0.48242232128686735,0.9999416271902458,0.00015938098765517778
-0.4823412774348981,-0.4823412774348981,1.0000959846025241,0.00017783068753371583
-0.4822694508053246,-0.4822694508053246,1.0000068938906455,0.00016575884513848205
-0.4821373071012204,-0.4821373071012204,0.9998726932016672,0.0001826820876273949
-0.48205537297035334,-0.48205537297035334,0.9998798847340998,0.00017657752067792826
-0.48200787424284497,-0.48200787424284497,0.999883914199301,0.00016303108190794793
-0.48183952203398805,-0.48183952203398805,1.0000817215323927,0.00017640045487411055
-0.48169276619009904,-0.48169276619009904,1.0000933019695393,0.0001726115108254995
-0.48153045115759596,-0.48153045115759596,1.000070866830069,0.00015303396718955139
-0.48139816040347794,-0.48139816040347794,0.9999987419954346,0.00016173468607990477
-0.48131324580608636,-0.48131324580608636,0.9999590898348304,0.0001791261189298851
-0.48124993222008927,-0.48124993222008927,0.9998045020387648,0.00017825855883387798
-0.48114853158622284,-0.48114853158622284,0.9999700705412591,0.00015735416739807344
-0.48107918105233693,-0.48107918105233693,1.0000423562693128,0.00015694546876162454
-0.48098232595657464,-0.48098232595657464,1.0001068913558246,0.0001795955863027906
-0.48086623908166076,-0.48086623908166076,0.9999849730512791,0.00016777083750645695
-0.48075454925128724,-0.48075454925128724,0.999913123635476,0.00017783205723970365
-0.48060299086937447,-0.48060299086937447,1.0001400407287266,0.00017997955946704044
-0.4804821123281727,-0.4804821123281727,0.9999087032591584,0.00017363605204177753
-0.4803697727722465,-0.4803697727722465,1.000152583623478,0.00016716111845701628
-0.48026257006422385,-0.48026257006422385,0.999981511181943,0.0001794417491848494
-0.48012564167729577,-0.48012564167729577,1.0002209976472973,0.00016202455945403608
-0.48003160854277666,-0.48003160854277666,1.0000434028965908,0.00016211792793090028
-0.47995512230118037,-0.47995512230118037,0.9999428231427506,0.0001622113568488443
-0.4798817965420312,-0.4798817965420312,0.9998428245690008,0.00016153022831161897
-0.4797338350486825,-0.4797338350486825,1.0000410309512033,0.00017338095404611072
-0.47961255590926155,-0.47961255590926155,1.0000490578058412,0.00016594291939004557
-0.4795139266832848,-0.4795139266832848,0.9999949830571172,0.00017812004868035836
-0.4793084129865747,-0.4793084129865747,0.9999632929867465,0.00017706272902727086
-0.47919922320579644,-0.47919922320579644,0.9999145224002867,0.00016824645402104633
-0.4790895033875131,-0.4790895033875131,1.0000399453112498,0.00017328464630277546
-0.47900855546904497,-0.47900855546904497,1.000076691744182,0.00016064965704059008
-0.47886870699294376,-0.47886870699294376,0.9997885278068829,0.00016811007160794737
-0.4787601880976581,-0.4787601880976581,0.9999097242510665,0.00015812187801374184
-0.4786762710355106,-0.4786762710355106,1.0000031931775077,0.00016070256901358184
-0.47861950703227196,-0.47861950703227196,1.000019914587794,0.00016549063171016762
-0.4785452381329378,-0.4785452381329378,1.0003444803344008,0.00018144064006528568
-0.4783592856358155,-0.4783592856358155,0.999880504109053,0.00016915403573276692
-0.4781984788060072,-0.4781984788060072,0.9997766071025384,0.00018093353131580812
-0.47807328009075717,-0.47807328009075717,1.0000276219666973,0.0001586939000157741
-0.4779754769449937,-0.4779754769449937,0.9999931627723713,0.00016337417494856075
-0.4778781753426301,-0.4778781753426301,1.0001274148117996,0.00015777829106686177
-0.4777081808206276,-0.4777081808206276,1.000066981343291,0.0001614327307815123
-0.4774661549628945,-0.4774661549628945,0.9999702113950321,0.00017442432618888906
-0.4773436980714905,-0.4773436980714905,1.00023596492596,0.0001582269285418169
-0.4772426836192608,-0.4772426836192608,1.0000357281617334,0.00015955808890573368
-0.47711295931221687,-0.47711295931221687,0.9998225685504654,0.00017492197583129934
-0.47695902386622036,-0.47695902386622036,1.0001725217654704,0.0001773519560651408
-0.4768140892789233,-0.4768140892789233,1.0001409607673881,0.00015681270895847303
-0.47669572363374757,-0.47669572363374757,1.0000137782720633,0.0001841923011265051
-0.4765571794938296,-0.4765571794938296,0.9999399088194817,0.0001591089070993941
-0.4763808515039273,-0.4763808515039273,1.0001212236125965,0.00019329432012527573
-0.47625507417833435,-0.47625507417833435,1.0001453493670187,0.000160724240391175
-0.476131843731855,-0.476131843731855,0.999881149361949,0.00015746174463134084
-0.475992919311102,-0.475992919311102,1.000094752947223,0.00017314688277722166
-0.475898783474986,-0.475898783474986,0.9999765272875127,0.00017221048642322774
-0.47582278765621594,-0.47582278765621594,1.0001386571800828,0.00016194585940525075
-0.4756787787700887,-0.4756787787700887,1.0001239554703072,0.00016024642342752683
-0.47547297343262473,-0.47547297343262473,0.9999224940843808,0.00017167811080151378
-0.47533754703035813,-0.47533754703035813,1.0000338962376432,0.00015548321544719843
-0.47524360134702875,-0.47524360134702875,0.9998919903089476,0.00016862909285597866
-0.475082661632041,-0.475082661632041,1.000337613808626,0.00015673667056649858
-0.4749898203604971,-0.4749898203604971,0.9998672422280375,0.00017950059190813386
-0.47487971239024773,-0.47487971239024773,0.9999115069002403,0.00015914064215170724
-0.47473296879470583,-0.47473296879470583,1.0003099018923447,0.00016422178574253444
-0.4746833582772524,-0.4746833582772524,1.0001759207929564,0.00017646069145461123
-0.47459038936794967,-0.47459038936794967,0.9999911129696116,0.0001608673585649383
-0.4744959579620627,-0.4744959579620627,1.0002496977762214,0.00017711651789087843
-0.4744035108073149,-0.4744035108073149,0.9999916070138053,0.00016374184861851394
-0.47432533458049875,-0.47432533458049875,0.9997939031862189,0.0001739243187094425
-0.47411147673265075,-0.47411147673265075,0.999858478538075,0.00017243804476144273
-0.47401579125144055,-0.47401579125144055,1.0002649144463207,0.0001725867327499417
-0.4738710829318734,-0.4738710829318734,0.999978145813422,0.00016058978452209108
-0.4737862169960863,-0.4737862169960863,1.0000638169605252,0.00016009366886510408
-0.4737275444407715,-0.4737275444407715,0.9999599473857697,0.00015688005383434746
-0.47363985432020855,-0.47363985432020855,0.9998561436916219,0.00017896042138411313
-0.47356499833695126,-0.47356499833695126,1.0001239665974553,0.0001579857437130253
-0.4735145207218011,-0.4735145207218011,0.9998873614717892,0.00015608106007774665
-0.47344346564932493,-0.47344346564932493,1.0001341727292172,0.0001691071813023109
-0.47335765144089237,-0.47335765144089237,1.0001843255814016,0.00019163489884363655
-0.47328291533485756,-0.47328291533485756,0.9999567349105822,0.00016343334620820522
-0.4731989216568763,-0.4731989216568763,1.0001505244324373,0.00016088434894339789
-0.4730725590867223,-0.4730725590867223,0.9998180405310777,0.00015886597954873106
-0.4729067794032744,-0.4729067794032744,0.9999043031554757,0.0001811725787539769
-0.4727570280505461,-0.4727570280505461,1.0001570610791763,0.00018226537297351167
-0.4726302301540272,-0.4726302301540272,0.9998529215572344,0.00016266342339108091
-0.4725764097951469,-0.4725764097951469,1.0001626825571033,0.00015562841224130242
-0.47250644045852824,-0.47250644045852824,0.9997201952656649,0.00017272517913144406
-0.472379101003753,-0.472379101003753,1.0002174197530276,0.0001597020322096462
-0.47231605502893215,-0.47231605502893215,1.0000542308214657,0.000179265846700379
-0.4722849134719581,-0.4722849134719581,1.000071124386532,0.0001568841124996091
-0.47215666098782094,-0.47215666098782094,0.9999602942089275,0.0001624398426850803
-0.4719988635377376,-0.4719988635377376,1.000127051794695,0.0001766074178739324
-0.47191494099097325,-0.47191494099097325,1.0001640093013886,0.00017914815898989039
-0.47184944061737044,-0.47184944061737044,1.0000982262087672,0.00016105137056906144
-0.4717408991928096,-0.4717408991928096,1.0000611417470244,0.00015758519206692033
