time,time,flux,flux_err
-0.49997089329554,-0.49997089329554,1.0002426626263883,0.00020856429941571022
-0.49991193599053074,-0.49991193599053074,1.0003232719548831,0.0002119449426863067
-0.49982658080916736,-0.49982658080916736,0.9999931218760454,0.00020069971042102462
-0.49972446155152284,-0.49972446155152284,0.9999248547614812,0.0002291855689852623
-0.4996265376743395,-0.4996265376743395,0.9999605760714088,0.0002151362054928328
-0.4994892662922211,-0.4994892662922211,1.0001082363534135,0.00019485234941845605
-0.49933183449247737,-0.49933183449247737,1.0000798550047345,0.0001945289799635379
-0.49919598797205256,-0.49919598797205256,0.9998348727425009,0.00021278448080899186
-0.499074686755921,-0.499074686755921,0.9996389304154633,0.0001946821961391353
-0.4989881037901796,-0.4989881037901796,0.999838705774547,0.00020421259342980866
-0.49882246437555294,-0.49882246437555294,0.9998569557676374,0.00019523503024771398
-0.4987217645080818,-0.4987217645080818,1.0002779904726404,0.00019703821985240965
-0.4986622252567031,-0.4986622252567031,1.000099234665178,0.00021919843558964583
-0.4985712767804216,-0.4985712767804216,0.9997974421512261,0.00023607339111246436
-0.49842458385028293,-0.49842458385028293,0.9997603298014959,0.00019056561394265682
-0.4982764561311342,-0.4982764561311342,1.0001116475137084,0.00020668260173131833
-0.49813808751423494,-0.49813808751423494,1.0003697119486492,0.00022686992143836315
-0.49799660385251626,-0.49799660385251626,1.0001715990520874,0.00021756124377654324
-0.49789795736505765,-0.49789795736505765,1.0000600634524348,0.00020277998395916707
-0.49774992699676657,-0.49774992699676657,0.9996619828651123,0.00021957490820443608
-0.497598546386871,-0.497598546386871,0.9998576119863822,0.0002079155564713353
-0.49746471704420403,-0.49746471704420403,0.9999772145504796,0.00021934151549791184
-0.497393752959033,-0.497393752959033,1.0001783102059194,0.0002184784356010354
-0.49729192077284096,-0.49729192077284096,0.9998775655945638,0.00019639969991643364
-0.4971749357500812,-0.4971749357500812,0.99988330967636,0.00020352366065647578
-0.4970929620802053,-0.4970929620802053,1.0000463437198266,0.0002135765899303118
-0.49693594569325794,-0.49693594569325794,1.0000755488897708,0.00019594545025475996
-0.49685144253016916,-0.49685144253016916,1.0003071257518361,0.00022079796644243374
-0.4966888426599326,-0.4966888426599326,1.0003349362994616,0.00019283889049321072
-0.49651750711127535,-0.49651750711127535,0.9996132319434828,0.00019550270497896001
-0.49643731468822805,-0.49643731468822805,1.0002005868639183,0.00019428242494577566
-0.4963099984612199,-0.4963099984612199,0.9999870663192221,0.00021200540994764606
-0.4962041153172322,-0.4962041153172322,0.9997392279945927,0.000193304091026008
-0.49608784100491904,-0.49608784100491904,0.9999811142762784,0.00019356722215627746
-0.49603022144729036,-0.49603022144729036,1.0001048130824304,0.00021288020910666716
-0.4959269661223516,-0.4959269661223516,0.9999048948792341,0.00020623573167139427
-0.49580812172862354,-0.49580812172862354,0.9998298444345044,0.00020222625332130812
-0.4956074249712401,-0.4956074249712401,0.9999277324053268,0.0001926204987848359
-0.49545080010575476,-0.49545080010575476,1.000216273459261,0.00022064897755130042
-0.4953228018064692,-0.4953228018064692,0.9996532896133689,0.0001973357629830394
-0.49520001528508145,-0.49520001528508145,0.9997769999112931,0.00020885686194023955
-0.49506584589544217,-0.49506584589544217,1.0002132028786561,0.0002039396503487409
-0.49496053339971696,-0.49496053339971696,0.9996750253080583,0.00020126583409530103
-0.4947832433208532,-0.4947832433208532,1.000017422150719,0.000219690673072933
-0.4946544807142345,-0.4946544807142345,0.9999683107897537,0.00022441070351573991
-0.49460330226502264,-0.49460330226502264,1.000058290558337,0.00019291750764037732
-0.49447694053014857,-0.49447694053014857,0.9999909680745687,0.00019246826905181894
-0.49439257938720405,-0.49439257938720405,0.9997889111717825,0.0002180569939283334
-0.49431942680676,-0.49431942680676,1.0001439182908674,0.00019375637049360642
-0.49424853908640215,-0.49424853908640215,0.9997994472554816,0.0002217927982568351
-0.4941536270962388,-0.4941536270962388,1.0000424351733845,0.00021584627686003127
-0.49408130894371427,-0.49408130894371427,1.000253559486287,0.00022381626165212705
-0.49394581976812335,-0.49394581976812335,1.0000626914785324,0.00024194166786867163
-0.49381235879991436,-0.49381235879991436,1.0000761294303722,0.0001954461278551466
-0.49371453687635947,-0.49371453687635947,1.0003204291579546,0.00018955300390956909
-0.4936113733230741,-0.4936113733230741,1.0001259389964132,0.00021657654924168477
-0.4935482118416985,-0.4935482118416985,0.9999586626468719,0.00019622675291403025
-0.4934489774881513,-0.4934489774881513,1.000246132036117,0.0002050631898128104
-0.49328615522827024,-0.49328615522827024,0.9999020856884652,0.00019821827219639181
-0.49311372427473543,-0.49311372427473543,1.0000064621869469,0.0002012689134530534
-0.49299238056701145,-0.49299238056701145,1.0002236727791451,0.0002159017618827923
-0.4929157989237865,-0.4929157989237865,1.0002107587736206,0.00021929771073477125
-0.4927857694761769,-0.4927857694761769,0.9998228381416837,0.0002224395327272331
-0.4927281658157881,-0.4927281658157881,1.0000290306937796,0.00018848399356511685
-0.4926406477803539,-0.4926406477803539,1.0002928688619932,0.0001900234277043663
-0.49247015784058024,-0.49247015784058024,0.9999947626601096,0.00023813457417847967
-0.49242698239686433,-0.49242698239686433,1.0000767008537612,0.00019112113218878272
-0.4922726968106872,-0.4922726968106872,0.9999897687505875,0.00019631316256912566
-0.49219322654826103,-0.49219322654826103,0.9999591603167015,0.00020093744301758493
-0.4920978949106939,-0.4920978949106939,0.9995715940583674,0.00020795597936096706
-0.4920535587145423,-0.4920535587145423,1.0000806661449833,0.00020064072565668083
-0.49197312091564527,-0.49197312091564527,1.000080939222062,0.00019747135938570442
-0.4917990942354663,-0.4917990942354663,0.9998313382763804,0.00020213636855685586
-0.49157477422850204,-0.49157477422850204,0.9998949431534708,0.00019599431881335647
-0.4914505174689111,-0.4914505174689111,1.0001059029438875,0.00020087559111015888
-0.49138187661665145,-0.49138187661665145,1.0002028418087456,0.0002043467006874492
-0.4911899429433106,-0.4911899429433106,0.999983342436607,0.00019809558996055428
-0.4910718584455026,-0.4910718584455026,1.000124672855445,0.00020323480087153524
-0.4909559098632599,-0.4909559098632599,1.000173868968513,0.00020166555027648905
-0.4908143792519695,-0.4908143792519695,1.000203355471472,0.00023884078113690162
-0.490704343442485,-0.490704343442485,0.9999164195643384,0.0002374999281332663
-0.490587666418287,-0.490587666418287,1.0001166393192633,0.00019958487068083615
-0.49050301832758125,-0.49050301832758125,1.0000735683962367,0.00022274450507595638
-0.49036325463312097,-0.49036325463312097,1.0000939597625584,0.0002245074484523712
-0.4902742213154852,-0.4902742213154852,1.0000591841803694,0.00019386860217964223
-0.49015944863131156,-0.49015944863131156,0.9999505889315042,0.00021895404385308286
-0.489980062271934,-0.489980062271934,0.9998044780054117,0.00022604577169609875
-0.4899249307520222,-0.4899249307520222,1.000097737660408,0.00021488137782449193
-0.4898373349358735,-0.4898373349358735,0.9999503498679954,0.00019673940030052718
-0.4897509178816108,-0.4897509178816108,1.0000568503433638,0.0002128035015009075
-0.4896355686716561,-0.4896355686716561,0.9999835325067657,0.00022367240204229405
-0.4895903305747197,-0.4895903305747197,1.0000942357620382,0.00020326619917798413
-0.48952030969740007,-0.48952030969740007,0.9999416722133935,0.0002224989274178909
-0.4894191247971321,-0.4894191247971321,1.00015015893775,0.00019373167723603233
-0.4893467250469257,-0.4893467250469257,0.9997197868655391,0.0002046712676217644
-0.48918400548936913,-0.48918400548936913,1.0001250357478348,0.0001940884982246839
-0.489086336291075,-0.489086336291075,1.0002158724948251,0.0001982815767679647
-0.4889876480134262,-0.4889876480134262,0.9999390182888976,0.0002395764656015537
-0.48884648319944973,-0.48884648319944973,1.0002281515375053,0.00020381180108049158
-0.48865355539746813,-0.48865355539746813,1.0006059202139777,0.00018835930559984743
-0.48855520371944294,-0.48855520371944294,1.000109202557353,0.00019609505606327568
-0.48842568381587625,-0.48842568381587625,1.0001123926141904,0.00021639238331358076
-0.48827432096077245,-0.48827432096077245,1.000033003556243,0.00020257561877217809
-0.488150107691763,-0.488150107691763,1.0002809585512296,0.00021322375316477953
-0.4880621696596791,-0.4880621696596791,1.000064397930352,0.0001977342134284952
-0.48799178519257114,-0.48799178519257114,1.000239598347077,0.0001984386718980055
-0.48792683600477177,-0.48792683600477177,1.0000339245449885,0.0001972997930461472
-0.48775156152187266,-0.48775156152187266,0.9997281419052829,0.00019116868686151325
-0.4875231289261137,-0.4875231289261137,0.9998389203095226,0.0002021463807022292
-0.4873799132787099,-0.4873799132787099,1.0005458248343364,0.0001988082797887234
-0.4873141166412097,-0.4873141166412097,1.0001000929985018,0.0002035522428693831
-0.48717175039637367,-0.48717175039637367,1.0002440598507374,0.00019710953623326208
-0.48704634052992335,-0.48704634052992335,1.000217865339931,0.00019893442585099472
-0.4869825232519361,-0.4869825232519361,1.000316945351218,0.00019719184364042625
-0.4869131749474036,-0.4869131749474036,1.0000278811453072,0.00022273643261932694
-0.4868355740596598,-0.4868355740596598,0.9999949712476427,0.000211906519929807
-0.48674062707432314,-0.48674062707432314,0.9997044332472538,0.00021482280843795448
-0.4865904366364703,-0.4865904366364703,0.9999617522031296,0.00019457044535289625
-0.486503150108183,-0.486503150108183,0.9999474165349549,0.00020533498999326236
-0.48643402707966743,-0.48643402707966743,1.0000437108654947,0.0001919672532698348
-0.48634685670549516,-0.48634685670549516,0.999979955895785,0.00020899658117120649
-0.48621571971307276,-0.48621571971307276,1.0004025740508617,0.00023107851546246716
-0.4860899609790067,-0.4860899609790067,0.999733300420373,0.00019624046390375846
-0.48596564644903995,-0.48596564644903995,0.999996131001175,0.00022683537938431448
-0.48587751446684707,-0.48587751446684707,0.9999967613474535,0.00019466476304420084
-0.48578950514856845,-0.48578950514856845,1.0000871170786572,0.0002106492526922913
-0.48570124164907613,-0.48570124164907613,0.9999740572793876,0.00021996591469701718
-0.4856179048329068,-0.4856179048329068,1.0005881705745678,0.00022518410137872935
-0.48548875816122744,-0.48548875816122744,0.9999424907206867,0.00019513400162417613
-0.48531193855087623,-0.48531193855087623,1.000038018081086,0.00020299309064575284
-0.48516782818114734,-0.48516782818114734,0.9998014826023862,0.00019967819684931737
-0.48511783113353885,-0.48511783113353885,1.0000985544227847,0.00019706313945766978
-0.48503678205306644,-0.48503678205306644,1.000064151011271,0.00021320402986907066
-0.4848663979340927,-0.4848663979340927,1.0001200308484017,0.00021050082672842895
-0.4847646939837432,-0.4847646939837432,1.000004208727836,0.0001916893050676715
-0.4845493637374602,-0.4845493637374602,1.0000151176151186,0.00021589287705144105
-0.48441932978239494,-0.48441932978239494,1.0000188369558614,0.00019386571390367035
-0.48431974636623637,-0.48431974636623637,0.9999059270457332,0.00020916318038787058
-0.48422755003048223,-0.48422755003048223,1.0001628057142562,0.00020279199577465361
-0.4841656760443584,-0.4841656760443584,0.9997961654647641,0.0001986332830191464
-0.4840051417639188,-0.4840051417639188,0.9999550139637521,0.000203627050731214
-0.48385607530508423,-0.48385607530508423,0.9999404695281345,0.0002118795836604349
-0.4837463239688077,-0.4837463239688077,1.0000657677243212,0.00020151831365498133
-0.4835833487522905,-0.4835833487522905,0.9999274272324034,0.00018992803345866812
-0.4835164262054604,-0.4835164262054604,0.9997739446221704,0.000190387542481375
-0.48336394575089797,-0.48336394575089797,0.9995285983858366,0.00021557881272891234
-0.4832943455890927,-0.4832943455890927,1.0000313353971826,0.00019967749929434485
-0.4831970360697596,-0.4831970360697596,1.0003434365771549,0.0001921352832702631
-0.4830394919415994,-0.4830394919415994,1.0001452449677695,0.00022517088229290384
-0.482918201177381,-0.482918201177381,1.0000457059977972,0.0002045101025975222
-0.48288221619150135,-0.48288221619150135,0.9998541157214061,0.00021150965791431634
-0.4827802709158277,-0.4827802709158277,0.9998569583790772,0.00019310766232643538
-0.4826146003550093,-0.4826146003550093,1.0000663568370292,0.00019074458278261973
-0.4825040782954602,-0.4825040782954602,1.0000557227616311,0.0002011114987014265
-0.48240301631813054,-0.48240301631813054,0.9999110064796086,0.00021831245428424593
-0.48227235176600514,-0.48227235176600514,0.9995302076910546,0.00022367130012925833
-0.4821397160281776,-0.4821397160281776,1.0000478788466645,0.00021371891037228293
-0.48206061767268693,-0.48206061767268693,1.0000528054479787,0.0002164641998128804
-0.48194968352545403,-0.48194968352545403,1.0001167139068845,0.00019635122392132722
-0.4818365653365618,-0.4818365653365618,0.9997905246157783,0.0002171622563950459
-0.48172396900263265,-0.48172396900263265,0.999935171437965,0.00019912599369179386
-0.48162914587665,-0.48162914587665,1.0006169881072373,0.00020160942305238078
-0.4814922381840006,-0.4814922381840006,0.9996205301241432,0.00019754717903964605
-0.48141217573502215,-0.48141217573502215,1.0002052693103933,0.0002318733123670288
-0.4813035331993888,-0.4813035331993888,1.000246451943866,0.00019371430545431575
-0.48122148958427713,-0.48122148958427713,1.0000904628328062,0.00022653834142757228
-0.4810959522459598,-0.4810959522459598,1.0000991758527578,0.00022057170522730933
-0.48098916485905646,-0.48098916485905646,1.0002426538314377,0.00019399164502853706
-0.4808350918821816,-0.4808350918821816,0.9998303023039238,0.00018896463960621948
-0.48072995568436455,-0.48072995568436455,0.9997866164248217,0.00019053705324448365
-0.4806943876967125,-0.4806943876967125,0.999981600144259,0.00024213451854848954
-0.4805860877619125,-0.4805860877619125,0.9999375562109378,0.0001984109120323319
-0.4804527251886611,-0.4804527251886611,0.9998800125530638,0.00020203050056435135
-0.480343362356507,-0.480343362356507,0.9998656070321423,0.00020135124750631672
-0.4802971361830714,-0.4802971361830714,0.9997755846527919,0.00020267534561258356
-0.48012371372969936,-0.48012371372969936,0.9999826147624068,0.00019775525699266872
-0.4799889771376911,-0.4799889771376911,0.9999733886664146,0.000203433693864679
-0.47971927964754285,-0.47971927964754285,0.9997856799741733,0.00020719663203317963
-0.4795697289686359,-0.4795697289686359,1.0003868374460851,0.00020120392023975338
-0.4793783755914774,-0.4793783755914774,0.9999202375390295,0.00020319784479683488
-0.47929972482306765,-0.47929972482306765,0.9999683955924847,0.0001986686935628569
-0.47920163036178565,-0.47920163036178565,1.000118014697567,0.00020109824329890628
-0.479078307452437,-0.479078307452437,1.0000870284469934,0.00021328325601286833
-0.47898107595246986,-0.47898107595246986,0.9999551733556593,0.00023940196355563514
-0.4788925788758206,-0.4788925788758206,1.0002154603888858,0.0002248419832595611
-0.47881720536461214,-0.47881720536461214,0.9999832699760015,0.00018817380743258464
-0.47869773858910775,-0.47869773858910775,1.000191954622109,0.0002188392133079635
-0.47859530799469213,-0.47859530799469213,1.0001626665224514,0.00021994428174212542
-0.4784120737072953,-0.4784120737072953,1.0001160387871806,0.00022112951274720285
-0.4782558749691816,-0.4782558749691816,1.000118122680643,0.00020109484165972404
-0.47816699094255455,-0.47816699094255455,0.9997044779543479,0.00023372209733843436
-0.478086197997618,-0.478086197997618,0.999986820116358,0.000191532080610181
-0.4779913963568106,-0.4779913963568106,0.9999538862098609,0.00019070279697597196
-0.4778910216387885,-0.4778910216387885,0.9998692933740463,0.00022227280974529705
-0.4778376216956531,-0.4778376216956531,0.9997592916238173,0.00020093041081265737
-0.47777200805285247,-0.47777200805285247,1.0003985185519142,0.00021247081735773976
-0.4776999805224477,-0.4776999805224477,1.0002964922601798,0.00019814059856328718
-0.47762522482589703,-0.47762522482589703,0.9995415419033759,0.0002005451389991728
-0.4774629815299704,-0.4774629815299704,0.9999637731131188,0.0002017433212795908
-0.4773455277616449,-0.4773455277616449,0.999897933348147,0.00020039562227688697
-0.47722929285446297,-0.47722929285446297,0.9999506092941651,0.00023902857731715948
-0.4771309457959433,-0.4771309457959433,1.0001492061709176,0.0001997044752181426
-0.47700364157062725,-0.47700364157062725,0.9998091420077533,0.00019340715214878238
-0.476921659483196,-0.476921659483196,1.0002498676059348,0.00019047764454801925
-0.47676926882122644,-0.47676926882122644,1.0000799732023362,0.00019435013018533612
-0.4766567183040024,-0.4766567183040024,0.9997478083802319,0.00021203778571528682
-0.4765261653337802,-0.4765261653337802,0.9995563012612385,0.00019870913183368103
-0.4764188519497111,-0.4764188519497111,0.9998991277207316,0.00020872787932855143
-0.4763373345405853,-0.4763373345405853,0.9996033207258408,0.00020526779754716923
-0.47627311265823663,-0.47627311265823663,1.0001023226391967,0.0002697130252050112
-0.47617713335348527,-0.47617713335348527,1.0000118542000385,0.00019773494075339755
-0.4760197284333117,-0.4760197284333117,0.9998447226007174,0.00019649844567822965
-0.47579235786615753,-0.47579235786615753,1.000030784516277,0.00020142576184678756
-0.4756957516066905,-0.4756957516066905,1.0000914884884595,0.00020894485816687884
-0.47564027706393974,-0.47564027706393974,1.0001455945903268,0.0001988868648922238
-0.47552208602137397,-0.47552208602137397,0.9997222989421184,0.000205757398247422
-0.47539371244929496,-0.47539371244929496,0.9996699725881868,0.00019755459931380427
-0.4752996313472977,-0.4752996313472977,0.9996703890339111,0.00019355585271436322
-0.47524883360747483,-0.47524883360747483,1.0001870691566286,0.0002016302271277133
-0.47512844227749157,-0.47512844227749157,0.9999902983191025,0.0002411370994508616
-0.4750246289804636,-0.4750246289804636,0.9998306110677364,0.00023611349174688413
-0.4748355759147671,-0.4748355759147671,0.9997704680007488,0.00019787496551486701
-0.4747044713876676,-0.4747044713876676,1.0000487053599185,0.00019331336909484027
-0.4745581493603822,-0.4745581493603822,1.000260296147676,0.00022296639139737442
-0.4743918421787384,-0.4743918421787384,1.0001065931718107,0.00020008911688870184
-0.4742335646842548,-0.4742335646842548,1.0000091914681608,0.0002250088001422979
-0.47415702189973674,-0.47415702189973674,0.9997608998501264,0.00019722793953189685
-0.4740792782322387,-0.4740792782322387,0.9998603509320505,0.0001957634238278608
-0.4739497286325786,-0.4739497286325786,1.000102320134132,0.00021813436738889338
-0.4738792635929713,-0.4738792635929713,1.0000789984668195,0.00020146087725279684
-0.4737723142869072,-0.4737723142869072,0.9998261674663315,0.00022185506243662816
-0.47362326689180917,-0.47362326689180917,1.0001535199819873,0.00019778435409307363
-0.47352380539232397,-0.47352380539232397,1.0001042959043513,0.0002162230934270443
-0.473460134841298,-0.473460134841298,1.0002789094268618,0.00019903938806554712
-0.4733771275510662,-0.4733771275510662,1.000051063022334,0.00022206047543928145
-0.47327370689890813,-0.47327370689890813,1.0000363397443832,0.00021661977251890568
-0.4730011884239502,-0.4730011884239502,0.9997821385553414,0.00020007803425247487
-0.4728362253823434,-0.4728362253823434,0.9999726074559504,0.00021340327348096788
-0.4727137922498514,-0.4727137922498514,1.0002553834936025,0.00019205320191693963
-0.47260339892163755,-0.47260339892163755,1.000042599786548,0.00020050286902733417
-0.4725276826575282,-0.4725276826575282,1.000326810657546,0.00020753280750678482
-0.47249842113014895,-0.47249842113014895,0.9995241600867427,0.0002098435238737905
