time,time,flux,flux_err
-0.4980813643873262,-0.4980813643873262,0.9998248804701119,0.00016954841192726028
-0.49614597630352364,-0.49614597630352364,0.999848701435466,0.0001747837054159276
-0.4930346808505419,-0.4930346808505419,0.9998859370434516,0.000169703705098184
-0.4912325668439735,-0.4912325668439735,1.000058781303904,0.00017502577151977598
-0.48852507110495935,-0.48852507110495935,1.000192596145537,0.00016960566371162497
-0.486195476881403,-0.486195476881403,1.0000631327588212,0.00016966483994520205
-0.4837366893691069,-0.4837366893691069,0.9998185980029828,0.00017179575327069352
-0.4820242892841634,-0.4820242892841634,0.9999998361280651,0.000169633088100501
-0.47916943830568925,-0.47916943830568925,0.9997736811961957,0.00016958016432992235
-0.47635254717752107,-0.47635254717752107,1.0002673586535797,0.0001696872003925301
-0.4738399353052955,-0.4738399353052955,0.9999989765745567,0.00017154404700519193
-0.472327124667936,-0.472327124667936,1.0001855539250877,0.00016960554733332246
-0.4712808651274827,-0.4712808651274827,0.9998496500618372,0.00016957053500121885
-0.4697245369221491,-0.4697245369221491,1.000044074938698,0.0001696280099775362
-0.46752617948004627,-0.46752617948004627,1.0000294189183638,0.00017479742396829718
-0.46587983298377367,-0.46587983298377367,0.9999761642475076,0.00016962475691123798
-0.46412839938129763,-0.46412839938129763,0.9995763543164902,0.00017224205762485158
-0.4624916516455414,-0.4624916516455414,0.9999019240227709,0.0001750903551420303
-0.46163775413297115,-0.46163775413297115,0.9997256903634414,0.00017439908519593431
-0.46002325069857763,-0.46002325069857763,1.0002893668031891,0.00016962656738759535
-0.457828976255405,-0.457828976255405,1.000186039579372,0.00017522853725504767
-0.45618303255396314,-0.45618303255396314,1.0001099221717396,0.00016958068052794488
-0.4545414269399771,-0.4545414269399771,0.999939629496871,0.00017173540871965982
-0.45256928527451235,-0.45256928527451235,1.0000344223743391,0.00017505851925199642
-0.4519208945428545,-0.4519208945428545,0.9997916437651131,0.0001695646043796927
-0.45044624112415477,-0.45044624112415477,1.0000094452977433,0.00016960334283310413
-0.4491124539730663,-0.4491124539730663,0.9999943530849474,0.0001712721763032831
-0.4472009086101025,-0.4472009086101025,0.9996883274808492,0.00016963408159902243
-0.44543286227053613,-0.44543286227053613,1.0000551929877877,0.0001708566122343709
-0.44365533564050563,-0.44365533564050563,1.0000869167400814,0.00016962099942050192
-0.44197700137228824,-0.44197700137228824,0.9999104255807609,0.00017357949685410917
-0.440411585662514,-0.440411585662514,0.9999221293079786,0.00016967823672341828
-0.43804692856938343,-0.43804692856938343,1.0003189266814823,0.00016967638016881847
-0.4366894251121266,-0.4366894251121266,0.9996979030310482,0.00016957221257645464
-0.4355525760431192,-0.4355525760431192,0.999772789357513,0.00016956982488427178
-0.4339251241799502,-0.4339251241799502,0.999701962572866,0.00017072790543149033
-0.4321528696702444,-0.4321528696702444,0.9997558589841729,0.00016952601887841159
-0.43115419291571017,-0.43115419291571017,0.9998185982168621,0.0001695625501346749
-0.4293743809663283,-0.4293743809663283,0.9996868329399575,0.00016963026031861295
-0.4269745305275137,-0.4269745305275137,0.9999546489038783,0.00016958489369328734
-0.42546410947543334,-0.42546410947543334,0.9998655496718205,0.00016958714918802125
-0.4231491985672619,-0.4231491985672619,1.0001215733951805,0.00016962759130666096
-0.4208153685693105,-0.4208153685693105,0.9998703487170009,0.00016955698620498518
-0.4183435117454792,-0.4183435117454792,0.9999532066396695,0.0001695754915970978
-0.41643467155008695,-0.41643467155008695,1.0002403430900946,0.0001695438044549453
-0.41543066169469967,-0.41543066169469967,0.9997018525778373,0.00016958144248851122
-0.4145529546105536,-0.4145529546105536,0.9999576649436227,0.0001695829901938577
-0.4116475871342118,-0.4116475871342118,1.0000227911369794,0.00017324678462160044
-0.4099871524580522,-0.4099871524580522,1.0001177156638732,0.00016962520913905608
-0.4081043751873949,-0.4081043751873949,0.9999743643334644,0.00016954798563613763
-0.40662048281228635,-0.40662048281228635,0.9998509476761344,0.00016953324081278833
-0.40507301332690987,-0.40507301332690987,0.9998980490201108,0.00016961691572170298
-0.404342260377598,-0.404342260377598,0.9998463426633017,0.00016961085329139175
-0.4016528180989553,-0.4016528180989553,0.9996868012160306,0.00017224668713986468
-0.40017836757615444,-0.40017836757615444,0.9998330399896691,0.00016957869344936462
-0.39804523773054823,-0.39804523773054823,0.9999696577738154,0.00016955187144537934
-0.3958005929023784,-0.3958005929023784,1.0000710030519935,0.00016953924680446095
-0.3948617058318632,-0.3948617058318632,0.9999140522259928,0.00016957528095306722
-0.3940104958768643,-0.3940104958768643,1.0001341026630095,0.00017496142749745612
-0.39117535607292664,-0.39117535607292664,1.0001212999565972,0.0001719491277033867
-0.38843078513818907,-0.38843078513818907,0.9999871183260194,0.00016953139703729643
-0.3860281013825443,-0.3860281013825443,0.9997770308897571,0.00017259043601379012
-0.3841090700276254,-0.3841090700276254,1.0000200280214826,0.0001695756711413442
-0.3827239285266842,-0.3827239285266842,1.000048658939539,0.00017720236517844757
-0.37966144154415815,-0.37966144154415815,0.9999769797600251,0.00016980130071715536
-0.37840316806396,-0.37840316806396,0.9999756955515888,0.0001745044358090068
-0.37580963119617083,-0.37580963119617083,1.0000224194815799,0.00017396772966305377
-0.37369448373865455,-0.37369448373865455,0.9999906118996756,0.0001696390430996449
-0.37117887520726073,-0.37117887520726073,0.999870217136095,0.00017479779166784258
-0.36851633201076767,-0.36851633201076767,1.000056417584021,0.0001751848597267571
-0.36641362115042286,-0.36641362115042286,1.0002112078237322,0.0001695822780700996
-0.36383618961408504,-0.36383618961408504,0.9999119382636696,0.00016964953399768273
-0.36164727777577355,-0.36164727777577355,0.9998940105943401,0.00017129652012426742
-0.35937725277253774,-0.35937725277253774,0.9999313072714207,0.00017022141272194903
-0.3580809687584406,-0.3580809687584406,0.9999516232866134,0.00017498187125404354
-0.35542461064906095,-0.35542461064906095,0.9997002315974063,0.0001695944876842703
-0.3526072468856,-0.3526072468856,0.9997416304435829,0.0001696318010323381
-0.3505392829902121,-0.3505392829902121,0.9999630184926884,0.00017156757724750023
-0.3485944724503497,-0.3485944724503497,0.9999815433621022,0.00016957476627582808
-0.34696889745318915,-0.34696889745318915,0.9998674353371577,0.00016957510108126352
-0.3450877926668909,-0.3450877926668909,0.9998642359478394,0.0001696111710558677
-0.34288738441682654,-0.34288738441682654,0.9997198781643041,0.00016961320564658742
-0.34109660110407275,-0.34109660110407275,0.9999809028033922,0.0001719785172114292
-0.33904848629244955,-0.33904848629244955,1.000280427678971,0.00016993869000338582
-0.3382242713487358,-0.3382242713487358,1.000078095259038,0.0001798587171968433
-0.33703403160252493,-0.33703403160252493,0.9998006550714249,0.00017045047770598024
-0.3349849099497078,-0.3349849099497078,0.9998329519786928,0.0001696323264839688
-0.33314029107641546,-0.33314029107641546,1.0000076737247796,0.00016958432637262488
-0.3312630865308165,-0.3312630865308165,0.9999704466829844,0.00017091983914586814
-0.32911826413619566,-0.32911826413619566,1.0000817395835053,0.0001758755908614331
-0.32793791512958703,-0.32793791512958703,0.9999857387676535,0.00016951845121931794
-0.32640883335043325,-0.32640883335043325,0.9998100263636391,0.00016960808589726813
-0.3248094202739594,-0.3248094202739594,0.9998583250314699,0.0001762122219742252
-0.32307499779053617,-0.32307499779053617,0.9998583409870809,0.00016962495116979627
-0.3216878630206338,-0.3216878630206338,0.999925115287278,0.00017085532707496735
-0.32015529090494965,-0.32015529090494965,0.9998450119029867,0.00017026618274731234
-0.31845740736753214,-0.31845740736753214,1.0000636082343894,0.00016954470981613102
-0.3167977332283044,-0.3167977332283044,1.0002123925267967,0.0001696616506678076
-0.3152930755153648,-0.3152930755153648,1.0000679211270624,0.00016970421342248128
-0.3135915409300651,-0.3135915409300651,1.000031391837117,0.0001696017374051699
-0.31221107143646804,-0.31221107143646804,1.0000204968224158,0.0001696377299789968
-0.3104691156950139,-0.3104691156950139,0.9999662984737219,0.0001706874072204738
-0.30865031998982884,-0.30865031998982884,0.9997657591206132,0.00016957327227234422
-0.30776136286658584,-0.30776136286658584,0.999924888339361,0.0001695331557896247
-0.30684930326169707,-0.30684930326169707,1.0002562897791056,0.0001696597717779772
-0.3046154488110915,-0.3046154488110915,0.9997443811710391,0.00016961242580080307
-0.30269624753273094,-0.30269624753273094,1.000211324209146,0.00017484795023313423
-0.3009959363298549,-0.3009959363298549,1.0001550627195261,0.0001696007841704554
-0.29830956108344253,-0.29830956108344253,1.0000145572183017,0.00017367452416499135
-0.29586884201999053,-0.29586884201999053,1.0001588553166525,0.00016963829179366804
-0.2932127584703267,-0.2932127584703267,1.000288476574409,0.0001695324791394154
-0.29186857085223894,-0.29186857085223894,0.9999137649228189,0.00016958342705578755
-0.2908739129336027,-0.2908739129336027,0.999919410925321,0.00016958499815219235
-0.28793416065454946,-0.28793416065454946,0.9999260709488462,0.0001695079227445715
-0.28587710943829736,-0.28587710943829736,1.0002259461152736,0.00016958177828200663
-0.2833137984911446,-0.2833137984911446,0.9999176043304987,0.00016954925615613223
-0.281566861349711,-0.281566861349711,1.000077582502207,0.00016958746063482365
-0.28026516398022067,-0.28026516398022067,0.9999449412634046,0.00016964345877813178
-0.2775740446319105,-0.2775740446319105,0.9998143739581182,0.0001723017392835205
-0.27652506212252775,-0.27652506212252775,0.9997705022041272,0.00016957085798404798
-0.27540214998298324,-0.27540214998298324,0.9998984781360617,0.00016952643549348592
-0.2729818909087044,-0.2729818909087044,1.0000640800832554,0.00016952768068693433
-0.2714815118306433,-0.2714815118306433,0.999695369375166,0.00016954671071145526
-0.2706586141503067,-0.2706586141503067,1.0002154203278948,0.00016957370813485697
-0.268321573670255,-0.268321573670255,0.9998533624957913,0.00017199207352022798
-0.26554859205352843,-0.26554859205352843,0.9998997012714558,0.00016954891961189867
-0.2636145929216582,-0.2636145929216582,1.000169237786952,0.0001695310356558118
-0.2620416093712265,-0.2620416093712265,0.9999908907612033,0.00017264058686901885
-0.26061003990253084,-0.26061003990253084,0.9998820140952913,0.0001695511144725717
-0.25880590599044806,-0.25880590599044806,0.9998146457094007,0.0001807752986014828
-0.25617099194569165,-0.25617099194569165,0.9998648760241208,0.00016961852521091668
-0.2551693424735276,-0.2551693424735276,1.0001714099935992,0.00017982342557884773
-0.253605280132615,-0.253605280132615,1.000134342127527,0.00016957193761867067
-0.2505932059677434,-0.2505932059677434,1.000191102781121,0.00016957044777875165
-0.24869861890547326,-0.24869861890547326,1.000016758662007,0.00017149746057046913
-0.2455461895253393,-0.2455461895253393,0.999990438636099,0.00016972472149117911
-0.2438362743901962,-0.2438362743901962,1.0001576600134925,0.00018270723077564696
-0.2413431039385614,-0.2413431039385614,0.999915283031166,0.0001695902747669199
-0.23944241585413692,-0.23944241585413692,0.9999349205646505,0.00016969543024731703
-0.23737775428162422,-0.23737775428162422,1.000108226791315,0.0001713343885174409
-0.23539055364963132,-0.23539055364963132,1.000092538063917,0.00017023986833774118
-0.23369756818865425,-0.23369756818865425,1.000033838012906,0.00017498523972845048
-0.23091857884064665,-0.23091857884064665,0.9996454577662377,0.00016957483740454748
-0.22866683652755454,-0.22866683652755454,0.9998098155223077,0.00016966120825273747
-0.22627767572994345,-0.22627767572994345,0.9998660278820688,0.0001716046373067054
-0.2246499244516599,-0.2246499244516599,1.000109972251122,0.00016958828717982227
-0.22334757917415118,-0.22334757917415118,0.9998037134891758,0.000169546306977812
-0.22180818646593253,-0.22180818646593253,0.9995675808709773,0.00016963353240674698
-0.21958237770741107,-0.21958237770741107,1.0000847534235269,0.00016966345729649371
-0.2173520363154239,-0.2173520363154239,1.00016604512309,0.00017202360161707863
-0.21530389362596908,-0.21530389362596908,0.9999065006474186,0.00016991881522090117
-0.21447998668736545,-0.21447998668736545,0.9997790243522079,0.00017990831713327922
-0.21313220724696294,-0.21313220724696294,0.9998336514784969,0.00016959465752681865
-0.21077015159171425,-0.21077015159171425,0.9997892549302877,0.00016961224171864166
-0.20869400354567916,-0.20869400354567916,1.0000458835145614,0.00016957484725298286
-0.20718420394405257,-0.20718420394405257,0.9999818225731223,0.00017175577895772867
-0.2049577031422814,-0.2049577031422814,1.0000369859581602,0.00017508062252779557
-0.20396994881957653,-0.20396994881957653,0.9999941288073977,0.00016952846600573862
-0.20237077621422941,-0.20237077621422941,1.0000672247414815,0.00017066706477371734
-0.20069758857644046,-0.20069758857644046,0.9999799270191755,0.00017523503186358473
-0.19923422473075333,-0.19923422473075333,1.0001073920457941,0.0001695839212699258
-0.19733033000011346,-0.19733033000011346,0.9998456751021688,0.00017088859079794394
-0.19527573811210458,-0.19527573811210458,1.0001367621033281,0.00017025960947151736
-0.19382097162815626,-0.19382097162815626,0.9997533976147481,0.0001695695325754677
-0.19272386612938136,-0.19272386612938136,1.0000448416821108,0.00016963505952548714
-0.19079218907281756,-0.19079218907281756,0.9999449298385483,0.00016967738068221673
-0.18919963537846343,-0.18919963537846343,1.000012942775188,0.00016957908964070246
-0.18788078620418674,-0.18788078620418674,0.9999195595385466,0.00017075758518749677
-0.18567582905088784,-0.18567582905088784,1.0000455552438527,0.00016955054770987125
-0.18401757407118566,-0.18401757407118566,1.0001209094949275,0.0001695378963556314
-0.18292136742456933,-0.18292136742456933,1.0001552211353255,0.00016967419001709378
-0.18051581485487986,-0.18051581485487986,1.0000516846303553,0.00016965675311004955
-0.1789746512178681,-0.1789746512178681,0.9999933811048545,0.000169635878192962
-0.1772242769882723,-0.1772242769882723,1.0002404527131337,0.00016959677431252596
-0.17418962411029498,-0.17418962411029498,1.0000959748769223,0.0001695411139179668
-0.17184343353947043,-0.17184343353947043,0.9998096799335225,0.00016965479454320883
-0.1694795545306988,-0.1694795545306988,1.0002865605858169,0.00017369181242489175
-0.16812353509303649,-0.16812353509303649,0.9999463569873456,0.00016958726277683037
-0.16713913669009345,-0.16713913669009345,1.000129111132151,0.0001695959504775174
-0.16400059613515622,-0.16400059613515622,1.0003163514362199,0.00016954085191322367
-0.162163483841141,-0.162163483841141,0.9999025812224713,0.00016960032584572755
-0.16000088781220256,-0.16000088781220256,0.9999434542627329,0.00016955108409959504
-0.15818541822809493,-0.15818541822809493,1.0000038599801504,0.00016960457083940307
-0.15701655730736092,-0.15701655730736092,0.999953059581353,0.0001695876526823413
-0.1545854138013965,-0.1545854138013965,1.0000274913811775,0.00017233190648113648
-0.1531465235129872,-0.1531465235129872,1.0002282254205341,0.0001695731275766313
-0.15225604577062768,-0.15225604577062768,0.9997969601860465,0.0001696066605595897
-0.15030969335202826,-0.15030969335202826,0.9997692861089076,0.000174758125624815
-0.14874701915105107,-0.14874701915105107,1.0001005606709155,0.00016952617008546194
-0.14737277407839428,-0.14737277407839428,0.9997596834327478,0.00016956873775713868
-0.14637947784431163,-0.14637947784431163,0.9999053200041246,0.00016959680851697277
-0.14321400848493795,-0.14321400848493795,0.999976566931751,0.0001719990153337943
-0.14094337350397837,-0.14094337350397837,0.9999272918067248,0.00016953028738091625
-0.13873886198125546,-0.13873886198125546,0.9999484228957,0.00017267041249395773
-0.1370707234404108,-0.1370707234404108,1.0003255317289663,0.00016960881869797489
-0.13565340644927346,-0.13565340644927346,0.9998946216693861,0.00017513627148382237
-0.13386401425377698,-0.13386401425377698,0.9997736908046653,0.00017540553503465453
-0.1320496185478987,-0.1320496185478987,1.0000744240665476,0.00016958414856312282
-0.13068350636094692,-0.13068350636094692,1.0000194447927506,0.00017436265304196372
-0.1273506835248554,-0.1273506835248554,1.0003021081134158,0.00016959182400601457
-0.12597810192455655,-0.12597810192455655,0.9997738902673458,0.00016965426329205028
-0.1237990635636379,-0.1237990635636379,1.0001254787819147,0.00017170093508660274
-0.12140002755259047,-0.12140002755259047,0.9998676552381255,0.0001749954104545073
-0.12034382591737085,-0.12034382591737085,0.9997192160140674,0.00017504772016010828
-0.11748369939305121,-0.11748369939305121,0.999858224379083,0.00016957433855088101
-0.11495981265397859,-0.11495981265397859,0.9999894316041171,0.00016967882537527592
-0.11269393484180909,-0.11269393484180909,1.0000052314586956,0.0001718892196272026
-0.11118305564959882,-0.11118305564959882,1.0000933548516657,0.00016973301739765272
-0.10920996932254638,-0.10920996932254638,0.9999338080638147,0.00017499320535528852
-0.10600174564970075,-0.10600174564970075,0.9999163023772153,0.00016965590938059183
-0.10389828751503956,-0.10389828751503956,1.0001525886102036,0.00017617881415951875
-0.10133183795624064,-0.10133183795624064,1.0000225016971767,0.00016961323442008934
-0.09984835029026726,-0.09984835029026726,0.999869647126119,0.00017305935070884436
-0.0984913128617336,-0.0984913128617336,1.000362697655016,0.00016965276678353506
-0.09647196797595825,-0.09647196797595825,0.9999795886701349,0.00016963670453031964
-0.09449128858905169,-0.09449128858905169,0.9996491032640045,0.00016959632378957216
-0.09238006012528785,-0.09238006012528785,1.0001076449739885,0.0001714129329435844
-0.09104863659740658,-0.09104863659740658,0.999596818290728,0.00017512562172891424
-0.09009557216486427,-0.09009557216486427,1.0001418026033537,0.00017456095807108913
-0.08851817454706179,-0.08851817454706179,0.9999894676413931,0.00017060218488365605
-0.0865456948922656,-0.0865456948922656,0.9998499603129162,0.00016959980894509606
-0.08487685514919577,-0.08487685514919577,0.9999460008530809,0.0001696125824098526
-0.08344014796093688,-0.08344014796093688,1.0000339309589503,0.00017179359629903332
-0.08121335972609814,-0.08121335972609814,0.9999534297645674,0.0001750864718950392
-0.08022531167880516,-0.08022531167880516,1.0000908198544343,0.0001695356469544313
-0.07862623166874982,-0.07862623166874982,1.0001227520176754,0.00017068810009256624
-0.07658245210404857,-0.07658245210404857,0.9998504833416686,0.0001751934409529327
-0.07485127830223064,-0.07485127830223064,0.9999534343226687,0.0001696227973196508
-0.07280672401248012,-0.07280672401248012,0.9998221400803591,0.0001715690049835114
-0.07091592039287206,-0.07091592039287206,0.9998982997504686,0.00016953442136478157
-0.06966342005543993,-0.06966342005543993,0.9998852408530793,0.00016960386520805597
-0.06826922464970267,-0.06826922464970267,1.000070861430378,0.00016963556987734408
-0.06646357296631322,-0.06646357296631322,0.9997728527822968,0.0001696224221962124
-0.06490376560250297,-0.06490376560250297,0.9999365914473657,0.00016962554077083947
-0.06354446157274651,-0.06354446157274651,1.000059761005949,0.00017077755656625846
-0.06139638933018432,-0.06139638933018432,0.9999956336117293,0.00016955265433318101
-0.06000979495365755,-0.06000979495365755,0.9999609249678134,0.0001695891902487072
-0.05810266307526035,-0.05810266307526035,1.0000390111543749,0.00016965131197440282
-0.05635937899496639,-0.05635937899496639,0.9999937266923183,0.00016959125706410072
-0.05472007750722696,-0.05472007750722696,0.9994881460517222,0.00016958254764391998
-0.05319012668551295,-0.05319012668551295,0.9998162144582274,0.0001696000407071816
