time,time,flux,flux_err
-0.4988053012195451,-0.4988053012195451,1.0003880637590559,0.0009806205178702876
-0.49704413831314015,-0.49704413831314015,1.0003008870278178,0.0008977759320697581
-0.4949640556129452,-0.4949640556129452,0.9987949335004316,0.0008938408282556526
-0.4915085773089231,-0.4915085773089231,1.0000615934589752,0.0008941300204839646
-0.488305532736922,-0.488305532736922,1.0005169453056733,0.0009022811000606449
-0.48726216226896213,-0.48726216226896213,1.000036574150355,0.0008933622557314874
-0.48609780536316977,-0.48609780536316977,1.000848144944404,0.0009714303456993054
-0.48520346950281235,-0.48520346950281235,0.9996703033990462,0.0008932381731459341
-0.4836217792915704,-0.4836217792915704,1.000268721979103,0.0008946774945351342
-0.4816544089429954,-0.4816544089429954,1.0006132055416512,0.0008947207818820292
-0.4798007224097091,-0.4798007224097091,0.9997604703984827,0.0009146344266357058
-0.4784467807967303,-0.4784467807967303,1.0008314387437263,0.0008927475571324581
-0.4761135282325995,-0.4761135282325995,0.9992684426952956,0.0008932868645605255
-0.4738867636846408,-0.4738867636846408,1.0026284864675183,0.0008957533272363077
-0.4719471691576473,-0.4719471691576473,1.0009126990492638,0.000896060803420946
-0.46894543914677345,-0.46894543914677345,1.0014516551362256,0.0009371381274455293
-0.4669803779259382,-0.4669803779259382,1.0006678689821693,0.0009789296327157844
-0.4656360771303298,-0.4656360771303298,0.999349897258627,0.0009045519667847269
-0.4646716650666349,-0.4646716650666349,0.9992216267372346,0.0008927968955918291
-0.4623001484778797,-0.4623001484778797,1.0012303588146334,0.0008918063226881145
-0.4594980377954926,-0.4594980377954926,1.0011098137543306,0.0008917008577773407
-0.45753591614120526,-0.45753591614120526,0.9994595016700044,0.0008909605787690768
-0.45343560249675646,-0.45343560249675646,1.0003509402208821,0.000993753228559625
-0.4512196465835586,-0.4512196465835586,1.0002393127334974,0.00089986603159518
-0.44999594506880386,-0.44999594506880386,0.9993501697756575,0.0008949281980875966
-0.44813384049848537,-0.44813384049848537,0.9988889083452228,0.0008949460452939864
-0.4468566986055521,-0.4468566986055521,1.000585653769105,0.0008938171746046871
-0.4454284480681963,-0.4454284480681963,1.0005397176739443,0.0009421578184251753
-0.44440051724450313,-0.44440051724450313,0.9999975895388827,0.0008934867705997745
-0.44348259656471783,-0.44348259656471783,0.9998575648134198,0.0008924426111646781
-0.4422408983238711,-0.4422408983238711,1.000944556693718,0.0009083245769520201
-0.4413674928324326,-0.4413674928324326,0.9998266015782813,0.0009916565094959663
-0.439399473706726,-0.439399473706726,0.9997340203785466,0.000980348907353459
-0.43785983738853246,-0.43785983738853246,1.0009828663693423,0.0008981828681345141
-0.43574512695013257,-0.43574512695013257,1.0004793224905253,0.0009534329467608402
-0.434367207273317,-0.434367207273317,0.9990815993049542,0.0008931754802151139
-0.43143341936447543,-0.43143341936447543,1.0018247538971754,0.0008936778210572613
-0.4285189903323044,-0.4285189903323044,0.9980931157533371,0.00090249761038537
-0.42721750034870637,-0.42721750034870637,1.0001936581017383,0.0008943325550480905
-0.4261023889226635,-0.4261023889226635,0.9994512338279182,0.0009710280396804888
-0.4249366941865446,-0.4249366941865446,1.0001534461537198,0.0008934364018812233
-0.42300184688938314,-0.42300184688938314,1.0013513386919684,0.0008957867428238377
-0.4210821745051362,-0.4210821745051362,1.0007584533697975,0.0008941870260277405
-0.419308247571098,-0.419308247571098,1.0002199124154925,0.0009146694972807139
-0.41816230364165674,-0.41816230364165674,1.0001173634367269,0.0008923901440539091
-0.41590051211423995,-0.41590051211423995,1.0004012298020726,0.0008940281480498389
-0.4130432170273707,-0.4130432170273707,0.9992052718151572,0.0008958811645904147
-0.4115369478920911,-0.4115369478920911,0.9994515143587588,0.0009380247077122999
-0.4079805568031588,-0.4079805568031588,0.9996951174604558,0.0008947126564350964
-0.4066543376466143,-0.4066543376466143,0.9984522781707994,0.0009765047569546866
-0.40518789702146024,-0.40518789702146024,1.000464489117134,0.0009057990508641973
-0.40345281275367595,-0.40345281275367595,0.9997931450881496,0.0008909440009514397
-0.40039133988611864,-0.40039133988611864,1.0000017616224264,0.0008930115683344626
-0.39792611520533683,-0.39792611520533683,1.000179164370593,0.0008911427652652853
-0.3967188642709516,-0.3967188642709516,1.0002535336700444,0.0008938155742782896
-0.3927162953616062,-0.3927162953616062,0.9991666838940232,0.00099286162571124
-0.39106106319886746,-0.39106106319886746,1.0002119536843825,0.0008999357238636443
-0.38983735619804066,-0.38983735619804066,0.9991099838534382,0.0008949807587759066
-0.38797553239746774,-0.38797553239746774,0.9993474025900726,0.0008949163136225449
-0.38637704967732134,-0.38637704967732134,0.9997859508467423,0.0008936108104844432
-0.3849789736959792,-0.3849789736959792,1.0000431059736656,0.0009254678564781722
-0.3838841573422542,-0.3838841573422542,0.999992700422182,0.0008928536207623731
-0.38280685247482327,-0.38280685247482327,0.9993666623096074,0.0009091546413319167
-0.3815274994962238,-0.3815274994962238,1.0016075143493974,0.0009918328797164457
-0.38004167101134956,-0.38004167101134956,0.9994620492741504,0.00098137028481649
-0.3780024200110347,-0.3780024200110347,1.0001207642729533,0.0008964389975684812
-0.37558685273434095,-0.37558685273434095,1.0007848511367279,0.0009547300838162373
-0.3739766885024437,-0.3739766885024437,0.9999443135203485,0.0009114070597807394
-0.3723120342099719,-0.3723120342099719,0.9991815618817561,0.0008926933748369187
-0.36966930724156555,-0.36966930724156555,0.9988459067436872,0.0008943573932501811
-0.36798884794916376,-0.36798884794916376,0.9999714858083314,0.0009024042770921679
-0.3669459681841545,-0.3669459681841545,1.0005385888728697,0.0008935962810121426
-0.3652452566759166,-0.3652452566759166,0.9990148288561489,0.0008921422162225407
-0.36409506839263484,-0.36409506839263484,1.0007020065997487,0.0008936002854954734
-0.36253081226313955,-0.36253081226313955,0.9994118258352112,0.000896016271699146
-0.36013645849852766,-0.36013645849852766,1.00095125209933,0.0009145772360158189
-0.35869858071237104,-0.35869858071237104,0.9990300437498357,0.000894196467738204
-0.3578826564578776,-0.3578826564578776,1.0002236171777987,0.0009728161196331001
-0.35560103421776146,-0.35560103421776146,0.9971691800051887,0.0008949972638739423
-0.3524813322314003,-0.3524813322314003,1.0002341255949534,0.0008937560649394568
-0.35006498711991296,-0.35006498711991296,0.9982196066828338,0.0009373359826586123
-0.3469594423277158,-0.3469594423277158,0.9991321292644055,0.0009771233131086559
-0.3460052492937393,-0.3460052492937393,1.000718668766336,0.0008942595382007126
-0.34478025497191994,-0.34478025497191994,1.0006895488139125,0.0009049328380471126
-0.3431502841965994,-0.3431502841965994,1.0004987222979724,0.0008908815099860042
-0.3403496111364802,-0.3403496111364802,0.9985124091359768,0.0008955819173863723
-0.3381538234807522,-0.3381538234807522,0.9993805074997274,0.0008926479247684039
-0.3358100695113535,-0.3358100695113535,0.9997499028245833,0.0008925381390486907
-0.3321433180335589,-0.3321433180335589,1.0016751495943441,0.0009946953230325034
-0.3301761797250947,-0.3301761797250947,0.9991976639801947,0.0008991441537050027
-0.329264624235293,-0.329264624235293,0.9992100944479574,0.000895497011509183
-0.3274267773333122,-0.3274267773333122,0.9987596052090316,0.0008943866314432378
-0.32602685147649024,-0.32602685147649024,1.0016766651191473,0.0008940810310235246
-0.32482037707923156,-0.32482037707923156,0.9998349520061349,0.0009263012443228979
-0.3236367056466406,-0.3236367056466406,1.0005184926512096,0.0008926558716197068
-0.32228467853165055,-0.32228467853165055,0.9983255635821662,0.0009100934422238714
-0.3210511193112325,-0.3210511193112325,1.0000571764394945,0.000990701074115802
-0.3189519033650868,-0.3189519033650868,0.999036136445271,0.0009813706326738426
-0.317480092023834,-0.317480092023834,0.9981316473397138,0.0008969430654024839
-0.31501094552986614,-0.31501094552986614,1.0000659554125328,0.0009558060573552132
-0.31334161821287126,-0.31334161821287126,0.9993712250764277,0.0008929986557703803
-0.31160315911438374,-0.31160315911438374,0.9988429121977138,0.0008938878568799073
-0.30898692656701315,-0.30898692656701315,1.0004817275817548,0.0008942871603601344
-0.3073663262428454,-0.3073663262428454,0.9989682391121477,0.0009013150014527656
-0.30653821581363444,-0.30653821581363444,0.9993976251227362,0.0008943719076785053
-0.3042505742145295,-0.3042505742145295,0.9996734321465646,0.0008911836406241474
-0.30239002273483495,-0.30239002273483495,0.9972722933584157,0.000895241937277061
-0.30033818021111075,-0.30033818021111075,1.0012570704066361,0.0009138254836671021
-0.2989328036994266,-0.2989328036994266,0.9996396989447097,0.0008943403559787705
-0.2976272815169068,-0.2976272815169068,0.9993418891504918,0.0008935209800968432
-0.29455279806461476,-0.29455279806461476,0.99920169742477,0.0008956571022417471
-0.29280111977750495,-0.29280111977750495,0.9997604266188068,0.0009731660688733544
-0.291592687258526,-0.291592687258526,1.0012410555010627,0.000895121673619367
-0.2892420377032977,-0.2892420377032977,1.0012980410986512,0.0008951391948076875
-0.286623627593508,-0.286623627593508,0.9980542486439001,0.0009759222345867566
-0.2855079667529935,-0.2855079667529935,0.9996502115679075,0.0009064993052366871
-0.28407347109314285,-0.28407347109314285,0.9992583309075354,0.0008921240278490748
-0.2822722130546026,-0.2822722130546026,0.9987318913773201,0.0008913194099469449
-0.27967673545972505,-0.27967673545972505,0.99981967017569,0.0008961857447400323
-0.27789145502756585,-0.27789145502756585,0.9998744505341615,0.0009371610546882941
-0.27564913510213956,-0.27564913510213956,1.0013121306539055,0.000893242199031973
-0.27151242325526254,-0.27151242325526254,0.9995752643196552,0.000993745706960855
-0.26986580428238083,-0.26986580428238083,1.0012805662645434,0.0008991773802715785
-0.26895381468639246,-0.26895381468639246,1.0008289843482014,0.0008969646418526772
-0.2672685071484011,-0.2672685071484011,0.9986998325336615,0.0008946448771741122
-0.2658685041631543,-0.2658685041631543,1.000500412335782,0.0008940004163423842
-0.2644589419465774,-0.2644589419465774,0.9988172324382054,0.0008958151416814414
-0.2632906575407105,-0.2632906575407105,0.9988551351785138,0.0008911257562929584
-0.2621262231052242,-0.2621262231052242,1.0002483892730671,0.0009107284932448277
-0.260892933031937,-0.260892933031937,0.9986470877721236,0.000989794257110525
-0.2589985663766129,-0.2589985663766129,1.0005511714355195,0.0009224963711681678
-0.2567671363685804,-0.2567671363685804,0.9988656997612525,0.0008974195460001854
-0.254183812719566,-0.254183812719566,1.000322192582235,0.0008943081820053017
-0.2524157586252841,-0.2524157586252841,0.9987161932053181,0.0008929414161797506
-0.2503828025131952,-0.2503828025131952,0.9985459768564293,0.0008922469696401155
-0.24804355289161323,-0.24804355289161323,1.0001149039837318,0.0009034943093228944
-0.24699423542442672,-0.24699423542442672,0.9991527382456418,0.0008937188259387746
-0.24594299048294488,-0.24594299048294488,0.9977927605463857,0.0009551073228646753
-0.24367449254459644,-0.24367449254459644,1.000014438638091,0.0008929053478913176
-0.24173588571466098,-0.24173588571466098,0.9980242458849109,0.000895415644241997
-0.23959493085676514,-0.23959493085676514,0.9984849800399545,0.0010063045411725562
-0.23851401360734598,-0.23851401360734598,1.0009319903275615,0.00089383815862279
-0.23646941067927402,-0.23646941067927402,0.9991585958746608,0.0008931611457050559
-0.23347659616119926,-0.23347659616119926,0.9991275377588303,0.0009759378339508417
-0.2323006689446629,-0.2323006689446629,1.000058835378145,0.0008943448611224804
-0.2308888239433145,-0.2308888239433145,0.9994639930240655,0.0008950033441902228
-0.22737609283321944,-0.22737609283321944,0.999461721204361,0.0008954761564299363
-0.22588094795064534,-0.22588094795064534,0.9998991072980156,0.0008937394005810671
-0.22446339220514347,-0.22446339220514347,0.9990067550018624,0.0009050520125372689
-0.22330479470947467,-0.22330479470947467,1.0008800410003036,0.0008909639171227633
-0.2209353038793779,-0.2209353038793779,1.0002826749626605,0.0008922030564579252
-0.21873967559477023,-0.21873967559477023,0.9990065742802164,0.000894864887681214
-0.21674602172643062,-0.21674602172643062,0.9990547363152121,0.0008928592465621606
-0.2125406687224313,-0.2125406687224313,0.9994009706919955,0.0008960048667827075
-0.2097773964069347,-0.2097773964069347,0.9998487483182036,0.0008989938397644833
-0.2085668600306235,-0.2085668600306235,0.9995276234796393,0.0008972216701211526
-0.20705459416785743,-0.20705459416785743,0.9987292779707497,0.0009398429122428294
-0.20590195851873433,-0.20590195851873433,1.0002294831256067,0.0008941428076728608
-0.20442483310580428,-0.20442483310580428,0.9992212457383174,0.0009934689824711896
-0.20332039553904907,-0.20332039553904907,1.0011385867798854,0.0008924824951352994
-0.20196776767952543,-0.20196776767952543,0.9985161552622838,0.000910749151247329
-0.2007347470807872,-0.2007347470807872,1.000445416774165,0.0009891960127086101
-0.19897456861835963,-0.19897456861835963,0.998147580371667,0.0008901259686465758
-0.19653877143282444,-0.19653877143282444,0.9997774417143894,0.000896457956468886
-0.19378678388857223,-0.19378678388857223,1.000456527017225,0.0008934277924464998
-0.19233633721232762,-0.19233633721232762,0.9993061246692395,0.0009286098631589877
-0.19069670417593443,-0.19069670417593443,1.0010020490015894,0.0008940495948415808
-0.18825719660089818,-0.18825719660089818,1.0000269528179133,0.0008936758582076779
-0.18687469406140736,-0.18687469406140736,1.0003358559980424,0.0009029951339730696
-0.18573838509873894,-0.18573838509873894,0.9993163432563412,0.0008913389863027544
-0.18367156020976835,-0.18367156020976835,0.9994959785253013,0.0009569815123693683
-0.18149051917353062,-0.18149051917353062,1.0002202820466706,0.0008927893041950892
-0.17948054524458712,-0.17948054524458712,0.9989050741286778,0.0009186433230993565
-0.1783555234891537,-0.1783555234891537,0.9999759705709451,0.0008936083478065827
-0.17631085682260164,-0.17631085682260164,0.9996218507950593,0.0008933259555895707
-0.1739198711755307,-0.1739198711755307,0.9988782868632882,0.0009890284458131536
-0.17253803739367868,-0.17253803739367868,0.9995061630494945,0.0009755931793608563
-0.17127556389423262,-0.17127556389423262,0.9998181155387103,0.0008950919707987864
-0.16814744197799883,-0.16814744197799883,0.9994421642769472,0.0008944628503718051
-0.16604117676652094,-0.16604117676652094,0.9985759480693845,0.0008943877206928026
-0.1646010173502873,-0.1646010173502873,0.9999428940457218,0.0009066782822834662
-0.1633453001955786,-0.1633453001955786,0.9986985148308515,0.0008909365075068136
-0.1614172309076821,-0.1614172309076821,0.9997184816227296,0.0008910166900608621
-0.15899949782578915,-0.15899949782578915,0.9996130715260584,0.0008952328492591087
-0.15717232199021963,-0.15717232199021963,0.9999057851687605,0.0008931366623140917
-0.1550426463734766,-0.1550426463734766,0.9982025808786796,0.0008935063677806996
-0.15086992855103745,-0.15086992855103745,1.000137594207431,0.0009015915920480135
-0.14924721801398846,-0.14924721801398846,1.000072091433653,0.0008953316375496907
-0.14765723113232526,-0.14765723113232526,1.0003390929124367,0.0008963554482739486
-0.14606582896703912,-0.14606582896703912,0.9999858447047837,0.000893123039930456
-0.14430097086260502,-0.14430097086260502,0.9998430326580042,0.0008957109288311869
-0.14280722733601578,-0.14280722733601578,0.9993320692431416,0.0008946510708379261
-0.14112634094562965,-0.14112634094562965,0.9986858547826352,0.0009089075893498121
-0.1401181907411228,-0.1401181907411228,0.9995081231847193,0.000990159976357503
-0.13799373330621165,-0.13799373330621165,1.0020610089160997,0.0009396871918958783
-0.13583213280217024,-0.13583213280217024,0.9995926186762251,0.0008976247744536259
-0.1337194003550394,-0.1337194003550394,1.001071914983663,0.0009883607724069587
-0.132397571038382,-0.132397571038382,0.9980969572490382,0.0009266542337737656
-0.13039741807042446,-0.13039741807042446,1.000129236328127,0.0008920582338936917
-0.1280988807531685,-0.1280988807531685,0.9993493055444971,0.0008935095606296243
-0.12671616489315057,-0.12671616489315057,1.0015245952095992,0.0009033770899871922
-0.12555394113187504,-0.12555394113187504,0.9975440509258535,0.0008958151675623625
-0.12351379146930412,-0.12351379146930412,1.00041527639852,0.0009578631808243289
-0.12244536136859097,-0.12244536136859097,0.9991388839120244,0.0008943063849781756
-0.11953948670052342,-0.11953948670052342,1.0004565880068497,0.0009172607042413393
-0.11819703353430669,-0.11819703353430669,0.9992198786957062,0.0008935623109418027
-0.11616768630410661,-0.11616768630410661,1.002386452566589,0.0008926885923996695
-0.1139077269606787,-0.1139077269606787,0.998826396734135,0.0009891093753852033
-0.11219149604294217,-0.11219149604294217,0.9996199568867196,0.0008940598678812403
-0.11067604482122988,-0.11067604482122988,0.9985863491086974,0.0008955656185281845
-0.10842606261394394,-0.10842606261394394,1.0006748377614598,0.0008943460628461052
-0.10608057128411019,-0.10608057128411019,1.000415037528864,0.0008948353638807704
-0.10500107782609121,-0.10500107782609121,1.0003418683424097,0.0008949175178363253
-0.10391182133062102,-0.10391182133062102,1.0000796712752211,0.0009056298838348208
-0.10243577821893268,-0.10243577821893268,1.0011713598560366,0.0008915676536643896
-0.1002586339629488,-0.1002586339629488,1.0005229074449076,0.0009755605919472493
-0.09884143757044513,-0.09884143757044513,0.9994658329489912,0.000895494206083822
-0.09670688266960496,-0.09670688266960496,0.9982426908812345,0.0008931042435318155
-0.09321804740502557,-0.09321804740502557,1.0006907228943736,0.0008948145027865321
-0.09013527521528886,-0.09013527521528886,0.9998989847920841,0.0009006460405038061
-0.0886743566752557,-0.0886743566752557,0.9994372612289724,0.0008941155557079807
-0.08679369917917938,-0.08679369917917938,1.0010550685450135,0.0008956123731183475
-0.08548458416044014,-0.08548458416044014,0.9999562982322395,0.0008949116241344661
-0.08374012359381595,-0.08374012359381595,1.0003419004051375,0.0008939995211549657
-0.08238660448951123,-0.08238660448951123,0.9987022258052711,0.000912118826690207
-0.0806595189129439,-0.0806595189129439,0.99983433292137,0.0008923381714574738
-0.07950806614098838,-0.07950806614098838,1.0014252680158353,0.0009903830818488815
-0.07723377989168512,-0.07723377989168512,0.9998353540752836,0.0008945982449930724
-0.07443956231545598,-0.07443956231545598,1.0001102007239964,0.0009436327350075124
-0.07324073202107684,-0.07324073202107684,1.0003019003038993,0.0008931046934389314
-0.07171704780230356,-0.07171704780230356,0.9984118155951393,0.0009283134403295935
-0.06981893404954462,-0.06981893404954462,1.000905370000463,0.0008924405078765957
-0.06789294172085647,-0.06789294172085647,1.0005952674145735,0.0009880693559606159
-0.06650627650597016,-0.06650627650597016,1.0014975081850446,0.0009039537779688825
-0.06497704758767213,-0.06497704758767213,0.998066688850092,0.0008962413145130455
-0.06308238954479747,-0.06308238954479747,0.999895319902747,0.0009593112843037094
-0.061140310901100746,-0.061140310901100746,0.998381337496571,0.0008941000293315718
-0.05887892318642116,-0.05887892318642116,0.9999195440793709,0.0009178413554172076
-0.0575195392149908,-0.0575195392149908,0.9992690231099605,0.0008923321816820264
-0.05460738899309945,-0.05460738899309945,0.9989472837868794,0.0009902025166889322
-0.0526397571014968,-0.0526397571014968,0.9997585598326528,0.000892594679044716
-0.051112840262430834,-0.051112840262430834,1.0008936039838556,0.0008965551018571335
-0.04909973546891706,-0.04909973546891706,0.9993947269582664,0.0008946739547538338
-0.0470896496612113,-0.0470896496612113,1.0006350461125397,0.0008933377680496098
