time,time,flux,flux_err
-0.4998617734690569,-0.4998617734690569,0.999886738919927,9.429110129901965e-05
-0.4995938229256254,-0.4995938229256254,1.0000699499039214,9.430128140924616e-05
-0.49934840683080023,-0.49934840683080023,1.0000072752204978,9.323624226975661e-05
-0.4991412639680178,-0.4991412639680178,0.9999777121693636,8.657282345171794e-05
-0.498929322955901,-0.498929322955901,1.0000913613571576,8.596645191552731e-05
-0.49872027751625725,-0.49872027751625725,1.0000147862398436,8.571030799399934e-05
-0.4984972876660976,-0.4984972876660976,0.9998651580726857,8.632787722034561e-05
-0.49832782116084073,-0.49832782116084073,1.0001080000200822,8.543430160171746e-05
-0.49816413813319543,-0.49816413813319543,1.0000694322665944,8.595566388956798e-05
-0.49797192517650046,-0.49797192517650046,0.9999534223384409,8.546024222800448e-05
-0.49777281513079,-0.49777281513079,0.9998795117841152,8.663321395544786e-05
-0.4976129474042253,-0.4976129474042253,1.000041334560364,8.537422722769438e-05
-0.49744049005497004,-0.49744049005497004,0.9999607199855172,8.514485790902199e-05
-0.4972253692653936,-0.4972253692653936,1.0002143275955786,8.634718117034147e-05
-0.4970474509626442,-0.4970474509626442,0.9998959494626402,8.601915915896508e-05
-0.4968660772596095,-0.4968660772596095,1.000154066067775,8.538174952202458e-05
-0.49666716394880694,-0.49666716394880694,0.9999807628921481,8.514430383535267e-05
-0.49643924553338226,-0.49643924553338226,0.9998997337858517,8.633037827147271e-05
-0.4962767474297152,-0.4962767474297152,0.9998794815137021,8.60223092851363e-05
-0.4961069966942702,-0.4961069966942702,1.000019827706866,8.537797145270099e-05
-0.4959063270425702,-0.4959063270425702,0.9999770008520208,8.54710436971883e-05
-0.49572465709697866,-0.49572465709697866,1.0000870943154823,8.603157413304178e-05
-0.49555257336163405,-0.49555257336163405,1.000076123748141,8.544158759124951e-05
-0.4953827667866889,-0.4953827667866889,1.0000215611870762,8.572852185738786e-05
-0.4951673265017945,-0.4951673265017945,1.0000808978594233,8.634780809448093e-05
-0.49500483122475175,-0.49500483122475175,0.9998261415863459,8.601877358033248e-05
-0.49483507887713785,-0.49483507887713785,1.00005903962986,8.538653713450977e-05
-0.494634407058237,-0.494634407058237,1.0000938340073655,8.548398681659931e-05
-0.494452740219144,-0.494452740219144,1.0000957821975875,8.603521961715705e-05
-0.49428065551304173,-0.49428065551304173,0.9998858113204591,8.54462997176756e-05
-0.4941108496901762,-0.4941108496901762,1.000032417578542,8.572394747287737e-05
-0.4938954075034886,-0.4938954075034886,1.0001496222719315,8.635071319185362e-05
-0.4937329150633474,-0.4937329150633474,0.9998511054563849,8.602558155680136e-05
-0.49356316110127524,-0.49356316110127524,0.999979701758658,8.53915037928524e-05
-0.49336248710874175,-0.49336248710874175,1.0001804032255563,8.549087614401123e-05
-0.4931808233812845,-0.4931808233812845,0.9998931886840617,8.603778800695258e-05
-0.4930087377068375,-0.4930087377068375,1.0000051888848145,8.54647576783354e-05
-0.49283893263503276,-0.49283893263503276,1.000023745428316,8.572774150039657e-05
-0.4926234885388766,-0.4926234885388766,1.0000589811440912,8.635901023482494e-05
-0.4924609989459981,-0.4924609989459981,0.9999236151707013,8.603494742553e-05
-0.49229124336733887,-0.49229124336733887,0.9999281164016282,8.538399250993479e-05
-0.4920905671949399,-0.4920905671949399,1.0000803861324123,8.54858133247973e-05
-0.49190890658396286,-0.49190890658396286,1.0000530233926102,8.60386668096738e-05
-0.4917368199435515,-0.4917368199435515,1.0000909849020507,8.546530888001425e-05
-0.4915670156221921,-0.4915670156221921,1.000054218255017,8.572150331419683e-05
-0.49135156960824417,-0.49135156960824417,0.9997969035877661,8.63464664691363e-05
-0.491189082873673,-0.491189082873673,0.9998153442983195,8.604237813716664e-05
-0.4910193256757907,-0.4910193256757907,1.000115546439325,8.537919120976674e-05
-0.49081864731688113,-0.49081864731688113,1.0000802421645494,8.549187862469214e-05
-0.49063698982794934,-0.49063698982794934,1.0001929486974668,8.604966035544157e-05
-0.4904649022239468,-0.4904649022239468,1.0001123854521812,8.546019508204569e-05
-0.4902950986524203,-0.4902950986524203,0.9999134235365752,8.572443366076526e-05
-0.490079650712164,-0.490079650712164,0.9999824185318043,8.635878875570822e-05
-0.48991716684697906,-0.48991716684697906,1.0000852960072408,8.605690685635168e-05
-0.4897453729553817,-0.4897453729553817,1.0001054190524332,8.538806448882407e-05
-0.4895447186251062,-0.4895447186251062,0.9999068754030007,8.579045506260224e-05
-0.4893569066040186,-0.4893569066040186,1.0000700032907097,8.574508735811503e-05
-0.48918280918844914,-0.48918280918844914,0.9999404475937748,8.546194633043177e-05
-0.4890130063662241,-0.4890130063662241,1.0000109641407888,8.572938618695936e-05
-0.4888077318509502,-0.4888077318509502,1.0000089785269528,8.636827355532138e-05
-0.48863507550684204,-0.48863507550684204,0.9999919059586373,8.604494669748273e-05
-0.48846531506308255,-0.48846531506308255,1.0000256627315258,8.539740996174158e-05
-0.4882728009690638,-0.4882728009690638,0.9999721761069701,8.580871143876902e-05
-0.4880849877840774,-0.4880849877840774,1.0000989134287506,8.5754948146645e-05
-0.4879108915582691,-0.4879108915582691,0.9999640392140116,8.54695239006583e-05
-0.48774108948454825,-0.48774108948454825,0.999885587528286,8.571825291711104e-05
-0.4875358130251328,-0.4875358130251328,0.9999689228926055,8.636618299065935e-05
-0.48734280885535525,-0.48734280885535525,0.9998364853999242,8.6048753544324e-05
-0.4871730467846021,-0.4871730467846021,0.9999471804302231,8.53832844040013e-05
-0.48700088335437786,-0.48700088335437786,1.0000393130667824,8.581119481100322e-05
-0.4867927182850849,-0.4867927182850849,1.000184262202585,8.576784319166739e-05
-0.4866104795763846,-0.4866104795763846,1.0001183283931248,8.668754116990916e-05
-0.4864505977067097,-0.4864505977067097,1.0000814211897882,8.539346089218545e-05
-0.48624036041615426,-0.48624036041615426,1.0000693092233859,8.582273466947401e-05
-0.486041777536191,-0.486041777536191,0.9999989068178069,8.576171968687767e-05
-0.4858473300399638,-0.4858473300399638,1.0001880180375633,8.668452788586874e-05
-0.48563161529790194,-0.48563161529790194,0.9998626892496271,8.548198669069973e-05
-0.4854312884071561,-0.4854312884071561,0.9999575816791678,8.572556700748676e-05
-0.48523881205816366,-0.48523881205816366,0.9999939737525398,8.638768749309111e-05
-0.48506090738342494,-0.48506090738342494,0.9998344705751687,8.606721297853088e-05
-0.4848835952050464,-0.4848835952050464,1.0000799256416362,8.5389830881758e-05
-0.48470388487284166,-0.48470388487284166,0.9999281394923161,8.58258455946575e-05
-0.484503558765185,-0.484503558765185,0.9999795969125497,8.639117309550601e-05
-0.4843364242451315,-0.4843364242451315,1.0001839987092658,8.487284265172511e-05
-0.4841593716534646,-0.4841593716534646,0.999883411131588,8.570330615585398e-05
-0.48396689405953736,-0.48396689405953736,1.0000787155266146,8.639480016426989e-05
-0.48378899086132066,-0.48378899086132066,0.9999026133295527,8.607293163874873e-05
-0.4836015025016053,-0.4836015025016053,1.0000019805939986,8.5377987424949e-05
-0.48341161747561756,-0.48341161747561756,0.9999437956750432,8.58250046432905e-05
-0.48323164006253166,-0.48323164006253166,1.0000933664257174,8.639272494056474e-05
-0.48304415546995044,-0.48304415546995044,0.9999204651850772,8.487210181415251e-05
-0.48286710431784174,-0.48286710431784174,0.9999906161409854,8.571202807261698e-05
-0.48268480074462017,-0.48268480074462017,0.9999498553887433,8.638749913570136e-05
-0.48250689911394745,-0.48250689911394745,1.0002110554565842,8.609107469522762e-05
-0.48230109411566674,-0.48230109411566674,1.0000512021446657,8.538194065613411e-05
-0.4821268953760082,-0.4821268953760082,1.000013996562848,8.58266690939509e-05
-0.4819521760634231,-0.4819521760634231,0.9999840593104192,8.640263165217679e-05
-0.4817518866573053,-0.4817518866573053,0.9999220832497349,8.48679268528659e-05
-0.48157864801739125,-0.48157864801739125,1.0001546527354515,8.658184589874108e-05
-0.48140707682187267,-0.48140707682187267,1.0000124875866483,8.583608936986493e-05
-0.48120848662007204,-0.48120848662007204,0.9999083729104818,8.576664308859527e-05
-0.48101955591920953,-0.48101955591920953,0.9999968704409194,8.550217096681148e-05
-0.4808523884028588,-0.4808523884028588,0.9999127273604869,8.57148306845063e-05
-0.48067008281594215,-0.48067008281594215,0.9999516262041583,8.639421359891197e-05
-0.4804718328495213,-0.4804718328495213,0.9999651137277035,8.609471180432907e-05
-0.48030469275832954,-0.48030469275832954,1.000053563743812,8.537893938806158e-05
-0.4801249848243714,-0.4801249848243714,1.0001471211417121,8.584866893337128e-05
-0.4799345329895459,-0.4799345329895459,1.0000699504885753,8.578544268554136e-05
-0.47974763785313285,-0.47974763785313285,0.9998058355300674,8.549078826995748e-05
-0.47958047182191593,-0.47958047182191593,0.9999205790419378,8.571342750534358e-05
-0.4793981649692512,-0.4793981649692512,0.9999438180006621,8.640174361860455e-05
-0.4791999164960018,-0.4791999164960018,1.0001476623954937,8.60871590268599e-05
-0.4790327754985114,-0.4790327754985114,1.0000464770942403,8.53845289166711e-05
-0.47885306823479257,-0.47885306823479257,1.0000179753757437,8.583625332230245e-05
-0.4786626144729908,-0.4786626144729908,0.9999840594515966,8.577374210789066e-05
-0.4784757198324968,-0.4784757198324968,0.9999928142467216,8.54963511971032e-05
-0.4783085552908773,-0.4783085552908773,0.9999522009213739,8.571569192586341e-05
-0.47812624716620605,-0.47812624716620605,1.0000705839010813,8.640566552212822e-05
-0.4779280001912511,-0.4779280001912511,1.0000056571250155,8.608230798861785e-05
-0.47776085828814985,-0.47776085828814985,0.9998974165431072,8.537808865730068e-05
-0.4775811516965973,-0.4775811516965973,1.0000562314655483,8.583963926633329e-05
-0.4773906959999792,-0.4773906959999792,0.9999218889365988,8.577768252431947e-05
-0.47720380185782146,-0.47720380185782146,1.000059494342114,8.549692994895338e-05
-0.47703663881062397,-0.47703663881062397,0.9999025800643864,8.57093684016315e-05
-0.4768543294072757,-0.4768543294072757,1.0001855700921416,8.640387334059294e-05
-0.47665608393580217,-0.47665608393580217,0.9999325141129229,8.608114340821479e-05
-0.4764889411279952,-0.4764889411279952,1.0000073077824454,8.538216036288035e-05
-0.47630923521051616,-0.47630923521051616,0.9998918073287568,8.582349291958595e-05
-0.4761187775705366,-0.4761187775705366,1.0000245203745022,8.577187640863873e-05
-0.4759318839302423,-0.4759318839302423,0.9999741529840985,8.549922075787178e-05
-0.4757647223816249,-0.4757647223816249,1.0001565946916633,8.571904603710761e-05
-0.4756000970214501,-0.4756000970214501,0.9999863256566796,8.710230848045762e-05
-0.47542833482680036,-0.47542833482680036,1.0000488798610463,8.673001261914248e-05
-0.47529170205983745,-0.47529170205983745,1.0000152097120047,8.583768103611085e-05
-0.47510904742287324,-0.47510904742287324,0.9998928014507411,8.716114297534921e-05
-0.47496264060322774,-0.47496264060322774,1.0000094625246274,8.537255666725736e-05
-0.4748130747129764,-0.4748130747129764,0.9999447143642233,8.696267834173257e-05
-0.4746267762231753,-0.4746267762231753,1.0000034971666731,8.634133569508591e-05
-0.4744928060047002,-0.4744928060047002,0.9999856956158799,8.57019433673371e-05
-0.47432614631680536,-0.47432614631680536,0.9999989543812793,8.725236710189982e-05
-0.4741564197203786,-0.4741564197203786,1.0001342207033432,8.688919017907926e-05
-0.47400350510220335,-0.47400350510220335,1.0000183373244103,8.584510332212668e-05
-0.47383713102027797,-0.47383713102027797,1.0001635999312692,8.730613615535646e-05
-0.47367037284700475,-0.47367037284700475,0.9999266248569632,8.53727952185126e-05
-0.47352080735925883,-0.47352080735925883,0.9999832727083302,8.711224834860259e-05
-0.4733548603802745,-0.4733548603802745,1.0000521857621538,8.64923561262912e-05
-0.47320053897188075,-0.47320053897188075,1.0000819044122118,8.57087548997421e-05
-0.47304638404976773,-0.47304638404976773,0.999979384741285,8.801332364859107e-05
-0.47287403558554075,-0.47287403558554075,0.9998862867701674,8.641449097916979e-05
-0.47272751862575857,-0.47272751862575857,0.999820310080502,8.583494953112809e-05
-0.4725652146005913,-0.4725652146005913,0.9999414475768992,8.744893993473845e-05
-0.4723984558535065,-0.4723984558535065,0.9998339093144221,8.536754791195808e-05
-0.4722427854696448,-0.4722427854696448,1.000121811159861,8.724902458480677e-05
-0.472082410931138,-0.472082410931138,1.0000702798538235,8.767926493784582e-05
-0.47191084060510347,-0.47191084060510347,1.0001254362616865,8.464308576401373e-05
-0.4717541175485849,-0.4717541175485849,1.0000710656389573,8.814779761866951e-05
-0.47160212053239975,-0.47160212053239975,0.9999538942143534,8.653585672096774e-05
-0.4714352515745233,-0.4714352515745233,1.0000038763522394,8.585425759508905e-05
-0.471280832819761,-0.471280832819761,0.9999517329776868,8.802992919216316e-05
-0.47111865348790616,-0.47111865348790616,1.00000005184613,8.489706521685864e-05
-0.4709566232599286,-0.4709566232599286,1.0000312114657999,8.735801849275724e-05
-0.47081049751788695,-0.47081049751788695,1.0001553296073582,8.777315754802291e-05
-0.4706688580633681,-0.4706688580633681,1.000036861959444,8.653649319626376e-05
-0.4705176833912475,-0.4705176833912475,1.0000798751412405,8.80895011446159e-05
-0.47035550291216455,-0.47035550291216455,0.9999939267146635,8.489989271947734e-05
-0.4701934732539854,-0.4701934732539854,0.9999637783459503,8.740378439270261e-05
-0.47004734946984,-0.47004734946984,1.0000484829293652,8.781904781731568e-05
-0.4698737356999743,-0.4698737356999743,0.999801065727447,8.46511072969933e-05
-0.4697190523587039,-0.4697190523587039,0.9999915620614026,8.828219058226402e-05
-0.46956705644632707,-0.46956705644632707,1.0001048810039852,8.666787317016165e-05
-0.46940018564632313,-0.46940018564632313,0.9998273914811715,8.584921586532636e-05
-0.4692457676684228,-0.4692457676684228,0.9999179554753704,8.816732199881537e-05
-0.46908358533011524,-0.46908358533011524,0.999905982492202,8.490107359831735e-05
-0.4689215565716552,-0.4689215565716552,0.9999803955981237,8.748214077628039e-05
-0.4687754360582872,-0.4687754360582872,1.0000450141559114,8.788090939683548e-05
-0.4686018171259164,-0.4686018171259164,1.0001308003283031,8.46659540614406e-05
-0.4684471366039332,-0.4684471366039332,0.9999760561263734,8.834645735458469e-05
-0.46829514139642753,-0.46829514139642753,0.9999339580334876,8.672627391276104e-05
-0.4681154557733265,-0.4681154557733265,0.9999717438258328,8.586643742473627e-05
-0.46796835004556103,-0.46796835004556103,1.0000358715988653,8.823102598609576e-05
-0.46778319775826277,-0.46778319775826277,1.0000112456175052,8.612003702468592e-05
-0.46760430779569334,-0.46760430779569334,0.9999881193970463,8.666759520282353e-05
-0.4674270230044598,-0.4674270230044598,0.9999329102497218,8.824974716124917e-05
-0.4672744314195526,-0.4672744314195526,0.999969667783032,8.612214560528746e-05
-0.46711649571677755,-0.46711649571677755,1.0001214288301503,8.668285087060537e-05
-0.4669461440612608,-0.4669461440612608,1.0001025069926208,8.82603713126167e-05
-0.46680430917589605,-0.46680430917589605,0.9999849994266412,8.492803257811848e-05
-0.46663210659742305,-0.46663210659742305,1.0000334372857789,8.76098161234792e-05
-0.4664682931992701,-0.4664682931992701,0.9999395833147687,8.658098489858508e-05
-0.4663219223933709,-0.4663219223933709,1.0000751948242759,8.611304251745677e-05
-0.4661396959398033,-0.4661396959398033,0.9999560814617169,8.645915631512512e-05
-0.4659975771538754,-0.4659975771538754,1.0000471359446306,8.799062671875537e-05
-0.4658242290644978,-0.4658242290644978,1.0000641721704873,8.675700501543696e-05
-0.4656664106896855,-0.4656664106896855,1.0000127875684681,8.628260613973741e-05
-0.4655117185729921,-0.4655117185729921,0.9998933550976806,8.699910054795099e-05
-0.4653402295867977,-0.4653402295867977,0.9999688072755937,8.590079515293707e-05
-0.46518581260638997,-0.46518581260638997,1.0000121459158546,8.832952441345167e-05
-0.46502761998335557,-0.46502761998335557,0.9999283238509065,8.617238861109632e-05
-0.4648677786270369,-0.4648677786270369,0.9999128585171168,8.644545277110586e-05
-0.4647154884824161,-0.4647154884824161,0.9999363447561509,8.803349221444756e-05
-0.46454185340252396,-0.46454185340252396,1.0000097148511458,8.469932922426288e-05
-0.46438663749228937,-0.46438663749228937,1.0002295074800158,8.838333171366634e-05
-0.46422759238471656,-0.46422759238471656,1.000066095917738,8.709385946805722e-05
-0.4640683136453106,-0.4640683136453106,0.9999962255406245,8.590632321206138e-05
-0.4639037215799419,-0.4639037215799419,0.999871176068211,8.839911241961899e-05
-0.46373096570784184,-0.46373096570784184,1.0000313447773808,8.68154384455935e-05
-0.46354869452826364,-0.46354869452826364,1.0001282196102514,8.559917906417902e-05
-0.4633650354313886,-0.4633650354313886,1.0000815972103487,8.844322253574436e-05
-0.4631658560287889,-0.4631658560287889,0.9999729650710553,8.645795321701128e-05
-0.46299834072434576,-0.46299834072434576,1.0000507764886217,8.686174394734831e-05
-0.46280618124669815,-0.46280618124669815,1.000075557528295,8.783522493012608e-05
-0.4626138093237742,-0.4626138093237742,0.9998835015026339,8.627023025877774e-05
-0.4624427947438591,-0.4624427947438591,0.9999201356760337,8.807116026155913e-05
-0.4622520082739925,-0.4622520082739925,1.0000364979920964,8.669007502448768e-05
-0.4620695607171797,-0.4620695607171797,0.9998588480234858,8.645720473738535e-05
-0.46188900699817453,-0.46188900699817453,0.9998496569577575,8.854729658328505e-05
-0.46171624733883193,-0.46171624733883193,0.9999771263503842,8.697850485184385e-05
-0.4615240892793707,-0.4615240892793707,1.0000861954982763,8.793951427783215e-05
-0.4613418921720708,-0.4613418921720708,0.9999942319625538,8.628005832544553e-05
-0.4611688432366563,-0.4611688432366563,1.00007117303949,8.819599398676186e-05
-0.4609800891536636,-0.4609800891536636,1.000128971068842,8.680109530519677e-05
-0.4607976435673734,-0.4607976435673734,0.9999583896393588,8.64465627402385e-05
-0.46061709128088496,-0.46061709128088496,0.9999943943564362,8.864942567227805e-05
-0.46044432925434364,-0.46044432925434364,1.0001378063644437,8.705622643361092e-05
-0.4602521726160248,-0.4602521726160248,0.9999053573017506,8.800446300605958e-05
-0.4600699750706383,-0.4600699750706383,0.9999044923904676,8.627874497919017e-05
-0.4598969267987002,-0.4598969267987002,1.0000735074981082,8.826035675132569e-05
-0.45970817004035214,-0.45970817004035214,0.9998888204255818,8.686355763200836e-05
-0.45952572646949363,-0.45952572646949363,1.0001690928037552,8.646534027898016e-05
-0.4593451755748504,-0.4593451755748504,1.0000061365622204,8.871273850708818e-05
-0.45917241118125246,-0.45917241118125246,0.9999561097897953,8.713050445828772e-05
-0.4589802559662175,-0.4589802559662175,0.9999617099614845,8.806437428074754e-05
-0.458798058019832,-0.458798058019832,1.0001207381913066,8.627243237622138e-05
-0.4586250103740824,-0.4586250103740824,1.0000742815126258,8.831092486911711e-05
-0.45843625093620377,-0.45843625093620377,1.000037687355472,8.690961528791731e-05
-0.4582538094238046,-0.4582538094238046,1.000027433533171,8.644995558702986e-05
-0.4580732598823417,-0.4580732598823417,1.000070649639187,8.873959770678324e-05
-0.4579004931214058,-0.4579004931214058,0.9999487675611529,8.71648970112955e-05
-0.4577083393321416,-0.4577083393321416,0.9999890764699428,8.808985968616507e-05
-0.4575261410199062,-0.4575261410199062,0.9999263609048157,8.6253758236128e-05
-0.45735309396493734,-0.45735309396493734,1.0000485373843677,8.833660194879908e-05
-0.45716433184320665,-0.45716433184320665,0.9998686399968445,8.694333720748223e-05
-0.456977822277976,-0.456977822277976,0.9998914262212093,8.643746242492051e-05
-0.45679320396778705,-0.45679320396778705,1.000035714241697,8.876378554554729e-05
-0.4566082243973398,-0.4566082243973398,0.99995541036747,8.72097230506309e-05
