time,time,flux,flux_err
-0.4999533236938684,-0.4999533236938684,0.9999666598780665,0.00013641229362293758
-0.49982810007350054,-0.49982810007350054,1.0000457643206682,0.00013414256812678554
-0.4997110586497001,-0.4997110586497001,1.0001778122414504,0.00012490980861038894
-0.49955271469079887,-0.49955271469079887,0.9998559496452559,0.00012284226172325582
-0.49946013395965566,-0.49946013395965566,0.9999551922388811,0.0001314198807658131
-0.49937516610661986,-0.49937516610661986,0.9999513045703724,0.00013214265597029552
-0.49927127782138997,-0.49927127782138997,1.0001038646879157,0.0001337076719850623
-0.4991749652661383,-0.4991749652661383,0.9997222968659422,0.0001268182808002265
-0.49911063254985494,-0.49911063254985494,1.0000087375099767,0.0001266382778091298
-0.4989788232371211,-0.4989788232371211,1.0000941225977724,0.00012174064295936699
-0.4988302532612579,-0.4988302532612579,0.9999619311134363,0.00012561044997404783
-0.49866738368873487,-0.49866738368873487,1.000094960885931,0.00014979837656901916
-0.4985398480173899,-0.4985398480173899,0.9998389658019871,0.00012053004580676401
-0.4984075893793488,-0.4984075893793488,0.9999988051712109,0.00012781049428099226
-0.49833090530592017,-0.49833090530592017,0.9999654585979261,0.00012296520374082152
-0.4981342171522556,-0.4981342171522556,0.9999545019581697,0.00014078837552240065
-0.49802511878951916,-0.49802511878951916,1.000053514838378,0.00012416247010750905
-0.4979070367611712,-0.4979070367611712,0.9999757392746187,0.00012315057324044075
-0.4977127255726373,-0.4977127255726373,1.0000596486270723,0.00013586248080159734
-0.49750661199796015,-0.49750661199796015,0.9998627585809332,0.00012917212561889792
-0.49737885722133796,-0.49737885722133796,0.9999636043159101,0.00012317954736067868
-0.49726195050170646,-0.49726195050170646,1.0000476008117825,0.00012672121168286137
-0.49717260439356326,-0.49717260439356326,1.0000451878163432,0.00012107978866115457
-0.4970226372301113,-0.4970226372301113,1.0002685590494713,0.00012226563586178449
-0.4969399137306027,-0.4969399137306027,1.0001003696647501,0.00013522608077054713
-0.4968262426787987,-0.4968262426787987,1.0000821171601904,0.0001238236947081011
-0.49676866417576093,-0.49676866417576093,1.0002813126636816,0.00014054558199613898
-0.4966921240586089,-0.4966921240586089,0.9999790932617711,0.00013151059226209976
-0.49656333987368273,-0.49656333987368273,1.000069038446524,0.00012319923962545847
-0.49647739581996575,-0.49647739581996575,0.999941864912459,0.000129996600853055
-0.49636229194293263,-0.49636229194293263,0.9999789037504861,0.0001229362687647569
-0.4962103626137832,-0.4962103626137832,0.9999070736123148,0.00012432978142953123
-0.49609086494892835,-0.49609086494892835,0.9998914585350474,0.00012812064041032
-0.4958875152020482,-0.4958875152020482,0.9998042286805531,0.0001227078267786391
-0.49575715397659226,-0.49575715397659226,0.9999747645040878,0.00012425476891768258
-0.4956022600963479,-0.4956022600963479,0.999981217914342,0.0001296242800458871
-0.49551723787444646,-0.49551723787444646,1.0001253935939833,0.00012434477055159844
-0.4954705531214131,-0.4954705531214131,1.0001062383752841,0.00012258697333710291
-0.49533556335663886,-0.49533556335663886,0.9998847617697884,0.00012394813265409875
-0.4952297145413468,-0.4952297145413468,0.9999745738622423,0.00012187208109802695
-0.49509980897419154,-0.49509980897419154,1.000016757391085,0.00012527105855380345
-0.4950198318168987,-0.4950198318168987,0.9998391461860809,0.00013128910668027256
-0.4949243975424906,-0.4949243975424906,1.0000689065228971,0.00012109322815988107
-0.494747820761404,-0.494747820761404,1.0000731866991233,0.00014038725310605923
-0.4946430081996368,-0.4946430081996368,0.999970750740016,0.0001260189720314148
-0.49453900967200753,-0.49453900967200753,1.00010676283842,0.00012395876608352403
-0.4944164803542662,-0.4944164803542662,0.9999607182928608,0.00011967181477212905
-0.4943222675705329,-0.4943222675705329,0.9999708132246564,0.0001406679274219563
-0.49425204245198984,-0.49425204245198984,0.9999856517841248,0.0001328741021208515
-0.49420486559683924,-0.49420486559683924,1.0001950172920506,0.00013224991769886514
-0.4941386804304784,-0.4941386804304784,1.000067990284085,0.00013058306395642583
-0.4939913250651443,-0.4939913250651443,0.9997438659430816,0.0001247668982411369
-0.4938714398769662,-0.4938714398769662,1.0002464755836296,0.00012266215109182384
-0.4937679497612407,-0.4937679497612407,1.0000588004812712,0.0001382890343103595
-0.4936763200908899,-0.4936763200908899,0.9998712408619544,0.00012211596979078932
-0.4935451382654719,-0.4935451382654719,1.000088258417834,0.00012118489769181565
-0.4933892160799587,-0.4933892160799587,1.0000592556023786,0.00013572744664267178
-0.49325199309387247,-0.49325199309387247,1.0002184959104503,0.00012226292455875298
-0.4931443146604579,-0.4931443146604579,1.0000748931654593,0.00012027564665048314
-0.4929842661891598,-0.4929842661891598,0.9999767203039133,0.00012560904288282728
-0.49291460296080913,-0.49291460296080913,0.999764647036641,0.00015616449258597413
-0.49281682216096667,-0.49281682216096667,1.0000151282858685,0.00013421865255692424
-0.4927633855579188,-0.4927633855579188,0.9999800951052557,0.00012369080752183396
-0.4926647483109264,-0.4926647483109264,0.9999411709832644,0.00012364134213692005
-0.492612510320032,-0.492612510320032,0.9999428783248829,0.00012458452850344203
-0.49252255324390715,-0.49252255324390715,1.0001691520965081,0.00012952721922378485
-0.4924177078937646,-0.4924177078937646,1.000047435110821,0.00013162761345872261
-0.4922182737733237,-0.4922182737733237,1.0001008170838428,0.00013393269051789784
-0.49210411644598934,-0.49210411644598934,0.9999491484674387,0.00012832109310085605
-0.49195218397071583,-0.49195218397071583,0.9999065480729264,0.00012357359318271226
-0.49180633240612226,-0.49180633240612226,0.9999331382012879,0.00012464772073367988
-0.4916797726124059,-0.4916797726124059,0.999841642025971,0.00012494727292718132
-0.4915305224014446,-0.4915305224014446,1.0000277429530269,0.00012406724548609437
-0.49142590104893313,-0.49142590104893313,0.9999888455863692,0.0001243098837871226
-0.4913628094800515,-0.4913628094800515,1.0000699509371946,0.00013365205827759767
-0.4912630867183907,-0.4912630867183907,0.9999289276375336,0.00012418619929504984
-0.4911812083533732,-0.4911812083533732,1.000156290378911,0.0001428034397191524
-0.4911083596554818,-0.4911083596554818,1.000024307283943,0.0001245794263038614
-0.49106472164858134,-0.49106472164858134,0.9999908278082952,0.0001253445525438634
-0.49097983701503833,-0.49097983701503833,1.0000715807087601,0.00012063336757854668
-0.4907883762061829,-0.4907883762061829,0.9999735493151463,0.00012651712970547022
-0.49058818198391235,-0.49058818198391235,0.9999122700898393,0.00012328794999649865
-0.49042522662784904,-0.49042522662784904,1.0000205802168405,0.000125142048968117
-0.49031067264440936,-0.49031067264440936,1.000093776379495,0.00013159307479575834
-0.4901935338100884,-0.4901935338100884,1.0001255914868092,0.00012575080057862262
-0.49008817606372757,-0.49008817606372757,1.0002086684755085,0.00013224304752932145
-0.4899717695574509,-0.4899717695574509,1.0000563214117046,0.00013192472917485852
-0.48987524668918925,-0.48987524668918925,1.0000082860784834,0.0001414999435740824
-0.4897048528364394,-0.4897048528364394,0.9999757986110216,0.00012365807767647667
-0.4895522045640973,-0.4895522045640973,1.000146094846021,0.00012188041032169786
-0.4894397942000069,-0.4894397942000069,1.0000399490293248,0.0001272555766076518
-0.4893325170618482,-0.4893325170618482,1.0002185853290857,0.0001210665334254371
-0.489290596882347,-0.489290596882347,1.0000248632468516,0.0001252635043173087
-0.4891537116724066,-0.4891537116724066,0.9997990151452069,0.00012299864256444995
-0.4890146981924772,-0.4890146981924772,0.9999633465171553,0.00012683063458457188
-0.48891053318220656,-0.48891053318220656,1.0000720624283708,0.00011959177134207031
-0.48879636350029615,-0.48879636350029615,1.000198090547748,0.00013284159047783495
-0.4887455674877856,-0.4887455674877856,1.000133679637244,0.0001225321383481804
-0.48867539008788297,-0.48867539008788297,0.9999002107377077,0.00014137954290739159
-0.488567098591011,-0.488567098591011,0.9997970163816288,0.00012193508315292478
-0.4884676407382358,-0.4884676407382358,1.000061746265008,0.00013083033603446026
-0.4883785246463958,-0.4883785246463958,1.0001389377212515,0.00012484174118371542
-0.48822142315038947,-0.48822142315038947,0.9999717826190755,0.00013803052295570593
-0.4881266330252402,-0.4881266330252402,1.0000592365432195,0.00012139803661476796
-0.4880361374525819,-0.4880361374525819,0.9999482940415539,0.0001226250089039422
-0.48792275426385456,-0.48792275426385456,0.9999956445174568,0.00012838277096523509
-0.48776794123114087,-0.48776794123114087,1.000086754725713,0.0001230288532033679
-0.4876750471681589,-0.4876750471681589,0.9999900773180801,0.00012056293908027516
-0.48754296523693486,-0.48754296523693486,0.9999479094280852,0.00012195048316813276
-0.4874313370324671,-0.4874313370324671,0.9999832723395702,0.00011960557983707479
-0.48732322024588937,-0.48732322024588937,1.0001472951151895,0.00013017333146096054
-0.48718262455950023,-0.48718262455950023,0.9999479225823704,0.0001306043186704825
-0.48706959509581793,-0.48706959509581793,1.0000380254113188,0.00012703666167399654
-0.48700163248577155,-0.48700163248577155,1.0000110825053439,0.0001239616070970448
-0.4869462563015986,-0.4869462563015986,1.000083561220866,0.00012375543764887065
-0.4868752321897773,-0.4868752321897773,1.0000074986645076,0.00013145364404185968
-0.48674655446666293,-0.48674655446666293,0.9998862307050442,0.00012981759721783896
-0.4865889919834444,-0.4865889919834444,0.9997919187706135,0.0001269330673868975
-0.48635582856077236,-0.48635582856077236,0.9998338952456411,0.00013278123070416045
-0.48621376098599284,-0.48621376098599284,1.0000334748622677,0.00012291251032241408
-0.4861457248363877,-0.4861457248363877,1.0000635098416357,0.00012509995201994553
-0.4860687117354246,-0.4860687117354246,1.0000878719617827,0.00013480055650228834
-0.48588431210955607,-0.48588431210955607,1.000044373222482,0.00012370053672583147
-0.48579012928530574,-0.48579012928530574,1.000083624677406,0.00012099940328270837
-0.4857166135770967,-0.4857166135770967,0.999850205859644,0.0001313371551735423
-0.48559517644462175,-0.48559517644462175,0.9999062559036377,0.00012912998611324425
-0.4855156394216465,-0.4855156394216465,0.9998122405823056,0.00012357491350783052
-0.48538605792855377,-0.48538605792855377,0.999976917191761,0.00012609948520424745
-0.48528132507926786,-0.48528132507926786,0.999939297738479,0.00012645747920552453
-0.48520391788042616,-0.48520391788042616,1.0002297401460862,0.00012277859710886104
-0.4851632268342655,-0.4851632268342655,1.0001686050956757,0.00012197103267638697
-0.48507421296089887,-0.48507421296089887,1.0001167131699695,0.00012716177427155522
-0.4849434104922693,-0.4849434104922693,0.999971635589884,0.00012549080041259045
-0.484844706414151,-0.484844706414151,0.999933156580673,0.00011964920054940008
-0.4847323960799258,-0.4847323960799258,1.000105952306274,0.0001309609752105079
-0.48457175967632793,-0.48457175967632793,0.9999636142872944,0.00012091516184332
-0.4844311020569876,-0.4844311020569876,0.9999460627678479,0.00014047408749426853
-0.4842816120450152,-0.4842816120450152,0.9999028899409586,0.00012162093651275742
-0.4841117845091503,-0.4841117845091503,1.0000595338934393,0.00013220749273801818
-0.48397393377672415,-0.48397393377672415,1.0000213451884274,0.0001220284913857058
-0.4837388285784982,-0.4837388285784982,0.9998539681125344,0.0001250263363276152
-0.4835857612662949,-0.4835857612662949,0.999939682623997,0.00012461961832912878
-0.4834992194199003,-0.4834992194199003,0.9998247939474153,0.00012337024700607017
-0.4834179895144189,-0.4834179895144189,1.0000800868904527,0.0001242732411787909
-0.4832945725385798,-0.4832945725385798,1.000094314534721,0.0001318606385302047
-0.48320799522625746,-0.48320799522625746,1.0001110470126882,0.00012582343121288374
-0.48311070956115143,-0.48311070956115143,1.0001233850302556,0.0001399636396961752
-0.48298633106751365,-0.48298633106751365,0.9998902147904163,0.0001244228227227462
-0.4828710858360864,-0.4828710858360864,0.9998403260014592,0.00013479836428230416
-0.4827314888709225,-0.4827314888709225,1.0003530632560649,0.00012030018489677387
-0.48263161570357627,-0.48263161570357627,1.0000669514257536,0.0001256536046516321
-0.48258009026176296,-0.48258009026176296,1.0000796167009673,0.00012073124874351136
-0.48240984697476963,-0.48240984697476963,0.9998881745111394,0.00012359050875016957
-0.4822830403893022,-0.4822830403893022,0.9997761684019478,0.00012911743597678147
-0.4821282894612523,-0.4821282894612523,0.9999696778399283,0.00012465353858285034
-0.4819994873570977,-0.4819994873570977,1.000045472829149,0.00013101230937181973
-0.4817621174908709,-0.4817621174908709,1.0001062358885195,0.00012341182086297904
-0.481628106845892,-0.481628106845892,1.0000794263777266,0.00012551419440479155
-0.48153589644352907,-0.48153589644352907,1.0001652001442494,0.00013076247785751905
-0.4814183322741883,-0.4814183322741883,0.9998975227981791,0.00012480231031977528
-0.48137138397141827,-0.48137138397141827,1.000112111820083,0.00012457306721584503
-0.48124725540401414,-0.48124725540401414,0.9999047783711517,0.0001338001743560025
-0.4809483669581823,-0.4809483669581823,1.0001101518422002,0.00012196746181968284
-0.48086484594387,-0.48086484594387,1.0000508715110825,0.0001233506847379801
-0.48077907849219625,-0.48077907849219625,1.0000627131740045,0.0001244468346625493
-0.4806990736251464,-0.4806990736251464,1.0001814493209997,0.0001228553656182437
-0.4805834874801803,-0.4805834874801803,1.0001575904256195,0.0001404396168473787
-0.48047307404631284,-0.48047307404631284,1.0000521663692592,0.0001300885377236418
-0.4803885968431132,-0.4803885968431132,1.0001961391646261,0.0001256207981316421
-0.4802444377768552,-0.4802444377768552,1.0000036160789254,0.000124507976937703
-0.48012194139591885,-0.48012194139591885,1.000048435300599,0.00013346682879051964
-0.47998375321330966,-0.47998375321330966,1.0000144954259036,0.00011964220151133189
-0.47981546460068786,-0.47981546460068786,1.0000875153555793,0.00012291775179268881
-0.47961218549753537,-0.47961218549753537,0.9999597736186399,0.00012081082507056772
-0.47956412528292275,-0.47956412528292275,1.0002821254373782,0.00012399973245764308
-0.4794684573076665,-0.4794684573076665,0.9998913685213155,0.00012352333917712367
-0.4793378195608966,-0.4793378195608966,0.9999651824624809,0.00012325021541655467
-0.479214950549067,-0.479214950549067,1.0000370234923825,0.00012666115689427987
-0.4791147048439598,-0.4791147048439598,1.0000820020497085,0.00013496707633252678
-0.4790393114031758,-0.4790393114031758,1.0001074228269247,0.00012006919209875656
-0.47890411657863297,-0.47890411657863297,1.0001454650285795,0.00012609584684234034
-0.47884565051062966,-0.47884565051062966,1.000106770986444,0.0001343429522669189
-0.478779638998094,-0.478779638998094,1.0000520270022286,0.0001247332892801279
-0.4786705309699755,-0.4786705309699755,1.000042347153394,0.00013765768360164102
-0.47857435267069376,-0.47857435267069376,1.000232619003564,0.00012547921048239698
-0.4784606898756465,-0.4784606898756465,0.999950948205249,0.00012228437752378058
-0.47832283079624177,-0.47832283079624177,0.999942082951908,0.0001353312433395062
-0.47820251488883514,-0.47820251488883514,1.0000763443469969,0.00012483413112197639
-0.47804743429878727,-0.47804743429878727,1.0001507578681168,0.00012829801943203345
-0.4779598116874695,-0.4779598116874695,1.000014069924938,0.0001213523283066044
-0.47779122325009665,-0.47779122325009665,1.0000415505725306,0.0001251622396008676
-0.4777293158695102,-0.4777293158695102,1.0002634127723282,0.00013526827276337815
-0.4776639230316505,-0.4776639230316505,1.0000300714507817,0.00012567398994318084
-0.4775885826500598,-0.4775885826500598,1.0004432599485895,0.0001332160876746801
-0.47749311590741855,-0.47749311590741855,0.9999851389079499,0.00013410981740981525
-0.4773852978978539,-0.4773852978978539,1.0000137316240232,0.00012466624448557924
-0.47728886677941773,-0.47728886677941773,1.0000347162222423,0.0001286957865397754
-0.4771504035539692,-0.4771504035539692,1.0001479690805388,0.0001308313776401161
-0.4770569577085553,-0.4770569577085553,1.0001955931709996,0.00012191722561672922
-0.4768355584616074,-0.4768355584616074,0.9999578046919799,0.00012310035800003463
-0.4766664568451233,-0.4766664568451233,0.9999056848891964,0.00013285803620717685
-0.4765258814091794,-0.4765258814091794,0.9998554899881483,0.00012437005185503134
-0.47640021847619207,-0.47640021847619207,1.000118354513002,0.0001313305689892617
-0.47630781009502243,-0.47630781009502243,1.0000712505541218,0.0001293459784343506
-0.4761004098894773,-0.4761004098894773,1.0001655525213091,0.00013290341953602042
-0.4759222957189195,-0.4759222957189195,1.0002016294465708,0.0001266433406132911
-0.47575469670118764,-0.47575469670118764,1.0000095027675122,0.00012290190660370798
-0.47561060114239806,-0.47561060114239806,1.0000518600156965,0.0001217109128005447
-0.47550363957998343,-0.47550363957998343,1.0000206737231025,0.00012489854677580475
-0.4753660660353489,-0.4753660660353489,0.999927857022006,0.00012367199432461532
-0.475223139920854,-0.475223139920854,0.9998642562903474,0.0001259711240121474
-0.47516056106542237,-0.47516056106542237,0.9999296575211869,0.000121876630627337
-0.47511343015066815,-0.47511343015066815,0.9997335017310076,0.00013279916975777534
-0.4750413788366131,-0.4750413788366131,1.0000752288080577,0.00013314080468579552
-0.4749694995407481,-0.4749694995407481,1.0000741644937066,0.00013298927005975163
-0.47486085187701976,-0.47486085187701976,0.9998732673388876,0.00012199907018032297
-0.47474540341936516,-0.47474540341936516,1.0002809713641332,0.00013127876085763961
-0.4746504179754993,-0.4746504179754993,0.9998858816314993,0.00012663876462159338
-0.4745290179998847,-0.4745290179998847,1.0000181390344243,0.0001298523449869292
-0.4743729706737213,-0.4743729706737213,1.000007130050016,0.00012548551442252497
-0.4742012746020919,-0.4742012746020919,0.9998468179860083,0.00012237304139632994
-0.47411554180725946,-0.47411554180725946,0.9999630786835823,0.0001204689354425401
-0.4740258806879865,-0.4740258806879865,1.000030142259327,0.00012868696610899476
-0.47388551326002926,-0.47388551326002926,0.999729100351944,0.00012334118693887105
-0.47369497739418875,-0.47369497739418875,1.0001715377235705,0.00012191404513662546
-0.4735725475504296,-0.4735725475504296,1.0001305431250465,0.000120562710563062
-0.4734080028429162,-0.4734080028429162,1.0000743429291798,0.00012275859673531307
-0.4733141411765246,-0.4733141411765246,1.000144405650516,0.00012546579409201237
-0.47322028153866996,-0.47322028153866996,0.9999437660226702,0.00013504054839582008
-0.4731527276802808,-0.4731527276802808,0.9999912866904077,0.0001215852151212281
-0.47305825347139036,-0.47305825347139036,1.0000821376456748,0.00013096707213318084
-0.4729922718310263,-0.4729922718310263,0.9999706287976755,0.00012016347503479448
-0.47292895998689344,-0.47292895998689344,0.9999318121262497,0.00012074063586795117
-0.4728029369842261,-0.4728029369842261,1.000031886974178,0.00012213816307792355
-0.47263178558496294,-0.47263178558496294,1.0001739399128333,0.0001427981769886984
-0.47253362904011736,-0.47253362904011736,1.0000855575858063,0.000134889443310335
-0.4724640932981856,-0.4724640932981856,1.0001298994127494,0.00013186442695210842
-0.472315467504086,-0.472315467504086,0.9998129328531608,0.00012172788042536778
-0.47224846825993155,-0.47224846825993155,1.0001852215913782,0.0001251379577404654
-0.4721639337745728,-0.4721639337745728,0.999969621105959,0.0001251052359605917
-0.47204058211063965,-0.47204058211063965,0.9999673438115371,0.00012925517593182824
-0.4719120450608898,-0.4719120450608898,1.0000328919941246,0.00013189843794177565
