time,time,flux,flux_err
-0.49992873051693704,-0.49992873051693704,1.0000757215599816,0.00031550022351864275
-0.4997094804208852,-0.4997094804208852,1.0002798068862069,0.00031433602569649064
-0.49960970130559873,-0.49960970130559873,0.9998441692112638,0.0002903416404233284
-0.4995069777360186,-0.4995069777360186,1.0002276168778705,0.00029677063620695313
-0.49931434433019606,-0.49931434433019606,1.0001520669694912,0.00028910911127817413
-0.4991731816960964,-0.4991731816960964,1.0001292461054148,0.0002988328231166729
-0.49909777521970683,-0.49909777521970683,0.999962545737181,0.00027850308152906295
-0.4989643805238302,-0.4989643805238302,0.9998904272461848,0.0002827166735167258
-0.49882077389193,-0.49882077389193,1.0000364691910952,0.0002956065091744628
-0.49868401628627906,-0.49868401628627906,0.9999718458695239,0.0002719698575044393
-0.4984978283624514,-0.4984978283624514,1.0003572200285276,0.0002800396229207256
-0.49829354844187035,-0.49829354844187035,0.9995696721638463,0.0002818216304832662
-0.498113137242035,-0.498113137242035,0.9998632998031249,0.0002918071155323713
-0.4979740335489623,-0.4979740335489623,1.000177563688848,0.0002819732362625564
-0.49784351968264673,-0.49784351968264673,1.0000059527172482,0.0002793584637266129
-0.49768575464186143,-0.49768575464186143,0.9998881497484883,0.00028269027615312667
-0.4975153487677744,-0.4975153487677744,0.9998573193186591,0.00029852118729265014
-0.4974474365139031,-0.4974474365139031,1.0004164380965477,0.00030340228490264274
-0.4973227683563891,-0.4973227683563891,1.0001816338492928,0.000277108675628485
-0.49724402246720273,-0.49724402246720273,0.999876118434311,0.0003161140806440946
-0.49713483727537094,-0.49713483727537094,0.9999798389058118,0.00029347546544707803
-0.4970138349017361,-0.4970138349017361,1.0000029875140617,0.00028670574081287
-0.49689780417174917,-0.49689780417174917,1.0005728570501145,0.00028253191625811943
-0.4967581363882346,-0.4967581363882346,1.0003900087064894,0.0002887768752269848
-0.49670776436978487,-0.49670776436978487,0.9998437738134444,0.0002771771950785772
-0.49658781776743127,-0.49658781776743127,0.999734163584223,0.0002964587959681631
-0.496392502184608,-0.496392502184608,1.0001602235116622,0.00028879163945647014
-0.4962827663119242,-0.4962827663119242,0.9999219780710167,0.0002962167100642447
-0.49612505596887785,-0.49612505596887785,0.9999569350769683,0.00027708402439659426
-0.49599310096600674,-0.49599310096600674,0.9998167329718992,0.00028689935589912806
-0.49583129904567613,-0.49583129904567613,1.000118841052992,0.00027979991457170034
-0.49571816681491326,-0.49571816681491326,1.0001014086559192,0.0002749471745830331
-0.4954584075458115,-0.4954584075458115,1.0000751934462988,0.00028053277768256234
-0.49529599050802064,-0.49529599050802064,1.0000014531012626,0.00028498706842563007
-0.4951646020868793,-0.4951646020868793,0.9995935231950058,0.000274679840699325
-0.4950422893030918,-0.4950422893030918,0.9999854422427454,0.00029257424801877737
-0.49488381420451333,-0.49488381420451333,0.9998175650825866,0.0002896113496767711
-0.4947784018761013,-0.4947784018761013,0.9997287675848939,0.0002816605035824386
-0.49462083834587245,-0.49462083834587245,1.0001101282757587,0.00030088079533300297
-0.49455292623242714,-0.49455292623242714,0.9994719706446018,0.00030070316112094773
-0.49441547675596664,-0.49441547675596664,1.0003149969317713,0.00030921636691440724
-0.4943589365444495,-0.4943589365444495,0.999977556757832,0.0002930185999628626
-0.4942592403036542,-0.4942592403036542,1.0002010025052552,0.0002824807613650132
-0.49415379648417,-0.49415379648417,1.00028823802072,0.0002874263334929517
-0.4939908833512163,-0.4939908833512163,0.9997935091520599,0.0002703112146501538
-0.4938646507354861,-0.4938646507354861,1.0001984654146836,0.00028479927803688157
-0.4937650718333316,-0.4937650718333316,1.0001400387577803,0.0002855543142661853
-0.49358290564632623,-0.49358290564632623,0.9998374057308528,0.0002898872591603158
-0.49344972119797603,-0.49344972119797603,1.0000648302020287,0.00031087574654076693
-0.4933766583788383,-0.4933766583788383,1.0002128210424241,0.00028218079671604414
-0.49320307676825903,-0.49320307676825903,1.000584209650053,0.000282555890572062
-0.4930221441522008,-0.4930221441522008,0.9999098254827506,0.0002728609551146015
-0.4928681481127569,-0.4928681481127569,1.0001093116527549,0.00028411554437194123
-0.49261955460824536,-0.49261955460824536,0.9999687565032538,0.0002744981305464446
-0.4924792819278082,-0.4924792819278082,0.9999931179450188,0.0002873510860842091
-0.4922829522634856,-0.4922829522634856,0.9997917350134997,0.0002756935796696037
-0.4921595704850915,-0.4921595704850915,0.9999226382460776,0.0002924359499641088
-0.49198698254986084,-0.49198698254986084,1.0000726651897542,0.0002736659226896422
-0.49188582250062607,-0.49188582250062607,1.0003916039132768,0.00028975763992314456
-0.49175796368072044,-0.49175796368072044,0.9997065999660901,0.00028182159898132084
-0.4916952517283789,-0.4916952517283789,0.9999817474190976,0.00031593788585441545
-0.49157802680419993,-0.49157802680419993,0.9998660223883322,0.00027761762247458964
-0.49148352456104477,-0.49148352456104477,0.9997945961109803,0.0003180515949028774
-0.49139068331351154,-0.49139068331351154,0.9999300330103156,0.0002887938209135978
-0.4912639445217792,-0.4912639445217792,1.0004185079750845,0.00029334963156488035
-0.4911179984548653,-0.4911179984548653,1.0002371879159653,0.00026347305665183493
-0.49099293858307647,-0.49099293858307647,1.0000744315319585,0.0002830536389571623
-0.49089488222452926,-0.49089488222452926,0.9999093833220691,0.00027622051805280067
-0.4907317914890882,-0.4907317914890882,0.9996299256879665,0.0002831709127482323
-0.49064597490505546,-0.49064597490505546,1.0001527059248454,0.00029975815728202395
-0.49054893552529394,-0.49054893552529394,1.0000558603896954,0.00028891223376281894
-0.49046143343075527,-0.49046143343075527,0.9999651921766779,0.00028082226187708346
-0.4903533057273307,-0.4903533057273307,1.0000786294697677,0.00027565263926271203
-0.4902140576290549,-0.4902140576290549,1.0000306545120727,0.0002804205412895501
-0.4900427497719647,-0.4900427497719647,1.0002320059643914,0.0002716564183318505
-0.48975721974420594,-0.48975721974420594,1.0002935717667856,0.0002887904077384835
-0.4895902718322759,-0.4895902718322759,0.999682078245038,0.00026882719093094414
-0.48944373202321,-0.48944373202321,0.9995642543377148,0.00028442860964609856
-0.48932011628567124,-0.48932011628567124,1.0000348100338567,0.0002920827601965453
-0.48922683996570415,-0.48922683996570415,1.0000607389681866,0.0002701651716917869
-0.4891092346988444,-0.4891092346988444,0.9997443704992012,0.0002738881784443902
-0.4890139238414122,-0.4890139238414122,0.9996148510481401,0.0002856058498776048
-0.48888410582949293,-0.48888410582949293,1.000253319016689,0.00028182120792111346
-0.4888131069586962,-0.4888131069586962,0.9996615842857433,0.000317153295786308
-0.4886896483396413,-0.4886896483396413,1.0002508023001107,0.0002849223508304232
-0.4885732593516877,-0.4885732593516877,0.999925247577371,0.00030287691229544144
-0.4884456427891564,-0.4884456427891564,0.9996016593857178,0.0002702593448782436
-0.4883042505302001,-0.4883042505302001,0.9998797261775199,0.00028279023214570185
-0.4881741260898707,-0.4881741260898707,0.9997199012058816,0.0002663809065598839
-0.4880891558197618,-0.4880891558197618,0.9997531129527898,0.0002869103217419814
-0.4879728190760943,-0.4879728190760943,0.9997748276227553,0.00028662068340292585
-0.48782363599384554,-0.48782363599384554,0.9999601934108625,0.0002918198607132439
-0.4876963868009625,-0.4876963868009625,1.0001087846216499,0.0003005748387165661
-0.487603682516783,-0.487603682516783,0.9999216563075803,0.00028008041967896133
-0.487510634213686,-0.487510634213686,0.9999072655085677,0.000281062738626035
-0.4873899503494613,-0.4873899503494613,1.0000276802788572,0.00028329776528920295
-0.4871980995601916,-0.4871980995601916,1.0004216087244135,0.00026995109195209437
-0.4869118324764713,-0.4869118324764713,0.9999830895362845,0.0002883565687049962
-0.48673743715480666,-0.48673743715480666,1.0002246840825901,0.00027561426877037974
-0.4866317337924556,-0.4866317337924556,1.0003087930308516,0.00029474715321872616
-0.48651418809604363,-0.48651418809604363,1.000346627309579,0.0002759970630451125
-0.4864058975748776,-0.4864058975748776,1.0000334798491866,0.00029339655097441173
-0.4863589498287183,-0.4863589498287183,1.000130981070749,0.0002794242797080489
-0.48626552143323354,-0.48626552143323354,0.9998601887967441,0.0002932048311114773
-0.4861686465636012,-0.4861686465636012,0.9998191483529342,0.00028223054287817006
-0.48602675097135944,-0.48602675097135944,1.0002302603824471,0.0002813497778516226
-0.4859190735238371,-0.4859190735238371,1.0004237294063407,0.00031438029645687864
-0.4857795707852347,-0.4857795707852347,1.0001344203388463,0.0002932585931020221
-0.48566623794686165,-0.48566623794686165,0.999936788165698,0.0002936398776116842
-0.48551634425966766,-0.48551634425966766,0.9999768759968468,0.00028505829291450497
-0.4853484264713188,-0.4853484264713188,0.9998957528706919,0.0002595980111310432
-0.4852550813513517,-0.4852550813513517,0.9999649151222046,0.00028338262102447294
-0.4851955647493014,-0.4851955647493014,0.9998516320885237,0.0002714971922593919
-0.4850266350207676,-0.4850266350207676,0.9999646175061532,0.0002822360443296533
-0.4849163275684987,-0.4849163275684987,0.9999392305212599,0.0003049790835181048
-0.4847999364188581,-0.4847999364188581,1.0002997425824556,0.00029765310903392104
-0.48471595075461665,-0.48471595075461665,1.0000069812946557,0.000274387621554243
-0.48460994756751463,-0.48460994756751463,0.9997382576595972,0.0002804572379386171
-0.4844218262711365,-0.4844218262711365,1.0000345882517583,0.0002804819054631345
-0.4841808434597624,-0.4841808434597624,0.9998935090547121,0.0002796996411929008
-0.4839106189101585,-0.4839106189101585,1.0000419783642251,0.00028430788748674184
-0.4837882944528246,-0.4837882944528246,0.9999587304600416,0.00026621207863699117
-0.4835960208314646,-0.4835960208314646,1.0001565105801986,0.00029030770655371014
-0.4835139083021204,-0.4835139083021204,0.9997615012464994,0.00028620648380209756
-0.48346424401024707,-0.48346424401024707,0.9998880827060047,0.00028793831149125576
-0.48337422912372857,-0.48337422912372857,0.9999030833626268,0.0002838656626099446
-0.4831998020650644,-0.4831998020650644,1.0005457330328862,0.00028023557117948407
-0.4830665794404922,-0.4830665794404922,0.9999124384660856,0.00032017121550003894
-0.48293599238313617,-0.48293599238313617,1.0001577696239752,0.0002855803001830078
-0.4828088100948662,-0.4828088100948662,1.000227066886448,0.00030092984435527273
-0.4826615818761638,-0.4826615818761638,1.0001339218504186,0.00027004759197826446
-0.48247677901017594,-0.48247677901017594,1.0001507163177776,0.00026898071305992766
-0.4823644874872116,-0.4823644874872116,0.9996105988965723,0.0002834262237957179
-0.4823053262043686,-0.4823053262043686,1.0001786685343448,0.0002820981847975096
-0.4821089968900196,-0.4821089968900196,0.9997535843529157,0.0002798751293557226
-0.4819827009428991,-0.4819827009428991,1.0003106267092823,0.0002911946085267011
-0.4819063171322341,-0.4819063171322341,1.0008050930724401,0.00028612892478481103
-0.4818316776298161,-0.4818316776298161,0.9998270376203987,0.00028207161752608756
-0.4816990306680964,-0.4816990306680964,0.9995875797630853,0.00026988321265104364
-0.48153873622432003,-0.48153873622432003,0.9998490324961017,0.000292296303204069
-0.48141265211015705,-0.48141265211015705,1.0001450209762406,0.00027168617175646006
-0.481209816577757,-0.481209816577757,1.0000692808254334,0.00029462815255253534
-0.48102439738286196,-0.48102439738286196,1.0001525844995423,0.0002811957624272928
-0.48095663370404507,-0.48095663370404507,0.9998111313446169,0.00026668828853863657
-0.48082600639463635,-0.48082600639463635,1.0004988579759126,0.0002894183016897265
-0.4807167912607838,-0.4807167912607838,0.9999042507133339,0.00027653548901842656
-0.4806599314128107,-0.4806599314128107,0.9999751869860362,0.00028684479387907963
-0.4806045738361718,-0.4806045738361718,0.9997596531466639,0.0002867228706898182
-0.48053223504466586,-0.48053223504466586,0.9998389321098472,0.00029265192208616887
-0.48036291126772995,-0.48036291126772995,0.9999288897323609,0.0002879347429523147
-0.4802109567724983,-0.4802109567724983,0.9998045464286441,0.0003034199926186769
-0.4800670887409069,-0.4800670887409069,0.9999891312025391,0.0003001648208197267
-0.4798852343315957,-0.4798852343315957,0.9996087358568049,0.0002856466171201195
-0.479708529986965,-0.479708529986965,0.9996727779673733,0.0002692494755145053
-0.4795712506835116,-0.4795712506835116,0.9996112328200019,0.0002661565612761152
-0.4794601047193282,-0.4794601047193282,0.999923084519823,0.0002732537740607457
-0.479369763257273,-0.479369763257273,1.0004114077262154,0.0002909911259420943
-0.4791939837450627,-0.4791939837450627,0.9994557841267842,0.00028347595697642307
-0.47910182465057005,-0.47910182465057005,0.9997060565587554,0.0003047285728266297
-0.4789949718724529,-0.4789949718724529,1.0002453050002114,0.0002838668415060991
-0.4788852873214637,-0.4788852873214637,1.0000863161144256,0.00026922398284733105
-0.47874839158903343,-0.47874839158903343,1.0000642563540576,0.00028817143889226817
-0.4786005636320624,-0.4786005636320624,1.0003740250459296,0.00028660977851686855
-0.4784280297659279,-0.4784280297659279,1.0003099742020662,0.0002896783797562767
-0.4782103502097016,-0.4782103502097016,0.9998157002284831,0.0002798838097446979
-0.47812252957664897,-0.47812252957664897,1.0002460784040634,0.0002849560390975767
-0.47799593729068873,-0.47799593729068873,0.9996398878576624,0.0002753490006764493
-0.477831760369736,-0.477831760369736,0.9997339121875488,0.0002871384604879273
-0.47778065827369576,-0.47778065827369576,1.0002094126181638,0.0002954788249396294
-0.4777051508426666,-0.4777051508426666,1.0003532379044464,0.0002841509512632811
-0.4775967786248657,-0.4775967786248657,0.9995034264738273,0.0002882879905340155
-0.4774199869687436,-0.4774199869687436,1.0001254912146615,0.0002804438622684995
-0.4772734475773177,-0.4772734475773177,1.0004073187386324,0.000320667912625713
-0.47712013756099625,-0.47712013756099625,1.0002855566624607,0.0002891785450091727
-0.47691709991704556,-0.47691709991704556,0.9999013833450474,0.00028407845667121685
-0.47669739285629475,-0.47669739285629475,0.999574278740708,0.00026577511258988695
-0.47660123715540975,-0.47660123715540975,1.0002629540880923,0.00027114007030469036
-0.47651914768866843,-0.47651914768866843,0.9998577156980746,0.00029351937874338605
-0.4763378795454628,-0.4763378795454628,0.9997193127132856,0.00028730619454414325
-0.47622777712385866,-0.47622777712385866,1.0000600270704276,0.00030011205008759315
-0.47614120123544124,-0.47614120123544124,1.0000014673711868,0.0002803758901450971
-0.4760383256441855,-0.4760383256441855,1.0005967061933383,0.0002785575745492009
-0.47592528257519007,-0.47592528257519007,1.0003400774469218,0.0002815081945089396
-0.47578605317612527,-0.47578605317612527,0.9998564139173853,0.00028795346324466157
-0.47571186577915797,-0.47571186577915797,1.0000185006715623,0.0002822202265172965
-0.47552567911188814,-0.47552567911188814,0.9998842261904883,0.000298951248376753
-0.47531263698692783,-0.47531263698692783,0.9997334557547142,0.00026773181863547007
-0.4751959687833732,-0.4751959687833732,1.0003592035361168,0.00028402272494608915
-0.4749690434182412,-0.4749690434182412,0.9998957249364515,0.0002886365671844843
-0.4748800148328883,-0.4748800148328883,0.9998524101117535,0.0002907008530162498
-0.4748032320756465,-0.4748032320756465,0.9997013746916847,0.0002879967849182145
-0.4746076540701324,-0.4746076540701324,1.0000971365473625,0.00027956774896132703
-0.4744509067357285,-0.4744509067357285,1.0002265434004336,0.00031028938149320676
-0.47432409378379814,-0.47432409378379814,1.0002828317791672,0.00032772717144058264
-0.4741210969419626,-0.4741210969419626,0.9995869410107467,0.00028531899650387465
-0.4739128329172672,-0.4739128329172672,0.9998495513209396,0.0002732869118341894
-0.47381257169327,-0.47381257169327,0.9995535463509068,0.00026388139763394226
-0.4737337473779917,-0.4737337473779917,1.0002801301233617,0.00027112016678354473
-0.47365906657796586,-0.47365906657796586,1.0003086128727867,0.00029399841060416597
-0.4735421502031386,-0.4735421502031386,0.999863107279082,0.00027118693306007867
-0.47339870573268855,-0.47339870573268855,1.0001529283014683,0.0003012474064104063
-0.4732623339761631,-0.4732623339761631,1.000160634503275,0.0002901886020652265
-0.4731535720413376,-0.4731535720413376,1.0003003616491306,0.0002732237503360881
-0.4729806498391554,-0.4729806498391554,0.9999801830551321,0.00029566292986612114
-0.47286383397731696,-0.47286383397731696,1.0001734132556948,0.0002801851199874661
-0.4727266870882886,-0.4727266870882886,0.9998312784506892,0.00029925660806201244
-0.4725364903235459,-0.4725364903235459,1.0002080293133073,0.0002877542401303267
-0.47237246376462283,-0.47237246376462283,1.000072261675288,0.00028202376353302463
-0.472211286512902,-0.472211286512902,1.0003066058396426,0.00027947177847181907
-0.4720293143298477,-0.4720293143298477,0.9997725943522664,0.00028724831193589534
-0.4719376852553978,-0.4719376852553978,0.9998637176520132,0.0002823587385058829
-0.4717607395250525,-0.4717607395250525,1.0001917991729847,0.0002899718307190036
-0.4716420549339091,-0.4716420549339091,1.0000174394306087,0.0002903777791463414
-0.4715019557392225,-0.4715019557392225,1.0001752218858866,0.0002984048781349025
-0.47142186818527987,-0.47142186818527987,0.9999180682231408,0.00031747700254595827
-0.4712684476842696,-0.4712684476842696,0.9999745302256109,0.0002892994955896646
-0.4710532077617245,-0.4710532077617245,1.0002068549027368,0.0002768785588145809
-0.4709280006973131,-0.4709280006973131,1.0001619298367803,0.00027534103783902436
-0.47085757808890777,-0.47085757808890777,1.000019310463093,0.0002710954859702886
-0.470776539358485,-0.470776539358485,1.00001971226636,0.00029413703768235765
-0.4706705589451303,-0.4706705589451303,0.9997060087169413,0.0002755175395942328
-0.47053100790362806,-0.47053100790362806,0.9999001143752443,0.00029265466367727643
-0.4704060296273383,-0.4704060296273383,0.9998818778550905,0.00029161814930254445
-0.4702988559474761,-0.4702988559474761,0.9997682029677867,0.00027935035762634703
-0.470211159993778,-0.470211159993778,1.0001060983886885,0.0002806401417450019
-0.4700417947264214,-0.4700417947264214,0.9997081373501759,0.0002821008112572869
-0.4699637898644141,-0.4699637898644141,0.9995210885101601,0.0002729002405579747
-0.4697669360721193,-0.4697669360721193,0.9997752006481739,0.00030814187366582236
-0.4695912222581683,-0.4695912222581683,0.9997755563086278,0.0002757076280662461
-0.46946371572703355,-0.46946371572703355,1.0000339911367528,0.00028658664399426966
-0.4693148659542203,-0.4693148659542203,0.9999336957413476,0.00028400548346436407
-0.46917222054617014,-0.46917222054617014,0.9998227525226053,0.0002930655086906182
-0.4690881730784895,-0.4690881730784895,1.0000181272832358,0.00028318652286115785
-0.4689841522522329,-0.4689841522522329,0.9999755323446371,0.0002733090747723033
-0.46886575935059227,-0.46886575935059227,1.0000095441745755,0.0002809367101215208
-0.46872624726674983,-0.46872624726674983,0.9998756235611188,0.0003034624715248405
-0.46855538863819673,-0.46855538863819673,0.99973115054498,0.00029544598251004796
-0.4683603952631529,-0.4683603952631529,0.9997270125358618,0.00028907337232076085
-0.46817205080515123,-0.46817205080515123,1.000458885027919,0.00027657404369470847
-0.4680480376446212,-0.4680480376446212,0.9997158229342158,0.0002726443123092255
-0.46798233998342764,-0.46798233998342764,1.0001834008089312,0.0002710757882946428
-0.46789306623322774,-0.46789306623322774,0.9997639239342068,0.0002945923601729255
-0.46776848942536164,-0.46776848942536164,0.9997316269830103,0.0002693853215215319
