time,time,flux,flux_err
-0.4992525643190125,-0.4992525643190125,1.0000137175620791,0.0002537401381905819
-0.49781285605922204,-0.49781285605922204,1.000073065526628,0.00024905098338314017
-0.4964531729131522,-0.4964531729131522,1.0000323943201674,0.00023376232141403492
-0.4952094433072546,-0.4952094433072546,1.0000181192185669,0.00022619667258723728
-0.49399954593776557,-0.49399954593776557,1.000364851013322,0.0002260266051446719
-0.4928021049640279,-0.4928021049640279,0.9999747185278102,0.00022853063188352498
-0.49155735393531474,-0.49155735393531474,0.9996024540933848,0.000232147777575543
-0.4903136544402059,-0.4903136544402059,0.9998923836736987,0.0002252229334390822
-0.48910373568189697,-0.48910373568189697,1.000210984064877,0.00022505360888994716
-0.4879063066317769,-0.4879063066317769,1.000284699436121,0.000227425497898351
-0.48666153508616505,-0.48666153508616505,1.000286392503662,0.00023057089703359734
-0.48541786576751067,-0.48541786576751067,0.999984969716883,0.00022433462292767821
-0.48420792561507825,-0.48420792561507825,0.9995094292848481,0.0002241767657427435
-0.4830105084518436,-0.4830105084518436,0.9998838777832632,0.00022633828371777746
-0.4817657163551871,-0.4817657163551871,1.0000214171662365,0.00022901654962402388
-0.48052207730490293,-0.48052207730490293,1.000289416312923,0.00022352874148585353
-0.4793121157505368,-0.4793121157505368,1.000260324709145,0.0002233249371955686
-0.47811471042426773,-0.47811471042426773,1.0001412053764964,0.00022536239239405952
-0.4768698977686995,-0.4768698977686995,1.0000418440012915,0.00022763046047339042
-0.4756262890445157,-0.4756262890445157,0.9997812032560434,0.00022278678731183906
-0.4744163060987205,-0.4744163060987205,0.9998049319495028,0.00022261632711617456
-0.47321891255421067,-0.47321891255421067,0.9998790505713805,0.0002245109666302786
-0.4719740793187327,-0.4719740793187327,1.000102137061256,0.00022648281639783607
-0.4707305010047378,-0.4707305010047378,1.0002166531147996,0.00022217563041422526
-0.46951266348979176,-0.46951266348979176,1.0001438093774808,0.00022201306043505756
-0.4682839490370668,-0.4682839490370668,0.9999914355430859,0.00022381194536338656
-0.46703909520851994,-0.46703909520851994,1.0002036812641732,0.00022557011782208753
-0.46576051247087663,-0.46576051247087663,0.9998872434673445,0.00022162052632660714
-0.46458139068644755,-0.46458139068644755,0.9999192179797877,0.00022146195127469535
-0.4633881515032215,-0.4633881515032215,0.9998288867794113,0.00022314285110019188
-0.46214327705271785,-0.46214327705271785,1.000180040640463,0.00022477820804016557
-0.46086470338628943,-0.46086470338628943,1.0001832824208234,0.00022115587730455935
-0.459685603132516,-0.459685603132516,1.0000593711979338,0.00022094838182210708
-0.4584923541374735,-0.4584923541374735,1.0000937377454917,0.0002225095455198992
-0.4572474590492277,-0.4572474590492277,1.0000246167523643,0.00022406155917990508
-0.45596889453548217,-0.45596889453548217,0.9998914993398313,0.00022073853197865338
-0.4547898158097098,-0.4547898158097098,1.0001761753349838,0.00022059264655738356
-0.45359655693981155,-0.45359655693981155,1.0003105641260241,0.0002221287489278533
-0.4523516412138463,-0.4523516412138463,0.9998615313996156,0.00022345357687330924
-0.4510730858999977,-0.4510730858999977,1.0005900557176155,0.00022044023847754064
-0.44989402870228334,-0.44989402870228334,0.9995292880732057,0.00022027810794290553
-0.4487007599259698,-0.4487007599259698,0.9996923308579525,0.00022168495121486213
-0.447455823528162,-0.447455823528162,0.9999622816724351,0.0002227802730274193
-0.4461772774851397,-0.4461772774851397,1.0004022466974907,0.00021998665106779834
-0.44499824182594805,-0.44499824182594805,0.99960956270459,0.00021994145843356273
-0.4437892967824325,-0.4437892967824325,1.0002886417741546,0.00022116468365080037
-0.4425208402189014,-0.4425208402189014,1.000094936294168,0.00022209968291485332
-0.44124230349924576,-0.44124230349924576,0.9998978955411338,0.00021969016566507877
-0.4400449889298102,-0.4400449889298102,0.9997949439885778,0.0002207947655477686
-0.4388491353153029,-0.4388491353153029,1.0003871506444308,0.0002194503700551611
-0.43762502287989946,-0.43762502287989946,0.9998137639131673,0.00022152310279683474
-0.43634649553874283,-0.43634649553874283,1.0000232143058287,0.00021927707753011181
-0.4351491924202605,-0.4351491924202605,0.9999575727372385,0.0002205416987292702
-0.4339533489694759,-0.4339533489694759,1.000122154351884,0.00021916819345829675
-0.43272920571160967,-0.43272920571160967,1.0001058775293152,0.00022102242729328054
-0.43145068782773704,-0.43145068782773704,0.9996398553816608,0.00021903515114413838
-0.4302533960970948,-0.4302533960970948,0.9999467338874407,0.00022025746177342095
-0.4290575628521481,-0.4290575628521481,1.0000381685301087,0.00021893420462499748
-0.42783338871659,-0.42783338871659,0.9999701970503256,0.00022067353307011047
-0.4265548803373747,-0.4265548803373747,1.0002190251093626,0.0002188229781807718
-0.42535759997618927,-0.42535759997618927,1.0000191769411173,0.0002200063398016939
-0.42416177696857743,-0.42416177696857743,1.0000625507396905,0.0002187340235695165
-0.4229375719002178,-0.4229375719002178,0.9997851454716986,0.00022049501320722912
-0.42165907309387196,-0.42165907309387196,0.9999832325480711,0.00021880337214014978
-0.4204618040417472,-0.4204618040417472,1.0003175516850074,0.00021998184129920256
-0.41926599135285303,-0.41926599135285303,0.9998031173151889,0.00021867291986320107
-0.4180417552755671,-0.4180417552755671,0.9999632080993013,0.00022037400543200268
-0.4167632660920333,-0.4167632660920333,1.0001778458381327,0.00021872924930343833
-0.4155660083095711,-0.4155660083095711,0.999943865651111,0.0002198732487233223
-0.4143467064954166,-0.4143467064954166,0.9996498800153703,0.00021858718691793993
-0.4131067730720076,-0.4131067730720076,1.000111725096722,0.00022014577317729225
-0.41182829355061584,-0.41182829355061584,1.000236067156,0.00021867692023586448
-0.4106310470037101,-0.4106310470037101,1.0002151923381546,0.00021970022864964953
-0.4093960892788516,-0.4093960892788516,0.9998865500539267,0.00021853427714319074
-0.40821095682816805,-0.40821095682816805,0.9996577626411545,0.00022002874487945975
-0.4069324870293258,-0.4069324870293258,1.0001696638609059,0.00021850418986007718
-0.4057352516891058,-0.4057352516891058,1.000025068441508,0.00021951792533618698
-0.4044924712548948,-0.4044924712548948,1.0002115084057739,0.0002184785430033386
-0.40327597501062085,-0.40327597501062085,1.0001731085708898,0.0002199312896492216
-0.40199751499474135,-0.40199751499474135,0.9999076711323782,0.00021844548670315965
-0.40080029080085067,-0.40080029080085067,1.000182929202577,0.0002194540589781239
-0.3995551511560336,-0.3995551511560336,0.9998553567432353,0.00021985020388735356
-0.39835119624950155,-0.39835119624950155,1.000089507042987,0.00021844679272131563
-0.39710170898819114,-0.39710170898819114,1.0002886571900855,0.0002184829095710552
-0.39590449590643856,-0.39590449590643856,0.9998722143783156,0.00021935283594331579
-0.39465933545317855,-0.39465933545317855,1.0000139047879533,0.000219771139260485
-0.3934554119495715,-0.3934554119495715,0.9998676833021755,0.0002182987932406257
-0.39220590322855176,-0.39220590322855176,1.00025866452152,0.0002183264024389375
-0.3910087012299755,-0.3910087012299755,1.0000805242056174,0.00021928605454921875
-0.389763519952578,-0.389763519952578,0.9999258578420719,0.00021958873377212309
-0.38855962791229215,-0.38855962791229215,1.0001750611679767,0.0002182533816319855
-0.3870362295254381,-0.3870362295254381,1.0000126446121684,0.00021842436874350187
-0.385721240299182,-0.385721240299182,1.000040978982801,0.0002191999326438936
-0.38452550187682843,-0.38452550187682843,0.9999011032153984,0.000218111660449399
-0.38296421056976443,-0.38296421056976443,1.0001611816675262,0.00021923576101408681
-0.3817262716565722,-0.3817262716565722,0.9999597178902822,0.0002190320969605852
-0.3805305417670525,-0.3805305417670525,1.0001146445008788,0.0002180412146218544
-0.3791885583863291,-0.3791885583863291,0.999538644035816,0.0002190913854804801
-0.37800546947710245,-0.37800546947710245,0.9998704530460849,0.00021903270901426375
-0.3768134894337152,-0.3768134894337152,1.000094698811287,0.00021797652232297964
-0.37563475843887206,-0.37563475843887206,1.0000713918766682,0.00021798375651375796
-0.3742927435527747,-0.3742927435527747,1.0000414763624632,0.00021893710261230675
-0.3731096755990393,-0.3731096755990393,1.0001784162304772,0.00021886879786578426
-0.37191768476135395,-0.37191768476135395,0.9998985023914925,0.00021796806024131015
-0.37073897537330824,-0.37073897537330824,0.9999634410937448,0.000217967421972081
-0.36939692892931364,-0.36939692892931364,0.9998235620332341,0.00021884432184040707
-0.3682138819416025,-0.3682138819416025,1.000040630252309,0.0002187736263852965
-0.3670218803437251,-0.3670218803437251,0.9998409488996447,0.00021779101567596503
-0.365843192588801,-0.365843192588801,1.0001484659607254,0.00021775999902465536
-0.3645011145422643,-0.3645011145422643,0.9998662146669579,0.00021870634245975428
-0.363318088510033,-0.363318088510033,1.0001610704542963,0.00021865095692772773
-0.3621260761992005,-0.3621260761992005,1.000129214812755,0.00021777458439807985
-0.36094741006684217,-0.36094741006684217,1.0002726538028945,0.00021782096918316355
-0.35960530036008437,-0.35960530036008437,1.0001184658804951,0.0002186044063967182
-0.35842229532531744,-0.35842229532531744,0.9999408590379824,0.00021855786702937858
-0.35723027233049154,-0.35723027233049154,1.0000007411714749,0.0002176113844973812
-0.35605162783903666,-0.35605162783903666,0.9998965243450997,0.00021768773281205427
-0.3547094864168912,-0.3547094864168912,0.9995337807557837,0.00021845860742038297
-0.35352650234547695,-0.35352650234547695,1.000011981761814,0.00021842609349917306
-0.3523344687322833,-0.3523344687322833,1.0004003463171116,0.0002176646009603195
-0.3511558458844434,-0.3511558458844434,1.0000837621840546,0.0002176050745864422
-0.34981367268643454,-0.34981367268643454,1.0003850541360175,0.00021838837841746866
-0.34863070962045983,-0.34863070962045983,1.0000246183638901,0.000218299370968323
-0.34743866541771806,-0.34743866541771806,0.999907640864888,0.00021761308038953497
-0.346260064218734,-0.346260064218734,0.9998980032199208,0.0002175098013143372
-0.34491785920016016,-0.34491785920016016,0.9998452453009936,0.00021831236271234092
-0.3437349171395795,-0.3437349171395795,1.000015860511232,0.00021833498263685745
-0.34254286237368203,-0.34254286237368203,1.0001229023657232,0.0002175232253510282
-0.34136428283923126,-0.34136428283923126,1.000143277150216,0.00021750680716618097
-0.34002204593975305,-0.34002204593975305,0.999804556931057,0.0002181634058632803
-0.3388391248924904,-0.3388391248924904,0.999941735154587,0.00021820174068247475
-0.33764705963162667,-0.33764705963162667,1.0001423464598214,0.00021746713827410055
-0.3364685017539216,-0.3364685017539216,1.0001434731099217,0.00021742628024053762
-0.3351262329210044,-0.3351262329210044,0.99970381715192,0.00021805348556092156
-0.3339105820145619,-0.3339105820145619,1.000190947708946,0.00021743970835240174
-0.3327085417750311,-0.3327085417750311,0.999874395930455,0.00021739139775056246
-0.33151502223167884,-0.33151502223167884,1.0002149167019152,0.00021818535667493497
-0.3301912539636135,-0.3301912539636135,1.0000948982152948,0.00021796672910263237
-0.32899128007272793,-0.32899128007272793,0.999854750847977,0.00021735174213865718
-0.3278127612149717,-0.3278127612149717,0.9999447980171254,0.00021731731455132338
-0.326619230617581,-0.326619230617581,0.9995256624829306,0.000218096719643441
-0.32529544142811345,-0.32529544142811345,1.0002269154343877,0.00021792768009905875
-0.324095478116044,-0.324095478116044,1.0003825699642552,0.0002174066016158401
-0.32291698094903154,-0.32291698094903154,1.000056631225086,0.0002173390887362507
-0.32170777278445256,-0.32170777278445256,0.9998942939490849,0.0002179759444654957
-0.3203604629696031,-0.3203604629696031,1.000129786779715,0.0002178617326238305
-0.31916051029406844,-0.31916051029406844,0.9997773796882221,0.00021723439403699042
-0.3179820348127123,-0.3179820348127123,0.9994486974485147,0.00021719482768603455
-0.3167493158059642,-0.3167493158059642,1.0002608373492277,0.00021791456921954128
-0.31546465091992104,-0.31546465091992104,1.0001907156433867,0.00021778797508996054
-0.31426470893346165,-0.31426470893346165,1.0004380524247964,0.00021723779575332527
-0.3130862551587029,-0.3130862551587029,0.9995688599467851,0.00021718967404631392
-0.31185352495603524,-0.31185352495603524,1.0002879824500082,0.0002178429605395373
-0.31056883913028627,-0.31056883913028627,1.0001955700511216,0.00021767327991898422
-0.30936890787223775,-0.30936890787223775,1.0000174306949559,0.00021712244397475056
-0.3081904758198334,-0.3081904758198334,0.9995636594561151,0.00021711196461650451
-0.3069577343582523,-0.3069577343582523,1.0001739736648134,0.0002178721754541321
-0.3056730275902055,-0.3056730275902055,0.9998075064604401,0.0002176080028743768
-0.3044731071025922,-0.3044731071025922,1.0001531184343535,0.00021713906839085215
-0.3032946967777832,-0.3032946967777832,0.9999159679907674,0.00021718208338774566
-0.30206194402310305,-0.30206194402310305,0.9999747673733296,0.00021781141507168982
-0.30077721630480597,-0.30077721630480597,0.9999976299021218,0.00021758533857442488
-0.29957730664542626,-0.29957730664542626,1.0001997965456098,0.00021712194822186642
-0.298398918042983,-0.298398918042983,1.000003497948385,0.00021705998795471348
-0.2971661539637239,-0.2971661539637239,1.0002461746019042,0.00021774275615739236
-0.29588140527148427,-0.29588140527148427,1.0000193098113948,0.00021746824956276473
-0.2946815064955331,-0.2946815064955331,0.999854358121609,0.00021710796421623417
-0.2935031396338843,-0.2935031396338843,0.9998683717198368,0.00021699961684396003
-0.29227036416170904,-0.29227036416170904,0.9998158659663655,0.00021765900836340175
-0.29098559450608263,-0.29098559450608263,1.000160328429371,0.00021736258975663128
-0.2897857066529127,-0.2897857066529127,1.0001302721310075,0.00021708582452688495
-0.2886073615451153,-0.2886073615451153,0.9998365671429802,0.00021703136681759351
-0.28733540806385915,-0.28733540806385915,1.0001439671719754,0.00021767970130374533
-0.286050617439696,-0.286050617439696,1.0000594511099135,0.0002172851953911219
-0.2848474055525969,-0.2848474055525969,1.0000539174966163,0.00021693654775919042
-0.283636585663902,-0.283636585663902,0.9997437858742915,0.00021688158308776144
-0.28243961881342444,-0.28243961881342444,0.9999809148142698,0.00021759859489061694
-0.28115480720748565,-0.28115480720748565,0.9999929563578078,0.00021726582211095436
-0.27995162803381957,-0.27995162803381957,1.0000024785449764,0.00021694300263479203
-0.27874078654086815,-0.27874078654086815,1.0003221016578476,0.0002169212283434589
-0.27754382983078474,-0.27754382983078474,1.0003000639533544,0.00021753069857574208
-0.27625899724832265,-0.27625899724832265,0.9998940918705482,0.00021721608844638314
-0.27505585083802087,-0.27505585083802087,1.000040341789596,0.00021693046953655224
-0.27384498773045607,-0.27384498773045607,0.9999060810254214,0.00021702744784995307
-0.27264804112656976,-0.27264804112656976,0.9996314443782787,0.00021750953537349291
-0.2713631875570627,-0.2713631875570627,0.9995803589207239,0.00021724057321415559
-0.27016007397839414,-0.27016007397839414,1.000350921171526,0.00021697421885819392
-0.26894918924560896,-0.26894918924560896,1.000148273847091,0.00021683838152666734
-0.2677522527085728,-0.2677522527085728,1.0001351828225822,0.00021744195773106722
-0.2664438782092361,-0.2664438782092361,1.0000421313215722,0.00021716229857851122
-0.26513919051016616,-0.26513919051016616,0.9998937951284249,0.00021705784158130523
-0.2637557270410184,-0.2637557270410184,0.9998600816959067,0.00021678549088565568
-0.2624051661437079,-0.2624051661437079,1.0004156458323759,0.00021685154535314115
-0.2611799061065767,-0.2611799061065767,1.0000797833348267,0.00021710043562905916
-0.2599973240132158,-0.2599973240132158,1.0001270117013676,0.00021733104969655397
-0.25872676234944836,-0.25872676234944836,0.9997617782918017,0.0002167535197226302
-0.25743105707065295,-0.25743105707065295,0.9999596331578349,0.00021686401906129607
-0.25620576418617136,-0.25620576418617136,1.0000117026948323,0.0002171002321874037
-0.25502320324005723,-0.25502320324005723,0.9997056039597634,0.00021727373436365095
-0.2537526317904394,-0.2537526317904394,1.0001382996012782,0.0002166937030363633
-0.25253528143750825,-0.25253528143750825,0.99986353570951,0.00021677682197991012
-0.25130995565310743,-0.25130995565310743,1.000139937355191,0.0002170714127073608
-0.2501274158410524,-0.2501274158410524,1.0004026191035134,0.0002172776841218786
-0.24885683465819852,-0.24885683465819852,0.9996261082431961,0.00021668061577497167
-0.2476395061563494,-0.2476395061563494,0.9998492814452546,0.00021677228269898998
-0.24641414740115125,-0.24641414740115125,1.0000614321961794,0.0002169607654081702
-0.24523162873888965,-0.24523162873888965,1.0003339008857424,0.00021728321763155815
-0.24396103785946935,-0.24396103785946935,0.9999367608905161,0.000216757255311819
-0.24274373123754459,-0.24274373123754459,1.0002010120104952,0.0002167567365888409
-0.2415183394432404,-0.2415183394432404,0.9998432068067601,0.00021697192814381185
-0.24033584192823126,-0.24033584192823126,0.9997234309723719,0.0002172277986490809
-0.23906524140735427,-0.23906524140735427,1.000186937625617,0.00021674481268458843
-0.2378479566601186,-0.2378479566601186,1.0001886341783761,0.000216797058315151
-0.23662253177952267,-0.23662253177952267,0.9999714582900104,0.00021690615954856135
-0.23542438881196404,-0.23542438881196404,0.999688926937768,0.00021713248209220747
-0.23409111224814297,-0.23409111224814297,0.999903752255368,0.0002167172008756163
-0.23291301592624905,-0.23291301592624905,1.0002134153736597,0.0002167307101745021
-0.23168755787776263,-0.23168755787776263,1.0000899996684762,0.00021688069576161168
-0.23047376946821033,-0.23047376946821033,1.0000374098595186,0.00021711768652391434
-0.22915306291194498,-0.22915306291194498,1.0000437189810856,0.00021667820370551748
-0.22794199609158455,-0.22794199609158455,0.9999927491690264,0.00021664042253685347
-0.226752584296446,-0.226752584296446,0.9999860047798579,0.00021677506768157098
-0.2255701502677084,-0.2255701502677084,0.9999858794130512,0.00021708065888700897
-0.22425728935094186,-0.22425728935094186,0.9998462515856383,0.00021665221624013738
-0.2230462007871438,-0.2230462007871438,1.0002413612485408,0.00021667428579919953
-0.2218567775387669,-0.2218567775387669,1.0002054313871027,0.0002168032618192811
-0.22067436468616392,-0.22067436468616392,0.9997469586592205,0.00021704205644961
-0.2193615161576247,-0.2193615161576247,0.9996268999728599,0.0002166271151653935
-0.21815040585835277,-0.21815040585835277,0.999995998170785,0.00021665456750020405
-0.2169609710858083,-0.2169609710858083,1.0001683351313118,0.00021683439355910035
-0.21577857941448428,-0.21577857941448428,1.000020538055687,0.00021700860582873324
-0.21446574334514706,-0.21446574334514706,1.0003689594666823,0.00021665590799349396
-0.21325461128154188,-0.21325461128154188,1.0000728423031138,0.00021659755186515965
-0.21206516494271455,-0.21206516494271455,0.9999258950743612,0.00021669907436198168
-0.21088279444748537,-0.21088279444748537,1.0001418499128591,0.0002170424663367141
-0.2095699709134294,-0.2095699709134294,0.9996894534141341,0.0002165364395052552
-0.20835881707492376,-0.20835881707492376,0.9999909652423824,0.00021654058126940005
-0.20716935911475504,-0.20716935911475504,0.9999029586197032,0.0002166948244951707
-0.20598700981406068,-0.20598700981406068,1.0001921034799328,0.00021694133739651612
-0.2046741988678491,-0.2046741988678491,1.0004015064087364,0.0002166077011408942
-0.20346302322286647,-0.20346302322286647,0.9997270208456822,0.00021651070712122496
-0.20227355359672855,-0.20227355359672855,1.000080776546227,0.0002166661984206705
