time,time,flux,flux_err
-0.4985622828418855,-0.4985622828418855,1.000009530530506,7.309629342630744e-05
-0.49654947124654425,-0.49654947124654425,1.0000390924005882,7.309099427074354e-05
-0.4934702246100642,-0.4934702246100642,0.9999184596405598,7.309003971892988e-05
-0.49034571283264083,-0.49034571283264083,0.99987990054122,7.309540387712844e-05
-0.4886251065181568,-0.4886251065181568,0.9999505853112381,7.359799597850852e-05
-0.4873683645622805,-0.4873683645622805,1.000013935245174,7.309252738038639e-05
-0.4858515652042115,-0.4858515652042115,1.0000126004284096,7.316303557891951e-05
-0.48488040841766633,-0.48488040841766633,0.999923916829365,7.308998577076664e-05
-0.4834225825994508,-0.4834225825994508,0.9998819097418415,7.315210706068982e-05
-0.4826967519184109,-0.4826967519184109,0.9999775926832568,7.309002390225395e-05
-0.48111844559025485,-0.48111844559025485,1.0000428532397891,7.314140109710725e-05
-0.47998972828208936,-0.47998972828208936,1.0000121125208445,7.312799028370434e-05
-0.4783252256194828,-0.4783252256194828,0.9999256476020134,7.310391575748764e-05
-0.4769081946316874,-0.4769081946316874,0.999984699641999,7.311192030123145e-05
-0.4757243188447319,-0.4757243188447319,1.0000145439021748,7.309793178184121e-05
-0.4742354480054928,-0.4742354480054928,1.0001309259442877,7.360305040716254e-05
-0.47305820406472776,-0.47305820406472776,1.0000399619387816,7.308956247819068e-05
-0.4717966841883026,-0.4717966841883026,1.000061808808492,7.36091651098393e-05
-0.4706300658872351,-0.4706300658872351,0.9997789707959482,7.308093844739648e-05
-0.4689910535060335,-0.4689910535060335,0.9999415455823796,7.308242002546207e-05
-0.4674060543678934,-0.4674060543678934,0.9997630257125969,7.372104126732813e-05
-0.4661666523781605,-0.4661666523781605,1.0000078855949237,7.30866614369899e-05
-0.46488866785366556,-0.46488866785366556,0.9998945728163633,7.307775891184056e-05
-0.46364061867643613,-0.46364061867643613,1.0001612658509127,7.309393300792764e-05
-0.46231959684810137,-0.46231959684810137,0.9999234635518137,7.320507798128673e-05
-0.46139577217400074,-0.46139577217400074,0.9999964158362464,7.309093012274237e-05
-0.46078060134314003,-0.46078060134314003,0.9999950138088545,7.308676466038073e-05
-0.45954844723746646,-0.45954844723746646,1.0001260811587582,7.320698121495708e-05
-0.4587176925590029,-0.4587176925590029,0.9999874686530565,7.308727032289684e-05
-0.45723010162764693,-0.45723010162764693,0.999944247050158,7.308204410307537e-05
-0.45640054241521283,-0.45640054241521283,0.9999889209191007,7.309558646689956e-05
-0.4550356634950731,-0.4550356634950731,1.0000705076477556,7.30840580568323e-05
-0.4536247553798603,-0.4536247553798603,1.0000509467802803,7.309185449337665e-05
-0.4519503781746607,-0.4519503781746607,0.9999109631174076,7.30844098514895e-05
-0.44867441144888287,-0.44867441144888287,0.9999907789415575,7.309489103674369e-05
-0.4444354483130155,-0.4444354483130155,0.9999847877817828,7.309945553945906e-05
-0.44046936559025196,-0.44046936559025196,1.0000074922500768,7.309732963155826e-05
-0.43746556524420155,-0.43746556524420155,0.9999857208862533,7.309087782211196e-05
-0.4349930974392919,-0.4349930974392919,0.9999715274741814,7.309214630656903e-05
-0.4327649923419813,-0.4327649923419813,1.0001022625068934,7.3113727978265e-05
-0.43072541208239273,-0.43072541208239273,0.999962388073395,7.31057301799286e-05
-0.42866035484476017,-0.42866035484476017,1.0000819966511039,7.310326236530194e-05
-0.42736119010369295,-0.42736119010369295,1.0000633080575394,7.309579360642446e-05
-0.425494243146386,-0.425494243146386,1.00003921757827,7.31080007050767e-05
-0.42344089242978955,-0.42344089242978955,0.9999744322517085,7.309994404841415e-05
-0.4219537805620348,-0.4219537805620348,1.0000289689105233,7.333923946561995e-05
-0.4205033996491693,-0.4205033996491693,1.000072377391215,7.309846824568467e-05
-0.41883705551736056,-0.41883705551736056,0.9999749574151385,7.331364448545426e-05
-0.4178341569757322,-0.4178341569757322,0.9999713472731372,7.310074125075009e-05
-0.4167217058711685,-0.4167217058711685,1.0000229939031964,7.329765794042515e-05
-0.41553198704496025,-0.41553198704496025,0.9999414087621871,7.310178140909469e-05
-0.4146447445295053,-0.4146447445295053,0.9999592144594128,7.328293353840085e-05
-0.4132638649549335,-0.4132638649549335,0.9999708746715378,7.309354568819882e-05
-0.4127843846421456,-0.4127843846421456,1.0000040966546542,7.30984004409047e-05
-0.41168505726673177,-0.41168505726673177,1.0000831277884425,7.379085360218286e-05
-0.4104330763424514,-0.4104330763424514,1.0000284068293077,7.309403640251651e-05
-0.4088865373749286,-0.4088865373749286,0.9999385731638231,7.334337219733866e-05
-0.4077107817924116,-0.4077107817924116,1.0000206643668086,7.309218203877825e-05
-0.4059566271433141,-0.4059566271433141,0.9999956404321952,7.328367355165528e-05
-0.4049860272672959,-0.4049860272672959,1.0000702505326056,7.309289090447359e-05
-0.40387714948446957,-0.40387714948446957,1.0000022315486679,7.327920107191476e-05
-0.4028853793541202,-0.4028853793541202,1.000069315774447,7.352100908933652e-05
-0.4015530526085058,-0.4015530526085058,1.0000257683555855,7.371357253707509e-05
-0.4001932657993166,-0.4001932657993166,1.0001145973416974,7.354173749592766e-05
-0.39868912101665044,-0.39868912101665044,1.0000717667081445,7.328765830982633e-05
-0.3972814454406034,-0.3972814454406034,0.9999658655403681,7.37604789568083e-05
-0.3959508972271578,-0.3959508972271578,0.9999923060329822,7.308684913978413e-05
-0.39404542931297326,-0.39404542931297326,1.0000187711992223,7.361824804738803e-05
-0.3928479794005398,-0.3928479794005398,0.9999812937069995,7.32556036685219e-05
-0.3911619671736844,-0.3911619671736844,1.0000770201194835,7.309105026447036e-05
-0.38923352695128416,-0.38923352695128416,0.9999494563235224,7.354998069001496e-05
-0.387408564609359,-0.387408564609359,1.000016059579179,7.324070862304128e-05
-0.38522397333581465,-0.38522397333581465,1.0000616253119976,7.375304736880611e-05
-0.38341781897761396,-0.38341781897761396,0.9999770011303089,7.361010625605583e-05
-0.3807322367996676,-0.3807322367996676,1.0000734693789135,7.361430360371647e-05
-0.37603990243515,-0.37603990243515,1.0000657051548418,7.309427318333289e-05
-0.3695501362264622,-0.3695501362264622,1.0000034315919657,7.308431822511251e-05
-0.3640546567650745,-0.3640546567650745,1.0000104123902085,7.308426722600541e-05
-0.3603566381789278,-0.3603566381789278,1.0000243759806264,7.308668397632864e-05
-0.358930137110292,-0.358930137110292,0.9999138795466396,7.348328179371681e-05
-0.3570826214767294,-0.3570826214767294,0.9999592942330027,7.308586448750729e-05
-0.354291949167964,-0.354291949167964,0.9999628067286419,7.308442680205826e-05
-0.3521210472070379,-0.3521210472070379,0.9999129962079951,7.3090735085413e-05
-0.3500669667526381,-0.3500669667526381,1.0000709465771034,7.309304596868578e-05
-0.34746463363117075,-0.34746463363117075,0.9999049027208031,7.309081459308208e-05
-0.3457995833887253,-0.3457995833887253,0.9999962883435982,7.337053303573171e-05
-0.34377210807579106,-0.34377210807579106,0.9999224723328991,7.335301246562163e-05
-0.34074574608239344,-0.34074574608239344,1.0000709169840516,7.30934568600435e-05
-0.33831527500296943,-0.33831527500296943,1.000014067903527,7.362137120777152e-05
-0.3363211810705252,-0.3363211810705252,1.0000162410331952,7.370520379132859e-05
-0.3347812070307555,-0.3347812070307555,0.9998820683490427,7.359513372293963e-05
-0.3331391285348218,-0.3331391285348218,0.9999726575071779,7.317907202274286e-05
-0.3313063660229091,-0.3313063660229091,1.000093361376254,7.316809788718686e-05
-0.329869382965262,-0.329869382965262,0.9998662138235834,7.307854411054812e-05
-0.3284819021704607,-0.3284819021704607,1.0000224038523338,7.308448507867945e-05
-0.32742420629947444,-0.32742420629947444,1.0000382453584649,7.357367904360662e-05
-0.3257447615120327,-0.3257447615120327,1.0000345453977713,7.308122291643654e-05
-0.3237404270272236,-0.3237404270272236,1.0000704121225374,7.354747663946832e-05
-0.32192768264503685,-0.32192768264503685,1.0000054839482835,7.308566804910111e-05
-0.3195317717589205,-0.3195317717589205,0.9999344854320231,7.308226115725129e-05
-0.31757434697647113,-0.31757434697647113,1.000064405977043,7.308871716184704e-05
-0.31565103968896435,-0.31565103968896435,1.0000164175076676,7.30826376925097e-05
-0.31288167140737644,-0.31288167140737644,0.9999728900296396,7.30855503265698e-05
-0.30986596033617386,-0.30986596033617386,1.0000658080013978,7.308730041735119e-05
-0.3082468502543634,-0.3082468502543634,1.0000475978528427,7.309053854049319e-05
-0.3065637144143693,-0.3065637144143693,0.9999464103460454,7.319916168556209e-05
-0.30491931963479146,-0.30491931963479146,1.000055276453607,7.309026351105986e-05
-0.30241688108071685,-0.30241688108071685,0.9999498557281876,7.307600968413075e-05
-0.299426409509033,-0.299426409509033,1.0000133072926214,7.309201162545171e-05
-0.29672976076544727,-0.29672976076544727,0.9999599331632625,7.308602844030252e-05
-0.29377284985093866,-0.29377284985093866,1.0001795885517293,7.309442675920129e-05
-0.2912372409977252,-0.2912372409977252,1.0000705847425682,7.310659140065848e-05
-0.2891803791251732,-0.2891803791251732,1.0000710907548942,7.310345580073081e-05
-0.28760992765601257,-0.28760992765601257,0.9999909975763017,7.31675836070897e-05
-0.28674537539482114,-0.28674537539482114,1.0000165478636238,7.31014792161096e-05
-0.2850122487783665,-0.2850122487783665,0.999921080514053,7.31493178094629e-05
-0.2843589886382688,-0.2843589886382688,0.9999694807609538,7.309701419404323e-05
-0.2828457814641297,-0.2828457814641297,0.9999656888932895,7.313683188586426e-05
-0.2820117314142408,-0.2820117314142408,1.0000317819332647,7.310083949914346e-05
-0.2803022531821625,-0.2803022531821625,0.9999512055024133,7.313632480586615e-05
-0.279017381061567,-0.279017381061567,0.9998703069614979,7.311803017595138e-05
-0.27735110312059985,-0.27735110312059985,1.0000677390107313,7.310635760916234e-05
-0.27558440348657315,-0.27558440348657315,1.0000432780656687,7.311775892735019e-05
-0.27420770532044114,-0.27420770532044114,1.0000529139159144,7.360597667598709e-05
-0.2729536738799652,-0.2729536738799652,0.9999079189719563,7.343282792449296e-05
-0.2718674899195321,-0.2718674899195321,0.9999601443061396,7.308282134038247e-05
-0.270541688715457,-0.270541688715457,1.000093961771317,7.361374263298247e-05
-0.2692171602830058,-0.2692171602830058,1.000136381552394,7.308660902127971e-05
-0.26778112070460336,-0.26778112070460336,1.0000069774869242,7.339075056270551e-05
-0.2663921604282223,-0.2663921604282223,1.0000257107834154,7.308862349011098e-05
-0.2646680711273802,-0.2646680711273802,0.9999914809109323,7.308402194465957e-05
-0.2631446416809922,-0.2631446416809922,1.0000752472816345,7.30923930961168e-05
-0.26217221544939096,-0.26217221544939096,0.9999851008354005,7.309078008177106e-05
-0.2607817914045881,-0.2607817914045881,1.0000860730369525,7.32091103520619e-05
-0.26013727821118665,-0.26013727821118665,1.0001367906559875,7.309161605072769e-05
-0.25898921594198326,-0.25898921594198326,0.9999614719146729,7.30856824247812e-05
-0.2579924082616344,-0.2579924082616344,1.0000333930408298,7.308848426715989e-05
-0.2564964297576807,-0.2564964297576807,0.9999331295258218,7.307813974721529e-05
-0.2552073181344895,-0.2552073181344895,1.0000049931218153,7.309169151365287e-05
-0.2531785669387318,-0.2531785669387318,1.000036165069527,7.308905011671634e-05
-0.2515630817069905,-0.2515630817069905,1.0000634609764165,7.308429902061889e-05
-0.24971573460788932,-0.24971573460788932,1.0000277415292262,7.351439332815686e-05
-0.24646864502283278,-0.24646864502283278,0.9999417619469939,7.308855469356846e-05
-0.2420742516464088,-0.2420742516464088,1.000074401361775,7.309917820136556e-05
-0.23875812121550552,-0.23875812121550552,1.0000168970081083,7.309635567183837e-05
-0.23592736978607717,-0.23592736978607717,0.9999893027321765,7.309148358257577e-05
-0.23373552272387316,-0.23373552272387316,1.000109036438896,7.312141617279945e-05
-0.2314106458070455,-0.2314106458070455,1.0000879559830156,7.311460539239402e-05
-0.22971498536353466,-0.22971498536353466,1.0000793408793627,7.310067031700546e-05
-0.2281408370123245,-0.2281408370123245,0.9998891559211633,7.35800129114631e-05
-0.22676376899762546,-0.22676376899762546,1.0000332080913377,7.310492286309121e-05
-0.22497990928241052,-0.22497990928241052,0.9999884935443557,7.31026226999439e-05
-0.22306061503186356,-0.22306061503186356,1.0000540635151274,7.335128470135327e-05
-0.22158657915715593,-0.22158657915715593,1.000009529578374,7.309906564161705e-05
-0.22019186512043235,-0.22019186512043235,1.0000643479019253,7.476833841608176e-05
-0.21918700251553674,-0.21918700251553674,1.0000178680304983,7.309750811845674e-05
-0.2178611716022715,-0.2178611716022715,1.0000511938665513,7.33114807079202e-05
-0.2168629097461235,-0.2168629097461235,0.9998363506012181,7.309493302411188e-05
-0.21559492968954147,-0.21559492968954147,1.000088642920933,7.330051537190901e-05
-0.214434844389325,-0.214434844389325,0.9999939690384372,7.309823400952442e-05
-0.21390598434663843,-0.21390598434663843,1.000030523264933,7.308658392695517e-05
-0.2124164681765251,-0.2124164681765251,1.0000540926754635,7.329379437951249e-05
-0.21156456920143682,-0.21156456920143682,1.0000164143885601,7.361738833446727e-05
-0.21043037544586696,-0.21043037544586696,1.0000272862445498,7.378874156974141e-05
-0.20925362156995106,-0.20925362156995106,1.000031247552484,7.309408860160747e-05
-0.20781300303933675,-0.20781300303933675,1.0000440203401428,7.327965253533047e-05
-0.20668352580687496,-0.20668352580687496,1.0000213283062875,7.309331542880885e-05
-0.2051419753814116,-0.2051419753814116,1.000101450556366,7.328819978593112e-05
-0.20405916234012694,-0.20405916234012694,0.9999709102276444,7.309502803918276e-05
-0.20270210994058288,-0.20270210994058288,1.0000848438465073,7.328906560606231e-05
-0.20162008571496698,-0.20162008571496698,1.000072363908049,7.352918333890587e-05
-0.2001525812287582,-0.2001525812287582,0.9999377407187074,7.328643946940114e-05
-0.19867014371266123,-0.19867014371266123,1.0000137373256461,7.373994331264504e-05
-0.1973219838226214,-0.1973219838226214,1.0000145204973971,7.309216732861132e-05
-0.19531963088666088,-0.19531963088666088,1.0000869651431044,7.327716586950628e-05
-0.19377897739468608,-0.19377897739468608,0.9998894844246455,7.326224088092319e-05
-0.19187632446410136,-0.19187632446410136,0.9999307719978061,7.324930557516362e-05
-0.1898691612354014,-0.1898691612354014,1.0000155980631615,7.324841863568039e-05
-0.18755272840498946,-0.18755272840498946,0.9999417646419545,7.360877962766426e-05
-0.18556386168929748,-0.18556386168929748,1.0001541622819174,7.327506621127026e-05
-0.183761546088499,-0.183761546088499,0.9999617143147421,7.374428124610696e-05
-0.18139146602188702,-0.18139146602188702,1.0000713331709874,7.361681931494343e-05
-0.17749537409690674,-0.17749537409690674,1.0000582322238643,7.309280915229107e-05
-0.17018665081704967,-0.17018665081704967,1.0001177440755753,7.309203372081607e-05
-0.1650662938336609,-0.1650662938336609,1.0000787032381437,7.308374394211691e-05
-0.1612853154889308,-0.1612853154889308,1.0000386605633778,7.309433365709093e-05
-0.1593149849009933,-0.1593149849009933,1.0001069148897617,7.309097487930317e-05
-0.15807886705442797,-0.15807886705442797,1.0001062724875693,7.34731623095454e-05
-0.1561093923461158,-0.1561093923461158,0.9999587509550899,7.308990613968169e-05
-0.15393788301444147,-0.15393788301444147,0.9998708465504439,7.308672409102375e-05
-0.1523083236446837,-0.1523083236446837,1.0001248368955875,7.310281156042709e-05
-0.15058226596447638,-0.15058226596447638,0.9999314653739871,7.317163173253494e-05
-0.1488816301629413,-0.1488816301629413,0.9999359547665548,7.308978386076954e-05
-0.146416142952512,-0.146416142952512,1.0001064992700648,7.309860121676066e-05
-0.14426224487251602,-0.14426224487251602,1.0000030654424097,7.336733479825487e-05
-0.14066521274799015,-0.14066521274799015,0.9998653961117385,7.309132674251283e-05
-0.1376236565527506,-0.1376236565527506,0.9999894380368317,7.37164400456651e-05
-0.13598448070697486,-0.13598448070697486,1.000084670050173,7.403211130972974e-05
-0.13390748835518024,-0.13390748835518024,1.0000184678511874,7.359607469454012e-05
-0.1318854978570016,-0.1318854978570016,1.000043145106756,7.317599145690727e-05
-0.13018197829078418,-0.13018197829078418,1.000041972852762,7.31616582254674e-05
-0.1289852445188444,-0.1289852445188444,0.9999934343309669,7.308613258308458e-05
-0.1271459822979523,-0.1271459822979523,0.999962296659336,7.348902007591791e-05
-0.1251956050778972,-0.1251956050778972,1.0001038621656242,7.356379927383932e-05
-0.12312197492283303,-0.12312197492283303,0.9999637062659307,7.353275612948453e-05
-0.1209911991172703,-0.1209911991172703,0.999994072600178,7.308013723413993e-05
-0.11902310369769112,-0.11902310369769112,1.0001135571712096,7.308742313901172e-05
-0.11653888800938147,-0.11653888800938147,1.0000253271911226,7.309390792023835e-05
-0.11455369857430923,-0.11455369857430923,0.9999259530228579,7.308216289885471e-05
-0.11253537673037499,-0.11253537673037499,0.9999772870102308,7.308581526851159e-05
-0.1097993003873853,-0.1097993003873853,0.9999981644422441,7.360839969334255e-05
-0.10799380856915378,-0.10799380856915378,0.9999910818144648,7.308480481333141e-05
-0.10589139840740244,-0.10589139840740244,1.0000158436918773,7.308298150766951e-05
-0.10386610320420005,-0.10386610320420005,1.0000598746096656,7.30876725241531e-05
-0.10187405786418821,-0.10187405786418821,0.9999931405910034,7.309353062343541e-05
-0.09904986290202941,-0.09904986290202941,1.0000379510640423,7.309478932334142e-05
-0.0965285063459305,-0.0965285063459305,0.9999969603081045,7.309014154256556e-05
-0.094011506732204,-0.094011506732204,1.0000693867765695,7.309206366919681e-05
-0.09162047290301416,-0.09162047290301416,1.0000948425899299,7.309931436581433e-05
-0.08999004354991484,-0.08999004354991484,1.0000783982425436,7.359407673770036e-05
-0.08838001136318781,-0.08838001136318781,1.0000395948508602,7.310569724716308e-05
-0.08678425492253154,-0.08678425492253154,0.9999454004587516,7.315238354838097e-05
-0.08594999522611033,-0.08594999522611033,1.0000344799961753,7.310562909723222e-05
-0.08437983025214635,-0.08437983025214635,1.0000599698794144,7.314167209707699e-05
-0.08364677094505168,-0.08364677094505168,1.0000255376262437,7.310503114478381e-05
-0.08250767966383137,-0.08250767966383137,1.0000230890016293,7.313159360277898e-05
-0.08133265792857855,-0.08133265792857855,0.9999417162958835,7.310098035912345e-05
-0.08012181044614408,-0.08012181044614408,0.9999417799945182,7.312159406455207e-05
-0.07890607405279297,-0.07890607405279297,0.9999766815707194,7.310091592523567e-05
-0.07739575056184549,-0.07739575056184549,1.000064715082588,7.311876111205383e-05
-0.07607700265361927,-0.07607700265361927,1.0000171964804028,7.309866815715058e-05
-0.07445137710892595,-0.07445137710892595,0.9999061822824842,7.359833807505211e-05
-0.07332655936770607,-0.07332655936770607,1.0000717613299084,7.30860383486597e-05
-0.07201732068788261,-0.07201732068788261,0.9999751268758332,7.360801956484892e-05
-0.0708947960898513,-0.0708947960898513,1.00002994354085,7.308361692465846e-05
-0.0692021778493654,-0.0692021778493654,1.000104034535181,7.308987459617392e-05
-0.06768419021682348,-0.06768419021682348,1.0000173642711918,7.337722417629169e-05
-0.06612855829298496,-0.06612855829298496,0.9999294656049728,7.308078354385938e-05
-0.06444062268710696,-0.06444062268710696,0.9999222367908075,7.308929091160595e-05
-0.06304552839137614,-0.06304552839137614,1.0001181960910202,7.321568851380196e-05
-0.06200982478330843,-0.06200982478330843,1.000014782268867,7.308952016274833e-05
-0.06127310037845746,-0.06127310037845746,1.0001097529746414,7.309311598781404e-05
-0.060036199807655066,-0.060036199807655066,0.9999390564467806,7.320347554998915e-05
-0.059202994452789426,-0.059202994452789426,0.9999409132900787,7.30872269668392e-05
