time,time,flux,flux_err
-0.49913672183477803,-0.49913672183477803,1.0000223170305544,3.996829275426116e-05
-0.4973420829974202,-0.4973420829974202,0.9999670007267102,4.000872601972022e-05
-0.4957850674094516,-0.4957850674094516,1.0000993988141076,3.65338887153549e-05
-0.494239084587025,-0.494239084587025,1.0000663614190763,3.6498546425968684e-05
-0.49217175406593017,-0.49217175406593017,1.000032061876482,3.651654213771237e-05
-0.49053005593741544,-0.49053005593741544,0.9999527481671331,3.651017178661012e-05
-0.4889885425240209,-0.4889885425240209,0.9999337771211273,3.649364085063546e-05
-0.48738336625974626,-0.48738336625974626,0.9999891398872514,3.653380066700054e-05
-0.4860044662556902,-0.4860044662556902,0.9999849643087787,3.646971466250304e-05
-0.48471500282976193,-0.48471500282976193,1.0000591238439462,3.657236804542662e-05
-0.4834676943421073,-0.4834676943421073,0.9999719546412663,3.648436288256853e-05
-0.4817269517618115,-0.4817269517618115,0.9999418157869581,3.648177300060036e-05
-0.48043463906724354,-0.48043463906724354,1.0000367482967374,3.651652245942808e-05
-0.47894896807483744,-0.47894896807483744,0.9999642863014941,3.655329597212131e-05
-0.47719705957424596,-0.47719705957424596,0.9999284645102307,3.6487132390053555e-05
-0.47572700241871646,-0.47572700241871646,0.9999775779158682,3.650813350782472e-05
-0.47393249046435815,-0.47393249046435815,1.0000485976512394,3.654440303853749e-05
-0.47239065019384724,-0.47239065019384724,1.0000826860931116,3.6513696051323e-05
-0.47069857385213254,-0.47069857385213254,0.9999266302978782,3.648169925811438e-05
-0.4692471798945917,-0.4692471798945917,0.9999520236507236,3.650728375501631e-05
-0.4680999811011134,-0.4680999811011134,1.0000164374908502,3.6533787566829756e-05
-0.4667609138537955,-0.4667609138537955,0.9999976446677195,3.651192293717589e-05
-0.46545866684318754,-0.46545866684318754,0.9999181822401997,3.648366440777029e-05
-0.463930727764091,-0.463930727764091,1.0000090551028202,3.6512705166855124e-05
-0.46244342698701074,-0.46244342698701074,1.0000323603709653,3.6510604383657685e-05
-0.46089645179745276,-0.46089645179745276,1.0000620673897767,3.648965280304716e-05
-0.4596571576097631,-0.4596571576097631,0.9999493243011222,3.651692056926226e-05
-0.4581034883762186,-0.4581034883762186,0.9999769481590993,3.6518850084398746e-05
-0.45654873448293076,-0.45654873448293076,1.00008814231347,3.6500632837022415e-05
-0.45506338002305713,-0.45506338002305713,0.9999750091410811,3.649609961024522e-05
-0.4536914227035595,-0.4536914227035595,0.9999524640627907,3.647262271678776e-05
-0.45191285252949454,-0.45191285252949454,0.9999396388322014,3.6520655317678305e-05
-0.4504788547914359,-0.4504788547914359,1.0000802162000653,3.652892783276189e-05
-0.44893438174694894,-0.44893438174694894,1.0000426470062616,3.6495767728307206e-05
-0.44686444591134206,-0.44686444591134206,1.0000095911407825,3.651443579499224e-05
-0.4452242246225069,-0.4452242246225069,0.9999805273369006,3.650450790802274e-05
-0.4436843513547501,-0.4436843513547501,1.000003613287833,3.649563022844793e-05
-0.44199638537029384,-0.44199638537029384,1.0000827089965043,3.649840130769704e-05
-0.44070648523775163,-0.44070648523775163,1.0000039125514764,3.647238158466631e-05
-0.4393967690935824,-0.4393967690935824,0.9999851236884227,3.6562163779257077e-05
-0.4380016226830776,-0.4380016226830776,0.99998660448725,3.65102604193805e-05
-0.436050276793685,-0.436050276793685,0.9999938398118369,3.6490137712577844e-05
-0.43440963271132205,-0.43440963271132205,1.0000582433478784,3.654569176865354e-05
-0.4330151814909186,-0.4330151814909186,1.0000184349377956,3.651038157877059e-05
-0.43117065233600443,-0.43117065233600443,1.0000474733653146,3.648603633418135e-05
-0.42978956452498096,-0.42978956452498096,0.9999291598164326,3.652916464615831e-05
-0.4280423254851485,-0.4280423254851485,1.0000416798196188,3.653991406807478e-05
-0.42629321199128756,-0.42629321199128756,1.000026611744555,3.647411445874362e-05
-0.4248731709536514,-0.4248731709536514,1.0000162627341829,3.651724141602213e-05
-0.4233222777045739,-0.4233222777045739,1.0000505700554827,3.652161244937047e-05
-0.42213195356016514,-0.42213195356016514,0.9999390894089606,3.650139449761253e-05
-0.4204899850563379,-0.4204899850563379,0.9998846236852665,3.649069676498975e-05
-0.4193187844910426,-0.4193187844910426,1.000066305160421,3.6510494653713675e-05
-0.4177004727142048,-0.4177004727142048,0.9999749156090841,3.653412191384791e-05
-0.4162036212248495,-0.4162036212248495,1.0000056182348607,3.647229740863971e-05
-0.41490983010298804,-0.41490983010298804,0.9999587808261436,3.651731681766731e-05
-0.41337462584342577,-0.41337462584342577,0.9999871089808708,3.6501138851066456e-05
-0.41202415996667696,-0.41202415996667696,1.0000365443892762,3.7301462586474206e-05
-0.41071502608974697,-0.41071502608974697,1.0001082737415046,3.6513271149195295e-05
-0.4092353212676244,-0.4092353212676244,1.0000320001698066,3.6504742015112916e-05
-0.40760759535914987,-0.40760759535914987,1.0000847193884161,3.651478889794076e-05
-0.4057549700963136,-0.4057549700963136,1.0000200742163738,3.64958018929517e-05
-0.4042677923833253,-0.4042677923833253,1.000001888631023,3.653386784267553e-05
-0.4027592993952567,-0.4027592993952567,0.9999829773999377,3.648697642267455e-05
-0.4007837547644158,-0.4007837547644158,1.0000442981712496,3.6475502575463775e-05
-0.39926342033286344,-0.39926342033286344,1.0000069500539102,3.65357046564035e-05
-0.39787326698206016,-0.39787326698206016,1.0000306227427205,3.646733942496874e-05
-0.3960171315280604,-0.3960171315280604,1.0000197380824303,3.649893365877858e-05
-0.39475315228482943,-0.39475315228482943,0.9999713805801175,3.652322037840632e-05
-0.3932816724387521,-0.3932816724387521,1.0000590672906033,3.6552101102670884e-05
-0.3914613448061573,-0.3914613448061573,1.0000134272446641,3.648205363158963e-05
-0.38976532095111904,-0.38976532095111904,0.999925964143088,3.651898594017875e-05
-0.38800482416409066,-0.38800482416409066,1.0000347380034473,3.653881895506544e-05
-0.3862276037936681,-0.3862276037936681,1.0000720180063172,3.647948569937856e-05
-0.38482776045493666,-0.38482776045493666,1.0000630612020731,3.651755328728982e-05
-0.3834265373683593,-0.3834265373683593,0.9999801913931974,3.6526500746910234e-05
-0.38220105722502923,-0.38220105722502923,0.9999813458360267,3.65011702479638e-05
-0.3804322183925251,-0.3804322183925251,1.0000019342819835,3.649232507351795e-05
-0.3792696587741375,-0.3792696587741375,1.0000241689616756,3.651170237872894e-05
-0.37766622786512016,-0.37766622786512016,0.9999419307258647,3.653066785779003e-05
-0.3761452510705567,-0.3761452510705567,1.0000133748656337,3.6513357574474405e-05
-0.37485772477302814,-0.37485772477302814,0.9999866330690608,3.648030000579901e-05
-0.37331882856960874,-0.37331882856960874,0.9999468132620526,3.6515055341133584e-05
-0.37182760369105383,-0.37182760369105383,1.000029872766424,3.6510222005532204e-05
-0.3702911973276059,-0.3702911973276059,0.9999928321346918,3.648339847499029e-05
-0.3688279113266617,-0.3688279113266617,1.0000004621917813,3.649424147154771e-05
-0.36748601161452826,-0.36748601161452826,0.9999999009395755,3.651711733258604e-05
-0.3659566456663015,-0.3659566456663015,1.0000143270640702,3.6537480262329355e-05
-0.36450815396456165,-0.36450815396456165,1.0001201180297403,3.650967715574802e-05
-0.3628888569357514,-0.3628888569357514,0.9999771987665076,3.649795338564884e-05
-0.36071594463282963,-0.36071594463282963,0.9999640839849111,3.647572391343352e-05
-0.35923218522948447,-0.35923218522948447,0.9999343949236097,3.654360456847982e-05
-0.3578036898303253,-0.3578036898303253,0.9999986378295599,3.6475607856166896e-05
-0.35589250855191495,-0.35589250855191495,0.9999665449202375,3.651055887415205e-05
-0.3544949547118449,-0.3544949547118449,0.9999955577097716,3.650237687603625e-05
-0.35335332140384706,-0.35335332140384706,0.999989512891098,3.652784658101935e-05
-0.35177760318911167,-0.35177760318911167,0.9999167559566328,3.649306848851712e-05
-0.3500747180070903,-0.3500747180070903,0.9999733779289894,3.6499865472624886e-05
-0.3485256629486685,-0.3485256629486685,1.0000287322532322,3.655315370454251e-05
-0.3469796928111464,-0.3469796928111464,1.0000146926455795,3.651303903848641e-05
-0.345277026626718,-0.345277026626718,1.0000051503783225,3.648745753241882e-05
-0.3436288866789255,-0.3436288866789255,1.0000093246554036,3.654147211862206e-05
-0.3421449377252429,-0.3421449377252429,1.0000186054609845,3.6506620318818304e-05
-0.34020233406699846,-0.34020233406699846,1.0000666411876684,3.648664612177667e-05
-0.3389115112833679,-0.3389115112833679,1.0000618219714332,3.6508236229106084e-05
-0.3377098679258779,-0.3377098679258779,1.0000250556816952,3.653933930896311e-05
-0.3363921608957753,-0.3363921608957753,1.0000005611336527,3.6504044720341106e-05
-0.33496033025730865,-0.33496033025730865,0.9999756217908302,3.648850532667292e-05
-0.3336596819841361,-0.3336596819841361,0.9999533957598906,3.6505019558616855e-05
-0.33202508141112047,-0.33202508141112047,1.0000012195479848,3.653349878432332e-05
-0.3305516495129268,-0.3305516495129268,1.0000256908741174,3.648546343342105e-05
-0.3293059753254056,-0.3293059753254056,1.000037632941692,3.650922960703408e-05
-0.32770433320401937,-0.32770433320401937,0.999964468751102,3.651437903405727e-05
-0.3262813268484024,-0.3262813268484024,0.9999462144641347,3.649950071881553e-05
-0.32459308507459356,-0.32459308507459356,0.9999412872184715,3.649522186030829e-05
-0.3232883494158159,-0.3232883494158159,0.9999480567188094,3.6479538895106e-05
-0.3215916963054042,-0.3215916963054042,1.0000535627072216,3.653589380380016e-05
-0.3201162912147993,-0.3201162912147993,1.0000131257694447,3.6503783235118214e-05
-0.3186178813019069,-0.3186178813019069,1.0000167934879207,3.650408208543807e-05
-0.31692764215185887,-0.31692764215185887,1.0000200230963763,3.6519751996745046e-05
-0.3151579812118143,-0.3151579812118143,1.0000092980024946,3.648046492912903e-05
-0.3136360704775143,-0.3136360704775143,0.9999910492851998,3.653507708110153e-05
-0.3121567683439935,-0.3121567683439935,0.9999560815708668,3.6484665275321416e-05
-0.310474669260293,-0.310474669260293,1.000008267284127,3.648275569693558e-05
-0.309187218639272,-0.309187218639272,0.9999980731269662,3.650080306525166e-05
-0.3079313838738017,-0.3079313838738017,0.9999912485407265,3.655800693629054e-05
-0.30609794028205217,-0.30609794028205217,0.9999815638050823,3.648285946755486e-05
-0.3044114079319115,-0.3044114079319115,0.9999975444358207,3.651943417028508e-05
-0.30265417182527016,-0.30265417182527016,0.9999884382008913,3.653969390243123e-05
-0.30086383198431577,-0.30086383198431577,0.9999321565137189,3.6476894190602024e-05
-0.29947340550934315,-0.29947340550934315,0.9999645469821308,3.651786778922557e-05
-0.2976792265100812,-0.2976792265100812,0.9999848447943641,3.654526494572711e-05
-0.2959909376782889,-0.2959909376782889,1.0000111387641404,3.648686768628411e-05
-0.2945045403277618,-0.2945045403277618,1.000005026722328,3.6504668547435546e-05
-0.29291087851452174,-0.29291087851452174,0.9999657212567465,3.651664937921104e-05
-0.29165258307984915,-0.29165258307984915,1.000019417335702,3.651402700413299e-05
-0.2901765419075673,-0.2901765419075673,1.0000439547822266,3.648971720702334e-05
-0.28894688360960574,-0.28894688360960574,0.9999206660614547,3.651412702888243e-05
-0.28739425033345467,-0.28739425033345467,1.0000142592460546,3.652239739601311e-05
-0.2858328958784114,-0.2858328958784114,1.0000366016368776,3.6498561232710454e-05
-0.2844187406779383,-0.2844187406779383,0.9999894136447123,3.648729692949246e-05
-0.2831048250438471,-0.2831048250438471,0.9999792964682855,3.650392876160196e-05
-0.281428343126754,-0.281428343126754,1.0000475132571438,3.653448051737266e-05
-0.28005259162309815,-0.28005259162309815,0.9999308282121595,3.651167411616877e-05
-0.2785717110084079,-0.2785717110084079,1.000029013947524,3.6504200966847555e-05
-0.276944510438625,-0.276944510438625,1.0000041458649618,3.651505891578399e-05
-0.27509264287000407,-0.27509264287000407,1.000008356886318,3.6493802719258994e-05
-0.27360329160146646,-0.27360329160146646,0.9999986526545401,3.653271506173985e-05
-0.27209662206514623,-0.27209662206514623,1.0000142118048574,3.649017191465304e-05
-0.27022421442379707,-0.27022421442379707,1.0000004877447868,3.6503090729537936e-05
-0.26890062173770274,-0.26890062173770274,0.9999868633052204,3.654350387415145e-05
-0.2677173538795614,-0.2677173538795614,1.0000583093225757,3.648730241493569e-05
-0.2660338793626579,-0.2660338793626579,1.0000168357912254,3.6478682749616275e-05
-0.2647130195597128,-0.2647130195597128,0.9999768905808093,3.651498496286703e-05
-0.26318117379487377,-0.26318117379487377,0.9999624170745169,3.6558113082162935e-05
-0.26162190966060733,-0.26162190966060733,0.9999627662853374,3.651664979817065e-05
-0.25979694374182144,-0.25979694374182144,1.000012669992164,3.64807226829405e-05
-0.25792138199904,-0.25792138199904,0.9999368264111428,3.6544049758520656e-05
-0.25636936087394135,-0.25636936087394135,0.9999370761791736,3.651000050100465e-05
-0.2546744044520892,-0.2546744044520892,0.9999755251525094,3.6485766953741144e-05
-0.2532262070402794,-0.2532262070402794,0.9999718655226679,3.651082160084412e-05
-0.25206508618066437,-0.25206508618066437,1.000015334939539,3.653733307735824e-05
-0.250440789222921,-0.250440789222921,0.9999991608234424,3.648558852131766e-05
-0.2491992967276019,-0.2491992967276019,1.0000351996964707,3.650703525861207e-05
-0.2476039744426089,-0.2476039744426089,1.0000594599348804,3.651682028128011e-05
-0.24617743440685444,-0.24617743440685444,0.9999674986592113,3.6502388691781815e-05
-0.24452489759059973,-0.24452489759059973,0.9999815136891902,3.64913292087627e-05
-0.24334851582971168,-0.24334851582971168,0.999979298155662,3.650985144021053e-05
-0.24172124910182902,-0.24172124910182902,1.0000394316858805,3.65327351319828e-05
-0.2405057788375416,-0.2405057788375416,0.9999878637933328,3.650123725984793e-05
-0.23904301416623638,-0.23904301416623638,0.9999778120219469,3.6495789009135684e-05
-0.23766312769439538,-0.23766312769439538,1.0000552232096933,3.6473501880997205e-05
-0.2361133924969181,-0.2361133924969181,1.0000075650918174,3.6537634980475914e-05
-0.23475317547417945,-0.23475317547417945,0.9999347818745067,3.651126157332906e-05
-0.23326292496130918,-0.23326292496130918,0.9999687747579052,3.650112224206526e-05
-0.2312425146192254,-0.2312425146192254,0.9999915868810559,3.653107235434816e-05
-0.22951808658617665,-0.22951808658617665,1.0000493387835205,3.6487877461128366e-05
-0.2280011433067557,-0.2280011433067557,0.9999660952652787,3.6501942992955316e-05
-0.22631565148985827,-0.22631565148985827,0.9999505001745653,3.651643734564794e-05
-0.22467995549159242,-0.22467995549159242,0.9999620044232402,3.647123085900862e-05
-0.22338543423174997,-0.22338543423174997,0.9999881088368916,3.657122490482847e-05
-0.2221423396767932,-0.2221423396767932,0.9999888909495649,3.648594730533303e-05
-0.22038089162888355,-0.22038089162888355,0.9999489337649544,3.648046408119982e-05
-0.21877876712242142,-0.21877876712242142,1.0000737168727682,3.652704904396751e-05
-0.21730363198003033,-0.21730363198003033,1.0000261898837253,3.654324959786514e-05
-0.21550017093104543,-0.21550017093104543,1.0000133742069879,3.647723754288673e-05
-0.21411915990174749,-0.21411915990174749,0.9998592468093614,3.651822514907854e-05
-0.21233177701797104,-0.21233177701797104,1.0000288186730337,3.6546295373520854e-05
-0.2106295787874842,-0.2106295787874842,1.000003340137924,3.648373959730972e-05
-0.20914675157036983,-0.20914675157036983,1.0000488469780784,3.650775689821816e-05
-0.20763819850908477,-0.20763819850908477,0.9999680040343198,3.6521728990237904e-05
-0.20653915503207826,-0.20653915503207826,1.0000244500326347,3.651980304915345e-05
-0.20513681744851056,-0.20513681744851056,1.000017254724565,3.648807481876562e-05
-0.20389420382853132,-0.20389420382853132,0.9999823929299263,3.650774936605479e-05
-0.20229720950010233,-0.20229720950010233,1.0000706990214012,3.6512123668448514e-05
-0.20087161956325872,-0.20087161956325872,1.000006017867209,3.6501498524782045e-05
-0.19922275626377087,-0.19922275626377087,0.9999750620735929,3.649170557502901e-05
-0.19804177191399502,-0.19804177191399502,0.9999132017993378,3.650747696071019e-05
-0.19640652837697417,-0.19640652837697417,1.0000675897601554,3.6530922873792676e-05
-0.19494396132213296,-0.19494396132213296,0.9999830953693749,3.647353678590029e-05
-0.19347204514269833,-0.19347204514269833,1.0000294736623405,3.652617725627206e-05
-0.1920441451948136,-0.1920441451948136,1.0000396426941638,3.6482319897718166e-05
-0.1903658129973337,-0.1903658129973337,1.0000099107769862,3.650645902789376e-05
-0.18874782671846332,-0.18874782671846332,1.00002575261582,3.653292540337887e-05
-0.18732597088601324,-0.18732597088601324,0.9999566141445634,3.649034785117307e-05
-0.18553008458839032,-0.18553008458839032,1.0000054879235063,3.6515260150255876e-05
-0.18389778808123083,-0.18389778808123083,0.9999725237716259,3.650222725763433e-05
-0.18235833256330808,-0.18235833256330808,0.9999120364359394,3.649229766576985e-05
-0.18067093362624292,-0.18067093362624292,0.999939141690423,3.6496521128402974e-05
-0.17938201688084518,-0.17938201688084518,0.9999989716132823,3.6472860638603616e-05
-0.1780672271284857,-0.1780672271284857,0.9999355318880987,3.65601062949056e-05
-0.17667554887084408,-0.17667554887084408,0.9999949040216223,3.6509674785769544e-05
-0.17472465752944116,-0.17472465752944116,0.999973093650236,3.6493175361280514e-05
-0.1729316963959718,-0.1729316963959718,0.999972928359566,3.654192998107613e-05
-0.17142639637895626,-0.17142639637895626,0.9999814535971862,3.650548119864609e-05
-0.1694806792329473,-0.1694806792329473,0.99995154002019,3.648690257034293e-05
-0.16806502614781493,-0.16806502614781493,0.9999912452971035,3.6546066481628124e-05
-0.16643417960804072,-0.16643417960804072,1.0000416349493115,3.65147647645726e-05
-0.16461159555256016,-0.16461159555256016,1.0000143484944746,3.64810506683323e-05
-0.16325015784823335,-0.16325015784823335,1.0000740692724057,3.6510135125727395e-05
-0.16176453242223943,-0.16176453242223943,1.0000489317597572,3.653704972141811e-05
-0.1604231321660336,-0.1604231321660336,0.9999990736247305,3.65028644742193e-05
-0.15899640772404383,-0.15899640772404383,1.0000179027534015,3.648790031335412e-05
-0.15774225319473772,-0.15774225319473772,1.0000066709634772,3.651117697744343e-05
-0.15637174242074253,-0.15637174242074253,0.9999806969057579,3.6533917291826194e-05
-0.15487891946322635,-0.15487891946322635,0.9999559144862433,3.6473222932047966e-05
-0.1535826719671604,-0.1535826719671604,0.9999167260439658,3.6514131726515556e-05
-0.15204927537270124,-0.15204927537270124,0.9999968270834791,3.650041797982765e-05
-0.1505439766900963,-0.1505439766900963,1.0000197043717096,3.6522339215396746e-05
-0.14910151429867255,-0.14910151429867255,1.000003561353252,3.653190721938642e-05
-0.14755461152308272,-0.14755461152308272,0.9999412999097617,3.6496474555212676e-05
-0.14588768404719304,-0.14588768404719304,1.0000211852406917,3.6512718118609396e-05
-0.14415473393091816,-0.14415473393091816,0.9999807148549407,3.649415991975487e-05
-0.14264587961370126,-0.14264587961370126,1.0000495119156305,3.6501877867720765e-05
-0.14095833165483782,-0.14095833165483782,0.9999654921515845,3.651939384674375e-05
-0.13931578591873403,-0.13931578591873403,1.000038743097376,3.64724491974165e-05
-0.1380389502563048,-0.1380389502563048,0.999916226630317,3.656802987359404e-05
-0.136781127982249,-0.136781127982249,1.0000468173359693,3.648114677703551e-05
-0.1350392803964496,-0.1350392803964496,0.999957209182619,3.6486500861470316e-05
-0.13375243662667344,-0.13375243662667344,0.9999821243204291,3.651521354334054e-05
-0.13227257696125888,-0.13227257696125888,1.0000072204576151,3.655763276136725e-05
-0.1305107241620135,-0.1305107241620135,1.0000539938665074,3.649556775103218e-05
-0.12880596752511336,-0.12880596752511336,1.0000180213756402,3.650201537282024e-05
