time,time,flux,flux_err
-0.4992211378000017,-0.4992211378000017,1.0001634713293148,0.00030945608427192256
-0.4967053547516116,-0.4967053547516116,1.0004731485941492,0.0003071002154787364
-0.49439712704042904,-0.49439712704042904,1.0001207225815316,0.0003079962216633409
-0.49287167762086026,-0.49287167762086026,1.0001449554625907,0.0002807006989243762
-0.4911771281535039,-0.4911771281535039,0.9996860370794014,0.00028092636850388986
-0.4889555869594915,-0.4889555869594915,0.9997456757629827,0.00027969367991509083
-0.4878244917927077,-0.4878244917927077,0.9996557194278015,0.00028106105054141327
-0.4863907001083135,-0.4863907001083135,0.9995966372258216,0.00027940274069234545
-0.48464188267098507,-0.48464188267098507,1.0000454148489435,0.00028067658255753503
-0.48351258808543207,-0.48351258808543207,1.0001279778630443,0.00028142642588319794
-0.48280275757715574,-0.48280275757715574,0.9995968047152456,0.0002818015453504267
-0.48164002245030135,-0.48164002245030135,0.9998293299920572,0.0002822209145828754
-0.48071969167067435,-0.48071969167067435,0.999984669232572,0.0002797651614766754
-0.47973870956047904,-0.47973870956047904,1.0005884791762303,0.00028484631816988405
-0.4786169259808958,-0.4786169259808958,1.0001491799652142,0.00027961841747890006
-0.4772696665240801,-0.4772696665240801,0.9997726549869748,0.0002802939395610157
-0.4756344129375066,-0.4756344129375066,0.9996185662999295,0.00028045700012957665
-0.47443729706574234,-0.47443729706574234,0.9999503589467184,0.00028083188154380664
-0.4732802746220841,-0.4732802746220841,1.0000002865999846,0.0002821445775118591
-0.47188942520006094,-0.47188942520006094,0.9998446902429501,0.00028096040815791623
-0.470099303535244,-0.470099303535244,0.9998979211212674,0.00028053560800457187
-0.46896885759342694,-0.46896885759342694,0.9999678998046557,0.00028308461207646976
-0.4674261072068475,-0.4674261072068475,0.9996930185549152,0.00028199240702661283
-0.46663402094418416,-0.46663402094418416,0.9998315230482249,0.00027947036302251367
-0.4653531575531815,-0.4653531575531815,1.000196436204456,0.0002810832110482392
-0.46370535822352393,-0.46370535822352393,1.0002867241112015,0.00028111728977152925
-0.46225670622079634,-0.46225670622079634,0.9998998831290875,0.000281567764379592
-0.46084158005251086,-0.46084158005251086,0.9996626064140639,0.00028282052107638064
-0.45994366114900914,-0.45994366114900914,0.9997850406787478,0.0002795279470437659
-0.45860629579256057,-0.45860629579256057,1.000195503833733,0.0002807992079629336
-0.45741339545638765,-0.45741339545638765,1.0002636657873059,0.00028014045654368373
-0.45620588634192244,-0.45620588634192244,1.0001446834242103,0.00028231380862449296
-0.45482247541076504,-0.45482247541076504,1.000226867202103,0.0002803118251014769
-0.4537293337241863,-0.4537293337241863,0.9998005700512763,0.00028393300526733756
-0.4524509019931429,-0.4524509019931429,0.9996491869346391,0.00028312438589393876
-0.450895771519572,-0.450895771519572,1.0001544769128332,0.0002793381624156542
-0.44904313511651706,-0.44904313511651706,0.9998410100936888,0.00028204320150997016
-0.4479447239078581,-0.4479447239078581,0.9997485612186525,0.0002794582573328193
-0.44610271492856557,-0.44610271492856557,1.0000354956335578,0.00028236778912975075
-0.44426945019076813,-0.44426945019076813,1.0000427572760853,0.00028016387034694
-0.44300256250135134,-0.44300256250135134,0.9998226275165504,0.0002823184080372879
-0.44175216908042786,-0.44175216908042786,0.999913895576683,0.000282305082039851
-0.44065770348970545,-0.44065770348970545,0.9999461558582029,0.0002814108696239205
-0.43943044578045376,-0.43943044578045376,0.9999401685632929,0.0002800581149719183
-0.43831707142089726,-0.43831707142089726,0.9996927669404203,0.00028030800669040377
-0.43655124624783637,-0.43655124624783637,1.0002900685340637,0.0002816480799950249
-0.43479785754025213,-0.43479785754025213,0.9996788184611024,0.0002824819615209528
-0.43400433320493903,-0.43400433320493903,1.0004717378922274,0.0002795981894799256
-0.4330638448242098,-0.4330638448242098,0.999688062338363,0.00028103529236755064
-0.4319839665578911,-0.4319839665578911,0.999544198105782,0.00027970407024749167
-0.43090641864109785,-0.43090641864109785,0.999678068328009,0.00028005247610422975
-0.4294469232598203,-0.4294469232598203,1.000119353760355,0.00028232068619913887
-0.4283974333869992,-0.4283974333869992,1.0002614029068269,0.00028047767560792947
-0.4271744003301137,-0.4271744003301137,0.9998986070562413,0.0002793507925128426
-0.4256297458166955,-0.4256297458166955,1.00008286966583,0.00028083831604289443
-0.4241533289998188,-0.4241533289998188,0.9999960781823203,0.00028111342985794285
-0.4229669270847808,-0.4229669270847808,0.9997605142408095,0.0002820935073495403
-0.42122522951685826,-0.42122522951685826,0.9998532954372052,0.0002805037888671136
-0.42010152847797144,-0.42010152847797144,1.0001770276214996,0.00028280869209133396
-0.41821459567727287,-0.41821459567727287,0.9996979704710405,0.0002800314546818318
-0.4164978154280107,-0.4164978154280107,1.0001291874755964,0.0002828566789205893
-0.41512233970715895,-0.41512233970715895,1.0000320949079213,0.0002836442305825542
-0.4138037506694673,-0.4138037506694673,1.000253927733381,0.000280068309575004
-0.41259981464245354,-0.41259981464245354,0.9998403066826649,0.0002803557304491103
-0.41117416745109947,-0.41117416745109947,1.0005053709488543,0.0002794733296922939
-0.4103675236488925,-0.4103675236488925,1.0000937655353836,0.00028144466247669324
-0.4088431634256267,-0.4088431634256267,0.9999407565124715,0.0002804225498012152
-0.40806505533983,-0.40806505533983,0.9996199442986955,0.00027951692894654073
-0.4069208269895171,-0.4069208269895171,1.0001880394229379,0.00028125833564384084
-0.40597730496519946,-0.40597730496519946,1.0002323169853795,0.0002795759215757392
-0.40460297616809837,-0.40460297616809837,1.0003063660644762,0.0002830808799231237
-0.4033863456425024,-0.4033863456425024,1.0001569462006958,0.00028049041962540224
-0.40204481586551993,-0.40204481586551993,1.0002241633855042,0.0002803337251698571
-0.40069893372856313,-0.40069893372856313,1.0000374386159148,0.00027918448929820127
-0.39958830577670595,-0.39958830577670595,1.0002265632655658,0.00028049564013699735
-0.3982248780390364,-0.3982248780390364,1.0003397786102177,0.0002819337194190796
-0.39715778365789445,-0.39715778365789445,0.9999703527587389,0.00028207430207144983
-0.39641404492285803,-0.39641404492285803,1.0003075837995108,0.0002798942485243691
-0.39458474429120544,-0.39458474429120544,0.999823750749286,0.00028224174178807326
-0.39277586380339924,-0.39277586380339924,0.9996340094458999,0.0002807211334272005
-0.3906780390621861,-0.3906780390621861,0.9997675377857485,0.0002811967877192719
-0.38916571400040995,-0.38916571400040995,1.0000452874368955,0.0002838554848862814
-0.3878691359219374,-0.3878691359219374,1.0001622358923747,0.00028005833992684315
-0.3865868793291156,-0.3865868793291156,0.9998068752204723,0.00028045151502842613
-0.38475412040425,-0.38475412040425,1.0003473457135088,0.0002806412254894547
-0.38368139157537373,-0.38368139157537373,1.0002909423830688,0.0002795731649841865
-0.38260254973429253,-0.38260254973429253,0.9996964362224858,0.0002803204370759662
-0.3811367187576252,-0.3811367187576252,0.999784402486838,0.000280984300150716
-0.3803578692866722,-0.3803578692866722,1.0000226305511593,0.00027951673169644464
-0.3791790878734901,-0.3791790878734901,0.9998777674879269,0.00028066502501331936
-0.37781882183480775,-0.37781882183480775,0.9999953162424816,0.0002820902427824423
-0.3764379042608198,-0.3764379042608198,0.9998883286958569,0.00028045155211079803
-0.3750170501356479,-0.3750170501356479,0.9997307869188383,0.00027947529787131085
-0.37334911414654925,-0.37334911414654925,0.9995186453196523,0.0002794850617202211
-0.37198845853854434,-0.37198845853854434,0.9997914751005205,0.00028109598359792173
-0.3708399554132484,-0.3708399554132484,1.0001624144360268,0.0002808229135863916
-0.3688268643192714,-0.3688268643192714,0.9998919140359994,0.0002802595232830688
-0.36688071012467843,-0.36688071012467843,1.000299007790819,0.0002799658866402068
-0.3651243202475598,-0.3651243202475598,0.9999906670390588,0.0002829284316688067
-0.3634059144809726,-0.3634059144809726,1.000011070722005,0.00028280488531412355
-0.36193456024484477,-0.36193456024484477,0.9997240870923921,0.0002800193745925121
-0.36064744048489955,-0.36064744048489955,1.0000528583322468,0.0002805340491640437
-0.3589844336558599,-0.3589844336558599,1.0000933175516413,0.0002795330274727561
-0.35791845064377414,-0.35791845064377414,1.0002494038291085,0.0002807027349457803
-0.3566651419532718,-0.3566651419532718,1.0002106359985643,0.0002804512698382618
-0.35507236913399537,-0.35507236913399537,1.0003419973157524,0.00028004463143162055
-0.35382496503880245,-0.35382496503880245,0.9994931765888195,0.00027955276485814906
-0.3529731457310845,-0.3529731457310845,0.9997521069315342,0.0002804891218423031
-0.35174228977266464,-0.35174228977266464,1.0000990854510285,0.0002819519523800109
-0.35049355189548803,-0.35049355189548803,0.9997843847510868,0.0002803987386736114
-0.3491935255864519,-0.3491935255864519,0.9997277785229913,0.0002805514042240564
-0.34751424392161423,-0.34751424392161423,1.0003673893648735,0.0002796329077679301
-0.34633480910706566,-0.34633480910706566,0.9998136714463429,0.0002817504846539241
-0.3450286637598765,-0.3450286637598765,0.9999349517638297,0.00028089891806788866
-0.34280601142236267,-0.34280601142236267,0.9997576723873042,0.0002809504904409973
-0.34079065407713643,-0.34079065407713643,0.9997106910434119,0.00027984413115356003
-0.339161979558412,-0.339161979558412,0.9999870355526708,0.000280273150035079
-0.33721191494114466,-0.33721191494114466,1.0002364877859642,0.00028305657555656373
-0.3357875921516097,-0.3357875921516097,0.9998328498049673,0.0002801462918570619
-0.3348509422707139,-0.3348509422707139,0.9998094110304064,0.00028040399022393885
-0.33318374337832213,-0.33318374337832213,0.9997306424018385,0.0002793298730974936
-0.33206654545647324,-0.33206654545647324,1.0000011563905624,0.0002833192906809512
-0.33080692897347036,-0.33080692897347036,0.9994708703495696,0.00028059844841024824
-0.32925298869231484,-0.32925298869231484,1.0002617243935243,0.0002820011066233337
-0.32808016599155965,-0.32808016599155965,1.0001225357302528,0.0002792640394433462
-0.3273511012113886,-0.3273511012113886,0.999662218191619,0.00028049737369827794
-0.32649327332328537,-0.32649327332328537,1.000579886000756,0.00028430413776455875
-0.3253023203855264,-0.3253023203855264,0.9997753308852804,0.00027940543730841733
-0.3239844902404002,-0.3239844902404002,1.0001075647795072,0.00028149738927208225
-0.3229131087369751,-0.3229131087369751,0.9997580552813854,0.00028039180543708834
-0.3215846896302537,-0.3215846896302537,1.0003793858566346,0.00028086059622252786
-0.3208229442258016,-0.3208229442258016,1.0001346138449398,0.000282207499336757
-0.31914346561970885,-0.31914346561970885,0.9998051383527544,0.00028050820274894025
-0.3168241948384093,-0.3168241948384093,0.9996542886988834,0.0002813893010709592
-0.31543882488331293,-0.31543882488331293,1.0001076920986356,0.0002808516356973069
-0.31384823980770304,-0.31384823980770304,1.0000254309147303,0.0002815189444708067
-0.3124030879087513,-0.3124030879087513,1.0005574073840022,0.0002818507633427401
-0.3108321716834325,-0.3108321716834325,1.000390929004568,0.0002803767530222034
-0.3093094048279454,-0.3093094048279454,1.00002823717717,0.0002806438405015009
-0.3078279012959683,-0.3078279012959683,0.9999772653837574,0.0002799653286458138
-0.3065029695208068,-0.3065029695208068,1.0002843870920042,0.0002793852141163066
-0.30486511289054763,-0.30486511289054763,1.0000869855535175,0.0002807512312006013
-0.30390836370934265,-0.30390836370934265,0.9999170292947168,0.0002800070000543562
-0.30242801101412625,-0.30242801101412625,1.0001322105165962,0.0002823045597033523
-0.3015311376177124,-0.3015311376177124,1.0001688160989342,0.0002795839422140074
-0.30060699816240233,-0.30060699816240233,0.9999931400196165,0.0002849184483952293
-0.2994278300218866,-0.2994278300218866,0.9999545222515079,0.00027935142743214025
-0.29818145214667313,-0.29818145214667313,1.000284144552452,0.00028207866534099346
-0.29694491644622756,-0.29694491644622756,1.000526050019978,0.00027931456481250505
-0.29548228692583506,-0.29548228692583506,1.0002470519301532,0.00028078938714858287
-0.29448049039056057,-0.29448049039056057,0.9999884895144492,0.00028198245173235526
-0.29302655078063256,-0.29302655078063256,0.9996079099035521,0.00028048406563888734
-0.29120174742565724,-0.29120174742565724,1.0001779809157152,0.00028105099369863377
-0.2892161339128506,-0.2892161339128506,1.0000122989373976,0.00028146410627905466
-0.2875870242205565,-0.2875870242205565,1.000110436539992,0.00028081782261722926
-0.28554645305121085,-0.28554645305121085,0.999888056427325,0.00028071167578973857
-0.28346289762412197,-0.28346289762412197,0.9996999067402574,0.0002808526000008784
-0.28197305879875784,-0.28197305879875784,1.0001153334773558,0.0002799459102754068
-0.280875523450959,-0.280875523450959,1.000248406888543,0.0002813102864405228
-0.27913370083260813,-0.27913370083260813,0.9993712130813217,0.00028064334241676775
-0.27803922365856126,-0.27803922365856126,1.000146523156819,0.0002802685985249272
-0.27677080905559703,-0.27677080905559703,1.0000807234549818,0.0002824429980025083
-0.2755928465281613,-0.2755928465281613,0.9995508809342674,0.0002795409498387687
-0.274552367781871,-0.274552367781871,0.9996822293613009,0.0002847260163367374
-0.2726947864546673,-0.2726947864546673,0.9999822838863555,0.0002803945927034197
-0.2708541577128926,-0.2708541577128926,1.0001357926075758,0.00028066015335506184
-0.2694391014782013,-0.2694391014782013,1.000053084472817,0.00028091106535012506
-0.2682811243197648,-0.2682811243197648,1.0001674801151479,0.0002818913844052953
-0.2668988144141622,-0.2668988144141622,1.0003031499398531,0.0002808986405333214
-0.2656245926700649,-0.2656245926700649,1.0003452136231172,0.00028002772295945914
-0.2639756980308448,-0.2639756980308448,1.0001787357546728,0.0002828663494185153
-0.26274774839548626,-0.26274774839548626,0.9997616548368295,0.00028004016601221603
-0.2618848558719037,-0.2618848558719037,0.9999707289483565,0.0002832651678335495
-0.26081412322091635,-0.26081412322091635,1.0003820250119004,0.00028027125752908943
-0.2590891437444952,-0.2590891437444952,0.999681065621542,0.0002803148862158829
-0.25730572496540843,-0.25730572496540843,1.0000521947740744,0.00028160126780851167
-0.2557102832346573,-0.2557102832346573,0.9999815021157359,0.00028233979909310434
-0.25475579214689786,-0.25475579214689786,0.9996796029197439,0.0002795089461614936
-0.25341920718637995,-0.25341920718637995,1.000074719296646,0.00028075264159876115
-0.252224379524705,-0.252224379524705,1.0001042530964206,0.00028016095061715623
-0.25109815742471253,-0.25109815742471253,1.0000152071747115,0.0002827148440104367
-0.249892312787415,-0.249892312787415,1.0001333575664135,0.0002793461273458
-0.24862530181562761,-0.24862530181562761,1.000208326363343,0.0002826212566246274
-0.24758154012670275,-0.24758154012670275,1.0001088999989505,0.00028016411846534697
-0.24597808052640174,-0.24597808052640174,0.9999223268123861,0.00028233421836830366
-0.24459995329088996,-0.24459995329088996,1.0000702207398713,0.0002823479458102788
-0.2434977106837323,-0.2434977106837323,1.0002810480581723,0.0002807428899126341
-0.24219916634610855,-0.24219916634610855,1.0001129307678762,0.000282414226638218
-0.2408226877931156,-0.2408226877931156,0.9996554348303042,0.0002799472252383336
-0.2397519519319758,-0.2397519519319758,0.9999821451468127,0.00027947778593638117
-0.23808433830126888,-0.23808433830126888,0.9997565410885956,0.0002801053702282957
-0.23704728904413058,-0.23704728904413058,0.9998678421380024,0.0002811672508634491
-0.23586734360287664,-0.23586734360287664,1.0001263361548491,0.00028356736836113866
-0.2347207843733486,-0.2347207843733486,0.9998583325289813,0.0002800824974315833
-0.23335166075994493,-0.23335166075994493,0.9998435827685028,0.0002803211479682604
-0.23164602538745385,-0.23164602538745385,0.9999175394983688,0.000280572785616969
-0.23018323994911044,-0.23018323994911044,0.9999805654422588,0.00028137537254678687
-0.229191476048436,-0.229191476048436,0.9998255059649488,0.00028142181541621726
-0.22831059780874058,-0.22831059780874058,0.9999311395637406,0.00027957429228803556
-0.22747812684101518,-0.22747812684101518,0.9996186132286043,0.0002812344327581053
-0.22645938943169314,-0.22645938943169314,0.9998298421158888,0.0002793710555855645
-0.2254748865860165,-0.2254748865860165,0.9996608837772525,0.00028310112946729665
-0.22413647274515824,-0.22413647274515824,0.9998016234181664,0.00028043304073243345
-0.22279929404030555,-0.22279929404030555,0.9999708907882106,0.0002802957202146997
-0.2208137158944737,-0.2208137158944737,0.9997439160693243,0.0002803839957522435
-0.2193136298315949,-0.2193136298315949,0.9998222196904061,0.00028110342974277755
-0.21791190933436155,-0.21791190933436155,1.0000469929735698,0.00028206799884812714
-0.21640692529617808,-0.21640692529617808,1.0007482085147092,0.0002806719242896232
-0.21479231103876373,-0.21479231103876373,0.9997739911987209,0.00027985682807902455
-0.21257280798163264,-0.21257280798163264,0.999896386052473,0.00028190533213699666
-0.21120504436257762,-0.21120504436257762,0.9999849817126065,0.00028152094362548407
-0.2099360914871795,-0.2099360914871795,1.000041811541749,0.0002836788172966028
-0.20861682551476407,-0.20861682551476407,1.000106493737428,0.0002800315564300864
-0.20761720313312254,-0.20761720313312254,0.999897271933319,0.000282718050503397
-0.20605268114450154,-0.20605268114450154,0.9997831696156034,0.00027934238477094224
-0.20524727946612983,-0.20524727946612983,1.0002855142410079,0.000282176219410571
-0.20365584945539011,-0.20365584945539011,0.9996311164198233,0.00028041989241610094
-0.20287720669730333,-0.20287720669730333,1.0002051182251064,0.00027957430278929433
-0.20173381791682915,-0.20173381791682915,1.0003992380823399,0.00028132082092077076
-0.2007883936035796,-0.2007883936035796,1.000184995467904,0.00027957149959404674
-0.19935753849713364,-0.19935753849713364,1.000266537965906,0.0002831474805479999
-0.19819881565490505,-0.19819881565490505,1.0005920994663369,0.00028050890260171923
-0.19685620031668805,-0.19685620031668805,1.0000967602438573,0.0002803450224354159
-0.19551178403344238,-0.19551178403344238,0.9999824963599295,0.00027917394641057715
-0.19439938505529425,-0.19439938505529425,1.0001515452420269,0.00028048754906985393
-0.19302743444859516,-0.19302743444859516,0.9998106784948293,0.0002811289876651007
-0.1917277989166905,-0.1917277989166905,0.9998940676727386,0.00028089803116027837
-0.1907680607328075,-0.1907680607328075,1.0001828437126616,0.0002795079046734696
-0.18903020525322062,-0.18903020525322062,1.0003525016144112,0.00028119561314307655
-0.18754913601151202,-0.18754913601151202,1.000053120636633,0.00028124185620434906
-0.1854902184975799,-0.1854902184975799,0.9997294245501012,0.00028115582638018954
-0.18418968864280033,-0.18418968864280033,1.0000124818424785,0.000284643115765354
-0.18297996113833506,-0.18297996113833506,1.0004695252379023,0.00028015091102321103
-0.18176531435456128,-0.18176531435456128,0.9995492772193041,0.00028046960701768925
-0.17998754242871656,-0.17998754242871656,1.000134689371076,0.0002795037620432952
-0.17873073649971047,-0.17873073649971047,0.9999274035762516,0.00028055791235258445
-0.17741506267193471,-0.17741506267193471,1.0000232790386536,0.00028037468822176366
-0.17588003679557004,-0.17588003679557004,0.9998331066845889,0.0002811913817010233
-0.17507529969880126,-0.17507529969880126,1.000465188366397,0.0002797006199202512
-0.17405907762877176,-0.17405907762877176,1.0002075856035177,0.00028056054763315785
-0.17294002162961988,-0.17294002162961988,0.9999852069555872,0.0002823133160422001
-0.1715298879207694,-0.1715298879207694,0.9992231530194313,0.00028015894069536494
