time,time,flux,flux_err
-0.49993629020658165,-0.49993629020658165,1.000036586451323,4.6282453991530684e-05
-0.4998349113205525,-0.4998349113205525,1.0000024594604635,4.7349616777142756e-05
-0.4996341669078295,-0.4996341669078295,1.0000105662205048,4.650789387285115e-05
-0.4994849567126948,-0.4994849567126948,1.0000685335342376,4.264780879346211e-05
-0.49934867295087315,-0.49934867295087315,1.000010475010471,4.4000187709487574e-05
-0.4992334245791426,-0.4992334245791426,0.9999903668475923,4.249661094556146e-05
-0.4991889676544815,-0.4991889676544815,1.000065211138719,4.227379500582673e-05
-0.49909050175047015,-0.49909050175047015,0.9999698185664684,4.2333626901934216e-05
-0.49898457338567825,-0.49898457338567825,0.9999374308715266,4.218103567577802e-05
-0.49888888173154555,-0.49888888173154555,0.999995144095772,4.281380386957813e-05
-0.4988100348651642,-0.4988100348651642,0.9999845439652472,4.2490120855921646e-05
-0.4987101381731918,-0.4987101381731918,1.000077267712935,4.2579635618158286e-05
-0.4986168999690562,-0.4986168999690562,0.9999958048344112,4.24112051364354e-05
-0.49844851583475247,-0.49844851583475247,1.0000851049541164,4.272576544655519e-05
-0.49836794748262037,-0.49836794748262037,1.0000458110663888,4.281538348153883e-05
-0.4982967999210814,-0.4982967999210814,0.9999723267600311,4.26947305088439e-05
-0.49817205099679995,-0.49817205099679995,1.0000955360173434,4.2416965005513976e-05
-0.4979818784748204,-0.4979818784748204,1.0001098421307903,4.2419992240554465e-05
-0.4978531197324628,-0.4978531197324628,1.0001098013112864,4.291578227750095e-05
-0.4977153357380303,-0.4977153357380303,1.0000281327716343,4.241189554483469e-05
-0.4975720940186875,-0.4975720940186875,0.9999961615065566,4.216086036827505e-05
-0.49741721907630565,-0.49741721907630565,0.9999705123529928,4.2389642931797946e-05
-0.497300923417788,-0.497300923417788,1.0000179212736129,4.2309764122569524e-05
-0.4971822248131502,-0.4971822248131502,0.9999926702799558,4.20877073534092e-05
-0.4969802708015777,-0.4969802708015777,0.9999352429833621,4.295075084639757e-05
-0.49688027884985786,-0.49688027884985786,0.9999976290470223,4.436894585599867e-05
-0.4967534090857953,-0.4967534090857953,0.9999999353124247,4.226615348583629e-05
-0.4966748847073177,-0.4966748847073177,1.0000016993383682,4.238932080654559e-05
-0.49660308225720656,-0.49660308225720656,1.0000110825856987,4.227539202361532e-05
-0.4964874083088944,-0.4964874083088944,1.000023013990611,4.2266838544204334e-05
-0.4963576330104843,-0.4963576330104843,0.9999428480323491,4.254435071301988e-05
-0.4963018461654428,-0.4963018461654428,0.9999450441890156,4.2557095327822505e-05
-0.49619420373055617,-0.49619420373055617,0.9999508482875973,4.2054822399202606e-05
-0.49603254338435365,-0.49603254338435365,0.9999126586213981,4.290760750192748e-05
-0.49587032638664824,-0.49587032638664824,0.9999976887145694,4.275713725887234e-05
-0.4957837790250778,-0.4957837790250778,0.9999986970455368,4.243900626927928e-05
-0.4957006956130499,-0.4957006956130499,1.0000493068955656,4.2741537088084276e-05
-0.4955178172327578,-0.4955178172327578,1.0000672056911972,4.233101686926226e-05
-0.49530769338307434,-0.49530769338307434,1.0000661769705963,4.281505076327976e-05
-0.4952159796783235,-0.4952159796783235,0.9999535120022951,4.246513909542518e-05
-0.49508740115270483,-0.49508740115270483,0.9999235686520127,4.2190637359069115e-05
-0.49491678639606107,-0.49491678639606107,0.999969328535192,4.231586218999107e-05
-0.494796833206783,-0.494796833206783,1.0000051747556646,4.2584120137488124e-05
-0.4947023809829261,-0.4947023809829261,1.0000072219613287,4.197683693129939e-05
-0.49460580192680936,-0.49460580192680936,0.9999798942657311,4.275462622850667e-05
-0.49439001506834757,-0.49439001506834757,0.999963690137854,4.290441912424085e-05
-0.49430799136753195,-0.49430799136753195,1.0000218829229,4.277151087857352e-05
-0.49420021002588327,-0.49420021002588327,0.9999362916729309,4.209314577577681e-05
-0.49413993018097246,-0.49413993018097246,1.0001394425765795,4.222124783555193e-05
-0.49407144061115105,-0.49407144061115105,0.9999719429406143,4.1952492590375886e-05
-0.49398849800636524,-0.49398849800636524,0.9999506220244092,4.228438486413005e-05
-0.4938825994235231,-0.4938825994235231,0.999965764687977,4.228918562830825e-05
-0.4937803197506582,-0.4937803197506582,0.9999995471789281,4.296021962678664e-05
-0.4936653165117605,-0.4936653165117605,0.9999568126623201,4.2054074546505905e-05
-0.4935172858764417,-0.4935172858764417,0.9999983189952575,4.272101558805046e-05
-0.4933733779704198,-0.4933733779704198,0.9999955265830562,4.2535712552366475e-05
-0.4932162135024555,-0.4932162135024555,1.000044794819091,4.255818817448658e-05
-0.49314918758464044,-0.49314918758464044,0.9999787396155415,4.309680101616602e-05
-0.4929687892523361,-0.4929687892523361,1.000046033685376,4.2319232383119745e-05
-0.49273360903316643,-0.49273360903316643,0.999907657868297,4.2628639118951724e-05
-0.492643345540273,-0.492643345540273,1.0000190079651354,4.2514070399514966e-05
-0.49249716179620007,-0.49249716179620007,1.000024234570698,4.1900013017841486e-05
-0.4923581979586743,-0.4923581979586743,1.0000263192980892,4.231065409096058e-05
-0.4922013197647175,-0.4922013197647175,0.9999575162355507,4.2616794903790604e-05
-0.49207369054784067,-0.49207369054784067,0.9999947908909045,4.251492762378898e-05
-0.49182891004893464,-0.49182891004893464,0.9999321847409831,4.2892605448525735e-05
-0.49175895491207483,-0.49175895491207483,1.00010675171162,4.277621247843011e-05
-0.4916816207783995,-0.4916816207783995,1.0000727348477838,4.2226528019437586e-05
-0.4916099424532149,-0.4916099424532149,1.000009075486345,4.227277961762678e-05
-0.4915120428195223,-0.4915120428195223,1.0000333851483119,4.2016202645314305e-05
-0.491436828309088,-0.491436828309088,1.0000506938422817,4.2334237734020144e-05
-0.49135831343301106,-0.49135831343301106,1.0000390033408126,4.2278515069911395e-05
-0.49125591379706746,-0.49125591379706746,1.0000735054114345,4.238549464940802e-05
-0.491130346787395,-0.491130346787395,1.0000296523147791,4.2374298087871265e-05
-0.4909806125302566,-0.4909806125302566,0.9999297210878085,4.2743791750272414e-05
-0.49087715812493116,-0.49087715812493116,0.999950146918921,4.250485339291433e-05
-0.4906650031422032,-0.4906650031422032,1.000037291123021,4.261862052781957e-05
-0.4905863878404489,-0.4905863878404489,0.9999478420370345,4.35994866910779e-05
-0.49030013179581144,-0.49030013179581144,1.0000483225493206,4.2543274726788474e-05
-0.490140885321307,-0.490140885321307,1.0000243443797776,4.2618412953838826e-05
-0.4900519654649543,-0.4900519654649543,0.9999624373302229,4.285647870164265e-05
-0.4898610884556547,-0.4898610884556547,0.9999952537427159,4.251062330968847e-05
-0.4897273834736552,-0.4897273834736552,0.9999615444834535,4.234380480239317e-05
-0.48959705976594703,-0.48959705976594703,1.0001143175381826,4.2640938672011584e-05
-0.4894321492960444,-0.4894321492960444,0.9999256383286464,4.3628016846555844e-05
-0.4893019060284132,-0.4893019060284132,0.999803825138148,4.229370658847768e-05
-0.4892286289046751,-0.4892286289046751,1.0000139595270963,4.2859750723721277e-05
-0.4891914311796427,-0.4891914311796427,1.0000885238283135,4.25403481894622e-05
-0.4891162649844773,-0.4891162649844773,1.00009153926023,4.2579914671120264e-05
-0.48900131427799354,-0.48900131427799354,0.9999503361261093,4.221475832084215e-05
-0.4889036547596334,-0.4889036547596334,0.9999523801158526,4.2299215561195293e-05
-0.48881405434804037,-0.48881405434804037,1.0001172698356755,4.216523363947032e-05
-0.48869568515801803,-0.48869568515801803,1.0000976214679056,4.224177161553852e-05
-0.48853633586259093,-0.48853633586259093,0.9999725654297628,4.2684467405097326e-05
-0.4884280301106628,-0.4884280301106628,0.9999621526029093,4.2307321634217205e-05
-0.48832923220761587,-0.48832923220761587,0.9999854711844925,4.3182525233533445e-05
-0.4881618196581258,-0.4881618196581258,1.000039424958219,4.25702167299803e-05
-0.488063568493817,-0.488063568493817,1.000084060707721,4.3768887364153936e-05
-0.4878990695200628,-0.4878990695200628,1.0000562671704298,4.240965912692968e-05
-0.4877022347587626,-0.4877022347587626,1.0000818089209584,4.257483754781733e-05
-0.4875991602108115,-0.4875991602108115,1.0001201742112291,4.2374920674259755e-05
-0.4874768280016724,-0.4874768280016724,1.0000444131379613,4.255994635947909e-05
-0.487329849076923,-0.487329849076923,0.999957807576552,4.2035342163987234e-05
-0.4872271538886707,-0.4872271538886707,1.000015002248962,4.2334762783760144e-05
-0.4870956843224121,-0.4870956843224121,0.9999995742779418,4.2635870290732195e-05
-0.4869606262393063,-0.4869606262393063,1.0000753279335308,4.2765782091761567e-05
-0.4867805191897787,-0.4867805191897787,0.9999981039076186,4.2260592861536494e-05
-0.48666980642301494,-0.48666980642301494,1.0000158462493274,4.260476459561502e-05
-0.4866403416672256,-0.4866403416672256,0.9999966912316369,4.257013881876972e-05
-0.4865747145930072,-0.4865747145930072,0.9999528227540694,4.265372843324548e-05
-0.48648352980380877,-0.48648352980380877,1.0000236667516673,4.214388739838222e-05
-0.4863858618831728,-0.4863858618831728,1.0000106714835284,4.21340556011733e-05
-0.4862732966343174,-0.4862732966343174,0.9999268630619721,4.231221341931761e-05
-0.486100952498964,-0.486100952498964,1.0000488104540222,4.271810265086091e-05
-0.4859283666824922,-0.4859283666824922,0.9999591320425034,4.226884108317008e-05
-0.4857932220242219,-0.4857932220242219,0.9999848419722867,4.29322486440467e-05
-0.4857102059322642,-0.4857102059322642,0.9999949912443977,4.255559264344138e-05
-0.48558727164927407,-0.48558727164927407,1.0000142264859704,4.254728731294884e-05
-0.48549935761257074,-0.48549935761257074,0.999963335395836,4.450070716930782e-05
-0.48534236135310493,-0.48534236135310493,0.9999572678863469,4.2422049537960615e-05
-0.4851494510367047,-0.4851494510367047,0.9999335717293638,4.2359983359536105e-05
-0.4849933889461681,-0.4849933889461681,1.0000001206672025,4.272052702127058e-05
-0.4848409603495384,-0.4848409603495384,1.0001188345691552,4.2261857017796737e-05
-0.484738912852481,-0.484738912852481,0.9999935178897379,4.1902078528454064e-05
-0.4846191558841383,-0.4846191558841383,0.9999311804178506,4.271409662218412e-05
-0.4845104697335046,-0.4845104697335046,0.9999698714593972,4.292017803962453e-05
-0.4843782405601814,-0.4843782405601814,1.0000053001926759,4.219397189306835e-05
-0.4842338551505236,-0.4842338551505236,1.0000599017976604,4.246884361592542e-05
-0.484151706675766,-0.484151706675766,0.9997344450597605,4.231309895092387e-05
-0.48409223870839924,-0.48409223870839924,1.0000654430912268,4.2425720280047765e-05
-0.48402977423684207,-0.48402977423684207,1.000036210751572,4.3061214127562476e-05
-0.48396522301191,-0.48396522301191,1.000001575096663,4.2012615255963036e-05
-0.48389406215865166,-0.48389406215865166,0.999983538276816,4.212971143118117e-05
-0.4837789817218436,-0.4837789817218436,0.999941886360649,4.209464692826277e-05
-0.4836284926102962,-0.4836284926102962,0.9999936167915126,4.250015591014245e-05
-0.48347144083236343,-0.48347144083236343,1.0000058908674152,4.233462741036308e-05
-0.48334168972214686,-0.48334168972214686,1.0001039940548242,4.253806307760403e-05
-0.4832218207069673,-0.4832218207069673,1.0000043630915494,4.240223516042553e-05
-0.48311604575719685,-0.48311604575719685,0.9999732672147476,4.239562583888713e-05
-0.4829740045417566,-0.4829740045417566,1.0000765581388802,4.281817845208139e-05
-0.4828519907896407,-0.4828519907896407,0.9999969495520062,4.2445541292502877e-05
-0.48270712514349723,-0.48270712514349723,1.0000953544229192,4.218582204103822e-05
-0.4825043927296065,-0.4825043927296065,0.9999705026080397,4.2751620267652796e-05
-0.48242243856366257,-0.48242243856366257,1.0000632952423165,4.281148024677867e-05
-0.4823088225763058,-0.4823088225763058,1.0000512641802999,4.192743595482938e-05
-0.4822053192881867,-0.4822053192881867,1.000040592928222,4.224748998654181e-05
-0.4821148709685076,-0.4821148709685076,0.9998937491872004,4.209131370613201e-05
-0.4820109877269715,-0.4820109877269715,0.9999873717045251,4.289845846312998e-05
-0.4819184605963528,-0.4819184605963528,0.9999860535632271,4.2428650316795586e-05
-0.48176029219466726,-0.48176029219466726,0.9999349314546017,4.235663383769007e-05
-0.48164878448296805,-0.48164878448296805,0.9999994086842146,4.2505612617886453e-05
-0.481555322377244,-0.481555322377244,0.9999595732455948,4.208226205716372e-05
-0.4815108578739455,-0.4815108578739455,1.00005691850921,4.283945015678031e-05
-0.48140673865564165,-0.48140673865564165,0.9999865972109643,4.25226364133599e-05
-0.4813250634470023,-0.4813250634470023,0.9999777856298582,4.2116683672555086e-05
-0.4812231085583335,-0.4812231085583335,0.9999535538803516,4.208701735595423e-05
-0.4810502255917527,-0.4810502255917527,1.0000310813499584,4.238771190151552e-05
-0.4809153065318242,-0.4809153065318242,0.9999860073630463,4.23361862806847e-05
-0.4807768603786826,-0.4807768603786826,0.9999501101579448,4.215322129220697e-05
-0.4806660957226995,-0.4806660957226995,1.0000877552499954,4.2699225708487625e-05
-0.48053129032778086,-0.48053129032778086,1.0000142878891598,4.275538356172754e-05
-0.4803967869316693,-0.4803967869316693,1.000048892330693,4.242760003132397e-05
-0.48032967254694087,-0.48032967254694087,1.000038792302489,4.24437302239314e-05
-0.48013602262944916,-0.48013602262944916,0.9999550717228815,4.245558735565774e-05
-0.4799170818121638,-0.4799170818121638,1.0000143359442655,4.254559299803801e-05
-0.4798697428719606,-0.4798697428719606,1.0001570478388178,4.278715893588102e-05
-0.4797862038220046,-0.4797862038220046,1.0000096894749662,4.192147010903924e-05
-0.47967473892204,-0.47967473892204,1.0000162725166593,4.2455797827286115e-05
-0.479535659449175,-0.479535659449175,0.9999810119207178,4.205627217966855e-05
-0.47941738867375533,-0.47941738867375533,0.9999599957344868,4.2717514751441705e-05
-0.4792838752735406,-0.4792838752735406,0.9999791333100649,4.237800829348452e-05
-0.47915754949790423,-0.47915754949790423,1.0000557383338653,4.245341984001222e-05
-0.47906022347451654,-0.47906022347451654,1.0000043019236369,4.20235550888219e-05
-0.4789997368498007,-0.4789997368498007,1.0000321787230892,4.2672274384481215e-05
-0.47891764130909,-0.47891764130909,1.0000062199695476,4.2822032805961856e-05
-0.47883735020295715,-0.47883735020295715,0.9999443544217798,4.2024604375254944e-05
-0.47875143597484565,-0.47875143597484565,1.0001027020205613,4.222047530833997e-05
-0.47859821596939583,-0.47859821596939583,0.9999752088696059,4.2335935626395675e-05
-0.4784300799103221,-0.4784300799103221,1.0000309757616048,4.2438460665038094e-05
-0.47822014772100374,-0.47822014772100374,0.9999873647505106,4.2582167488894424e-05
-0.4781352319609141,-0.4781352319609141,0.9999875610471791,4.269914836356706e-05
-0.4779366512899287,-0.4779366512899287,0.9999711179483546,4.3136453813700846e-05
-0.47784331735165325,-0.47784331735165325,1.000016810960744,4.224230664732867e-05
-0.4777371338364901,-0.4777371338364901,1.0000117717974841,4.2611821061100845e-05
-0.47756295490835327,-0.47756295490835327,0.9999878752560614,4.229830982643999e-05
-0.4774439817498205,-0.4774439817498205,1.000036761596172,4.209852819274158e-05
-0.47734814787399954,-0.47734814787399954,0.9999536088719132,4.257373799115784e-05
-0.47728436297911686,-0.47728436297911686,0.9999870182699112,4.254346572842777e-05
-0.4771943347150227,-0.4771943347150227,1.0001613757280494,4.210177563921694e-05
-0.4770522032427834,-0.4770522032427834,0.9999929341800392,4.232414994950441e-05
-0.47694914749881717,-0.47694914749881717,0.9999434119554284,4.229084346523029e-05
-0.47682702166493984,-0.47682702166493984,0.999943179423527,4.265659953899009e-05
-0.47672423053882085,-0.47672423053882085,1.0000312245021776,4.2456675402560887e-05
-0.4765876433753874,-0.4765876433753874,0.99994418735252,4.259272231307478e-05
-0.4764918135217158,-0.4764918135217158,1.0000315122177876,4.223150269676792e-05
-0.4764207554399036,-0.4764207554399036,0.9999991684192487,4.261081488447569e-05
-0.4763370929547818,-0.4763370929547818,1.0000069230576671,4.239797277984332e-05
-0.4762578827561811,-0.4762578827561811,1.0000907640475258,4.252041548595928e-05
-0.47611572373425587,-0.47611572373425587,0.9999366949626921,4.180654506622542e-05
-0.4759941228432581,-0.4759941228432581,1.000026461283203,4.219517217965127e-05
-0.4758695549244294,-0.4758695549244294,1.0000171263674205,4.2319561128205295e-05
-0.47568653110938613,-0.47568653110938613,1.0000082089441713,4.234465049650701e-05
-0.4755545519612497,-0.4755545519612497,1.0000615960213786,4.272460541192045e-05
-0.4754157746763667,-0.4754157746763667,0.9999866675825363,4.2915114245699894e-05
-0.47528173723840156,-0.47528173723840156,1.0000046696191576,4.208777291252592e-05
-0.475167275549029,-0.475167275549029,1.0000233437825685,4.2562501367029975e-05
-0.4749666031246306,-0.4749666031246306,0.9999830404934513,4.232680003577448e-05
-0.47483445293910337,-0.47483445293910337,0.999981539166038,4.251269610786107e-05
-0.4747556757822167,-0.4747556757822167,1.000122091674554,4.2490552011484694e-05
-0.4746767179341987,-0.4746767179341987,1.0000362618889336,4.236427326409547e-05
-0.4746013525989838,-0.4746013525989838,0.9999935331456913,4.234278537700666e-05
-0.47447653432318476,-0.47447653432318476,0.9999650274655275,4.1943338376279404e-05
-0.474354903033236,-0.474354903033236,0.9999465155623666,4.2688624597823015e-05
-0.47425452219031283,-0.47425452219031283,0.9999438567137835,4.2472778063098585e-05
-0.47411320386745504,-0.47411320386745504,0.9999378355720273,4.230430479912428e-05
-0.47396032967953944,-0.47396032967953944,1.000069689113636,4.2732765837084135e-05
-0.47387833514949307,-0.47387833514949307,1.0000212719505903,4.24278289357131e-05
-0.4737852581311017,-0.4737852581311017,0.9999575577716584,4.240858773558098e-05
-0.4737013622536324,-0.4737013622536324,0.9999997954023586,4.273519203046779e-05
-0.4735669587331358,-0.4735669587331358,1.0000323700659455,4.182306915106026e-05
-0.4734639166883426,-0.4734639166883426,1.0000211948025537,4.257553742969023e-05
-0.47333716350840405,-0.47333716350840405,0.9999471992872925,4.1736773099817245e-05
-0.47318548858165743,-0.47318548858165743,0.9999151281182754,4.2547582002694476e-05
-0.47307033344113736,-0.47307033344113736,1.000012186157875,4.2542873082187385e-05
-0.47294051042117646,-0.47294051042117646,1.0001073610569648,4.309736989637003e-05
-0.47285262891673485,-0.47285262891673485,1.000095349593537,4.299706726919494e-05
-0.4727830177085707,-0.4727830177085707,1.0000004036022296,4.2274102286822826e-05
-0.47265378234733363,-0.47265378234733363,0.999977007358775,4.243879256823066e-05
-0.4725253846962005,-0.4725253846962005,1.000023064428922,4.235668507308718e-05
-0.47237418668810277,-0.47237418668810277,1.000007128641561,4.26000014065207e-05
-0.4722648714116076,-0.4722648714116076,1.0000209403776867,4.2603029914427664e-05
-0.4721421287249541,-0.4721421287249541,1.0000215156288097,4.2693521917067845e-05
-0.47208698334288784,-0.47208698334288784,0.9999123312340021,4.250000823387839e-05
-0.4719252556329593,-0.4719252556329593,1.000053192289538,4.2154256617788e-05
-0.471824592188932,-0.471824592188932,0.9999605170238025,4.2508731912853004e-05
-0.4717518866265891,-0.4717518866265891,0.9999727476797233,4.224897276482765e-05
-0.4716342999658082,-0.4716342999658082,0.9999787959282858,4.260080115768168e-05
-0.47150730634457433,-0.47150730634457433,1.000094698494054,4.2069162204093906e-05
-0.47142022878106216,-0.47142022878106216,0.9999951737619706,4.2562942608151245e-05
-0.47132672170700973,-0.47132672170700973,1.0000900100951085,4.221574484214584e-05
-0.471240683743963,-0.471240683743963,1.0000023508029787,4.274612732122873e-05
-0.47114921075699384,-0.47114921075699384,1.0000068923531162,4.2500669050876946e-05
-0.47100879085774067,-0.47100879085774067,0.9999688713682964,4.224459024291279e-05
-0.4708103226817911,-0.4708103226817911,0.9999739747760412,4.193954686863119e-05
