time,time,flux,flux_err
-0.49937215152507025,-0.49937215152507025,1.000026258505612,0.00015513993163159822
-0.4978937925304005,-0.4978937925304005,1.0001908118466527,0.00015499194742007663
-0.49572948103620246,-0.49572948103620246,1.0001248363080586,0.00015591357132399406
-0.4945108921332576,-0.4945108921332576,1.0001086661397924,0.00014058671661729613
-0.493088790330512,-0.493088790330512,1.0001018782897355,0.00014115329857921304
-0.4919411728857085,-0.4919411728857085,1.0000767965042943,0.00014082750304403506
-0.4903739901557856,-0.4903739901557856,1.0001243460274114,0.00014102142689090228
-0.48878832880436673,-0.48878832880436673,0.9998300915211988,0.00014177289527058686
-0.48745919711873287,-0.48745919711873287,1.0000958264136386,0.00014116660275393533
-0.4850757631989836,-0.4850757631989836,0.9999794887026333,0.00014174107309958717
-0.48320883878186577,-0.48320883878186577,0.9998271402281512,0.0001409695896686815
-0.4822026499423373,-0.4822026499423373,1.0001561070502336,0.00014236695990464725
-0.48117530492163496,-0.48117530492163496,1.0001034909691897,0.0001424204964671797
-0.48027877276035724,-0.48027877276035724,1.0001178000976985,0.00014083003647274246
-0.47874742337371573,-0.47874742337371573,0.9998281088008453,0.0001409304173344255
-0.47801940949138955,-0.47801940949138955,1.000119654177681,0.00014066396969534588
-0.4762112987220462,-0.4762112987220462,1.0001542920987334,0.00014104076801789854
-0.4751460720166506,-0.4751460720166506,1.0003211919132757,0.0001424206931479157
-0.47391653625963953,-0.47391653625963953,0.9998099570237434,0.00014106075852021125
-0.47215170055642375,-0.47215170055642375,1.0001037292058523,0.00014119033748999273
-0.4694001435265818,-0.4694001435265818,0.9999509088253484,0.00014102234353422026
-0.46873130171661614,-0.46873130171661614,1.000058373390006,0.00014079638686101322
-0.46708698949660177,-0.46708698949660177,1.0001548639286946,0.00014078576839307878
-0.4656735955904878,-0.4656735955904878,0.9999464358079548,0.0001423996830361013
-0.4642542140063597,-0.4642542140063597,0.9997972516202054,0.000141228583317552
-0.46214052502036795,-0.46214052502036795,0.9998170899077327,0.00014115780207781244
-0.4602247974551574,-0.4602247974551574,1.0000012310897592,0.00014172215849081983
-0.4586583228847303,-0.4586583228847303,1.0003472464527692,0.0001418197674039907
-0.4576311946271744,-0.4576311946271744,0.9999794934289812,0.0001408320151138862
-0.45616091603733366,-0.45616091603733366,1.0001399547624836,0.00014263561939459495
-0.4550576005654875,-0.4550576005654875,1.0003049561474677,0.00014116844968360047
-0.453636592192197,-0.453636592192197,1.000431974770986,0.0001412042839202514
-0.45301450531260345,-0.45301450531260345,1.0001896173214697,0.000140666000090437
-0.4517417049726646,-0.4517417049726646,0.9998796542006169,0.00014128052418581604
-0.45075551019908744,-0.45075551019908744,0.9997828717995187,0.00014065377087095024
-0.44927219934688767,-0.44927219934688767,1.000019545480328,0.00014353867538620507
-0.44851329232915305,-0.44851329232915305,1.000204830193988,0.00014113285271374256
-0.44705726101456095,-0.44705726101456095,1.00010057914949,0.00014108205483902693
-0.44452019145392113,-0.44452019145392113,1.0000123467733202,0.00014122278930708653
-0.4439015446914709,-0.4439015446914709,0.9999886706379035,0.00014094305437185013
-0.44353609825411694,-0.44353609825411694,1.0001674794498245,0.00014044964015224275
-0.4425821071687096,-0.4425821071687096,1.000260278283887,0.00014293680871701295
-0.4418025152881455,-0.4418025152881455,0.9999131908572355,0.00014124825288540523
-0.4412532301459578,-0.4412532301459578,1.0000110921814636,0.00014063603438457708
-0.43968615920530285,-0.43968615920530285,0.9998047518171559,0.00014131670747371947
-0.43911712002154674,-0.43911712002154674,1.0000011794115964,0.00014054447422286032
-0.4377439784257149,-0.4377439784257149,1.0002048912882189,0.00014168681602622798
-0.4365837769393693,-0.4365837769393693,1.0000291741331115,0.00014117605979552407
-0.4347432750088046,-0.4347432750088046,0.9999312649525587,0.00014188307543444307
-0.4332686056586681,-0.4332686056586681,1.000022796609512,0.00014149980873105032
-0.43119583899024294,-0.43119583899024294,1.0002310556816283,0.00014135737671399054
-0.43008731512964005,-0.43008731512964005,1.000021138919681,0.00014100744578529785
-0.4294798798735428,-0.4294798798735428,1.0000269995713436,0.0001407880358872215
-0.4278919473938004,-0.4278919473938004,1.0000616541114487,0.00014095131425508587
-0.42677696588871183,-0.42677696588871183,0.9998312560702411,0.00014217233556976935
-0.4253414841419726,-0.4253414841419726,1.0000850516454545,0.00014100867396590197
-0.4231167355872458,-0.4231167355872458,0.9997085092561457,0.00014114365198327345
-0.4210136371053522,-0.4210136371053522,1.0000911472231857,0.00014226668144537912
-0.41981598825150285,-0.41981598825150285,1.0002901153251762,0.00014151634574911904
-0.41840713743222296,-0.41840713743222296,0.9997787354242238,0.00014091806409659651
-0.4169185100632603,-0.4169185100632603,1.0002718857798414,0.00014256244633918102
-0.41544591224519534,-0.41544591224519534,1.0002334292745263,0.00014099246640704745
-0.4141297855778248,-0.4141297855778248,0.9999906676257323,0.00014097401459633625
-0.41356118408584736,-0.41356118408584736,0.9999255675070428,0.00014063252258891937
-0.4120909821089299,-0.4120909821089299,0.9999926756024374,0.00014119236589825335
-0.4106194117826817,-0.4106194117826817,0.9998850697285683,0.00014191217077658917
-0.4091322750762629,-0.4091322750762629,1.0000490206508272,0.00014081316575212328
-0.4074655902113591,-0.4074655902113591,1.0002728549954552,0.0001412152378656632
-0.4048157603996515,-0.4048157603996515,1.0003360648669426,0.0001412382107300303
-0.4044681221195788,-0.4044681221195788,1.0003142289648317,0.00014044394779376884
-0.403079883242026,-0.403079883242026,1.0000108816418933,0.00014198556739420268
-0.40209830003004754,-0.40209830003004754,1.000120069186451,0.0001406656627559445
-0.4008533063912182,-0.4008533063912182,0.9998724932292131,0.00014123233628048898
-0.39972188877800363,-0.39972188877800363,1.0001339120836108,0.0001406695613932632
-0.3977120936157007,-0.3977120936157007,0.9999393905565149,0.00014117756248686208
-0.3953617591789225,-0.3953617591789225,0.9999815346585159,0.00014156872952370117
-0.3942497078300221,-0.3942497078300221,1.0001103496049673,0.00014150483078117707
-0.3927718529623235,-0.3927718529623235,0.9999977419923741,0.00014244027630555518
-0.39118463863342184,-0.39118463863342184,0.9999183811030068,0.00014122992699157295
-0.3903849462432845,-0.3903849462432845,1.0001707738961154,0.00014077141201378747
-0.38917892296303763,-0.38917892296303763,1.0000769315148736,0.00014277954868533935
-0.3882119276051526,-0.3882119276051526,0.9997503993080237,0.00014075812388450386
-0.3868968010727258,-0.3868968010727258,0.99996619062838,0.0001415194336014883
-0.38556330024584895,-0.38556330024584895,1.000060569193878,0.0001415530473237437
-0.3832976013327425,-0.3832976013327425,0.9998594726769147,0.00014172773475953665
-0.3806477997408365,-0.3806477997408365,1.00001344933697,0.00014116961247557025
-0.37915834481827915,-0.37915834481827915,1.0001173396339158,0.00014098334353152806
-0.3777881241294381,-0.3777881241294381,0.9998864824146999,0.00014340000368650053
-0.37707591255457373,-0.37707591255457373,1.000010874144556,0.0001412583575640328
-0.37635355350066674,-0.37635355350066674,1.0000544888152718,0.00014083064818162203
-0.3748466676996031,-0.3748466676996031,1.0002390684732652,0.00014100299736640544
-0.3739259011192189,-0.3739259011192189,1.0000205524622652,0.00014084235676802055
-0.3723018050659448,-0.3723018050659448,1.000165483163622,0.00014117619208390119
-0.3712884760869201,-0.3712884760869201,0.9999228068516466,0.00014229055100283922
-0.3700235232972773,-0.3700235232972773,0.999938353994134,0.0001408946526224355
-0.36822794054824043,-0.36822794054824043,1.0000777166457784,0.0001412003647196781
-0.3654749172972515,-0.3654749172972515,1.000105605424682,0.0001410281544654159
-0.3648061540989147,-0.3648061540989147,0.9999520797175849,0.00014077635688947246
-0.36316130946579506,-0.36316130946579506,1.0000998528395346,0.000140795803718123
-0.3623299831597251,-0.3623299831597251,1.0001337020152417,0.000141150987294026
-0.3614884338057891,-0.3614884338057891,0.999966449553982,0.00014243107887635108
-0.35990947521204364,-0.35990947521204364,1.0000135690755758,0.00014124707385964553
-0.35775617621839045,-0.35775617621839045,1.0001051295547514,0.00014183305142774236
-0.3557248693708971,-0.3557248693708971,1.0000584755807858,0.00014108419628685483
-0.3543822113715578,-0.3543822113715578,1.000121574260002,0.00014174339314116478
-0.3534997408896743,-0.3534997408896743,1.0000066693404055,0.00014087190281854715
-0.35194130170857535,-0.35194130170857535,1.000087817451051,0.00014246471897735717
-0.35070267044502546,-0.35070267044502546,1.0003553428421335,0.00014113887696567357
-0.3492665657962789,-0.3492665657962789,0.9999094006072395,0.00014099025357183136
-0.3487569911951141,-0.3487569911951141,0.9997359932244552,0.00014079626977452203
-0.34720242540715845,-0.34720242540715845,1.000070161436409,0.00014118455158957315
-0.34604539633219245,-0.34604539633219245,1.0001902523184512,0.00014291666398149973
-0.34475968370679766,-0.34475968370679766,1.0002472999126728,0.00014144289586007618
-0.3436616500817763,-0.3436616500817763,1.000087312452572,0.00014139313498147272
-0.34144019790983293,-0.34144019790983293,0.9998463019721608,0.00014100624227033105
-0.34016858484756085,-0.34016858484756085,1.0000566264074848,0.00014119925701370904
-0.3398340149593423,-0.3398340149593423,1.0001552965639833,0.00014054829369829523
-0.33891714960409447,-0.33891714960409447,1.0002288106740223,0.00014200352340044265
-0.3378972209364292,-0.3378972209364292,0.9999189370413685,0.00014193597984973717
-0.3370797685769503,-0.3370797685769503,0.9999228336517592,0.00014082039758939305
-0.3355318279027415,-0.3355318279027415,0.9998679332710433,0.00014110331317442173
-0.33485113688511775,-0.33485113688511775,0.9999460493912885,0.00014084533451682967
-0.3330602995301888,-0.3330602995301888,1.0000288557774657,0.00014127817890331116
-0.3308247385022696,-0.3308247385022696,1.0000108979733198,0.00014172463491339768
-0.32992503489222147,-0.32992503489222147,0.9998954944444162,0.00014187315633078874
-0.3284978984927875,-0.3284978984927875,1.000227880219957,0.0001413634613479205
-0.32640733563748653,-0.32640733563748653,1.0000477316525038,0.0001411561345184479
-0.3259908428044582,-0.3259908428044582,0.999738437088153,0.0001407320003145519
-0.3248340458027087,-0.3248340458027087,1.0000025376954795,0.00014118605455278526
-0.3234902643154783,-0.3234902643154783,1.0000829064281576,0.00014084061634695537
-0.3222664719898603,-0.3222664719898603,1.0002258787626834,0.0001423503088268815
-0.32069545931590254,-0.32069545931590254,1.00016607889374,0.0001412010009766547
-0.31863132443177167,-0.31863132443177167,0.9999771460578163,0.0001417289779985136
-0.3168218883736699,-0.3168218883736699,1.0000326766156578,0.00014148906052190843
-0.31506654117620203,-0.31506654117620203,1.0001370667856893,0.00014111175300305002
-0.31432246497352023,-0.31432246497352023,1.0000008789014727,0.00014107708511034155
-0.31341499369009396,-0.31341499369009396,0.9997750712218876,0.00014229091343433972
-0.3120854740482173,-0.3120854740482173,0.9998011094345415,0.00014103426502629342
-0.3107898136615404,-0.3107898136615404,1.0000431832854766,0.00014117767232308328
-0.3099211817047035,-0.3099211817047035,0.9998117503778481,0.00014073539013149413
-0.30917069613497006,-0.30917069613497006,0.9999871225045289,0.00014092839471784783
-0.3076992115282337,-0.3076992115282337,0.9999533428408448,0.0001410210052116802
-0.3058342684256786,-0.3058342684256786,0.9998495831725804,0.00014196053807654808
-0.3048195005489106,-0.3048195005489106,1.000029894559931,0.0001409333655466156
-0.30221365703619085,-0.30221365703619085,0.999971168764344,0.00014122223808424764
-0.3007056346490572,-0.3007056346490572,0.9999006616654983,0.00014078917968982416
-0.3001419329375494,-0.3001419329375494,1.0002356945682451,0.0001415737291987489
-0.2986421715380857,-0.2986421715380857,1.000162556480222,0.00014095088342807606
-0.29788712773515724,-0.29788712773515724,0.99997286238476,0.00014143601204914753
-0.2963343634241028,-0.2963343634241028,0.9999381249818133,0.0001408929672240137
-0.2942148979775084,-0.2942148979775084,0.9999314535504388,0.00014117184700857457
-0.2919139330559119,-0.2919139330559119,0.9997489424743342,0.00014158283474358959
-0.2909152033753344,-0.2909152033753344,1.0001712810074506,0.0001411107414750911
-0.289202259069134,-0.289202259069134,1.000231129380992,0.00014146371232077247
-0.28726629257798775,-0.28726629257798775,1.000052438515524,0.00014244865213580536
-0.2864598593907431,-0.2864598593907431,0.9998826350859463,0.00014074471254465435
-0.2854003735446895,-0.2854003735446895,0.9999817679987574,0.00014280488759856917
-0.28448748820810577,-0.28448748820810577,1.0000036848360572,0.00014071811805243793
-0.2832079974214139,-0.2832079974214139,0.9998780088612914,0.00014150294058338549
-0.28205634143960195,-0.28205634143960195,0.9999210837770232,0.00014085895637660315
-0.2798369326374086,-0.2798369326374086,1.0001354843765864,0.00014187117359535528
-0.27800982250555534,-0.27800982250555534,1.0000359201000057,0.0001415804346378452
-0.27584993981799927,-0.27584993981799927,1.0001207503654925,0.00014120200908044733
-0.2747241227167251,-0.2747241227167251,0.9999437392775622,0.00014207445119731224
-0.2735235612592078,-0.2735235612592078,0.9999731912555611,0.0001424736359465164
-0.27268994649202793,-0.27268994649202793,0.9999483695462891,0.0001407487212574867
-0.27108026383430117,-0.27108026383430117,1.000176222204382,0.00014131676461959572
-0.2703844253781426,-0.2703844253781426,0.999879484443359,0.00014063415239462738
-0.26848794520119557,-0.26848794520119557,0.9999656403453574,0.00014117012828322113
-0.26756408696746803,-0.26756408696746803,1.0001920229196721,0.00014148077844925583
-0.266140907209774,-0.266140907209774,0.9998918837038928,0.00014186645294459715
-0.26430417915107685,-0.26430417915107685,1.000055125903504,0.00014120166075428227
-0.2615586818952579,-0.2615586818952579,0.9999876152933936,0.00014120622482823727
-0.2611043135439104,-0.2611043135439104,0.9998932507348751,0.00014058149575417008
-0.2596826389817579,-0.2596826389817579,1.0001134399713199,0.00014103662267498748
-0.2588210927104228,-0.2588210927104228,1.0002048884383377,0.00014097711798147347
-0.25761017168406397,-0.25761017168406397,0.9999502949545956,0.00014244971705995623
-0.25629106143533137,-0.25629106143533137,1.0001584930487197,0.00014119939432287684
-0.2539121602996602,-0.2539121602996602,1.0000332581969902,0.0001417937333205169
-0.25180078072517065,-0.25180078072517065,1.0000144943384983,0.00014107548195248226
-0.2504586802198901,-0.2504586802198901,0.999910930629064,0.00014175856285923385
-0.2497160477571015,-0.2497160477571015,0.9999563107576259,0.0001407061449523672
-0.24831242681248114,-0.24831242681248114,1.000021969186391,0.00014261184712547446
-0.2471003414335428,-0.2471003414335428,1.0000928163571559,0.00014093840031513118
-0.24578790700761602,-0.24578790700761602,0.9998972480943602,0.00014116583744781214
-0.2451655858043523,-0.2451655858043523,0.9998770796333769,0.00014061246709474778
-0.24426243624693597,-0.24426243624693597,0.9999193594473355,0.00014112248883201014
-0.24290559830915298,-0.24290559830915298,1.0000554701160218,0.00014084695416864858
-0.24142418511328287,-0.24142418511328287,0.9998749713795974,0.00014355215175978675
-0.24058266606807593,-0.24058266606807593,1.0000843368559764,0.00014095153028018332
-0.23870686994923745,-0.23870686994923745,1.000060778022892,0.00014103015609329034
-0.23653624532162212,-0.23653624532162212,1.0002532404631583,0.00014117230255731336
-0.23596425489595277,-0.23596425489595277,1.0000805278367424,0.00014072231772796332
-0.235242938601732,-0.235242938601732,0.9996754017430227,0.00014177357117043022
-0.2341589145245962,-0.2341589145245962,0.9998903788490013,0.00014213796432998834
-0.2332802282020566,-0.2332802282020566,0.999891147452502,0.00014081091987773044
-0.2320264176974888,-0.2320264176974888,1.0000147325368896,0.00014139017738309473
-0.2311274176725419,-0.2311274176725419,1.0000122094651849,0.0001406519326529554
-0.22961352100610383,-0.22961352100610383,0.9999998095996322,0.00014119755593107987
-0.22727853614269405,-0.22727853614269405,0.9999105659762781,0.00014186982501930342
-0.22599370307070785,-0.22599370307070785,1.0002001842660684,0.00014094866495027744
-0.22446714213656377,-0.22446714213656377,0.999884728986751,0.00014143088613766426
-0.2226811446234933,-0.2226811446234933,1.0000659337131708,0.00014125937367359602
-0.222098098245624,-0.222098098245624,1.0001478255664482,0.00014073750225284442
-0.22133101446816,-0.22133101446816,0.9999601510325716,0.0001410686462033389
-0.2196165854104038,-0.2196165854104038,0.9998962255311815,0.00014076082028567296
-0.2184128877997864,-0.2184128877997864,0.9998672345528176,0.00014258754698105272
-0.2171689638576936,-0.2171689638576936,0.9999098310694029,0.00014098417577940604
-0.21546397615747992,-0.21546397615747992,0.9999358382120669,0.00014134641921790923
-0.2134539802907966,-0.2134539802907966,0.999819869030877,0.0001422272892493379
-0.21228808644591482,-0.21228808644591482,0.9998476872050517,0.00014103366350304723
-0.21065416917699623,-0.21065416917699623,0.999906930429245,0.00014085931752665012
-0.20943446651363046,-0.20943446651363046,1.0000516083863369,0.00014280603895589275
-0.2083461325521057,-0.2083461325521057,0.9996874560337254,0.00014095288691897914
-0.20712901382357812,-0.20712901382357812,0.9999174514115804,0.00014125130704133757
-0.2060665740784316,-0.2060665740784316,1.000067927198701,0.00014080336272604628
-0.2057045309971727,-0.2057045309971727,1.0001868171410901,0.00014066019943274928
-0.20403541119885632,-0.20403541119885632,0.9999751312584788,0.00014117663655900534
-0.2024692323881027,-0.2024692323881027,1.0001956840758042,0.0001422660552338739
-0.2012823215809476,-0.2012823215809476,0.999929498797059,0.0001408057928842856
-0.19967106510230223,-0.19967106510230223,1.000194820256354,0.00014119310307609054
-0.1972919221581833,-0.1972919221581833,1.0000129802420847,0.0001412625578849609
-0.19664659404879786,-0.19664659404879786,1.0004396205592354,0.0001405411196126059
-0.19576999175769744,-0.19576999175769744,0.999747060399342,0.00014444229616267164
-0.19450014889880549,-0.19450014889880549,0.9999230485716362,0.0001407708132210286
-0.1931306228711037,-0.1931306228711037,1.0000637860027126,0.00014154001748439198
-0.19163047978727263,-0.19163047978727263,0.9996982943857192,0.00014088383829358067
-0.1894062014282099,-0.1894062014282099,1.0000999509124084,0.0001418854022511779
-0.18733794841682538,-0.18733794841682538,0.9997871157256908,0.00014080961153562936
-0.1860456223184883,-0.1860456223184883,0.999914112185784,0.00014191009098466384
-0.18492401824332774,-0.18492401824332774,0.999961975994853,0.00014242059412908505
-0.1833263052307302,-0.1833263052307302,1.0002186250324125,0.00014112052870288535
-0.18253477253747405,-0.18253477253747405,0.9999302707747801,0.00014075687454528145
-0.18133054746722338,-0.18133054746722338,1.0000150971354163,0.00014276102383140523
-0.18036077409560675,-0.18036077409560675,0.9998720670863424,0.00014076439179286192
-0.1789053469641658,-0.1789053469641658,0.9999131948390076,0.00014117314012296602
-0.1775983949439251,-0.1775983949439251,0.9997238892627536,0.00014150210642543902
-0.17578658532293048,-0.17578658532293048,1.000037061132589,0.00014118793282135328
-0.17331077240232845,-0.17331077240232845,0.9998404316820639,0.00014168655466493258
-0.17143446185873473,-0.17143446185873473,0.9998187514014363,0.00014096218075001954
-0.170540650824114,-0.170540650824114,1.000003571261929,0.00014205257312217395
-0.16949511960992822,-0.16949511960992822,1.0002358804218714,0.0001424728436677939
