time,time,flux,flux_err
-0.499924690372427,-0.499924690372427,0.9999418014689001,0.00011246292309855367
-0.499808292495436,-0.499808292495436,1.0001310554045586,0.000111030866625226
-0.49971060206080437,-0.49971060206080437,1.000145008690086,0.00010772437018710122
-0.4996494465282012,-0.4996494465282012,0.9998998154784682,0.00011203099663537576
-0.4995898643450346,-0.4995898643450346,1.0001831746314285,0.00011012736453714649
-0.4995184964449436,-0.4995184964449436,1.000050166195427,0.0001102500221140729
-0.49944644347560824,-0.49944644347560824,0.999891903199663,0.00011295758669382236
-0.49928645261679777,-0.49928645261679777,1.0000138680466915,0.0001134447166269663
-0.4991153152608604,-0.4991153152608604,0.999992463345156,0.00011242691410190098
-0.4988213933967927,-0.4988213933967927,1.0000990892254333,0.00011056132412855965
-0.498602887801826,-0.498602887801826,0.9999221391025965,0.00011522877484446972
-0.4984059316382627,-0.4984059316382627,1.0000488350179322,0.00011236705175116755
-0.49818065767613007,-0.49818065767613007,1.000096496783302,0.00011297265493825023
-0.4980182150269684,-0.4980182150269684,0.9999360198776648,0.0001096577075405299
-0.49794745594990675,-0.49794745594990675,1.0000161983953635,0.00011968083942360096
-0.4978125923706102,-0.4978125923706102,0.9997886486957637,0.000111370875302617
-0.49771917368125285,-0.49771917368125285,1.0001600840283917,0.00011234739107503335
-0.4976577939654817,-0.4976577939654817,1.000060558514204,0.00011069665523470287
-0.49761505619026136,-0.49761505619026136,1.0001479336040373,0.00010820545695356003
-0.49756422446589565,-0.49756422446589565,0.999937747570697,0.00010805880639257136
-0.4975061427510809,-0.4975061427510809,1.0000310789848839,0.00011053256616909084
-0.4973525088746101,-0.4973525088746101,0.9999774923961164,0.00011386139649002805
-0.4971312848399975,-0.4971312848399975,1.000026878360488,0.0001090100763652461
-0.4969800014274369,-0.4969800014274369,1.0000352908137458,0.00011264771943827354
-0.496828137384,-0.496828137384,1.000344420673334,0.00011225800529538174
-0.4966692647416494,-0.4966692647416494,1.000035735538045,0.00011278261598592448
-0.4965195471435436,-0.4965195471435436,1.0000123217769101,0.00011231797145839558
-0.49635897362968534,-0.49635897362968534,1.000075148852111,0.00011325165027407155
-0.49625271522527326,-0.49625271522527326,0.9999816182981149,0.00010968915468673442
-0.4961178077479417,-0.4961178077479417,0.9998288626641006,0.00011479800701584214
-0.49600764487622656,-0.49600764487622656,0.9999611179437723,0.00010890309161089083
-0.4958827481234039,-0.4958827481234039,1.0000487212828921,0.00011222549793692478
-0.4957606840427616,-0.4957606840427616,0.9998754630186113,0.00011126390133402732
-0.49566382105986123,-0.49566382105986123,1.0001792131205491,0.00010842152732402361
-0.4956010463050916,-0.4956010463050916,0.9999072209654735,0.00011404133698720393
-0.4955176109382592,-0.4955176109382592,1.0000766160148669,0.00011366269140843856
-0.49545389698178044,-0.49545389698178044,1.0000686384069692,0.00011012780359737785
-0.4953911401127698,-0.4953911401127698,1.0001558324272297,0.00011344457709454925
-0.495231027322734,-0.495231027322734,0.9999543633775974,0.00011432369762828393
-0.4950921546304016,-0.4950921546304016,1.00001064845709,0.00010967696963459526
-0.49484535579176736,-0.49484535579176736,1.0001639419734107,0.00011437540261367912
-0.4946085680079705,-0.4946085680079705,0.9998894895569987,0.00011200405021743018
-0.4944990112358937,-0.4944990112358937,0.9999261270833644,0.00011409743321471485
-0.4942757215598249,-0.4942757215598249,1.0000716343837222,0.00011641663859590415
-0.49410361634290895,-0.49410361634290895,1.0000093932508765,0.00011263955632603343
-0.49392609607602933,-0.49392609607602933,1.0001012263183493,0.00011442362907100297
-0.4938302682043286,-0.4938302682043286,1.000037946801592,0.00011619403835700702
-0.4936999493795156,-0.4936999493795156,1.000128442168886,0.00011037679181430649
-0.4936081844542059,-0.4936081844542059,1.000231388105636,0.00011058720862950425
-0.4935410943500756,-0.4935410943500756,1.000004602567769,0.00010641717930481723
-0.4934652569347236,-0.4934652569347236,0.9999948530830667,0.00010880545045021093
-0.49333936249677207,-0.49333936249677207,0.9999132846298002,0.00011229152599828238
-0.4930783387979318,-0.4930783387979318,1.0000079746680675,0.00011246032530413478
-0.49290283537047797,-0.49290283537047797,1.0001452754229376,0.00011317453370939987
-0.49280751889018576,-0.49280751889018576,1.0000089100464624,0.00011162396523445013
-0.49266490571462784,-0.49266490571462784,1.000100069539173,0.0001137938311764862
-0.492536028977338,-0.492536028977338,0.9997953999825725,0.00011199798503153008
-0.49235407786254654,-0.49235407786254654,0.9997814838956023,0.00011378371761107868
-0.4922039205033798,-0.4922039205033798,0.9999905359551781,0.00010961454165255602
-0.4920638821167813,-0.4920638821167813,0.9999184908049239,0.00011307815228542796
-0.4919407103880076,-0.4919407103880076,0.9999158417662082,0.00010910204793966001
-0.4918499466686626,-0.4918499466686626,1.0001355636655982,0.00011333952028012132
-0.49174062079691794,-0.49174062079691794,1.0000391463738016,0.00011293955446225567
-0.49161940372432583,-0.49161940372432583,0.999968855331993,0.00010771244103600406
-0.49155276447054347,-0.49155276447054347,0.9998975993825546,0.00011356395865003907
-0.4915051407610008,-0.4915051407610008,0.9999036520011826,0.00010881996348943011
-0.491437315208168,-0.491437315208168,1.00001230786425,0.00010996069144322696
-0.49136477544743684,-0.49136477544743684,0.9999348964982854,0.00011377298927462379
-0.49124819241333173,-0.49124819241333173,0.9999122681448117,0.00011369755043794547
-0.49106150251755026,-0.49106150251755026,0.9998491081513213,0.00011090547930524267
-0.49086543912562774,-0.49086543912562774,0.9999070521552088,0.00011126396292060498
-0.4905881474573107,-0.4905881474573107,0.9999945368800182,0.00011155979694953072
-0.49045544726759543,-0.49045544726759543,1.0000871355945842,0.00011589505499508944
-0.4903040654149663,-0.4903040654149663,0.9999865947727068,0.00011205247472398217
-0.4902219718162087,-0.4902219718162087,1.0001196748167487,0.00011349274510904193
-0.4900883397422149,-0.4900883397422149,0.9998944771586304,0.00011293916577841542
-0.48989394659511165,-0.48989394659511165,0.9999057755669088,0.00011525616100856115
-0.4897555890631338,-0.4897555890631338,1.0000058945082944,0.00011403263693897492
-0.4896352527066483,-0.4896352527066483,1.000075764350639,0.00011094195734632356
-0.489567196972348,-0.489567196972348,0.9999485979458932,0.00011045037599467119
-0.4895024296318297,-0.4895024296318297,0.9998811664548578,0.00010676239768434499
-0.4894500147900544,-0.4894500147900544,1.0000866892612164,0.00010823952950750963
-0.489374342552037,-0.489374342552037,0.9999570545297255,0.00011210863281123048
-0.48912058293717564,-0.48912058293717564,0.999854664125896,0.00011139687889447479
-0.4888910053181462,-0.4888910053181462,1.000066098939956,0.0001126518942424181
-0.4887710924034764,-0.4887710924034764,0.9999809788891362,0.00011235398274842012
-0.48862344908702654,-0.48862344908702654,1.0001970107337046,0.00011571312472265372
-0.4884707497934869,-0.4884707497934869,0.9998042931808581,0.00011316049199291422
-0.48824299543412053,-0.48824299543412053,1.0000730208774737,0.00011118013432097663
-0.4880778970014944,-0.4880778970014944,1.0001641005136632,0.00011177321032109305
-0.48793059085292045,-0.48793059085292045,0.9999907835788214,0.0001115591023397064
-0.4878453462100879,-0.4878453462100879,0.9999721555339569,0.00010994658912316566
-0.4877381252430496,-0.4877381252430496,1.000039021413872,0.00011304390564237637
-0.48761044586790375,-0.48761044586790375,1.0003255148606596,0.00010881033033526169
-0.48754236272361595,-0.48754236272361595,0.999997097343674,0.0001127950816151813
-0.48749241400437315,-0.48749241400437315,0.9998572889445241,0.000111311169592734
-0.48745379256797605,-0.48745379256797605,0.9999189653351769,0.00010861840961194564
-0.48737318169442007,-0.48737318169442007,1.000210398210172,0.00010958117035282898
-0.4873172002167848,-0.4873172002167848,1.0001373390943846,0.00011138726432872001
-0.48720645416979097,-0.48720645416979097,0.9999807747500361,0.00011669876962008801
-0.48704057690265473,-0.48704057690265473,0.9999705506465084,0.00011281166458979859
-0.4869009442096285,-0.4869009442096285,0.9999418281758103,0.00011231127083146854
-0.48656375521459266,-0.48656375521459266,0.9998800935990841,0.00011137516658883497
-0.48643620019138323,-0.48643620019138323,0.9999572734687108,0.00011343841519209684
-0.4863122039525479,-0.4863122039525479,0.9999524210351917,0.0001128266371164815
-0.48619818445222335,-0.48619818445222335,1.0002643657765327,0.00011535105549095096
-0.4860606943941093,-0.4860606943941093,1.0001039941627794,0.00011530956471907459
-0.4858846735514817,-0.4858846735514817,0.9999502329527736,0.00011226680902954686
-0.4857435080964933,-0.4857435080964933,0.9999878712526888,0.00011780464763089409
-0.48562367441481913,-0.48562367441481913,1.000322589417865,0.00011341418702945382
-0.485556620835996,-0.485556620835996,1.0000971417831648,0.00010879235963707127
-0.48551095810107653,-0.48551095810107653,1.0001127939290302,0.00011026093916329121
-0.48546144820866177,-0.48546144820866177,0.9999860835807187,0.00010765559062008967
-0.4854080768782296,-0.4854080768782296,1.0001977113080744,0.00010751588211572404
-0.48532888313711736,-0.48532888313711736,1.0001502194831322,0.00011205134422774623
-0.4851033682607522,-0.4851033682607522,0.9997564299049901,0.00011555839518879522
-0.4848762418194383,-0.4848762418194383,1.0000494807636913,0.00011482627073754735
-0.4847482998906344,-0.4847482998906344,0.9999440539876435,0.0001129209663547901
-0.4846054423309397,-0.4846054423309397,1.0000505452510642,0.0001139493047823394
-0.48446446097659646,-0.48446446097659646,1.00007160877386,0.00011441589304620142
-0.4842631399063976,-0.4842631399063976,0.9999887955428484,0.00011300286294830828
-0.48412533156224524,-0.48412533156224524,0.9998688186780724,0.00010862652503610066
-0.4840053257648833,-0.4840053257648833,0.9999466660640609,0.00011207967143855282
-0.4838652199701755,-0.4838652199701755,0.9998163998371412,0.00011160484944181918
-0.48378429305084863,-0.48378429305084863,1.0000969722657835,0.00010993584176612756
-0.4836679264873965,-0.4836679264873965,1.0001040603000597,0.00011233958562993961
-0.4835399315270479,-0.4835399315270479,1.0001672064903104,0.0001101408075645361
-0.4834799139207462,-0.4834799139207462,0.9999632353745737,0.00011406858105040047
-0.4834285575067042,-0.4834285575067042,0.9999091735483656,0.00010955282895859609
-0.48339911351140474,-0.48339911351140474,1.0000318092258218,0.00010876760892673202
-0.4833406723868393,-0.4833406723868393,0.999865890210392,0.00010833433934200368
-0.48328074176679364,-0.48328074176679364,1.0000734044670128,0.00011266646729625575
-0.48318322482300574,-0.48318322482300574,1.0000019964007052,0.00011486998499958853
-0.483034390368266,-0.483034390368266,1.0000348459039095,0.00011545280370224384
-0.4828941726103949,-0.4828941726103949,0.9999647253585211,0.00010999331757991736
-0.4826115300907986,-0.4826115300907986,1.0000030468204135,0.00011100184122907056
-0.4824206892444636,-0.4824206892444636,0.9999896735601073,0.00011299558070393643
-0.48229100015887527,-0.48229100015887527,1.0000865077921994,0.00011202274828764702
-0.4822009689094557,-0.4822009689094557,1.0000242762614964,0.00011422718445273637
-0.48205598315253156,-0.48205598315253156,0.9999337553158119,0.00011720685990262782
-0.48197658006029087,-0.48197658006029087,1.0001235373842812,0.00011164696532270665
-0.4818029983631277,-0.4818029983631277,1.0000981074427826,0.00011516718751306923
-0.4816654182272032,-0.4816654182272032,1.0001073819106108,0.00011404404816665238
-0.4815383403496526,-0.4815383403496526,1.0001071460899829,0.00010956347627815309
-0.48147176839556777,-0.48147176839556777,0.9998127270380062,0.0001098750709702642
-0.48139142484869807,-0.48139142484869807,1.0000688737283885,0.00010724632050031521
-0.48135588345103314,-0.48135588345103314,0.9999954538604273,0.00010887420900907901
-0.4813056162201974,-0.4813056162201974,1.0000566181141637,0.00011064534356398014
-0.4810831192378828,-0.4810831192378828,1.0001195621917147,0.00011138801399327512
-0.48083679934497925,-0.48083679934497925,0.9999999059193805,0.00011435819883750399
-0.480660413516307,-0.480660413516307,1.0001929910732634,0.00011151086814939347
-0.4805326864159724,-0.4805326864159724,0.9999040263249495,0.00011576878864393123
-0.4803817310981685,-0.4803817310981685,0.9999625426588047,0.00011316686114277365
-0.48023301676948904,-0.48023301676948904,1.000205463340373,0.00011013632901881281
-0.4800823436613427,-0.4800823436613427,0.9999623679084966,0.00011086169757503885
-0.4799566294263059,-0.4799566294263059,1.0000341512826965,0.00011212927077887844
-0.4798396158745163,-0.4798396158745163,0.9998629096009992,0.00011349982695226164
-0.4797583934065187,-0.4797583934065187,0.9998880709422213,0.00010899410514329073
-0.47966163963574215,-0.47966163963574215,0.9998575801818426,0.00011369344820664046
-0.4794972441799473,-0.4794972441799473,1.000043169609114,0.00010990634264057444
-0.4794100550258008,-0.4794100550258008,1.0002240718100648,0.00011438068309248988
-0.4793609356682282,-0.4793609356682282,0.9999808520109552,0.00010857323321556065
-0.47930420832999515,-0.47930420832999515,0.9999381391855542,0.00010751424276083913
-0.47924812691417173,-0.47924812691417173,0.999958812294669,0.00010953625027176686
-0.4791510349714372,-0.4791510349714372,1.0001210388009611,0.00011737731794791409
-0.4789962613118405,-0.4789962613118405,1.0001555470154806,0.00011212620598208098
-0.47887189142566056,-0.47887189142566056,1.0000939896737155,0.00011204812290953412
-0.47877424907273963,-0.47877424907273963,0.9998610170989373,0.00011318423238248223
-0.4785144835623214,-0.4785144835623214,1.000020610770675,0.00011137681151615308
-0.47837363221551643,-0.47837363221551643,0.999950150355974,0.00011293838872070132
-0.47822111091663827,-0.47822111091663827,1.0000192288138066,0.00011276929551349845
-0.47813987433110017,-0.47813987433110017,1.000266983247566,0.0001141586870537788
-0.4780086657628999,-0.4780086657628999,1.0000449733620311,0.00011712142619076369
-0.47792620308246114,-0.47792620308246114,1.0000464888394318,0.00011081793577303277
-0.4777593245780736,-0.4777593245780736,0.9998942575592983,0.0001137374474844544
-0.4776506202906603,-0.4776506202906603,0.9998386978295531,0.00011468343919826082
-0.4775115685566561,-0.4775115685566561,0.9999581661173998,0.00011033730566618813
-0.4774350933759706,-0.4774350933759706,0.9999691570645666,0.00010997664032918885
-0.4773542982016806,-0.4773542982016806,1.0001484309598099,0.00010958293935479715
-0.4773135031791753,-0.4773135031791753,0.9999605186961562,0.00010749855485634302
-0.47726666281960206,-0.47726666281960206,0.9999552928020196,0.00011188421361797125
-0.47712244246067714,-0.47712244246067714,0.9999755364791276,0.00010916606335336587
-0.47689870979520493,-0.47689870979520493,0.9999988897398083,0.00011427218856528098
-0.47670069512460034,-0.47670069512460034,1.0001440535418085,0.00011244245171771593
-0.47656170797126834,-0.47656170797126834,0.9999548723191515,0.00011098204178919865
-0.4764340623136377,-0.4764340623136377,0.9999255637568101,0.00011648942134357468
-0.47629283225905966,-0.47629283225905966,1.0001123263730183,0.0001144295220296334
-0.4761383162069251,-0.4761383162069251,0.9999602222015669,0.00011093769088230374
-0.47599429818656064,-0.47599429818656064,0.9998431908478652,0.00010981645998909523
-0.4758909843629226,-0.4758909843629226,0.9999218007525522,0.0001130705469531132
-0.47574966533939006,-0.47574966533939006,0.9999257468279831,0.00011163059545724941
-0.4756667803041637,-0.4756667803041637,1.0001168427535327,0.0001095306198085563
-0.4755368423211621,-0.4755368423211621,1.0000048838763416,0.00011263460877745653
-0.4753980601890362,-0.4753980601890362,1.0001719213721583,0.00011119662574232011
-0.4753545903899067,-0.4753545903899067,0.9998743688568036,0.00010938705387996352
-0.47531061255867824,-0.47531061255867824,0.999962059555451,0.00010853911598755063
-0.4752596881116915,-0.4752596881116915,1.0000625307866184,0.00010859065628220034
-0.47521572098339676,-0.47521572098339676,0.9999231321319899,0.00010756202084584295
-0.47516507742184333,-0.47516507742184333,1.0000283509548882,0.00011514117774306704
-0.474990650289692,-0.474990650289692,1.0001842380240933,0.0001153152787827999
-0.4748462053379626,-0.4748462053379626,1.0001798403088156,0.00011223972591056977
-0.4746892090268375,-0.4746892090268375,1.0000872326862902,0.00011418231589739917
-0.47445132286302394,-0.47445132286302394,1.0000881062470832,0.00011058296449630966
-0.47428958188174875,-0.47428958188174875,1.000127908510263,0.00011324856494494744
-0.4741741766687483,-0.4741741766687483,1.0000938792173453,0.00011117494978333472
-0.4740466841089074,-0.4740466841089074,1.0000812305246156,0.00011458000171749353
-0.4739587695599766,-0.4739587695599766,1.0001932345103584,0.0001146616128746785
-0.47384899230237354,-0.47384899230237354,0.9999916018939841,0.00011121685526693141
-0.47368783351339516,-0.47368783351339516,1.0001227142532898,0.00011426196226041037
-0.47357532236128463,-0.47357532236128463,0.999984917828742,0.00011403702600616596
-0.4734397055544832,-0.4734397055544832,1.0000787786238101,0.00010945581410823407
-0.4733833250182215,-0.4733833250182215,0.9999373632180003,0.0001099884593977383
-0.4732846248254646,-0.4732846248254646,0.9998997010584537,0.0001077118223320647
-0.4732591233077983,-0.4732591233077983,1.0000056226661926,0.00010669196373486341
-0.47321643638206295,-0.47321643638206295,1.0001740614247443,0.00011183464619287734
-0.472995575935056,-0.472995575935056,1.0000510313199678,0.00011140217635983254
-0.47280974285386035,-0.47280974285386035,0.9998346654548689,0.00011433346164845657
-0.47268287264669195,-0.47268287264669195,0.9999511638606184,0.0001135220433136724
-0.472542424355197,-0.472542424355197,1.000253469873177,0.0001119212684195869
-0.47238903151665,-0.47238903151665,1.0001360815842424,0.00011653089325829929
-0.47221675073888036,-0.47221675073888036,1.0001084410876575,0.00011384172880016126
-0.47202605228303585,-0.47202605228303585,1.0000524455769197,0.0001107469478149715
-0.4718898847742821,-0.4718898847742821,0.9999280852560094,0.00011174098926784043
-0.47175678911080465,-0.47175678911080465,1.0003151457238189,0.00011156792450845877
-0.4716517850160017,-0.4716517850160017,1.0001157273770134,0.00011033752678304512
-0.4715366597811226,-0.4715366597811226,0.9999955832812203,0.00011225903099806181
-0.4713675685838098,-0.4713675685838098,0.9998073292551843,0.00011269321559744436
-0.4713118079271226,-0.4713118079271226,1.0000588856132526,0.00010947352588580456
-0.471273426074913,-0.471273426074913,1.0001131937761591,0.00010900208984007975
-0.4712400202231947,-0.4712400202231947,1.0000716190353809,0.00010756414538102592
-0.47119512872159247,-0.47119512872159247,1.000065515678768,0.0001094040097986965
-0.4711489508859813,-0.4711489508859813,0.9997853933387937,0.00010819018498570921
-0.4710275181234465,-0.4710275181234465,0.9998773099123849,0.00011642087861436479
-0.4708453244435077,-0.4708453244435077,1.0001152421977895,0.00011325616154169826
-0.47073185903645937,-0.47073185903645937,1.0000479232503188,0.00010958274637798806
-0.47064871473994574,-0.47064871473994574,0.9999627452172557,0.00011329334756572059
-0.4704073068824073,-0.4704073068824073,1.0002702861925512,0.00011086780308227591
-0.470255929416453,-0.470255929416453,0.9999444735979843,0.00011395580527615529
-0.47013731832921624,-0.47013731832921624,1.0000102041329444,0.00011144169245258824
-0.4700223878520774,-0.4700223878520774,1.0000806917308516,0.00011675212759435503
-0.4699103672552155,-0.4699103672552155,1.0001007028949767,0.00011626174550225046
-0.46977615960277036,-0.46977615960277036,0.9998789220240129,0.0001120836568374997
