time,time,flux,flux_err
-0.4996514032500272,-0.4996514032500272,1.0001085143481276,8.344255376634302e-05
-0.4987119376528426,-0.4987119376528426,1.0000333984426961,8.37349670445717e-05
-0.4980217905601118,-0.4980217905601118,0.9998643224893575,8.369897466952742e-05
-0.4971932757631293,-0.4971932757631293,1.0000014554823413,7.6396605509298e-05
-0.4967039285169449,-0.4967039285169449,0.9999237063002848,7.726856109320797e-05
-0.495694272001856,-0.495694272001856,1.000016570147031,7.665409025449148e-05
-0.4944255482230801,-0.4944255482230801,0.9999723610555773,7.708840405788245e-05
-0.4936522461241111,-0.4936522461241111,0.9999991873011101,7.551736416923078e-05
-0.4929337925132131,-0.4929337925132131,1.0000913706836438,8.029056896506685e-05
-0.49237729651649714,-0.49237729651649714,0.9999592965395289,7.660905626006266e-05
-0.4918365769131924,-0.4918365769131924,1.0001269826605743,7.588934136274641e-05
-0.49093947801884497,-0.49093947801884497,1.0001210808862369,7.62436997208397e-05
-0.49022244021616646,-0.49022244021616646,1.0001176171697144,7.688485180105777e-05
-0.4894923502200982,-0.4894923502200982,1.000036946597591,7.695004386164705e-05
-0.48874098803498783,-0.48874098803498783,0.9999956386550108,7.721071087152197e-05
-0.48783050943457057,-0.48783050943457057,1.0000350117561496,7.581935565896436e-05
-0.48727933885820673,-0.48727933885820673,0.9999947648509607,8.861245979518272e-05
-0.48673724608088376,-0.48673724608088376,0.9998246021668985,7.615611136395241e-05
-0.48608265653601845,-0.48608265653601845,1.0000742463923484,7.656118040799329e-05
-0.48578327147115485,-0.48578327147115485,1.0000217057176592,7.667633038091071e-05
-0.48478369902004487,-0.48478369902004487,0.9999844571214933,7.616117337808571e-05
-0.48355622153758304,-0.48355622153758304,1.0000827336176719,8.056568639903334e-05
-0.48262314789753874,-0.48262314789753874,0.9998891974669171,7.596966847344529e-05
-0.48213210282265206,-0.48213210282265206,1.0000331441777857,7.628517897294064e-05
-0.4812938747316366,-0.4812938747316366,0.999852934861979,7.664120199027638e-05
-0.48070873918914003,-0.48070873918914003,0.999927716139155,7.62194116933867e-05
-0.48005112146929607,-0.48005112146929607,0.9999691848879959,7.663189029122818e-05
-0.4792994444083888,-0.4792994444083888,1.0000003886725115,7.654834361279399e-05
-0.4786823266127612,-0.4786823266127612,0.9999018045333287,7.796826018649317e-05
-0.4775453892740188,-0.4775453892740188,1.0001386175867044,7.614145367309056e-05
-0.476570001001528,-0.476570001001528,1.0000051570957111,7.605559839729255e-05
-0.47569376523024404,-0.47569376523024404,1.0000576013526836,7.630766133130925e-05
-0.4749967437062878,-0.4749967437062878,0.9998683367258338,7.660904258050657e-05
-0.4745760639634682,-0.4745760639634682,0.9999941891182165,7.592686513248455e-05
-0.47362911216623615,-0.47362911216623615,0.9999522922498432,7.588740784320082e-05
-0.4728823051598738,-0.4728823051598738,0.9999412570209045,7.689977962756095e-05
-0.47215341326809723,-0.47215341326809723,0.9999273453280673,7.683963813875282e-05
-0.4713554603615194,-0.4713554603615194,1.0000268235264573,7.686014266664913e-05
-0.47065698153455743,-0.47065698153455743,1.0000078576894729,7.522573515087605e-05
-0.4699573591002263,-0.4699573591002263,1.0000965957100545,7.659611895598629e-05
-0.46947355158190474,-0.46947355158190474,0.9999243759398213,8.204898946537518e-05
-0.46877596105914565,-0.46877596105914565,1.000108758388618,7.65301654863627e-05
-0.4682722918631043,-0.4682722918631043,0.9999335353653681,7.697254180212903e-05
-0.4673319195731892,-0.4673319195731892,1.000045356802331,7.652332881874052e-05
-0.46618786809849555,-0.46618786809849555,1.0001109142778053,8.083052016876648e-05
-0.4653045347717125,-0.4653045347717125,1.0001109384999747,7.613988378577076e-05
-0.46473068662016886,-0.46473068662016886,1.000111944657514,7.591798448498318e-05
-0.46400617072213207,-0.46400617072213207,0.9999226243509435,7.697031666706307e-05
-0.4633984088359284,-0.4633984088359284,0.9999683053056708,7.591826963593633e-05
-0.4627147518476704,-0.4627147518476704,1.000009512713995,7.861180583259313e-05
-0.4619129407146829,-0.4619129407146829,0.9998993912514269,7.655056566263799e-05
-0.46133553108229536,-0.46133553108229536,1.0001165695749092,7.731711040520475e-05
-0.46038760306109905,-0.46038760306109905,1.0000513688977937,7.677880477320357e-05
-0.4593690346533549,-0.4593690346533549,1.0000234088965523,7.5915187180428e-05
-0.45872560923889977,-0.45872560923889977,0.9999838774859995,7.77554806359132e-05
-0.45796967529604443,-0.45796967529604443,0.9998709531704245,7.654347984972376e-05
-0.4574101437901845,-0.4574101437901845,1.0000805687174432,7.666564442332636e-05
-0.4569280882758903,-0.4569280882758903,1.000013301127733,7.588282178176489e-05
-0.4558485119676334,-0.4558485119676334,0.9999791599809733,8.084118724154748e-05
-0.4550639747758396,-0.4550639747758396,1.0001300404054667,7.717762637335914e-05
-0.4542422125581652,-0.4542422125581652,0.9999403089924735,7.68529679035174e-05
-0.45362482496275336,-0.45362482496275336,1.0000760877614474,7.632254278467012e-05
-0.4529122531050234,-0.4529122531050234,1.0000437432577867,7.4845080310606e-05
-0.45225238217244623,-0.45225238217244623,0.9998493263671404,7.627585456079228e-05
-0.4518937659609946,-0.4518937659609946,0.9999570684961825,7.91497027153428e-05
-0.4509959395814803,-0.4509959395814803,1.0000753572491274,7.689627810411561e-05
-0.45059244423609923,-0.45059244423609923,1.0002890937678408,7.697448067360637e-05
-0.4491993286268553,-0.4491993286268553,1.0001669685244454,7.655424754541024e-05
-0.44834417523961745,-0.44834417523961745,1.0004020675690977,8.064100595758222e-05
-0.4475978568007122,-0.4475978568007122,1.0000183200090342,7.584215047937279e-05
-0.44700065398210426,-0.44700065398210426,0.9999677767246871,7.663287709687978e-05
-0.4462357811979018,-0.4462357811979018,0.9999739013972647,7.629732501899905e-05
-0.44560450645949456,-0.44560450645949456,0.9999676118116276,7.587368998934918e-05
-0.44480443495849614,-0.44480443495849614,0.9998924284387222,7.656450266403151e-05
-0.4441707850099192,-0.4441707850099192,1.0000158110941564,7.683582393929436e-05
-0.4435862700556754,-0.4435862700556754,0.9999934206146719,7.732073935039017e-05
-0.4428330647642724,-0.4428330647642724,1.0000468520272239,7.8082244481698e-05
-0.44211521405086385,-0.44211521405086385,0.9999945191304164,7.646624565146921e-05
-0.44141988269839205,-0.44141988269839205,1.0001626731047921,7.589438774610106e-05
-0.44066690628387734,-0.44066690628387734,1.0002193337413536,7.625801801026316e-05
-0.44008881919871784,-0.44008881919871784,1.0001480806842822,7.697016445100411e-05
-0.4398059414874297,-0.4398059414874297,1.0000524171607466,7.625221835410655e-05
-0.43902256217697866,-0.43902256217697866,1.0000053147864776,7.589099184240045e-05
-0.4378465798552497,-0.4378465798552497,1.0000223020845032,7.802178261911081e-05
-0.43702973524777916,-0.43702973524777916,1.0002296578078362,7.686864232982977e-05
-0.4363440844841534,-0.4363440844841534,0.9999760318972923,7.645678391914317e-05
-0.43581720108777516,-0.43581720108777516,1.0000886337025254,7.663733927680812e-05
-0.4349637530031032,-0.4349637530031032,1.000018188260988,7.63086229180078e-05
-0.43451278964348605,-0.43451278964348605,0.9999909466917156,7.6198660054348e-05
-0.4336016824701801,-0.4336016824701801,0.9999529713248082,7.684772145494764e-05
-0.43321166146633916,-0.43321166146633916,1.0001834140934762,7.697815721560559e-05
-0.4319029690770549,-0.4319029690770549,0.9999961132136816,7.705161324389024e-05
-0.43062969864113254,-0.43062969864113254,1.0000194162344955,7.645790647921327e-05
-0.42992485016438875,-0.42992485016438875,1.0001179771586262,7.597808377522564e-05
-0.4292375045886729,-0.4292375045886729,1.0000291074044831,7.659195988991385e-05
-0.4287250628345646,-0.4287250628345646,1.00016571719634,7.630578649071076e-05
-0.4279616244850331,-0.4279616244850331,0.9999703614698779,7.623190051404912e-05
-0.427115284766478,-0.427115284766478,1.0001524719460033,7.658040242497945e-05
-0.4263927724270616,-0.4263927724270616,1.0000622210294041,7.719413178753572e-05
-0.4255635569745209,-0.4255635569745209,1.0001386740835747,7.742289190882135e-05
-0.4248474901614827,-0.4248474901614827,1.0001503178329536,7.645197648800952e-05
-0.42401670391700463,-0.42401670391700463,1.0000195663603004,7.570971925323754e-05
-0.423340148551506,-0.423340148551506,1.0000482667031412,7.621638766840424e-05
-0.4226431355986279,-0.4226431355986279,1.0001548944020215,7.689891021556787e-05
-0.4223550414753845,-0.4223550414753845,1.0000746844316164,7.631042663660557e-05
-0.4213536917945021,-0.4213536917945021,1.0001422817442167,7.659971073616207e-05
-0.4198755287055974,-0.4198755287055974,1.0001065876850475,7.682013596490241e-05
-0.4189436662811204,-0.4189436662811204,0.9999696536700693,7.635771951098625e-05
-0.41842057382455095,-0.41842057382455095,1.0000153356530381,7.66263080030343e-05
-0.4175988520408282,-0.4175988520408282,1.000335838566297,7.625222828976485e-05
-0.4171177878495655,-0.4171177878495655,1.0000600965705304,7.656533593843444e-05
-0.4164077615525457,-0.4164077615525457,1.0000409746173606,7.638747141943994e-05
-0.415790590152028,-0.415790590152028,1.0000600626435046,7.693944106818904e-05
-0.41512011613813227,-0.41512011613813227,0.9999502381748064,7.825579097972527e-05
-0.4140205708303256,-0.4140205708303256,0.9998269658541632,7.681679376258185e-05
-0.41309957386838503,-0.41309957386838503,1.0001311170206653,7.610645758404157e-05
-0.41223708240286216,-0.41223708240286216,0.999998439098675,7.630123538898443e-05
-0.4116221799093182,-0.4116221799093182,1.0000174412992013,8.015597573324748e-05
-0.4112095199947362,-0.4112095199947362,1.000115463491945,7.591318490879852e-05
-0.4102719068774604,-0.4102719068774604,0.9999562168815883,7.625457979134169e-05
-0.40954935841000406,-0.40954935841000406,0.9999105313247793,7.657204730472036e-05
-0.4088411038159393,-0.4088411038159393,0.9998481558996251,7.718742955523145e-05
-0.4080249195743818,-0.4080249195743818,1.0001483663274147,7.715866005543912e-05
-0.4072493635452702,-0.4072493635452702,1.000044976787922,7.544431234743537e-05
-0.40651147980388486,-0.40651147980388486,1.0000495873694504,7.659136277508876e-05
-0.40599656327976846,-0.40599656327976846,1.0000808223317386,8.661821362945113e-05
-0.40535242112673586,-0.40535242112673586,0.999990178880027,7.6568973417581e-05
-0.4048896279840847,-0.4048896279840847,0.9999418550995174,7.664716983999233e-05
-0.4038746223872295,-0.4038746223872295,0.9999351308655362,7.659707559910271e-05
-0.402593080868246,-0.402593080868246,1.0000145211836353,8.058825987767722e-05
-0.40166970969585236,-0.40166970969585236,1.0000855631306929,7.596225118904452e-05
-0.40117382817552427,-0.40117382817552427,0.9998877089819727,7.627641452808957e-05
-0.4003378727153176,-0.4003378727153176,1.0000948706497628,7.660485176694106e-05
-0.3997548837127397,-0.3997548837127397,1.0000220658620342,7.627271111301182e-05
-0.3989806984725874,-0.3989806984725874,1.0001569750076096,7.61968800129513e-05
-0.39824802088114664,-0.39824802088114664,1.0000835969285844,7.692657946218898e-05
-0.3974509368796134,-0.3974509368796134,0.9999731933198757,7.74901290389016e-05
-0.39639050245459656,-0.39639050245459656,1.0000091582875128,7.613509996565651e-05
-0.39555500950227723,-0.39555500950227723,1.0001392736768207,7.602775316432539e-05
-0.39473085791833,-0.39473085791833,0.9999577378855088,7.630345653182647e-05
-0.39404040329827694,-0.39404040329827694,0.9998986552181126,7.661413827738632e-05
-0.39363222139218124,-0.39363222139218124,1.0000259121137705,7.593993625450192e-05
-0.39270982257585274,-0.39270982257585274,0.999873235025969,7.806078238675383e-05
-0.3921325030183652,-0.3921325030183652,1.0000417151383831,7.964941982168354e-05
-0.39146011178818296,-0.39146011178818296,1.00001049966296,7.717304732071701e-05
-0.3906713866177597,-0.3906713866177597,1.0001331003202538,7.705275915403565e-05
-0.39006167778134115,-0.39006167778134115,1.0000187628531996,7.592992628493742e-05
-0.389414410405152,-0.389414410405152,1.0000460013574375,7.514105960927965e-05
-0.38878569004154995,-0.38878569004154995,1.0000292444315397,8.155734813769587e-05
-0.388298279143055,-0.388298279143055,0.9999352508727455,7.618595797048398e-05
-0.3874510965324589,-0.3874510965324589,1.0000363341448857,7.69205038903833e-05
-0.3869558534657699,-0.3869558534657699,0.9999401186447472,7.666724598053769e-05
-0.38552060449583225,-0.38552060449583225,1.0001222795604898,8.079439105976836e-05
-0.3846860614459729,-0.3846860614459729,1.0001858482797823,7.648587480774513e-05
-0.38398956513847227,-0.38398956513847227,1.0000327528553579,7.584275931864801e-05
-0.3833897569405963,-0.3833897569405963,0.9999549429462192,7.700294046458705e-05
-0.38266239148797465,-0.38266239148797465,1.0000398101853087,7.592783792360892e-05
-0.38194970000331524,-0.38194970000331524,1.0000934873511942,7.624039672462416e-05
-0.3811568380246172,-0.3811568380246172,1.0000276731424202,7.656932744462642e-05
-0.38051686954859176,-0.38051686954859176,0.9999523027834141,7.724838624352039e-05
-0.3795749716053251,-0.3795749716053251,0.9998851898112052,7.676587006668141e-05
-0.37881758128496584,-0.37881758128496584,1.0000531858957649,7.816124012413143e-05
-0.37796048502787016,-0.37796048502787016,1.000103393595311,7.598206390733676e-05
-0.3771416612202302,-0.3771416612202302,1.000023777317235,7.623451924616344e-05
-0.37654067099938404,-0.37654067099938404,1.0000914216959986,7.664282809022918e-05
-0.3762713892530883,-0.3762713892530883,1.0001454650551458,7.622130517292083e-05
-0.37525486960221316,-0.37525486960221316,1.00004617671568,7.745736845788101e-05
-0.37436716776137474,-0.37436716776137474,1.0000044401605999,7.973434807421227e-05
-0.373667579900939,-0.373667579900939,0.999949202629668,7.683499705447936e-05
-0.37288668186665747,-0.37288668186665747,0.999978116694748,7.652955800297916e-05
-0.37225434134452373,-0.37225434134452373,1.0000627892906628,7.477254755797368e-05
-0.37148388219065964,-0.37148388219065964,1.0001634229809189,7.631370403258042e-05
-0.37102419039729284,-0.37102419039729284,1.0000672614011923,7.872196346808652e-05
-0.3701978358090855,-0.3701978358090855,0.9999181177105239,7.719992819353456e-05
-0.369751031123451,-0.369751031123451,1.0000700776106188,7.661694651549109e-05
-0.36867473535385215,-0.36867473535385215,0.9999768620524268,7.625611381025427e-05
-0.36772898252529557,-0.36772898252529557,1.0000520283801935,8.09198021875998e-05
-0.36689760660083265,-0.36689760660083265,1.000361070030027,7.57613874591776e-05
-0.36628832082496954,-0.36628832082496954,1.0001576576420863,7.630114816311428e-05
-0.36554940202186115,-0.36554940202186115,1.0000023994839415,7.696316409245963e-05
-0.3649951195271569,-0.3649951195271569,1.0000307241937418,7.590672152389681e-05
-0.3641526584236999,-0.3641526584236999,1.000000303174133,7.622426751828184e-05
-0.3634002850187244,-0.3634002850187244,0.9999735140287788,7.651500506938406e-05
-0.36292938316619255,-0.36292938316619255,1.000002778717446,7.727158188414507e-05
-0.3620854254957521,-0.3620854254957521,0.9999131487591942,7.668274157835296e-05
-0.3615204855974298,-0.3615204855974298,1.0000859149191892,7.773968036957186e-05
-0.3606823332651402,-0.3606823332651402,0.9999078199556586,7.615722670161985e-05
-0.35999614022439347,-0.35999614022439347,0.9999467173261507,7.625856508890952e-05
-0.35933192320808305,-0.35933192320808305,0.9999747573676749,7.689613798250071e-05
-0.3589438297291053,-0.3589438297291053,1.0000055098037275,7.589330119397822e-05
-0.35851726131077155,-0.35851726131077155,1.0000963954716062,7.6242163502015e-05
-0.3573158765677363,-0.3573158765677363,0.9998832932902261,7.762278693247296e-05
-0.35623434822337,-0.35623434822337,0.9999150138883113,7.685984080531942e-05
-0.3554833391797729,-0.3554833391797729,0.9999779917852907,7.67939019306285e-05
-0.3549459555943031,-0.3549459555943031,0.9998922489447336,7.624190655176289e-05
-0.3540154346075724,-0.3540154346075724,1.000098308435739,7.593375100943496e-05
-0.353547817535582,-0.353547817535582,1.000067270095626,7.657617180670093e-05
-0.3526282605569577,-0.3526282605569577,1.0000511413521853,7.65040525090401e-05
-0.3522445909809903,-0.3522445909809903,0.9999689624418349,7.731252744702511e-05
-0.3509743490474648,-0.3509743490474648,1.000007219647169,7.681682938937989e-05
-0.3498414348796359,-0.3498414348796359,1.000035557627768,7.684636862170598e-05
-0.34909987608116355,-0.34909987608116355,0.9999755375860924,7.584317944154028e-05
-0.34846519011771304,-0.34846519011771304,1.000057598304105,7.622815233697218e-05
-0.3479336567106657,-0.3479336567106657,1.0000096100035287,7.663899065009004e-05
-0.3473829374925117,-0.3473829374925117,1.000026360780671,7.584953129828964e-05
-0.3464992385605001,-0.3464992385605001,0.9999974291248048,7.625478798650233e-05
-0.34569647491152866,-0.34569647491152866,1.00010189443416,7.71961310359826e-05
-0.3449052576252143,-0.3449052576252143,0.9999064656263782,7.694526927348963e-05
-0.3443049522291403,-0.3443049522291403,1.000056901256802,7.716981462651615e-05
-0.3432722170371562,-0.3432722170371562,0.9999217591462987,7.593575265221323e-05
-0.3427788660832448,-0.3427788660832448,0.9999494887278552,9.42018686744067e-05
-0.34205026864365207,-0.34205026864365207,1.0001811809279082,7.656469960699025e-05
-0.3415499692724552,-0.3415499692724552,0.999978181936978,7.626708865274283e-05
-0.341249523278384,-0.341249523278384,1.0000128527512528,7.66175423638545e-05
-0.3396528630633838,-0.3396528630633838,0.99996087372766,8.044400370586934e-05
-0.3386936343187699,-0.3386936343187699,0.9999065634096853,7.684187494313692e-05
-0.33787659769295714,-0.33787659769295714,1.0000679583448462,7.637734319072064e-05
-0.3372850042360369,-0.3372850042360369,1.0000216928577068,7.660186261252372e-05
-0.33657428332953715,-0.33657428332953715,0.9999470092768508,7.59070193748743e-05
-0.3360331153104198,-0.3360331153104198,1.000040892387839,7.65503814313372e-05
-0.33545170379802586,-0.33545170379802586,0.9999238617654896,7.63588260044013e-05
-0.3348191545694135,-0.3348191545694135,1.0000479502649755,7.693493390728524e-05
-0.3344230367525597,-0.3344230367525597,0.9999897148988104,7.694268400932844e-05
-0.33324371694470756,-0.33324371694470756,1.000154154253516,7.800507007933092e-05
-0.3322927906338009,-0.3322927906338009,1.0000532780707374,7.63377184356046e-05
-0.33147721447603545,-0.33147721447603545,0.9999393543889962,7.597989399579856e-05
-0.3306795702839736,-0.3306795702839736,1.0000643035056287,7.696445824764715e-05
-0.33026192972029095,-0.33026192972029095,0.9999690678501713,7.590061809602108e-05
-0.3293180578242755,-0.3293180578242755,1.0001204747121428,7.626504887335033e-05
-0.32859436672879383,-0.32859436672879383,1.000038283253842,7.615839961893938e-05
-0.32803246425901306,-0.32803246425901306,1.000014427807874,7.72005266793624e-05
-0.32721289198234443,-0.32721289198234443,0.9998551734891652,7.727161344689346e-05
-0.32648437794705387,-0.32648437794705387,1.000109766482268,7.634751926612426e-05
-0.3256502204880235,-0.3256502204880235,0.9999964065300775,7.573121027651287e-05
-0.32514617659762735,-0.32514617659762735,0.9999226043291293,8.498473689982794e-05
-0.32451810697821204,-0.32451810697821204,0.9999926484160746,7.617008984894507e-05
-0.323994224848866,-0.323994224848866,0.9999704476892287,7.664685992497689e-05
-0.323291179559601,-0.323291179559601,1.0001735847489062,7.664469839824312e-05
-0.32164470621792135,-0.32164470621792135,1.0000591381347987,8.0966140957756e-05
-0.3207163027007482,-0.3207163027007482,0.9999822319111171,7.59353392448556e-05
-0.32021559460117716,-0.32021559460117716,1.0000175666592344,7.627876668098814e-05
-0.31938261611940105,-0.31938261611940105,0.9999761410436875,7.660566649273816e-05
-0.31886967854952675,-0.31886967854952675,1.0000557816794953,7.584800071115176e-05
-0.31817136050085537,-0.31817136050085537,1.0000153116258452,7.657432076953035e-05
-0.31737754429486814,-0.31737754429486814,1.0001049663841906,7.65535822108803e-05
