time,time,flux,flux_err
-0.499846999209088,-0.499846999209088,1.000093079591446,0.00028058519790653445
-0.49967621214454994,-0.49967621214454994,1.000438474925222,0.0002744296650601385
-0.49950806122869834,-0.49950806122869834,1.0001323349705002,0.000252007660048094
-0.4993162212791503,-0.4993162212791503,1.0000807449450362,0.0002422213495711718
-0.49920220331623566,-0.49920220331623566,0.9998658825527353,0.00024088687283950228
-0.49910587539197876,-0.49910587539197876,1.0002105117129745,0.0002468199036031025
-0.4990028739332047,-0.4990028739332047,0.999830399202218,0.0002534868716997751
-0.4988786957037519,-0.4988786957037519,0.9999237239507581,0.0002520891552695963
-0.49875769760546973,-0.49875769760546973,0.9996729004433202,0.00023137982976831274
-0.49868480987788644,-0.49868480987788644,1.0000637996478798,0.00024454339981166745
-0.4985720136341115,-0.4985720136341115,1.0002507404434708,0.000260276957091817
-0.4984726520066033,-0.4984726520066033,0.9999982589426282,0.0002895715858823803
-0.49836560631665633,-0.49836560631665633,0.9998972525841603,0.00023099345509272734
-0.4982087153577595,-0.4982087153577595,0.9999634034616488,0.00025997156987374954
-0.4980644311159267,-0.4980644311159267,0.9999900950576569,0.00024193851101564768
-0.4979952351197426,-0.4979952351197426,0.9998932255744579,0.0002545293375282517
-0.49791131388919896,-0.49791131388919896,1.0002468140001484,0.0002519905456627814
-0.49772736289232855,-0.49772736289232855,0.9999548220889247,0.00023344734633465062
-0.4976175881987729,-0.4976175881987729,0.9997511339404198,0.00023663409447461075
-0.4975328860498848,-0.4975328860498848,1.0002219140935398,0.00026399769097952026
-0.4974353878860711,-0.4974353878860711,0.9999794598449983,0.000249656724312151
-0.49730937665954117,-0.49730937665954117,0.9998617085300173,0.00023761797863013312
-0.49715684141920063,-0.49715684141920063,0.9994745221945989,0.00025524143719142723
-0.4969550327725301,-0.4969550327725301,0.9999765069680642,0.0002477624165471933
-0.4968618580693146,-0.4968618580693146,0.9997904072563137,0.00023353781907164056
-0.4967590910462604,-0.4967590910462604,1.0000870724119661,0.00023837969437456164
-0.496613613567024,-0.496613613567024,0.9998182695249586,0.00023584201307853825
-0.49650827769219175,-0.49650827769219175,1.0003957074491192,0.00024500017755221956
-0.4964115465278155,-0.4964115465278155,0.9999975904315994,0.0002348495335769884
-0.49629031542353913,-0.49629031542353913,1.0001629242133039,0.0002499977216287061
-0.49622370520519327,-0.49622370520519327,0.9999642444856501,0.0002277129238153534
-0.4961484611107153,-0.4961484611107153,0.9997600292060804,0.0002315869492452799
-0.49603272602689685,-0.49603272602689685,1.0004188215137135,0.00023640236309190637
-0.49589559156884205,-0.49589559156884205,1.0000234291454653,0.00023952281386159963
-0.49586232907749944,-0.49586232907749944,1.000403621619435,0.00022983110988115707
-0.49576159264543096,-0.49576159264543096,0.999494136228839,0.00024358652581918643
-0.495553940966056,-0.495553940966056,1.0000482516605025,0.00024181186225239894
-0.4953675316108274,-0.4953675316108274,1.000175932855225,0.00024020768065409676
-0.4951634811630356,-0.4951634811630356,0.9998989718949195,0.00026079658230672415
-0.49506351696400086,-0.49506351696400086,1.0001943074045623,0.0002565715799852617
-0.49487684680862004,-0.49487684680862004,1.0001687510618962,0.00023961949311151814
-0.49475814950856145,-0.49475814950856145,1.0000424724222383,0.00025134814380189236
-0.49471519475628156,-0.49471519475628156,1.0001184567936596,0.00023901502894015732
-0.4945823949798068,-0.4945823949798068,1.0000167449142583,0.00025438126445031134
-0.4944271229527658,-0.4944271229527658,0.9996191091452875,0.0002572942707615198
-0.4942477445860277,-0.4942477445860277,1.0000283391463909,0.00025353871875684667
-0.49406615057887393,-0.49406615057887393,1.000023770623258,0.0002502219011059138
-0.4939649599633412,-0.4939649599633412,1.0001316183533409,0.0002351716726571085
-0.4938085443842283,-0.4938085443842283,1.0001703035151224,0.00023634472724465993
-0.4936827715559048,-0.4936827715559048,0.9998515762710463,0.00025232487618717295
-0.493587954044051,-0.493587954044051,0.9995224604337191,0.00024705157737552324
-0.4934579928616586,-0.4934579928616586,1.000089455701157,0.0002597289308115751
-0.4933833307812165,-0.4933833307812165,0.9995167505089017,0.00023906018022966271
-0.4931985333911143,-0.4931985333911143,1.0003801899969098,0.00024358182020774383
-0.49307822382688754,-0.49307822382688754,1.0001300691526198,0.00023588878181806752
-0.49299503089423524,-0.49299503089423524,1.0002658954362262,0.0002625395459638926
-0.49287202095874816,-0.49287202095874816,1.0002180754289873,0.0002375180282218799
-0.49273607319046275,-0.49273607319046275,1.0000741302345344,0.0002493518069187464
-0.49261783826805183,-0.49261783826805183,0.9998125530841063,0.00026809581234366953
-0.492446055621258,-0.492446055621258,1.000065117288165,0.00023385036234403766
-0.4923180823752773,-0.4923180823752773,1.0002191623425276,0.0002334779291837326
-0.4921358183892153,-0.4921358183892153,1.000096360725327,0.00023920117517310253
-0.4920169221484684,-0.4920169221484684,0.9997539373517329,0.00024843181675731653
-0.4919025506846083,-0.4919025506846083,1.0001637672142478,0.00025401832243050667
-0.491772419121844,-0.491772419121844,1.0004924189672362,0.0002641935746597466
-0.4916368084072019,-0.4916368084072019,0.9998228578739393,0.00023639182472152568
-0.49149098492634946,-0.49149098492634946,1.00005411879429,0.00025250733253827276
-0.4913924913962546,-0.4913924913962546,1.0000782965311767,0.0002786670451018014
-0.49132522934814915,-0.49132522934814915,1.0000296725469666,0.00024672853647642967
-0.49116452143061906,-0.49116452143061906,1.0003023417182786,0.00026420623225019896
-0.4909929470893985,-0.4909929470893985,0.9999879404844736,0.0002550720799620387
-0.49092035092908193,-0.49092035092908193,1.0003444022711103,0.0002584015784708616
-0.4908217246360437,-0.4908217246360437,0.999867396597039,0.00023828621143451005
-0.49064072659093655,-0.49064072659093655,0.9998919864829728,0.00023900064353210107
-0.4905362316298124,-0.4905362316298124,0.9998967709171346,0.00025294598987808697
-0.49043231767063844,-0.49043231767063844,1.0000322343178296,0.00023958923603991132
-0.4903062242156011,-0.4903062242156011,1.0000937346573235,0.0002452893803357516
-0.490095110340917,-0.490095110340917,1.000293334921153,0.00025317732678575
-0.4899816152857966,-0.4899816152857966,1.0000847489128046,0.0002514916073224825
-0.4898068968053849,-0.4898068968053849,1.0001039971696,0.0002487792700236295
-0.4896931968178251,-0.4896931968178251,0.9996697892085653,0.00023884116141031204
-0.48956093789238364,-0.48956093789238364,0.9998556527849501,0.0002449694922209223
-0.4894199329712137,-0.4894199329712137,1.0000453486101584,0.00023694302946293544
-0.4893157177029934,-0.4893157177029934,1.00001957745769,0.00024716566370857793
-0.489188152593124,-0.489188152593124,0.999940884250299,0.000239077439231124
-0.4891359610155632,-0.4891359610155632,0.999807713600829,0.00024191215675783734
-0.48905231353637646,-0.48905231353637646,1.0001623348338347,0.00023134369580010477
-0.48887626712603377,-0.48887626712603377,1.0003616524285412,0.0002442170590867493
-0.48878898266339094,-0.48878898266339094,1.0000570560722988,0.00024638043604792464
-0.488713308316801,-0.488713308316801,1.0003421906886896,0.00024139616343199087
-0.4885886103642406,-0.4885886103642406,0.9997827640236074,0.0002463797782264643
-0.4883603620524809,-0.4883603620524809,0.9999483644050564,0.0002485524224249174
-0.4880961314949673,-0.4880961314949673,0.9997410223335998,0.00026654153306033515
-0.4879974051982572,-0.4879974051982572,0.9999145427473671,0.00024576987685050975
-0.48783098037092715,-0.48783098037092715,1.0002846067672924,0.00023621574255856798
-0.4876938273540873,-0.4876938273540873,0.9998647010447552,0.00023912401347975492
-0.4876331695559202,-0.4876331695559202,1.0001754739818776,0.00025774143948792936
-0.48753836038304144,-0.48753836038304144,0.9997303737476884,0.000254427720916424
-0.48737321099324615,-0.48737321099324615,1.0002416765150484,0.00024839221068209867
-0.487257843522093,-0.487257843522093,1.00015493720339,0.00024461842705516054
-0.48707878576460645,-0.48707878576460645,1.0002450787579555,0.0002464095781525597
-0.48695629153080516,-0.48695629153080516,1.0000955332366193,0.00022863516301999823
-0.4867995919805253,-0.4867995919805253,0.9998549778137666,0.00025000104837260586
-0.4866055188475002,-0.4866055188475002,0.9998464603887589,0.0002471874131614517
-0.48655053394832065,-0.48655053394832065,0.9998316571318488,0.00022470267259661422
-0.4864773115419666,-0.4864773115419666,0.9997287937457168,0.00024816577271051125
-0.4863634284651198,-0.4863634284651198,1.0000793627805287,0.00025778508223505694
-0.4862767850412638,-0.4862767850412638,0.9999182300224799,0.000237722362224361
-0.4861683937211637,-0.4861683937211637,0.9997791519383696,0.00024432096790810525
-0.48603041047244916,-0.48603041047244916,1.000025948153429,0.0002436893440444611
-0.48595341048931007,-0.48595341048931007,1.0001011742862334,0.0002413168137940202
-0.48583957413284223,-0.48583957413284223,0.9999028506806578,0.0002645545118893881
-0.4856174183965777,-0.4856174183965777,1.0002847649392943,0.000257099231717921
-0.48541939707720305,-0.48541939707720305,1.0002323333941325,0.00023556159985205677
-0.48528015918127493,-0.48528015918127493,0.9999614424181242,0.00024013575879228117
-0.48516198600409555,-0.48516198600409555,0.9999617602517429,0.00025878813697876197
-0.4850506907983799,-0.4850506907983799,1.000440491498431,0.00023753732002282433
-0.4849674703735218,-0.4849674703735218,0.9997530740801548,0.00026070437132864503
-0.48487426893625524,-0.48487426893625524,1.0000348323269241,0.00024809724237053995
-0.4846959413109289,-0.4846959413109289,1.0000681950974264,0.0002501091752031605
-0.4845898461004253,-0.4845898461004253,1.0005143672368062,0.00023689152958296803
-0.48444279590257794,-0.48444279590257794,1.0003972205040093,0.00025927287828259233
-0.48432584035035686,-0.48432584035035686,0.9996982007438046,0.0002638889742744291
-0.4842824877196108,-0.4842824877196108,1.0003936368892703,0.00026058173658119195
-0.4842021269367251,-0.4842021269367251,0.9998815466176669,0.00023020530685617332
-0.4840040918184968,-0.4840040918184968,0.999490232235142,0.0002446401550292152
-0.48386416554130846,-0.48386416554130846,1.0003153300886793,0.00024666397544077995
-0.4838018643349642,-0.4838018643349642,1.0003355623704162,0.00025871292800457463
-0.4836238573472656,-0.4836238573472656,1.0000262301642748,0.00025241119296756556
-0.48349140074133173,-0.48349140074133173,1.0002363308185112,0.00024117427020143274
-0.4833656638074899,-0.4833656638074899,1.000114799893031,0.00024279190892274714
-0.4832621516456129,-0.4832621516456129,0.9999897708598653,0.0002306130381280587
-0.48315241314849117,-0.48315241314849117,0.9996437189392788,0.00024198846544926556
-0.4830136930475419,-0.4830136930475419,0.9999616831662017,0.00023221323482516842
-0.4828551887454523,-0.4828551887454523,0.9997094121477559,0.00025577815105711345
-0.4826830632540805,-0.4826830632540805,1.0003108823235602,0.0002446315005326899
-0.4826057194630266,-0.4826057194630266,1.000069703280969,0.00025806643391465664
-0.482450705919473,-0.482450705919473,1.000375624236788,0.000259083658473962
-0.4822945242427522,-0.4822945242427522,0.9999012946222152,0.0002457547783485977
-0.48218308340292426,-0.48218308340292426,0.9998719789380667,0.0002462898960395096
-0.48209307811048346,-0.48209307811048346,0.9998754113957796,0.00024599062789197
-0.48202020313765387,-0.48202020313765387,1.0001052210863843,0.0002371860472101976
-0.4819446168745344,-0.4819446168745344,1.0000135355628386,0.00023530279801384492
-0.48179843067700856,-0.48179843067700856,0.999989717036564,0.00024356270542042374
-0.48170450858888214,-0.48170450858888214,1.0003112012542876,0.00023957853985477807
-0.4816094919340685,-0.4816094919340685,0.999955598171167,0.00023722817923198751
-0.481446417159168,-0.481446417159168,1.0002610874378912,0.00024375523359973514
-0.48126225767700814,-0.48126225767700814,1.0003283284513926,0.00024851238893758016
-0.4810444656031905,-0.4810444656031905,1.0000408775691327,0.00025804659186964255
-0.48092244619256236,-0.48092244619256236,0.9997094573586871,0.0002713428296648412
-0.4807857471416355,-0.4807857471416355,1.0002272566530863,0.0002292844624875545
-0.4806163159380958,-0.4806163159380958,1.0001118648607084,0.0002411004791498378
-0.4805339292455756,-0.4805339292455756,0.9999975512050503,0.0002526338660171229
-0.4804845697966812,-0.4804845697966812,1.000144723394733,0.00024473622092722363
-0.4803717185117421,-0.4803717185117421,1.000290593417954,0.0002462837273543257
-0.4802324645548651,-0.4802324645548651,1.000192025927349,0.00025274718656194135
-0.480127262622409,-0.480127262622409,0.9998295579026806,0.00024844630128860185
-0.4799589372858463,-0.4799589372858463,0.9999749179810383,0.00024411917931298433
-0.4798538810980972,-0.4798538810980972,1.0000947493308339,0.00023321649952607278
-0.4796232868851803,-0.4796232868851803,1.0000476069760293,0.00025771647746776347
-0.4795069961248373,-0.4795069961248373,0.9998603567642453,0.0002455203296763495
-0.47942056997781035,-0.47942056997781035,1.0001418936289672,0.00025005944224317314
-0.47927549666055713,-0.47927549666055713,0.9999893788493399,0.0002470250075515511
-0.47918796596204627,-0.47918796596204627,1.0003419429006033,0.00024075928460469886
-0.479070092409529,-0.479070092409529,0.9996664336139431,0.0002490964293102436
-0.4789568723987031,-0.4789568723987031,1.0000997095035777,0.0002422387811354337
-0.47888925693187046,-0.47888925693187046,0.9999783060807392,0.00024848759932882196
-0.478798156229459,-0.478798156229459,0.9998778411994419,0.0002503744016848777
-0.47863403521841974,-0.47863403521841974,0.9999683091452718,0.00025467865320349996
-0.4784660335622902,-0.4784660335622902,0.9999025998086397,0.0002518288138591972
-0.4783800426179369,-0.4783800426179369,1.0001224562933428,0.00023501684772317695
-0.47826927345158765,-0.47826927345158765,0.9999660777566259,0.00022900303396381725
-0.47817841937867345,-0.47817841937867345,1.0005372342090475,0.00022794003912572652
-0.4780166436758009,-0.4780166436758009,1.0001666558024138,0.00023019704264128465
-0.47794536274523125,-0.47794536274523125,1.000158239077401,0.00025271393254370047
-0.47785162403888537,-0.47785162403888537,1.00034436777203,0.0002519330457273563
-0.4776746479976282,-0.4776746479976282,0.9998412916226288,0.00024294522126544713
-0.4775412552218768,-0.4775412552218768,0.99975983681264,0.00024754283333490017
-0.4774579461467511,-0.4774579461467511,0.9999378297230732,0.00023839117583932378
-0.4772936057015613,-0.4772936057015613,1.000184021258583,0.00026128220666723535
-0.4772013050118403,-0.4772013050118403,1.0000650978936532,0.0002654128092446222
-0.4771032473843661,-0.4771032473843661,1.0004470826493903,0.000230724409232225
-0.4769353382369445,-0.4769353382369445,0.9999337282125274,0.0002490966066166404
-0.476803777916939,-0.476803777916939,0.9999789084715799,0.00023892074044380222
-0.4767328465437458,-0.4767328465437458,0.9996858933151082,0.00025218721431699277
-0.47668004940496755,-0.47668004940496755,1.0002256927134643,0.0002603810114041865
-0.4764943158726965,-0.4764943158726965,0.9999123853975483,0.00022926666984993656
-0.47640178373330855,-0.47640178373330855,1.0002703873068184,0.00024301893783892898
-0.47630146297378817,-0.47630146297378817,0.9999988173905268,0.00023056035798787027
-0.47619541220919925,-0.47619541220919925,1.0003454948388835,0.000258577547771432
-0.4760644868554664,-0.4760644868554664,1.0002036672239742,0.00024073757586483128
-0.4759407213416125,-0.4759407213416125,0.9999666367131427,0.00022880194361814127
-0.47582427168090363,-0.47582427168090363,0.9997980275404033,0.0002301361958654758
-0.4756333246565191,-0.4756333246565191,1.000100197755935,0.00026694440858361434
-0.4755242643324891,-0.4755242643324891,1.0002556367710451,0.00025800469592521957
-0.47542575064944687,-0.47542575064944687,1.000306350280404,0.00024628537809630123
-0.47522503432483065,-0.47522503432483065,0.9998683318762099,0.00024263625804930253
-0.47509825533416006,-0.47509825533416006,1.000202422692361,0.0002419889264310987
-0.47497667976786034,-0.47497667976786034,0.9999746039545331,0.0002490999179187731
-0.47487242170391253,-0.47487242170391253,0.9993046430464012,0.0002333269449379338
-0.47474550072074634,-0.47474550072074634,0.9998862300129139,0.00023672518450173447
-0.47465785983076786,-0.47465785983076786,1.000043260356223,0.0002424310076986331
-0.4745852357424155,-0.4745852357424155,0.999917400925774,0.00023285123486007107
-0.47448073074338026,-0.47448073074338026,1.0000286442868214,0.00023340094569181957
-0.47427881493858876,-0.47427881493858876,1.0000797920307243,0.000235712966361198
-0.4740789487856091,-0.4740789487856091,0.9999362287075092,0.00025053990153917484
-0.47392246240779057,-0.47392246240779057,1.0000106287168355,0.0002568369967971834
-0.47381484057914347,-0.47381484057914347,0.9999145760072894,0.0002678558960344938
-0.4737457515155256,-0.4737457515155256,1.0000261778739996,0.0002501284819452148
-0.47355752641378784,-0.47355752641378784,0.9998505897748936,0.00024212965779502196
-0.473432965556276,-0.473432965556276,1.000033439452349,0.0002527169492323863
-0.4733850064272701,-0.4733850064272701,0.9998352663927321,0.0002446584964647095
-0.47324858903593847,-0.47324858903593847,1.0003254537121524,0.0002448987852676777
-0.47312676678047866,-0.47312676678047866,1.0000124111107658,0.0002508776868582018
-0.47303189716549243,-0.47303189716549243,1.0001774639736751,0.0002602423955016152
-0.47286634425763624,-0.47286634425763624,1.0001678224061217,0.00024637497801091596
-0.47274622578916026,-0.47274622578916026,0.9998766385980268,0.00025364094362883817
-0.47253618132381237,-0.47253618132381237,0.9998607345418975,0.0002528594195940548
-0.472408719498344,-0.472408719498344,0.9998932936482952,0.00025488846821968036
-0.47231815690975054,-0.47231815690975054,0.9999126238845897,0.000247741700908567
-0.4722355477009842,-0.4722355477009842,0.9999212820070534,0.0002399828591043816
-0.47215820583514867,-0.47215820583514867,1.0000578496351156,0.0002634932556637707
-0.47208126362020264,-0.47208126362020264,1.0000438173683308,0.0002342343244575224
-0.4719782441476127,-0.4719782441476127,1.0000724481942866,0.00025734274399495866
-0.4718475893976574,-0.4718475893976574,1.0002971015846378,0.00026125775435090193
-0.47178194626394543,-0.47178194626394543,1.000122797539966,0.00025448958552450827
-0.4717109723453177,-0.4717109723453177,0.9999279092301878,0.0002535966202091197
-0.47160173010415746,-0.47160173010415746,0.9998037261107694,0.00025348735674537895
-0.47140886541674265,-0.47140886541674265,1.0001058742763085,0.0002659674893738725
-0.47129508017678745,-0.47129508017678745,0.9998899204720733,0.0002443137183240204
-0.4711790654408105,-0.4711790654408105,0.9999292864455821,0.00022984319614882055
-0.4710903159881127,-0.4710903159881127,0.9998243745239872,0.0002301486895133501
-0.47098561730890653,-0.47098561730890653,1.0003983531181007,0.00022521237129004404
-0.4708733992360067,-0.4708733992360067,0.999905007312449,0.0002542192750601269
-0.47076501705087137,-0.47076501705087137,1.000161480247638,0.00025172387595340945
-0.4705855941872869,-0.4705855941872869,0.9999697582016992,0.0002398198956544622
-0.4704486563321552,-0.4704486563321552,1.000212072254684,0.00023563670753401866
-0.47032832972181493,-0.47032832972181493,1.0000279561913796,0.00026531241706982596
-0.4701817624896648,-0.4701817624896648,0.9996587507719672,0.00022653474173901577
-0.4700991966565198,-0.4700991966565198,1.0001867790361634,0.0002627219754368053
-0.47000159831441124,-0.47000159831441124,0.9997582840104886,0.0003012524423767212
-0.4698471424206218,-0.4698471424206218,1.000073478344828,0.00025739926285435965
-0.4697255570987181,-0.4697255570987181,0.9998518498881183,0.00022543745847857947
