time,time,flux,flux_err
-0.4985189833860204,-0.4985189833860204,1.0000977732004863,9.080838314188098e-05
-0.4963223959748575,-0.4963223959748575,1.0000563648222347,9.096160288316282e-05
-0.4941374369166927,-0.4941374369166927,0.9999068588819896,9.088443047807561e-05
-0.492030431668051,-0.492030431668051,1.0000325645164392,9.091770855718352e-05
-0.4905444808071479,-0.4905444808071479,1.0000850156127319,8.296218184377227e-05
-0.4889480608850135,-0.4889480608850135,0.9999910335538627,8.297706546295098e-05
-0.4876841359262471,-0.4876841359262471,0.9999706939824324,8.287184980834589e-05
-0.4865252594681806,-0.4865252594681806,1.0001727542175272,8.294225381292694e-05
-0.4848835614393465,-0.4848835614393465,1.0001691853755794,8.286417132191775e-05
-0.4835696596826892,-0.4835696596826892,0.9999105796078676,8.28329382197147e-05
-0.4821727993330569,-0.4821727993330569,1.0000037767935823,8.290790581389387e-05
-0.4807117752949125,-0.4807117752949125,1.0001388735950818,8.289904298616879e-05
-0.4787655753752915,-0.4787655753752915,0.9999137713987816,8.3030188638671e-05
-0.47711107480863574,-0.47711107480863574,0.9999591129877453,8.294574348925688e-05
-0.4754745384605485,-0.4754745384605485,1.0001188825063492,8.29835139548903e-05
-0.47412224639119815,-0.47412224639119815,1.0000866749938597,8.296789874007466e-05
-0.4725386909994995,-0.4725386909994995,0.9999701209390108,8.297167708827746e-05
-0.4706048247229774,-0.4706048247229774,1.000046942969015,8.291562223734447e-05
-0.4695557525497861,-0.4695557525497861,1.0000443610816396,8.289585298010746e-05
-0.46812238677521234,-0.46812238677521234,1.000177273909097,8.294390520567899e-05
-0.4667589928154484,-0.4667589928154484,1.0000197744906643,8.28775466276378e-05
-0.46530361965560585,-0.46530361965560585,1.0001451881101366,8.286249542878866e-05
-0.46346048368286574,-0.46346048368286574,1.000008269035623,8.290636999382548e-05
-0.4615629200314288,-0.4615629200314288,1.000153397729738,8.305204944895431e-05
-0.4602256255297107,-0.4602256255297107,0.9998874118766056,8.302293388488379e-05
-0.45834998077334604,-0.45834998077334604,1.0000167535495894,8.300863581877375e-05
-0.45677461185259743,-0.45677461185259743,0.9999200926221079,8.290925675991959e-05
-0.45563749191205716,-0.45563749191205716,1.0001014755880089,8.295555689437543e-05
-0.45402093913726277,-0.45402093913726277,1.0000088305791626,8.297069735158856e-05
-0.45277981380786514,-0.45277981380786514,0.9999574236990405,8.287032268117312e-05
-0.45163074243755547,-0.45163074243755547,0.9998970731288919,8.294444333428877e-05
-0.4499806330204592,-0.4499806330204592,1.0000492025563292,8.287255955456742e-05
-0.44866170109307857,-0.44866170109307857,0.99995927403852,8.283918728291088e-05
-0.4472776211769087,-0.4472776211769087,1.0000260584273042,8.290218229741788e-05
-0.44581135678454303,-0.44581135678454303,0.9999903045485242,8.288036558863812e-05
-0.4438666375455796,-0.4438666375455796,1.0000924343539257,8.303661654994769e-05
-0.44220746404171224,-0.44220746404171224,0.9999527302166724,8.293685459579096e-05
-0.4405554012599168,-0.4405554012599168,1.0001465717570166,8.300198462882089e-05
-0.4384656848109444,-0.4384656848109444,1.0001696269464877,8.297452817263129e-05
-0.4369084976191516,-0.4369084976191516,1.0000680968789768,8.296248216415396e-05
-0.43541755605401705,-0.43541755605401705,1.0000946063133047,8.296220397367273e-05
-0.43390960880205964,-0.43390960880205964,0.9999398151678814,8.288986194502389e-05
-0.4328859454210033,-0.4328859454210033,1.000094879939343,8.290885328540192e-05
-0.43116465893399436,-0.43116465893399436,1.0000178121055252,8.28891089977146e-05
-0.42989419308578364,-0.42989419308578364,1.0000901526844734,8.285705845159388e-05
-0.42819224102568115,-0.42819224102568115,0.9999303451729347,8.305787113559412e-05
-0.426339105097577,-0.426339105097577,1.000096284800843,8.289652415125299e-05
-0.4244861675950233,-0.4244861675950233,1.0000477782511357,8.299688162421568e-05
-0.4228148262467585,-0.4228148262467585,1.0000378252054725,8.30123720205115e-05
-0.42125887524161953,-0.42125887524161953,0.9998877752242628,8.29896936221003e-05
-0.4195714614339522,-0.4195714614339522,1.0001452318478892,8.289585341536345e-05
-0.41835934482660375,-0.41835934482660375,0.9999487226130178,8.292139418057941e-05
-0.4168823813699419,-0.4168823813699419,1.0000377929451907,8.292459870962088e-05
-0.4154253031752887,-0.4154253031752887,1.000095274724409,8.287781711169577e-05
-0.41406745221756863,-0.41406745221756863,0.99991740250458,8.284244526842104e-05
-0.4123825217029662,-0.4123825217029662,1.0000707666683715,8.2924780059291e-05
-0.41112112006376267,-0.41112112006376267,1.000043339924316,8.287422981835902e-05
-0.4093450279251556,-0.4093450279251556,0.999956886315472,8.302538151937593e-05
-0.4075715409271652,-0.4075715409271652,0.9998973057628987,8.286273230655305e-05
-0.4060113801810076,-0.4060113801810076,1.0001074551909916,8.30922686252952e-05
-0.40403342827339656,-0.40403342827339656,1.0000705502342948,8.295814184342023e-05
-0.40273836341075364,-0.40273836341075364,1.000102891809832,8.297644547317307e-05
-0.4008020296736504,-0.4008020296736504,1.0000196036079578,8.290629488645362e-05
-0.39974473507900254,-0.39974473507900254,1.0000134375305598,8.292176363981164e-05
-0.3983351290167775,-0.3983351290167775,0.9999859395080511,8.294327744223873e-05
-0.39694356387772134,-0.39694356387772134,1.0000964072061762,8.28908417014937e-05
-0.39556209921720437,-0.39556209921720437,0.9999489200171723,8.283787954488104e-05
-0.39396081028244223,-0.39396081028244223,0.9999907314280693,8.28939176309359e-05
-0.39220558995002647,-0.39220558995002647,0.9999948714844067,8.308568226616779e-05
-0.39044275411870333,-0.39044275411870333,0.9999739169783725,8.300812836352992e-05
-0.3885592905222438,-0.3885592905222438,1.0001729527071261,8.302069059861569e-05
-0.38680845321068774,-0.38680845321068774,0.9999831662347358,8.289854533913244e-05
-0.3854145190969575,-0.3854145190969575,1.000038577392201,8.294885645106363e-05
-0.3841305975161958,-0.3841305975161958,1.0000320253169657,8.295276195533452e-05
-0.38228994424425766,-0.38228994424425766,0.9999857350926835,8.289681384202899e-05
-0.38125399265409216,-0.38125399265409216,1.0000201131001973,8.289515457677427e-05
-0.3796895148931071,-0.3796895148931071,1.0000804508346923,8.290587408710458e-05
-0.3780719971546205,-0.3780719971546205,1.0000751067705558,8.286857269266626e-05
-0.37667127714667004,-0.37667127714667004,1.000082753292472,8.287070027510461e-05
-0.37474804695812053,-0.37474804695812053,0.999982395120305,8.302752563344294e-05
-0.3729329613241134,-0.3729329613241134,1.0001323200669499,8.290196552909613e-05
-0.371412189520197,-0.371412189520197,0.9999835712739497,8.31286243727876e-05
-0.36952958789042895,-0.36952958789042895,0.9999568282685853,8.297301315437987e-05
-0.3678383093705634,-0.3678383093705634,0.9999429086032329,8.298279780279088e-05
-0.36590074450650717,-0.36590074450650717,0.9999983891852885,8.290652638306701e-05
-0.36483933246345257,-0.36483933246345257,1.0002775990942157,8.2932954581249e-05
-0.36344160083244786,-0.36344160083244786,0.9999768586439878,8.29467677208642e-05
-0.36203600134758745,-0.36203600134758745,0.9999602394595524,8.287332462499841e-05
-0.3606591029820265,-0.3606591029820265,0.9999024147281835,8.283139640254833e-05
-0.3590626982098911,-0.3590626982098911,1.000009593483644,8.288856996410537e-05
-0.357307778672839,-0.357307778672839,0.9999250973106351,8.309676685646428e-05
-0.35554354034102287,-0.35554354034102287,0.9999243340306755,8.300758135296115e-05
-0.35366401814098936,-0.35366401814098936,0.9999721118023503,8.302400202933998e-05
-0.35190868494828464,-0.35190868494828464,1.0000645409838376,8.289516942292496e-05
-0.35050670806376727,-0.35050670806376727,0.9999784750177774,8.29484369770377e-05
-0.34901145478943363,-0.34901145478943363,0.9999046580434335,8.295407192162018e-05
-0.3472045614151284,-0.3472045614151284,1.0000024048390619,8.296220662599202e-05
-0.3459787245737971,-0.3459787245737971,1.0000703383146752,8.286453567525776e-05
-0.34455639723018977,-0.34455639723018977,1.0000651001580818,8.288637984279137e-05
-0.3428505094721913,-0.3428505094721913,0.9999967797489575,8.288801993997191e-05
-0.3413538094609976,-0.3413538094609976,1.00005469126419,8.288425951917968e-05
-0.3395568393127178,-0.3395568393127178,1.000030714335688,8.304860074851792e-05
-0.3376495386764873,-0.3376495386764873,0.9999708550018441,8.295718769881603e-05
-0.33582877337175887,-0.33582877337175887,1.0000835783470556,8.290635896538813e-05
-0.3337593374933931,-0.3337593374933931,0.9999653732491467,8.297458747506021e-05
-0.3321937415006687,-0.3321937415006687,1.0001488959578109,8.29682814654007e-05
-0.3307270856370451,-0.3307270856370451,0.9999195208993813,8.29778825736297e-05
-0.3291939039932913,-0.3291939039932913,0.9999341648533031,8.288109658436889e-05
-0.328186246365658,-0.328186246365658,1.0002309639954303,8.293149946703932e-05
-0.3264600558235543,-0.3264600558235543,1.0000521345013091,8.288172723026274e-05
-0.3251715236256132,-0.3251715236256132,1.000236632017984,8.28620582183255e-05
-0.32385595740925055,-0.32385595740925055,1.0000029154529906,8.287999023412651e-05
-0.3221304870050517,-0.3221304870050517,1.0001007085942522,8.292205135726122e-05
-0.32028793366771424,-0.32028793366771424,0.9999091898434681,8.299737688637658e-05
-0.31876879132032626,-0.31876879132032626,0.9999893473023675,8.304255735106699e-05
-0.3170089824358001,-0.3170089824358001,1.0000428632658918,8.28917971333757e-05
-0.31559897003608056,-0.31559897003608056,1.0000861254356985,8.295179152903001e-05
-0.31410800916928566,-0.31410800916928566,0.9999082227384696,8.294955220608111e-05
-0.3123048035107786,-0.3123048035107786,0.9998891114525762,8.295745421601903e-05
-0.3110737754890579,-0.3110737754890579,1.0000169938611134,8.286569789493584e-05
-0.309851447341498,-0.309851447341498,1.000026971763003,8.292800031116584e-05
-0.30826458612427815,-0.30826458612427815,1.0001199024040286,8.287630789571081e-05
-0.30686228448321345,-0.30686228448321345,1.0000156778403584,8.287269133830223e-05
-0.30495946383307454,-0.30495946383307454,1.000002369077849,8.304366785473581e-05
-0.30312609493994386,-0.30312609493994386,0.9999949890380808,8.289495369842734e-05
-0.30127388483670076,-0.30127388483670076,0.9999243960197116,8.297356310988998e-05
-0.2995939612694201,-0.2995939612694201,1.000000099868351,8.300527407605656e-05
-0.29803842184046514,-0.29803842184046514,0.9997801106905906,8.298748282910089e-05
-0.29637931517791005,-0.29637931517791005,1.0000734109012908,8.292282152534495e-05
-0.2954139355002553,-0.2954139355002553,0.999957273095287,8.292484772919986e-05
-0.2937843667459674,-0.2937843667459674,1.0001387727894457,8.293337188723788e-05
-0.29258048173360296,-0.29258048173360296,0.9999785253631235,8.286032323348923e-05
-0.2911244953764253,-0.2911244953764253,0.9999027882017998,8.286753447586926e-05
-0.2896098295095726,-0.2896098295095726,1.0000160954404183,8.288805358070856e-05
-0.2884939907104126,-0.2884939907104126,1.0001770952425224,8.290334647635824e-05
-0.2864101921702968,-0.2864101921702968,1.000142215082269,8.302432284803678e-05
-0.2846559823941789,-0.2846559823941789,1.0001243389229006,8.28762860289649e-05
-0.2832170050503919,-0.2832170050503919,0.9999781859473208,8.305411283038785e-05
-0.2816605746411369,-0.2816605746411369,1.0000562854198551,8.299609308810819e-05
-0.2799692919186782,-0.2799692919186782,1.0000168495451134,8.288939152303266e-05
-0.2783721708488883,-0.2783721708488883,1.0000548577925747,8.297446562493236e-05
-0.2771578202649835,-0.2771578202649835,0.9999482355549981,8.293128445893802e-05
-0.27547524874535156,-0.27547524874535156,0.9998473030299323,8.290018875992942e-05
-0.2744576986224274,-0.2744576986224274,0.9999455629176512,8.284496471461534e-05
-0.2728028921643272,-0.2728028921643272,1.0000730403095557,8.290494912417974e-05
-0.27115780460881067,-0.27115780460881067,1.0001606873663031,8.287442232091826e-05
-0.2693732007406652,-0.2693732007406652,1.000030723775947,8.307197330292714e-05
-0.2676977101698867,-0.2676977101698867,0.9999248281645648,8.298715257898539e-05
-0.2660255884809885,-0.2660255884809885,1.0000781033649335,8.290313948359547e-05
-0.2644159846022376,-0.2644159846022376,1.0001187912573655,8.302148061738372e-05
-0.2631385836939444,-0.2631385836939444,1.0000328534570322,8.298878567994787e-05
-0.2614523368189111,-0.2614523368189111,0.9999741728385286,8.289001486366127e-05
-0.26050900712725705,-0.26050900712725705,0.9999603072151242,8.294353724635752e-05
-0.25888429147889835,-0.25888429147889835,0.99988097449598,8.29467597471772e-05
-0.2576751583415898,-0.2576751583415898,1.0000187884069154,8.285576421176931e-05
-0.25622723029082406,-0.25622723029082406,0.9999762982573678,8.288020703164079e-05
-0.25470681619190144,-0.25470681619190144,0.9999647219199502,8.286726315151165e-05
-0.253593226360681,-0.253593226360681,0.9998696923757773,8.287975582059085e-05
-0.2515157155285124,-0.2515157155285124,0.9999792322852503,8.300939460768764e-05
-0.24974830960127292,-0.24974830960127292,0.9999359686362842,8.287824011819665e-05
-0.24831766805000371,-0.24831766805000371,1.0000375940016806,8.306547009647415e-05
-0.2463118090381613,-0.2463118090381613,1.0001091804266935,8.298783096233571e-05
-0.24461852382519284,-0.24461852382519284,1.0000032034421236,8.29724959372952e-05
-0.24268366973701633,-0.24268366973701633,0.9999886940059554,8.290799357211035e-05
-0.24163131056120618,-0.24163131056120618,1.000119427951206,8.291489223016059e-05
-0.2402074506462668,-0.2402074506462668,0.9999954235903881,8.293451995136562e-05
-0.2388327709180885,-0.2388327709180885,1.0000718815613152,8.288585023897808e-05
-0.2374458065300132,-0.2374458065300132,1.0000753996547567,8.284508611447942e-05
-0.23583864821412134,-0.23583864821412134,1.0000277051202413,8.28938654090631e-05
-0.2340571508539142,-0.2340571508539142,0.9999905181826254,8.305542513914226e-05
-0.23232192568684695,-0.23232192568684695,0.999947207432905,8.300622925200662e-05
-0.23043368044309318,-0.23043368044309318,0.9998162113525997,8.301471919260543e-05
-0.22868826882331633,-0.22868826882331633,1.000026892760865,8.290100527209748e-05
-0.2273039855339448,-0.2273039855339448,1.0000581049140067,8.294548558831328e-05
-0.22600812377932017,-0.22600812377932017,0.9999319107380863,8.295660419965114e-05
-0.22417207510152365,-0.22417207510152365,0.9998781883664198,8.288684722987373e-05
-0.2231410299515119,-0.2231410299515119,0.9998244433131822,8.287751199791538e-05
-0.22156254527071723,-0.22156254527071723,0.9998923900726847,8.290187329038339e-05
-0.21995664257119643,-0.21995664257119643,0.999998343272171,8.286059747891276e-05
-0.2187493588106008,-0.2187493588106008,1.0000778270098878,8.287045169989278e-05
-0.21699658028664998,-0.21699658028664998,1.0001549832694956,8.289897498634458e-05
-0.21514729294140125,-0.21514729294140125,0.99995827214009,8.301797499039081e-05
-0.2138215980026871,-0.2138215980026871,1.000003386464694,8.308463138389408e-05
-0.21181223144376418,-0.21181223144376418,0.9999870061344118,8.29830896581524e-05
-0.20987449502717936,-0.20987449502717936,0.9999890672637555,8.29814163305411e-05
-0.2081785523376311,-0.2081785523376311,1.000047983263821,8.288294522014515e-05
-0.20710114219691605,-0.20710114219691605,0.9999454978821628,8.293914715220562e-05
-0.20546514208690497,-0.20546514208690497,0.9999155272038619,8.291561409064632e-05
-0.2042781435244251,-0.2042781435244251,0.9999062702109083,8.2874526997358e-05
-0.2027961749190581,-0.2027961749190581,0.9998130933097766,8.28672385963256e-05
-0.20125142252509248,-0.20125142252509248,1.0000901314325348,8.287344280482805e-05
-0.19957639156928053,-0.19957639156928053,1.000037905191404,8.309185290154566e-05
-0.1977747893804917,-0.1977747893804917,1.000061980553776,8.301763490782535e-05
-0.19583684767130763,-0.19583684767130763,0.999908681570137,8.29617824816272e-05
-0.1941268778187805,-0.1941268778187805,1.000044254927892,8.294266541383968e-05
-0.19280508616502628,-0.19280508616502628,0.9999583631773215,8.295698983693979e-05
-0.19119992995401844,-0.19119992995401844,1.000067946795097,8.296534880695153e-05
-0.18965714539663167,-0.18965714539663167,0.9999448730167841,8.287206159943294e-05
-0.18858338517311496,-0.18858338517311496,0.9999850914846803,8.292405258304979e-05
-0.18685518692800543,-0.18685518692800543,0.999942502167633,8.288564947457742e-05
-0.1854360456331051,-0.1854360456331051,0.9999590230930735,8.287524378322932e-05
-0.18396560154942562,-0.18396560154942562,1.0000224043772519,8.284906312569443e-05
-0.18210187532386043,-0.18210187532386043,0.9999116181666599,8.289641766254669e-05
-0.18024156366009264,-0.18024156366009264,0.9999801805230211,8.302814640401823e-05
-0.1787764131106087,-0.1787764131106087,0.9999796710689541,8.314061062475958e-05
-0.1769113992602797,-0.1769113992602797,0.9999846858825467,8.298207023272884e-05
-0.17497547694219975,-0.17497547694219975,1.0001399128533037,8.29965505304779e-05
-0.17327258594159503,-0.17327258594159503,1.0000367992882677,8.288332449972639e-05
-0.17220089867478236,-0.17220089867478236,0.9999466771692658,8.295629167968402e-05
-0.17056481261679438,-0.17056481261679438,0.9999963770353293,8.292588309695076e-05
-0.1693725214150618,-0.1693725214150618,1.0000753698941776,8.287655258392329e-05
-0.16789870377397165,-0.16789870377397165,1.000084349971177,8.287423168778976e-05
-0.1663460463299998,-0.1663460463299998,1.0000394885964379,8.286278356386286e-05
-0.16467810192261823,-0.16467810192261823,1.0000305766866373,8.311185818145821e-05
-0.16288020298234188,-0.16288020298234188,1.0000090944352122,8.301813966067441e-05
-0.16093652286508586,-0.16093652286508586,1.0000302973734354,8.29621257249006e-05
-0.15922906188498018,-0.15922906188498018,0.9999250776816663,8.294333184719546e-05
-0.15789828520355514,-0.15789828520355514,1.0000084250231658,8.295187321733217e-05
-0.15629947519482812,-0.15629947519482812,0.9999089952876588,8.295473156025579e-05
-0.15475731967599132,-0.15475731967599132,0.9998833919471617,8.287651461181244e-05
-0.15368282479321352,-0.15368282479321352,0.9999698057726205,8.293170794580141e-05
-0.15195418959774543,-0.15195418959774543,1.0001074659127611,8.28935910669305e-05
-0.15053183173004073,-0.15053183173004073,1.0000148625272465,8.287791161804682e-05
-0.14906494435999776,-0.14906494435999776,1.0000519591461112,8.285092732522668e-05
-0.14720725320657949,-0.14720725320657949,0.9999319022900325,8.289910790521308e-05
-0.1453359446619288,-0.1453359446619288,1.0001598841408277,8.304189508039594e-05
-0.14358443974197144,-0.14358443974197144,1.0000047061744597,8.298091805870773e-05
-0.1416088501820923,-0.1416088501820923,0.9999628522142444,8.296753680411172e-05
-0.139918319771823,-0.139918319771823,1.000011264680311,8.298653891334922e-05
-0.1379797717600013,-0.1379797717600013,1.0000650807251072,8.290408778148257e-05
-0.13691506184986793,-0.13691506184986793,0.999959613529759,8.292355505440633e-05
-0.1355268246756168,-0.1355268246756168,0.9998954044537991,8.293628014398531e-05
-0.13411002070206451,-0.13411002070206451,0.9998904566377602,8.28775470500699e-05
-0.13273676811368204,-0.13273676811368204,0.9998112838260329,8.282085295088203e-05
-0.1312681744864676,-0.1312681744864676,1.0000250922083072,8.290362844068866e-05
-0.12956624166399705,-0.12956624166399705,0.9999894453110713,8.290822992158896e-05
-0.1276242320658639,-0.1276242320658639,1.0001426105959634,8.301573739801154e-05
-0.12597628220974003,-0.12597628220974003,1.0000072893037746,8.294827500976479e-05
-0.12433130444696872,-0.12433130444696872,0.9999706614067121,8.295805714941815e-05
-0.12299155515938764,-0.12299155515938764,0.9999447963143145,8.294773683819104e-05
-0.12139909447723767,-0.12139909447723767,1.0000907092446427,8.296853136136055e-05
-0.11946696618106216,-0.11946696618106216,0.9999839804719942,8.290243722583075e-05
-0.1184236401823,-0.1184236401823,0.9999793216642526,8.290482511584687e-05
-0.11697593912831508,-0.11697593912831508,1.00008750697415,8.293529740971165e-05
