time,time,flux,flux_err
-0.4994453797553433,-0.4994453797553433,1.000017576681156,0.00039736402108785974
-0.4985932219181753,-0.4985932219181753,1.0000369597707663,0.00042885188278184524
-0.49760612814376753,-0.49760612814376753,0.9999523180805573,0.0003985548597487686
-0.49678970351669705,-0.49678970351669705,0.9999977017130369,0.00036259887941996773
-0.4962273529687081,-0.4962273529687081,1.0001792481949154,0.0003671764337617417
-0.4954653566383058,-0.4954653566383058,1.0004071459877188,0.0003660723595009873
-0.4944877308604191,-0.4944877308604191,0.9994825481451011,0.00036490422874029584
-0.4937809949144139,-0.4937809949144139,1.0003950057988227,0.0003642392349912097
-0.4933384178657434,-0.4933384178657434,1.0004246412822357,0.0003648375619349028
-0.49284906034299636,-0.49284906034299636,1.000255820522446,0.00036580241100857047
-0.49216529521363556,-0.49216529521363556,1.0003668187552883,0.0003640261480744738
-0.49135438955854627,-0.49135438955854627,1.0003929440464454,0.00036465085791414587
-0.4908519144402817,-0.4908519144402817,1.0000101896220697,0.000389838775702574
-0.4898268114091479,-0.4898268114091479,1.0003226224758062,0.0003815714599467554
-0.489151089877123,-0.489151089877123,0.9999506601116235,0.0003972074992849704
-0.48866136674187144,-0.48866136674187144,1.000309560621232,0.0003627316585099787
-0.48794800725154347,-0.48794800725154347,1.0003978524502792,0.00036638759786414353
-0.4870515602116939,-0.4870515602116939,1.0000100013705855,0.0003647449929970526
-0.4861530195368687,-0.4861530195368687,0.9996273212276648,0.0004147690265836981
-0.48544045790622475,-0.48544045790622475,1.0002696143548473,0.0003634178392413505
-0.48499108540127056,-0.48499108540127056,1.0004003074307053,0.0003656679110135551
-0.48431108224176567,-0.48431108224176567,0.999533499879983,0.0003922314433745312
-0.4836379109241534,-0.4836379109241534,0.9998266371621162,0.00036355386804994103
-0.4830263460287824,-0.4830263460287824,1.0000551932468986,0.0003661076331053831
-0.4825039326242404,-0.4825039326242404,0.9991045044143174,0.00036522014342396804
-0.48113120590278413,-0.48113120590278413,0.9991561012993065,0.0004137786662171725
-0.4806128119860659,-0.4806128119860659,0.9996158759173408,0.00040782336233981253
-0.4803229417404509,-0.4803229417404509,0.999623443743799,0.00036359726437273476
-0.47959368776355404,-0.47959368776355404,1.0005059526945759,0.0003653967056520671
-0.47889262980170316,-0.47889262980170316,0.9998020791633525,0.00036581137110398924
-0.4781982715241611,-0.4781982715241611,0.9998017839163328,0.0003641974837877932
-0.4772319862197037,-0.4772319862197037,1.0005538063370618,0.00036373609346983943
-0.4764068826872972,-0.4764068826872972,1.000077089614811,0.0003914060971806477
-0.4756322567453026,-0.4756322567453026,0.9997477960823009,0.00036424498357053335
-0.47503066271892747,-0.47503066271892747,1.000047231034443,0.00036347766691978623
-0.47456103884469486,-0.47456103884469486,0.9998254206344438,0.00038749126754621853
-0.4733831048331922,-0.4733831048331922,1.0000638792747938,0.0003642102039659205
-0.4724053348196321,-0.4724053348196321,0.9995842517757128,0.00041313472200128
-0.4717638797854306,-0.4717638797854306,1.0001034429058733,0.0004137140038764687
-0.470889754066593,-0.470889754066593,0.9997037719323849,0.00041405697560787405
-0.4699881201304379,-0.4699881201304379,1.0004065854443451,0.0004005158739277386
-0.4695758854039013,-0.4695758854039013,1.0003202078419728,0.0003661749931584585
-0.4678424618410645,-0.4678424618410645,1.000343526785827,0.00036460488238486963
-0.46702376567554893,-0.46702376567554893,0.999824802786082,0.00036760171818734836
-0.46631369141687173,-0.46631369141687173,0.9997214444950286,0.0003690731863074993
-0.46548387532384367,-0.46548387532384367,1.0001379658316978,0.0003635963164900631
-0.4646326525340555,-0.4646326525340555,1.0000298127408267,0.00036319174025174707
-0.4640822657151148,-0.4640822657151148,1.0002351922112669,0.00036709860715038466
-0.4635907088624663,-0.4635907088624663,1.0001070039771314,0.000413133802475517
-0.4629587656178046,-0.4629587656178046,0.9999295425022658,0.00036304830156969384
-0.4621807640403858,-0.4621807640403858,1.0002126107644909,0.0003637541178333598
-0.46111481679836286,-0.46111481679836286,0.9998055697295396,0.0003809142910011894
-0.46042996255564506,-0.46042996255564506,1.0004374797127213,0.0003654918332321889
-0.459969051189546,-0.459969051189546,1.0000523688797398,0.00039135310598854606
-0.45947311874333535,-0.45947311874333535,1.0002769087759362,0.00036287772270563926
-0.45898922323103764,-0.45898922323103764,1.0000811392355207,0.00036587294757114454
-0.458243683767796,-0.458243683767796,0.9997579571424673,0.0003653788260860215
-0.457322208507685,-0.457322208507685,1.0003655914911127,0.00041219115017696875
-0.4565240188021562,-0.4565240188021562,1.0006431029209013,0.0003633090220368481
-0.45609342129318975,-0.45609342129318975,0.9999546593005946,0.000367378283665427
-0.45552565751422663,-0.45552565751422663,1.0000885978210348,0.00036335253598970943
-0.454701329942327,-0.454701329942327,0.9997624912217541,0.0003671682475914331
-0.4538906546047656,-0.4538906546047656,1.0000147230399716,0.0003647287905925947
-0.4524432829362922,-0.4524432829362922,1.0004636526282897,0.0003660586959815807
-0.45175410921365255,-0.45175410921365255,0.9999017904620018,0.00040724398650162096
-0.4515185945681878,-0.4515185945681878,0.9995985797614557,0.0003662432299282712
-0.45056869893451224,-0.45056869893451224,1.0001031962512017,0.0003649363435268225
-0.4492196400402463,-0.4492196400402463,1.0000679585380712,0.0003648756814528135
-0.4479362952653901,-0.4479362952653901,1.0002243934379382,0.0003639008947950614
-0.4472799092487548,-0.4472799092487548,0.9999824937621199,0.00036463776193915555
-0.44659146619669626,-0.44659146619669626,0.9996929218036883,0.0003656100171681227
-0.446030137607886,-0.446030137607886,1.0002344234149831,0.0003635572486904449
-0.4453029069321929,-0.4453029069321929,1.0003843164718935,0.0003644059952799982
-0.4442535640584538,-0.4442535640584538,1.0010213431766055,0.00041449691606024473
-0.4436150101013482,-0.4436150101013482,0.9995358547902263,0.00040839697318320026
-0.4431316205955227,-0.4431316205955227,1.0006008310557895,0.00036710229032950947
-0.44222615309845426,-0.44222615309845426,0.999872706012351,0.0003659747819171163
-0.44139124256907963,-0.44139124256907963,0.9999301291379343,0.0003643859706015868
-0.44063608354481404,-0.44063608354481404,1.0000347590777847,0.00036823099148226813
-0.4391557585899136,-0.4391557585899136,0.9999536488691415,0.0003637369599120633
-0.4380418451124569,-0.4380418451124569,1.0000554263912236,0.0003654785673426398
-0.43725211374403444,-0.43725211374403444,1.0003476160494846,0.00036656258485719205
-0.4361743007262703,-0.4361743007262703,0.9999381559428207,0.0003635590323439512
-0.4353142320556799,-0.4353142320556799,1.0001295488628652,0.00036791848340049705
-0.4345137628653902,-0.4345137628653902,1.0001062272749472,0.00036286722345731174
-0.433465051400708,-0.433465051400708,0.9998260580098336,0.00040215753854592595
-0.43257915839640193,-0.43257915839640193,1.0002818836870797,0.00036539935623950456
-0.43165495341527277,-0.43165495341527277,1.0005629300964127,0.00036520910756572317
-0.4309885127819143,-0.4309885127819143,1.0000371782131712,0.0003660026739818955
-0.43036274987243817,-0.43036274987243817,0.9998227879122249,0.00036416265918418094
-0.4294486059792689,-0.4294486059792689,1.000045485204439,0.00036562951230423573
-0.4284414808265865,-0.4284414808265865,0.9995791810409358,0.0003648795877094845
-0.427546802147117,-0.427546802147117,1.0003390564837735,0.0003635970096767332
-0.42703810882085236,-0.42703810882085236,1.0001683214741366,0.00036681775897968576
-0.4264859657647321,-0.4264859657647321,1.000249436124888,0.00036319076168951083
-0.42566745841759257,-0.42566745841759257,0.9998945495739324,0.0003644710273591787
-0.4251072071943781,-0.4251072071943781,0.9986815515413259,0.00041373387289059553
-0.42397909456922206,-0.42397909456922206,0.9998653949479543,0.0003640600748541814
-0.42286026486399353,-0.42286026486399353,1.0011696681972242,0.0004048421386482937
-0.42241284878837176,-0.42241284878837176,1.0000618465372433,0.00036236287024853575
-0.4213936701446073,-0.4213936701446073,1.0001802822577908,0.00036669895078832225
-0.4201073256102973,-0.4201073256102973,1.000159531501023,0.0003633058239327884
-0.4191126088393503,-0.4191126088393503,0.9999185164790001,0.00036409920526422657
-0.418547232063429,-0.418547232063429,0.9994276719610937,0.0003650168944261822
-0.41764588826772525,-0.41764588826772525,0.9999206938580738,0.00036348744321292736
-0.41702140141424027,-0.41702140141424027,1.0003613116557115,0.00036417841767061727
-0.4162076428794535,-0.4162076428794535,0.9999991983229937,0.00036493339982508554
-0.41483775633969344,-0.41483775633969344,1.0003262708744907,0.00036372140127571075
-0.4144663264902192,-0.4144663264902192,1.00014861470305,0.0004077066221394434
-0.4142821785077103,-0.4142821785077103,1.000035289389094,0.00036624121766318425
-0.4136861639257404,-0.4136861639257404,1.0002945366222051,0.00036535972026361464
-0.4130762070621131,-0.4130762070621131,1.0000108038887274,0.00036870536508298363
-0.41224016367341393,-0.41224016367341393,0.9996934361283273,0.0003634583956232168
-0.4111835279647494,-0.4111835279647494,1.0005521355678646,0.0003656730155204332
-0.41012496805487897,-0.41012496805487897,1.0000741326436788,0.00036341337338598233
-0.409377817773202,-0.409377817773202,1.0001249304112467,0.00036492943627187085
-0.40863485399167987,-0.40863485399167987,0.9993858949340296,0.00036532566543248803
-0.40743634031387044,-0.40743634031387044,0.9998396322010661,0.00036405653516452465
-0.40597057180129925,-0.40597057180129925,0.9998007756102449,0.00036671204517120797
-0.4054161145031685,-0.4054161145031685,1.0009753998807238,0.00041421639665244724
-0.4044797030001064,-0.4044797030001064,1.0002834894098167,0.0004059736339903734
-0.4035421106906142,-0.4035421106906142,0.9997545096645526,0.0003946860636097377
-0.4029642541558133,-0.4029642541558133,1.0003483677497607,0.0003632077271763327
-0.40216242940805386,-0.40216242940805386,1.0000657842009226,0.000365802219997501
-0.4015888258771156,-0.4015888258771156,0.9997063186747122,0.0003646103880819011
-0.4006081422616262,-0.4006081422616262,1.0005241553783952,0.00036504934597805913
-0.39955054563033626,-0.39955054563033626,1.000093097477439,0.0003636176896766397
-0.39900981100363425,-0.39900981100363425,1.0000015369150432,0.00036337379458787944
-0.3984610681392951,-0.3984610681392951,1.000133906046934,0.000365121189035367
-0.39790076148638037,-0.39790076148638037,0.999511416307663,0.00036588932559866163
-0.39709423910389885,-0.39709423910389885,0.9999445002095927,0.00036440136183067153
-0.3964514296647394,-0.3964514296647394,0.9997354447129311,0.00036470947469832433
-0.3960544463974657,-0.3960544463974657,1.0000754615076155,0.0003642715146642641
-0.3952034253801685,-0.3952034253801685,0.9997057376657974,0.00040771932094797275
-0.39428637103701475,-0.39428637103701475,1.0002066187214453,0.0003637416803484086
-0.39377251075056846,-0.39377251075056846,1.0001885487596058,0.0003999989961931979
-0.39300792657159034,-0.39300792657159034,0.9996720361148173,0.000367499810510424
-0.39222031354292997,-0.39222031354292997,1.000349747701667,0.0003653384979529544
-0.39105773883638906,-0.39105773883638906,0.9999587838772704,0.0003634202103088452
-0.3902841511851875,-0.3902841511851875,0.9998211195791876,0.00036372213282423883
-0.38974549963750177,-0.38974549963750177,1.0001879453890752,0.00036503430372489243
-0.388966341901687,-0.388966341901687,1.000400905277938,0.0003634093039442016
-0.3884130789461778,-0.3884130789461778,0.999858439119867,0.00036348244443136664
-0.3878844239632599,-0.3878844239632599,0.9999869100326666,0.0003653649439207403
-0.38700496032834053,-0.38700496032834053,1.0002897524463819,0.00036448629279322003
-0.38576007862720874,-0.38576007862720874,0.9990289575958766,0.0004077229704613463
-0.38546312239486724,-0.38546312239486724,0.999822584557084,0.0003636476987038377
-0.3847767942337669,-0.3847767942337669,1.0000326325252449,0.00036508029081066173
-0.3842222861596383,-0.3842222861596383,0.9997043724833572,0.00036374507100967227
-0.38349938524188476,-0.38349938524188476,0.9999732163838841,0.0003662756088241753
-0.3821298520793789,-0.3821298520793789,1.0001055538113701,0.0003634030244665506
-0.3814445779527887,-0.3814445779527887,1.0003718419570404,0.0003893768494586539
-0.3806672836450161,-0.3806672836450161,1.0000975909847574,0.0003638870667727014
-0.3801774072853732,-0.3801774072853732,0.9997537873699136,0.000363582434908636
-0.3796034995815717,-0.3796034995815717,0.9998364586552025,0.00039039476843069035
-0.3783521226228913,-0.3783521226228913,1.000292241602707,0.0003644282770917483
-0.37728343115450114,-0.37728343115450114,0.9998231045184995,0.00041422359944639706
-0.3766708102921257,-0.3766708102921257,1.0004538155156875,0.00036335578764648123
-0.3758041856170166,-0.3758041856170166,1.0002936743292283,0.00036530349903466335
-0.3748438050140976,-0.3748438050140976,1.0003220045171397,0.0003983809535883473
-0.3739113164192531,-0.3739113164192531,1.0004926205152747,0.0003657721840407075
-0.37299869340640723,-0.37299869340640723,0.9996978016257714,0.00036278241142967513
-0.3723521405743668,-0.3723521405743668,1.0002067700304509,0.000364958229240407
-0.3717965975403786,-0.3717965975403786,1.0006349586128542,0.0003678663718235283
-0.37082645306072665,-0.37082645306072665,1.0003519409600163,0.00036807833098055073
-0.3698791898932541,-0.3698791898932541,1.0005842160513174,0.00036339316863846874
-0.3692811469300068,-0.3692811469300068,1.000060273707374,0.0003644726723754164
-0.36879825117212023,-0.36879825117212023,0.9996539676045539,0.0003655802000809602
-0.36803811110876267,-0.36803811110876267,1.0000868997752623,0.0003640264113749147
-0.3673231714070425,-0.3673231714070425,1.000436263074788,0.0003642010456150014
-0.36673933892016064,-0.36673933892016064,1.0000158951220843,0.00038946237673084604
-0.36596612182765964,-0.36596612182765964,1.000442442783778,0.0003812325524626049
-0.365162939223228,-0.365162939223228,0.999971422419067,0.0003729161256333239
-0.3648621032407391,-0.3648621032407391,0.9991961958788613,0.00039437720535523993
-0.3642417723007384,-0.3642417723007384,0.9997433660547983,0.0003641144091474275
-0.3633898562504328,-0.3633898562504328,1.000186877505783,0.00036429146500110163
-0.3627938043515314,-0.3627938043515314,1.0009695890344452,0.0003645746644076532
-0.36176733924512516,-0.36176733924512516,1.000676849771977,0.0003634540914996528
-0.3613425947696669,-0.3613425947696669,1.0001682124453337,0.0003636766124162256
-0.3608523844464798,-0.3608523844464798,1.0000638642252127,0.00036756635446253967
-0.36031609742494763,-0.36031609742494763,1.000220853231695,0.0003630235988145425
-0.3596425311508938,-0.3596425311508938,1.0006472297554807,0.00036511384580514844
-0.3589262221386889,-0.3589262221386889,0.9997103390170874,0.0003651907811193358
-0.3579652765736682,-0.3579652765736682,1.0004056284786647,0.00036604964895896444
-0.35686354965146166,-0.35686354965146166,1.0005527930924996,0.000365752900155972
-0.35661520607536656,-0.35661520607536656,1.0007018391715148,0.0004079354068769468
-0.35614373584103304,-0.35614373584103304,1.0000860256767654,0.00036464841895431506
-0.35516290225932606,-0.35516290225932606,1.00020371173245,0.00036560868105354994
-0.3544448289758293,-0.3544448289758293,0.999867311118172,0.00036342295896668673
-0.35338873023720224,-0.35338873023720224,0.9998502105591482,0.0003634453930691805
-0.35271961400430885,-0.35271961400430885,0.9998419820414863,0.0003652472580222385
-0.3520710115262773,-0.3520710115262773,1.000031121435628,0.00036486664345215423
-0.3515207178003038,-0.3515207178003038,0.9997444188179344,0.0003660519243669339
-0.3509836044016993,-0.3509836044016993,1.0003212997882505,0.0003638247423352164
-0.3502462900316459,-0.3502462900316459,0.9999450915868833,0.000365180668414794
-0.34890338156110373,-0.34890338156110373,0.999605316373439,0.00040918622540437693
-0.348237070144387,-0.348237070144387,1.0008415594686588,0.0003673125200760915
-0.3473696755900164,-0.3473696755900164,1.0001520238530683,0.00036588448809031233
-0.34670305009785807,-0.34670305009785807,1.0000101567786763,0.0004157220977879583
-0.3459425938257482,-0.3459425938257482,1.000327520018478,0.0003655153191876681
-0.34455979428748834,-0.34455979428748834,1.000195325621098,0.0003656032633565903
-0.3431546634921688,-0.3431546634921688,0.9997530274697969,0.00036521250175309606
-0.34229313897521935,-0.34229313897521935,0.9995998969876748,0.0003692954795979207
-0.34116632374789335,-0.34116632374789335,1.0001027915587082,0.00036367235895786695
-0.3404440128870192,-0.3404440128870192,0.9999789215603098,0.000365185053554279
-0.33987680465506853,-0.33987680465506853,0.999979600685238,0.0003681681762570662
-0.3391193294723053,-0.3391193294723053,0.9994054489184714,0.0003621943811624866
-0.3381204456774867,-0.3381204456774867,0.9998799130002324,0.00036702968918620913
-0.3371241744127474,-0.3371241744127474,1.0000256313184317,0.00037702508243828316
-0.3363635204223101,-0.3363635204223101,1.000105226412123,0.00036563096138749526
-0.33591446889186044,-0.33591446889186044,0.9996656969040885,0.00036342812517626595
-0.33516846586862814,-0.33516846586862814,1.0006945132216374,0.0003642224037779181
-0.33447582306544066,-0.33447582306544066,1.0003573322612191,0.000365411342311194
-0.3337395704409573,-0.3337395704409573,0.9994169027564859,0.00036512501410497375
-0.3327845817184425,-0.3327845817184425,1.0002955910349054,0.0003632734531194388
-0.3322767210716847,-0.3322767210716847,1.0000423449123175,0.00036499258939340996
-0.3317199488214101,-0.3317199488214101,1.000309590194366,0.00036528323228244045
-0.331118472039816,-0.331118472039816,0.9996106006364102,0.000366247031014933
-0.3301771365018794,-0.3301771365018794,1.0001310109316601,0.00036434701894762916
-0.32930256497929805,-0.32930256497929805,0.9998512412270705,0.00036556232614875486
-0.32791979562171036,-0.32791979562171036,1.0001553969364803,0.0004059676435303229
-0.32757509974908317,-0.32757509974908317,1.000493585314109,0.0003632426963115721
-0.32680647572706223,-0.32680647572706223,0.9998781266922554,0.00036495423223330546
-0.32589201100345233,-0.32589201100345233,1.0003744387495679,0.00036495491766508353
-0.32508505028818035,-0.32508505028818035,0.9996028362108096,0.00045308426831559834
-0.32413380484795196,-0.32413380484795196,0.9999654322869928,0.00036388872991853814
-0.3236860427336069,-0.3236860427336069,1.0000304936286653,0.00036587816560556977
-0.32273260726215086,-0.32273260726215086,0.9996900022802233,0.00036397488576412945
-0.3222247071767924,-0.3222247071767924,1.0000210242934107,0.0003635144039679811
-0.3216213478372083,-0.3216213478372083,1.0003138123045683,0.00036523345467530263
-0.3203464518330293,-0.3203464518330293,0.9994836510203291,0.00036450393450406757
-0.3196004965415341,-0.3196004965415341,1.000066888965857,0.0004076207041674972
-0.31928109007130845,-0.31928109007130845,1.0002626913851138,0.0003664000385758508
-0.31863953416614094,-0.31863953416614094,0.9997526901889771,0.0004151370153090801
-0.31801683766097993,-0.31801683766097993,1.0001579353191106,0.0003651008461921073
-0.31707272650965024,-0.31707272650965024,0.999868900706969,0.0003631443688590426
-0.31590386325115105,-0.31590386325115105,1.0004671440664419,0.00036411633785819297
-0.3147972392005613,-0.3147972392005613,1.000053392637031,0.0003643475949935378
-0.3138944146616268,-0.3138944146616268,1.0001947839118899,0.0003641812281212354
-0.31316755966981874,-0.31316755966981874,1.0006802485026753,0.0003654987253027069
-0.31246679229225266,-0.31246679229225266,0.9999995675775413,0.0003664117554305073
-0.31143736454978355,-0.31143736454978355,0.9994996886574754,0.0003677689385874404
-0.3106464731230517,-0.3106464731230517,0.9999481568156309,0.0003628186553683441
