time,time,flux,flux_err
-0.49993311970320065,-0.49993311970320065,0.9997390683803354,0.0007548621580571808
-0.49980260246957187,-0.49980260246957187,0.9992785772508197,0.000651965773680054
-0.4996756522996293,-0.4996756522996293,0.9997314023745947,0.0006557389888353479
-0.4995075352795538,-0.4995075352795538,0.999264517375234,0.0007195457648736333
-0.4992501453270961,-0.4992501453270961,1.0000635120810304,0.0006029443493289338
-0.4989209251194552,-0.4989209251194552,1.0001039233583626,0.0006414249912744128
-0.4985544788221887,-0.4985544788221887,1.0001383848803107,0.0006174890233087394
-0.49823707948235096,-0.49823707948235096,0.999525974673048,0.0006590113465814642
-0.4979626430031203,-0.4979626430031203,0.9998761286914523,0.0007291329442397277
-0.49769177698035494,-0.49769177698035494,0.9999653687448617,0.0006570947291121502
-0.4975607156571641,-0.4975607156571641,1.000120015281453,0.0006519345149666755
-0.4973684834352753,-0.4973684834352753,0.9999936611165527,0.0006332844989511341
-0.497127945865941,-0.497127945865941,0.9998520695589335,0.0007057522855042776
-0.49683673119652666,-0.49683673119652666,0.9993729378280584,0.0006184701346084481
-0.49659642427723155,-0.49659642427723155,1.0003844708459904,0.0006484627025782881
-0.49626613735745195,-0.49626613735745195,0.9998733498662163,0.0006172752856333756
-0.4958185073774075,-0.4958185073774075,1.0001968050672372,0.0006555502597021055
-0.49553121453209314,-0.49553121453209314,0.9998640014433144,0.0007683023802043577
-0.495355004916928,-0.495355004916928,0.999543560151675,0.0006622292098678407
-0.4951781724426837,-0.4951781724426837,1.0007426471022645,0.0006588425718748775
-0.4949976208372391,-0.4949976208372391,0.9992291539209017,0.0006967177457169037
-0.49466378062206784,-0.49466378062206784,0.9998285493904577,0.0006142547940524052
-0.494486422623595,-0.494486422623595,1.0005936833070972,0.0006446995805730264
-0.4942576145745988,-0.4942576145745988,0.9997605329997489,0.0006405105778439863
-0.49391435355719293,-0.49391435355719293,1.0007586196455887,0.0006126485323086927
-0.4936457307114324,-0.4936457307114324,1.0003293249071146,0.0006510261545149621
-0.493262392655015,-0.493262392655015,0.9992460956590635,0.000659618206573805
-0.49310140835295896,-0.49310140835295896,1.0005148714126788,0.0006660559868219761
-0.4928761167502671,-0.4928761167502671,1.0004595284976872,0.0006135978195139404
-0.49243535896966933,-0.49243535896966933,1.0000095676917007,0.0006315037077386385
-0.49229610263719226,-0.49229610263719226,1.0004797521641737,0.0006435553697657295
-0.4920004657193203,-0.4920004657193203,0.9996983714114103,0.0006318846958338881
-0.4914768462549546,-0.4914768462549546,1.0000944166729724,0.0006321421725545284
-0.49098740848639866,-0.49098740848639866,1.0003213535681226,0.0006671057402600308
-0.49078418322387735,-0.49078418322387735,1.0010707285716034,0.0006621254815708772
-0.4904848722879251,-0.4904848722879251,1.000420002945329,0.00061932652049709
-0.49014554205859895,-0.49014554205859895,0.9995303803427189,0.000615161247221994
-0.49003812680603004,-0.49003812680603004,1.0004779461505318,0.0006600043511167966
-0.4897888626204804,-0.4897888626204804,1.000205190535795,0.0006339705483916194
-0.4894142992321576,-0.4894142992321576,0.9998567344756328,0.0006199893464307843
-0.4889850305116852,-0.4889850305116852,1.000081547870321,0.0006542118076901559
-0.4886868583809701,-0.4886868583809701,0.9993332167910477,0.0006706427476726954
-0.48842453397955976,-0.48842453397955976,1.000442580657283,0.0006157581312576172
-0.4881389592810592,-0.4881389592810592,0.9997083409859044,0.0006232178411171533
-0.48788051051160436,-0.48788051051160436,1.0004194014679606,0.0006580690548275273
-0.48780901626232664,-0.48780901626232664,0.9994189679767554,0.0006448369625185037
-0.4875292513585009,-0.4875292513585009,0.9998472967053612,0.0006386734144581178
-0.4869543993423576,-0.4869543993423576,0.9993818496454457,0.0006553495892953628
-0.4864511232859513,-0.4864511232859513,0.9999558736675814,0.0006634425836901835
-0.48629782539064764,-0.48629782539064764,0.9998211484264713,0.0006301328743477463
-0.4860580247004691,-0.4860580247004691,0.9995013986471047,0.0006290230023910106
-0.48581825481232954,-0.48581825481232954,0.9989623139171927,0.0006340346087449582
-0.48560806821333247,-0.48560806821333247,0.9993513835618753,0.0006595088327884769
-0.48553156890338867,-0.48553156890338867,0.9998806148043615,0.0006454428960547392
-0.4852605163752742,-0.4852605163752742,1.0009554804093124,0.0006403062322908016
-0.4849545318626042,-0.4849545318626042,1.0005281900564487,0.000642971937807898
-0.48455608115546056,-0.48455608115546056,1.000245923827725,0.0006679147640605538
-0.48400350856536534,-0.48400350856536534,0.999870938761887,0.0006378630658646726
-0.4837956439245318,-0.4837956439245318,1.0000639947257626,0.0006251326740699386
-0.4834614922729088,-0.4834614922729088,0.9997187520701136,0.000655862325303542
-0.48338037559660735,-0.48338037559660735,1.001010872245927,0.0006912572792337808
-0.4832306896802038,-0.4832306896802038,0.9993599332083892,0.0006369338287465622
-0.48285757200501395,-0.48285757200501395,1.00010021350364,0.000644087817874861
-0.4825775993005664,-0.4825775993005664,0.999873092577611,0.0006469433135123136
-0.48209521179305737,-0.48209521179305737,1.0001142373484666,0.000644092075784308
-0.48181883351135185,-0.48181883351135185,0.9999642973251625,0.0006302852291705617
-0.48162200087244855,-0.48162200087244855,1.000415310154791,0.0006406303157068687
-0.48142790746787795,-0.48142790746787795,0.9999136585521576,0.0006744268327025665
-0.48119229214062215,-0.48119229214062215,1.0003124957816694,0.0006437784897097582
-0.4810842731174489,-0.4810842731174489,0.9991876458035108,0.0006826908845232534
-0.480884980801784,-0.480884980801784,0.9998441787259802,0.0006520798278619988
-0.48064254710334353,-0.48064254710334353,0.9999914311829665,0.0006371459165213409
-0.4804443113716843,-0.4804443113716843,0.9993997654658164,0.0006637092060810615
-0.4800477358432545,-0.4800477358432545,0.9997907790154681,0.0006138267318041578
-0.4795457003434421,-0.4795457003434421,0.9996468822846201,0.0006345158150043448
-0.47930915993929374,-0.47930915993929374,1.0004394122739622,0.0006433505599403209
-0.4789447311559343,-0.4789447311559343,1.0001487366220356,0.0006774344911688083
-0.4787677498767152,-0.4787677498767152,1.0000300044660277,0.0006237426587152583
-0.47856663361599205,-0.47856663361599205,0.9998738500905642,0.0006736232489206001
-0.4783761348873668,-0.4783761348873668,1.0010745459309667,0.0006406263315973459
-0.4782655022332619,-0.4782655022332619,0.9994762676152276,0.0006602384639617931
-0.4778397993031831,-0.4778397993031831,0.9996608380170944,0.0006322479244316407
-0.4773609720439708,-0.4773609720439708,1.001075385330114,0.000638442943820452
-0.47711070172153996,-0.47711070172153996,0.9992075817825409,0.0006556242192411193
-0.47673256178750306,-0.47673256178750306,0.9996665532749521,0.0006541146833801159
-0.4765064716746565,-0.4765064716746565,0.9995950917599483,0.0006780722925157246
-0.4763254200486699,-0.4763254200486699,0.9999831350204991,0.0006753079400527791
-0.47611802374522083,-0.47611802374522083,1.0004212266639643,0.0006315306636808875
-0.47592360739799916,-0.47592360739799916,0.9996577338691054,0.0006465884303723834
-0.47536449764156713,-0.47536449764156713,0.9994937143575134,0.0006374243385418867
-0.47494586835673547,-0.47494586835673547,0.9989915210670974,0.0006408039122816728
-0.4745095746678999,-0.4745095746678999,0.999970047584959,0.0006650915538279801
-0.474258954088873,-0.474258954088873,0.9993663233123401,0.0006673786122643961
-0.4740758285814081,-0.4740758285814081,0.999864823187193,0.0006386239902084378
-0.473944326149649,-0.473944326149649,1.0001300108942965,0.000661216008124683
-0.4738293488575437,-0.4738293488575437,1.00038412838935,0.0006184897153861614
-0.4736071509527392,-0.4736071509527392,0.999710405048992,0.0006659618482338279
-0.4730655039595149,-0.4730655039595149,0.9998833467559788,0.0006317652428423202
-0.4727448689940502,-0.4727448689940502,0.9991849674207689,0.0006194058939580301
-0.4723130761434732,-0.4723130761434732,0.9995374118979422,0.0006527977208671538
-0.4719520970691519,-0.4719520970691519,1.0003421581848573,0.000704805838295858
-0.47179664338036675,-0.47179664338036675,0.999689435534911,0.0006559488587476699
-0.47164237694523764,-0.47164237694523764,1.0004272336661646,0.00063904856172678
-0.4714391158333456,-0.4714391158333456,0.9995914247235419,0.0007240867435456193
-0.47106223463997593,-0.47106223463997593,1.0003059849677438,0.0006135215761166493
-0.47065554423315914,-0.47065554423315914,1.0005095642387611,0.0006377382102863759
-0.4703358915598074,-0.4703358915598074,0.9996511774858663,0.0006262348028396393
-0.4700442825764185,-0.4700442825764185,0.999305889823215,0.0006525487987754343
-0.4697231106707477,-0.4697231106707477,0.9993030341100051,0.0007226705565298939
-0.4695872080177651,-0.4695872080177651,0.9999579551952621,0.0006554160532200389
-0.46942588513338707,-0.46942588513338707,1.000134581374755,0.0006530961883894918
-0.4692906218937424,-0.4692906218937424,1.0001931635710468,0.0007005847290679974
-0.46898801892166375,-0.46898801892166375,1.0004870670207413,0.000634684215888621
-0.46873639183249904,-0.46873639183249904,1.0001192763654603,0.0006187706028480625
-0.46843775652523617,-0.46843775652523617,0.9992290087012246,0.0006378490436431885
-0.467981429748761,-0.467981429748761,1.0004253904295166,0.0006260957770553401
-0.467538826278178,-0.467538826278178,0.9988933724275428,0.000761109760907561
-0.4673562994452368,-0.4673562994452368,1.0001239868941187,0.0006619091015184261
-0.46716559359556414,-0.46716559359556414,1.000305720165438,0.0006440245398054436
-0.46696022130417986,-0.46696022130417986,1.000650893643619,0.0007043411381603271
-0.46660588194718,-0.46660588194718,0.9998960166969022,0.0006174191093527703
-0.4664378725196002,-0.4664378725196002,0.9996832148176577,0.0006256587636180838
-0.46616224523022537,-0.46616224523022537,0.9999176416006443,0.0006381092422233956
-0.46574847891679383,-0.46574847891679383,0.9992717719645487,0.0006309984331242494
-0.46546045682116527,-0.46546045682116527,0.9997900989460995,0.0006447040216227514
-0.46519359836383956,-0.46519359836383956,0.9998454084319386,0.00066487159118026
-0.46499778081051774,-0.46499778081051774,1.0004181437357065,0.0006450898034658069
-0.46467186654699616,-0.46467186654699616,1.0000380301147815,0.0005850989333679752
-0.4643748343580228,-0.4643748343580228,0.9998977194736172,0.0006356205699078529
-0.46425431194365957,-0.46425431194365957,1.0008978166214964,0.0006573437721714059
-0.46386466928815934,-0.46386466928815934,0.9998948955939898,0.0006410747251166753
-0.4632704631141678,-0.4632704631141678,1.0002629751080427,0.000634746859841041
-0.46294692476221827,-0.46294692476221827,1.0004618378923387,0.0006677042563241148
-0.462651644305879,-0.462651644305879,0.9993434000785978,0.0006316716188813954
-0.46232234039125614,-0.46232234039125614,0.9993950605443551,0.0006107555176076607
-0.4621123501929105,-0.4621123501929105,0.999385474739235,0.0006540983123027673
-0.4620025198746589,-0.4620025198746589,0.9998508043611057,0.0006428414111261618
-0.4616960666156956,-0.4616960666156956,0.999641914505594,0.0006405363879573633
-0.4613822078026715,-0.4613822078026715,1.0008426489143747,0.0006532362388092408
-0.46088623034374904,-0.46088623034374904,0.9997309141791157,0.0006510799650736773
-0.4605988247370988,-0.4605988247370988,1.0001024766113147,0.0006530579801343537
-0.4602636331481335,-0.4602636331481335,1.000062857425661,0.0006162996994726542
-0.45995596964712604,-0.45995596964712604,0.9996450216126214,0.0006320409694090645
-0.45983284171379635,-0.45983284171379635,0.9997141252298671,0.0006521546301071948
-0.45964170932202253,-0.45964170932202253,0.9997783510218404,0.0006386827650720075
-0.45920833830532504,-0.45920833830532504,1.0000176893572412,0.0006268981839272806
-0.4588126020811615,-0.4588126020811615,1.0010141915431787,0.0006433443107326845
-0.4584193493501516,-0.4584193493501516,1.000248041172481,0.0006605126443902286
-0.4580930741525663,-0.4580930741525663,0.9996532458878938,0.0006295895076844784
-0.4578753002293524,-0.4578753002293524,0.9995441202378498,0.0006293843467539438
-0.45766084808419694,-0.45766084808419694,0.999257034670071,0.0006465335293500076
-0.45759034174334373,-0.45759034174334373,1.000233797257717,0.0006283540041642962
-0.4573945070449554,-0.4573945070449554,0.9998406107345822,0.0006426634369650099
-0.4570580656582024,-0.4570580656582024,0.9993203143089449,0.0006156208610938491
-0.45655780730739937,-0.45655780730739937,1.0003127182647156,0.0006676435484296562
-0.4560091584811744,-0.4560091584811744,0.9994329080197433,0.0006383828263794251
-0.45579984786672867,-0.45579984786672867,0.9995163922828614,0.0006242634893262419
-0.4554602532094577,-0.4554602532094577,1.0005397914140768,0.0006574407531197896
-0.45538350959832313,-0.45538350959832313,1.0003324590977942,0.0006885138522471476
-0.4552567235310562,-0.4552567235310562,1.0003062349842347,0.0006316833674280731
-0.4548747977649327,-0.4548747977649327,0.9998855004056708,0.0006273960291114377
-0.4544944722176297,-0.4544944722176297,0.9992664151057236,0.0006420631708109073
-0.45386442746385003,-0.45386442746385003,0.9995049081628811,0.0006608667739322531
-0.4535889741826395,-0.4535889741826395,1.000885273747204,0.0006322135678418283
-0.4532677079732821,-0.4532677079732821,1.000746591605137,0.0006627137239550733
-0.45312221494386906,-0.45312221494386906,0.9997615622220366,0.0006864873795767358
-0.4529443497223838,-0.4529443497223838,1.0007613617387754,0.0006456530954497284
-0.452566374631715,-0.452566374631715,1.0009715852707166,0.0006486880225600337
-0.4523132743619499,-0.4523132743619499,0.9998147245924385,0.0006337334250010429
-0.45182647631372674,-0.45182647631372674,1.000543759622652,0.000632366948919851
-0.451439446870063,-0.451439446870063,0.9998352327861415,0.0006347794918979905
-0.4512432355782948,-0.4512432355782948,1.0006862241499621,0.0006769413307436281
-0.4509482922585448,-0.4509482922585448,1.0002596974418227,0.0006764164764468545
-0.45078481011441907,-0.45078481011441907,0.9993857609266288,0.0006317482616039634
-0.45065950245407294,-0.45065950245407294,1.000119871798539,0.0006515708170303494
-0.4504302840869059,-0.4504302840869059,1.0005308974801004,0.0006437745876847561
-0.4503039844399609,-0.4503039844399609,0.9997923145621147,0.0006558725493110335
-0.45007032136927594,-0.45007032136927594,0.9995773320009949,0.0006385967634163182
-0.449525939385785,-0.449525939385785,0.999554501502834,0.0006341242971166917
-0.44916551076385075,-0.44916551076385075,1.0002432489138218,0.0006480288286390232
-0.4488677700966946,-0.4488677700966946,1.0002741567142936,0.000643312723350046
-0.44856992184213595,-0.44856992184213595,1.0000464217944267,0.0006318649725406392
-0.4483768509329821,-0.4483768509329821,1.0001119505840357,0.0006764835273669103
-0.4481567108996387,-0.4481567108996387,1.0004985885880626,0.0006327173295032093
-0.44799767204385715,-0.44799767204385715,1.0004501309787304,0.0006965366180942948
-0.4473766739029088,-0.4473766739029088,1.0005602951991588,0.0006482611894119283
-0.4470082525804173,-0.4470082525804173,0.9996866631567766,0.0006388677311446198
-0.446632695831795,-0.446632695831795,0.9999061904789925,0.0006536733981781475
-0.44637326514348385,-0.44637326514348385,0.9996731373170002,0.000622106330628729
-0.44616309925186215,-0.44616309925186215,0.9998945179745308,0.0006786910984597837
-0.4459284071395814,-0.4459284071395814,0.9995111593241672,0.0006353291186288125
-0.4456973796484817,-0.4456973796484817,1.0005281084935882,0.0006453613048845203
-0.4451802416202554,-0.4451802416202554,1.0000272501892074,0.0006199008324416814
-0.44485422162833854,-0.44485422162833854,0.9998507808625872,0.0006209546244640476
-0.4446029245351383,-0.4446029245351383,0.999343431642376,0.0006530749346512775
-0.4441510867793113,-0.4441510867793113,0.9998399261220738,0.0006609996858012934
-0.4439215600708849,-0.4439215600708849,1.000061668004199,0.0006952169604989838
-0.4437749558717769,-0.4437749558717769,0.9998389068269329,0.0006603388467724359
-0.44358509783924094,-0.44358509783924094,0.9992791531501208,0.0006793012785092438
-0.4432791869781795,-0.4432791869781795,0.9989813036390431,0.0006473948447662397
-0.44282420373419884,-0.44282420373419884,1.0004304224891574,0.0006557808198526121
-0.4424865648295963,-0.4424865648295963,1.0000251353385259,0.0006203259668140045
-0.4421642562600027,-0.4421642562600027,0.9995938728060756,0.0006590690273655521
-0.4418373487518693,-0.4418373487518693,0.9996921332185215,0.0007271327863087339
-0.44163348958463755,-0.44163348958463755,0.9999960858666622,0.0006505096334152473
-0.44146371271126555,-0.44146371271126555,1.0003392449239745,0.000663450160419205
-0.44130005083497964,-0.44130005083497964,1.0002668212911918,0.0007065902446571588
-0.44103822911492896,-0.44103822911492896,0.9989709568349691,0.0006065750421462874
-0.4408488714863779,-0.4408488714863779,0.9999027367784477,0.0006179968469083024
-0.44056048265338177,-0.44056048265338177,0.9995854237839996,0.0006469338861643901
-0.44025001158734084,-0.44025001158734084,0.9999265616525974,0.0006362660677797229
-0.43993037689651826,-0.43993037689651826,1.0000284540543993,0.0006295964552461652
-0.4395473405973462,-0.4395473405973462,0.9998137752734481,0.0007460877869765309
-0.4393904644311988,-0.4393904644311988,1.0001494192933569,0.0006569510569847918
-0.4392498337598226,-0.4392498337598226,0.9995608776597604,0.0006469989293410515
-0.4390648218737624,-0.4390648218737624,1.0007347032869913,0.0007044681292044388
-0.4387714013522782,-0.4387714013522782,0.9991011419886295,0.0006468375468645343
-0.4385795444941323,-0.4385795444941323,0.9995728138547098,0.000623517498702246
-0.4383591560239438,-0.4383591560239438,0.9992672071347222,0.00065836448963165
-0.4381197516195243,-0.4381197516195243,1.0001772953504453,0.0006173714370550862
-0.4377517995948438,-0.4377517995948438,0.9999581794134638,0.0006310767437756246
-0.43747969689284216,-0.43747969689284216,1.00054293366669,0.0006342758806708675
-0.4371947273481055,-0.4371947273481055,0.9994652974116291,0.0006645608285682441
-0.4370183253973664,-0.4370183253973664,0.9994249947716352,0.0006572619173969841
-0.4366940904503281,-0.4366940904503281,1.0003247747825135,0.0007181613755742394
-0.4363801953491929,-0.4363801953491929,0.999815909525825,0.0006355622511480391
-0.4362283387061325,-0.4362283387061325,1.000113265107442,0.0006456366135864527
-0.4358612942014588,-0.4358612942014588,0.9990154057119867,0.0006301982913819047
-0.4354438165559259,-0.4354438165559259,0.9996893884497716,0.0006267639842825834
-0.43510026023868703,-0.43510026023868703,0.9995044819339624,0.0006647901880712724
-0.43482712472614365,-0.43482712472614365,1.000476400153887,0.0006523016256739626
-0.434535998856154,-0.434535998856154,1.0005839715476597,0.0006259864077836404
-0.43415676786535184,-0.43415676786535184,1.0003174089377074,0.0006149140156451781
-0.43406339656285126,-0.43406339656285126,0.9997108379340869,0.0006530801390079372
-0.4339179719849199,-0.4339179719849199,0.9996009821433791,0.0006524417584350238
-0.4335652407542511,-0.4335652407542511,1.0003710021064454,0.0006142606628581999
-0.43318963600177085,-0.43318963600177085,0.9999235726069688,0.0006264849959193901
-0.43275748590749574,-0.43275748590749574,1.000034921986785,0.0006628444328223585
-0.4324656788972788,-0.4324656788972788,0.9999594167896395,0.0006530879624518711
-0.43219470883050237,-0.43219470883050237,1.0002188314285798,0.0006093324868333852
-0.4319141313673754,-0.4319141313673754,0.9995518570381494,0.0006390671940523765
-0.4318167290541169,-0.4318167290541169,1.0001370194386126,0.0006436402793655469
-0.43152860802510984,-0.43152860802510984,1.0002332846250386,0.0006382863855722441
-0.4310731505320291,-0.4310731505320291,0.9998089059143689,0.0006320786620106578
-0.4307887796778232,-0.4307887796778232,0.9993354750562432,0.0006458059280352863
