time,time,flux,flux_err
-0.49988754682938935,-0.49988754682938935,0.9998865041949806,0.00013972288565726907
-0.49973813386047067,-0.49973813386047067,1.0000264648448167,0.00013948643386206403
-0.49963842575865175,-0.49963842575865175,1.0001413190942892,0.00014251491179185436
-0.49946458160836,-0.49946458160836,1.0000684118190206,0.00015192081561266795
-0.4993253326480044,-0.4993253326480044,1.0002136199375353,0.00014230043344413021
-0.4992258867561759,-0.4992258867561759,0.9997809299579032,0.00012449119797686823
-0.4990963217780518,-0.4990963217780518,0.9998156072966402,0.00012900791946984363
-0.4989682451327099,-0.4989682451327099,0.9998861733506983,0.00012781841730107347
-0.4988827578279597,-0.4988827578279597,1.0000628582463356,0.0001300957503311115
-0.49876272197434446,-0.49876272197434446,1.0001426476322206,0.00013621066790921415
-0.4986741308472119,-0.4986741308472119,1.0000550883470063,0.00012836129748539988
-0.498562054571812,-0.498562054571812,1.0000144860983595,0.0001301750531023324
-0.4984727067108906,-0.4984727067108906,0.9998968237205528,0.00013924906383563552
-0.4983826593437698,-0.4983826593437698,1.0001400495078225,0.00013302939545809566
-0.49822704149264607,-0.49822704149264607,1.0000797517212456,0.00012840549395804488
-0.4981743013609957,-0.4981743013609957,0.9998094686230308,0.00014063120020128692
-0.49798219085059825,-0.49798219085059825,1.0001444634569128,0.0001304751113942109
-0.4978327083466866,-0.4978327083466866,1.0000862512396038,0.00013704400989186514
-0.4977538897670456,-0.4977538897670456,1.0001141381409504,0.00014160122235943814
-0.497670319541794,-0.497670319541794,1.0000113109023943,0.00012908051036340714
-0.4975937908362539,-0.4975937908362539,0.9999521275082504,0.0001250358434465833
-0.497487172640831,-0.497487172640831,0.9998451252276673,0.00013674706636551117
-0.49734707220777635,-0.49734707220777635,1.000029207545533,0.00014163245475341127
-0.4971990934005589,-0.4971990934005589,1.0000882926240833,0.00012951449380245434
-0.4970765077734541,-0.4970765077734541,0.9999325794944987,0.00012952630817027357
-0.496970833902742,-0.496970833902742,0.999992400067169,0.00012977057748096008
-0.4968970640671614,-0.4968970640671614,1.000074181263836,0.00012773646074285485
-0.4967704045804567,-0.4967704045804567,0.9998475602938383,0.00013174802111008872
-0.4965757719517569,-0.4965757719517569,1.0000254338215326,0.00015064762265113373
-0.49641596226356344,-0.49641596226356344,0.9999647155876646,0.0001259346510884421
-0.4963391578174196,-0.4963391578174196,1.0001195927015387,0.00012917340103431278
-0.4962569003124372,-0.4962569003124372,1.000161015151951,0.00012838248051842176
-0.4961044952389784,-0.4961044952389784,0.9998696786333092,0.0001293738069348674
-0.49596046838487384,-0.49596046838487384,0.9999946064980282,0.0001379970507533646
-0.49589807071097314,-0.49589807071097314,1.00000514732425,0.0001261054151124107
-0.4957679747734801,-0.4957679747734801,0.9997007366609084,0.00012927114374091517
-0.49563903134912835,-0.49563903134912835,1.0000698747353887,0.00014297324096677853
-0.4954864079489198,-0.4954864079489198,1.0000978116124895,0.00013286395841300862
-0.49539426721894414,-0.49539426721894414,1.000184244207547,0.00012839297593270424
-0.49532729792190366,-0.49532729792190366,1.0002124123166272,0.00014023883788478157
-0.49522123837814436,-0.49522123837814436,0.9998880281805951,0.00013902962349089068
-0.4950616852780513,-0.4950616852780513,0.9998706759136216,0.00012777520289959356
-0.49494296371995006,-0.49494296371995006,1.000046042083466,0.0001387768483644111
-0.49484136327228045,-0.49484136327228045,0.9999051601175359,0.0001287678349423825
-0.49474609830067495,-0.49474609830067495,1.0003749070324575,0.00013741959370059276
-0.494609769397357,-0.494609769397357,1.000265833213459,0.00013043284060657864
-0.4945027882356953,-0.4945027882356953,1.0001493905038246,0.00013970529731547842
-0.49444124094661673,-0.49444124094661673,1.0000298502189364,0.00012732153439875827
-0.4943633096059784,-0.4943633096059784,0.9998532816223978,0.00013367473810142055
-0.4942399265055428,-0.4942399265055428,0.9998883460351472,0.00012969659719187562
-0.49416441288267376,-0.49416441288267376,1.000186513969457,0.00012786813686950055
-0.49411735796311407,-0.49411735796311407,0.9998138671989436,0.0001304386221433628
-0.4939491176060983,-0.4939491176060983,0.9999826831672614,0.00012521791753756438
-0.4937404811309534,-0.4937404811309534,0.9998739203474767,0.00013811220585605095
-0.49364151749832674,-0.49364151749832674,0.9999452877503174,0.00013788218523725135
-0.4935759810010495,-0.4935759810010495,0.9999674793287612,0.00012544092749319752
-0.4935416402098781,-0.4935416402098781,0.9998992952457793,0.00012814048209706727
-0.49346510602044874,-0.49346510602044874,0.9996987528771923,0.00012969661719214193
-0.4933422374568181,-0.4933422374568181,1.0003882853279762,0.0001303898359111666
-0.4932397394950385,-0.4932397394950385,0.999941907336275,0.00015975623678028745
-0.4931220861071779,-0.4931220861071779,0.9998603700010692,0.0001405607735516267
-0.4929469920592965,-0.4929469920592965,0.999968692330335,0.00013977920013974923
-0.49277819479248136,-0.49277819479248136,0.9999628358501148,0.00013215483531487564
-0.49267876495578095,-0.49267876495578095,1.0000362258695588,0.00012950954807049752
-0.49259167251730107,-0.49259167251730107,0.9998850337525897,0.0001334552590384475
-0.49251703097615973,-0.49251703097615973,1.0000384508703746,0.00014018639337683
-0.4923934499543975,-0.4923934499543975,0.9998561176384809,0.00013001399823183622
-0.49219376476321486,-0.49219376476321486,0.9999614898062392,0.0001262662835627697
-0.49210422569303774,-0.49210422569303774,1.0001187535057,0.00014012190460702681
-0.4919949802919291,-0.4919949802919291,0.9999025019675598,0.00013148853233440353
-0.4918700456284569,-0.4918700456284569,0.9998337959896801,0.0001386854195972313
-0.49172346181730975,-0.49172346181730975,1.0000375976349773,0.00013040020996621436
-0.4916613445238909,-0.4916613445238909,0.999887244107813,0.00014045308879536588
-0.4915368028152443,-0.4915368028152443,0.9997258741931901,0.00013137139622623468
-0.49146089641944857,-0.49146089641944857,1.000000393735092,0.00012980941319604513
-0.4913623362655926,-0.4913623362655926,1.00000220695934,0.00012651884730831194
-0.4912105155453901,-0.4912105155453901,0.9999311028174624,0.00012976244074349938
-0.4910317018177011,-0.4910317018177011,1.0000532232683663,0.00012644232614235
-0.4909273977536941,-0.4909273977536941,0.9998839236057719,0.000138762274532503
-0.49080612169709636,-0.49080612169709636,0.9999971065522637,0.00013812652034099167
-0.4907237675601209,-0.4907237675601209,1.0000770295735955,0.0001280342571409893
-0.49063998699421063,-0.49063998699421063,0.9999979343287638,0.0001318393936140893
-0.49052747588866624,-0.49052747588866624,1.0001816532021743,0.00013008491951179072
-0.49038228366116526,-0.49038228366116526,1.0000914680084176,0.00012864615156766185
-0.49026197342318484,-0.49026197342318484,0.9998294777096433,0.0001365529975612119
-0.49011691078922015,-0.49011691078922015,1.0001005799845146,0.00012672607634095086
-0.4899787664733594,-0.4899787664733594,0.9999389136476402,0.0001422337504679509
-0.4899053999077296,-0.4899053999077296,0.9999615984568667,0.00013245647389996973
-0.48984497117999126,-0.48984497117999126,0.9999582946040988,0.0001399324302332761
-0.4897450715652667,-0.4897450715652667,0.9998958150928244,0.00014305062822348282
-0.48954815293545834,-0.48954815293545834,0.9999840936448887,0.00013180319523936046
-0.48940539402756256,-0.48940539402756256,0.9998702784749838,0.0001290058439055889
-0.489355662039452,-0.489355662039452,0.9999779934036754,0.00012767776394469665
-0.4892936414478754,-0.4892936414478754,1.0000564743993419,0.0001363333506849183
-0.48921454352966975,-0.48921454352966975,1.0000748263770685,0.00013061039161160537
-0.4891033668194723,-0.4891033668194723,0.9999594413697597,0.0001293669140963668
-0.4889929722281522,-0.4889929722281522,1.0001487384349481,0.00014346416205957628
-0.4889151582676277,-0.4889151582676277,1.0000963580194846,0.0001394511384070377
-0.48884995406697274,-0.48884995406697274,1.0002227852073147,0.0001412620032532374
-0.4887638890199014,-0.4887638890199014,1.0000177370314471,0.00013177000796602245
-0.4886057515592256,-0.4886057515592256,1.0002258656791505,0.00014238655752924647
-0.48831490368102093,-0.48831490368102093,0.9999566326930976,0.00013744743910599434
-0.48815827722282845,-0.48815827722282845,0.9999688124347734,0.00012601058810986888
-0.4880730842349294,-0.4880730842349294,0.9999888872070155,0.0001414831108684547
-0.4879867575320532,-0.4879867575320532,1.0000194719825075,0.00013974577260441988
-0.48790616528058306,-0.48790616528058306,0.9999482595068517,0.0001293154697169138
-0.48779491184614016,-0.48779491184614016,1.000120615284429,0.00012999873276395703
-0.48767902497565957,-0.48767902497565957,1.0000385740032356,0.00012952687929264917
-0.4874536826158874,-0.4874536826158874,0.9999092987172746,0.00014261875730849598
-0.4873097987168876,-0.4873097987168876,0.9999847153960004,0.00012571202637071558
-0.487213511907612,-0.487213511907612,1.0000738014827188,0.00014035910782061095
-0.4871455651060387,-0.4871455651060387,1.0001853013750073,0.0001321000091505796
-0.487097514828929,-0.487097514828929,1.0000243083423679,0.0001424496266645289
-0.486955376068363,-0.486955376068363,1.000209744025065,0.0001388101935182662
-0.48680034328717736,-0.48680034328717736,0.9999375555987754,0.00013881115697316236
-0.48668896190283706,-0.48668896190283706,0.9998844496138787,0.00013741737857496638
-0.4865853917421191,-0.4865853917421191,1.0000402705604094,0.00012574837146047578
-0.4864598027903412,-0.4864598027903412,1.0001229564250766,0.00014830570504069382
-0.48640776747342895,-0.48640776747342895,1.0001540059158023,0.00012686120446177756
-0.48630135849452927,-0.48630135849452927,1.0001325878803722,0.00013294286865165445
-0.48618161998747383,-0.48618161998747383,0.9999721772243457,0.00013707052538110834
-0.4861031107480812,-0.4861031107480812,1.0001599487279376,0.00014186180000947763
-0.4860448226390872,-0.4860448226390872,1.0001122636796567,0.00014139152079143929
-0.4859601757758355,-0.4859601757758355,1.0001685900885804,0.0001282653956187618
-0.4858206251228694,-0.4858206251228694,0.9999145844415109,0.00014027794622367636
-0.48566709327642454,-0.48566709327642454,0.9999820583236743,0.00015059314911310007
-0.4854872338401037,-0.4854872338401037,1.0000744146894296,0.00012660779005413964
-0.48538982669633696,-0.48538982669633696,1.0004219212756196,0.00013916870983413118
-0.4853226740953687,-0.4853226740953687,1.0001240006533638,0.00013302976900480913
-0.48522327284517813,-0.48522327284517813,0.9998760230439612,0.00013878742332369196
-0.4851116166821157,-0.4851116166821157,0.9999205628422029,0.0001298968644301555
-0.48498711728389027,-0.48498711728389027,0.9999422818494315,0.0001383395139059604
-0.4848168758151587,-0.4848168758151587,1.0001250961575057,0.0001345071579713592
-0.48457178180542543,-0.48457178180542543,1.000017788392184,0.00012596703342348267
-0.4844881078490289,-0.4844881078490289,0.9999779583103623,0.0001321523285794857
-0.4843621753570915,-0.4843621753570915,1.0001362503823228,0.00013119774223261356
-0.4842681588626874,-0.4842681588626874,1.0000925085531773,0.00013674664215653734
-0.48413893648903467,-0.48413893648903467,1.000123942399926,0.00014079917786047905
-0.4839977689909574,-0.4839977689909574,1.0001797620125574,0.00012953517275600038
-0.48381190742074975,-0.48381190742074975,1.0000526162428105,0.00012932396406963633
-0.4837043686529796,-0.4837043686529796,0.9998948729502753,0.00012572558267316079
-0.48364457162533653,-0.48364457162533653,0.999768355916256,0.00014195865236794693
-0.48353928724682194,-0.48353928724682194,1.0000462599444142,0.0001271431439363897
-0.4834466415348288,-0.4834466415348288,0.9998740634974024,0.00012888224378157785
-0.48331844885397,-0.48331844885397,1.0002390090923032,0.00013033885536901252
-0.4831971215826343,-0.4831971215826343,1.0001393189515948,0.00014291598849666305
-0.4830174062408332,-0.4830174062408332,1.0000207983103908,0.00014082691701477066
-0.4829358965427673,-0.4829358965427673,1.000166639112285,0.00012994026013140477
-0.48275475300688414,-0.48275475300688414,0.9999761174553022,0.00013907720203192318
-0.48264218326075936,-0.48264218326075936,1.000028663522007,0.00012968583239216365
-0.4825834398674488,-0.4825834398674488,1.000284532792215,0.00013787915066174533
-0.48251219357625813,-0.48251219357625813,0.9998387261105556,0.000129916479792068
-0.48243793562724024,-0.48243793562724024,0.9999054228986438,0.00012825517253425324
-0.48235437569092027,-0.48235437569092027,0.9999423352198434,0.00013816880900257596
-0.4822013047269138,-0.4822013047269138,0.9999164499860651,0.00013982293739621662
-0.48197942702681756,-0.48197942702681756,1.0000083242185003,0.00013482497873734746
-0.4818512794525304,-0.4818512794525304,0.9999498613703457,0.00012834749029899073
-0.4817217740070191,-0.4817217740070191,1.0000166339392478,0.0001298918789322064
-0.48155099941795926,-0.48155099941795926,1.0000267665518385,0.0001305176382445833
-0.4814042264064483,-0.4814042264064483,0.9998689359354659,0.00015446082711727553
-0.4812256441597128,-0.4812256441597128,0.9999787254181058,0.00012659183988123382
-0.48110113427756007,-0.48110113427756007,1.000292178442979,0.0001303372741392531
-0.48100337171490537,-0.48100337171490537,1.0001284847284297,0.00012992104003079586
-0.4808247984990885,-0.4808247984990885,1.0000052442848006,0.0001385122636120207
-0.48071573989873284,-0.48071573989873284,1.0001098930128136,0.00012688547106819693
-0.48058787402114833,-0.48058787402114833,0.9997956880448061,0.00012752442089017133
-0.4804353611805709,-0.4804353611805709,1.0000760809332458,0.00014248855278485803
-0.4802409522199014,-0.4802409522199014,0.9999399604019485,0.00013229865892661427
-0.48016510653178557,-0.48016510653178557,0.9997822161189914,0.00013878886035510849
-0.4800320831425779,-0.4800320831425779,0.9999271470568966,0.00013176541690887374
-0.47986091146012766,-0.47986091146012766,1.000130630524654,0.00012759252528967682
-0.47981860737127136,-0.47981860737127136,0.99971522559419,0.0001273017103974527
-0.4797485125345702,-0.4797485125345702,1.0001620463381002,0.00013790476784956122
-0.47963840555457865,-0.47963840555457865,0.9999849870762192,0.00012750909982314274
-0.47955693261392296,-0.47955693261392296,0.9998717020197894,0.0001273602704589303
-0.4794228937738808,-0.4794228937738808,1.000130787073344,0.00013825771550911704
-0.4792785658442881,-0.4792785658442881,0.9999546062356327,0.00014157594779338318
-0.47916269989436844,-0.47916269989436844,1.0002372230996726,0.0001334665707909938
-0.47905331171496074,-0.47905331171496074,1.000130608299352,0.00013231210899613519
-0.47896143278994713,-0.47896143278994713,1.0000282498714101,0.000128362549886935
-0.47879777157504577,-0.47879777157504577,1.0001395832467925,0.00013076355431131893
-0.47856267995011875,-0.47856267995011875,0.9999724152491662,0.0001464090461479421
-0.4784204498064355,-0.4784204498064355,1.0000941077030232,0.0001265345702373194
-0.47836438589802127,-0.47836438589802127,1.0000947352517569,0.0001275142794787398
-0.47829061597585676,-0.47829061597585676,0.9999194583306839,0.00012953656502732143
-0.47816584315369254,-0.47816584315369254,1.0001537170353119,0.0001341586703991645
-0.4780617908894783,-0.4780617908894783,1.0001269238846213,0.0001293867645613134
-0.4779735612413788,-0.4779735612413788,1.0000847467156855,0.00016353292836497702
-0.47784123398232625,-0.47784123398232625,0.9998992281306915,0.00013013433547607423
-0.4776922416225716,-0.4776922416225716,1.000108062670762,0.00013805632921261123
-0.4775490516236459,-0.4775490516236459,1.000023810579321,0.0001320316278703236
-0.4774223595741205,-0.4774223595741205,0.9999500574587378,0.00013111350637250928
-0.477340615344292,-0.477340615344292,1.0000252470691093,0.0001386298906787915
-0.47727365167738756,-0.47727365167738756,0.9999465693722591,0.00013409441725845928
-0.47712530739518116,-0.47712530739518116,0.9998851161408784,0.0001292976590031336
-0.4769787036537309,-0.4769787036537309,0.9999968362576153,0.0001261842700499973
-0.47688189531909303,-0.47688189531909303,1.0000488983917957,0.00014057961404358098
-0.47680159078881845,-0.47680159078881845,1.0001277768910473,0.00012585093327062785
-0.47667528077436144,-0.47667528077436144,0.9999590106905527,0.0001390204218509454
-0.4765424702585733,-0.4765424702585733,1.0000555789090684,0.00013653726467326754
-0.4764518892938213,-0.4764518892938213,0.9998398220893641,0.00013248357318923858
-0.4763670601976628,-0.4763670601976628,0.9998819658819678,0.00013084161112221891
-0.4762549583138025,-0.4762549583138025,0.9999949417934083,0.00013191016813856443
-0.47617123866803013,-0.47617123866803013,0.9999001508386636,0.00012760959063880551
-0.4760539623668592,-0.4760539623668592,1.0001385896900175,0.00013084957807708064
-0.47585824029956714,-0.47585824029956714,0.999921933947436,0.0001256737083826675
-0.47577046503211023,-0.47577046503211023,1.0001945047533822,0.00014039655961003042
-0.47565887281380126,-0.47565887281380126,0.9999859267802063,0.00014013278121147236
-0.4755780371218862,-0.4755780371218862,0.9997926761667767,0.00012634348799383247
-0.4755120814712427,-0.4755120814712427,1.0000228565390017,0.0001294633042956997
-0.47540803562587824,-0.47540803562587824,0.9997842254441783,0.00013063422810264552
-0.4753346007790242,-0.4753346007790242,1.000000081519351,0.000127688185200429
-0.4751377297245199,-0.4751377297245199,1.000104552159836,0.00014056496030706174
-0.4750169799735886,-0.4750169799735886,1.0000925393136548,0.0001282943424138782
-0.4747917796936235,-0.4747917796936235,0.9999772679704606,0.000138665599806275
-0.4746961962293426,-0.4746961962293426,1.000066144290378,0.00012888877369915646
-0.47461725747125455,-0.47461725747125455,1.0001973446835077,0.0001334997534101075
-0.4745228067738935,-0.4745228067738935,1.0001343019819147,0.00014080993952052752
-0.4743805575526494,-0.4743805575526494,1.000128376674661,0.00012620387506778017
-0.4742235345627705,-0.4742235345627705,0.9998676655020988,0.00013442015958186373
-0.47414297087379964,-0.47414297087379964,0.999942684264006,0.0001271735377229879
-0.47407296933379256,-0.47407296933379256,0.9998938892098506,0.00014039257244125776
-0.4739511230509379,-0.4739511230509379,1.0000309775340877,0.00012824713263989305
-0.4737951340423024,-0.4737951340423024,0.9999516210433457,0.0001430333589986738
-0.4737086553512199,-0.4737086553512199,1.0002128877146044,0.00014195413904646457
-0.4736102548551571,-0.4736102548551571,1.0000650359671677,0.00013136493965662996
-0.47350571809656683,-0.47350571809656683,1.000147281633694,0.00013147618232846133
-0.4733956697382382,-0.4733956697382382,0.999897511932585,0.00012708922546535173
-0.4732139979103522,-0.4732139979103522,1.0001975826313967,0.0001304308191869728
-0.47297887492750307,-0.47297887492750307,1.0000021490395805,0.00014885273622285345
-0.4728123174223583,-0.4728123174223583,0.9999707072923666,0.0001418591755544979
-0.4727291320297809,-0.4727291320297809,0.9999481763723708,0.00012531525499436794
-0.47263593094103273,-0.47263593094103273,1.000207653320841,0.00013018328535981179
-0.4725415872708254,-0.4725415872708254,0.9999657251878918,0.0001279198245787656
-0.47245436527082346,-0.47245436527082346,1.0001129300851983,0.00013040718551025963
-0.4721949376660632,-0.4721949376660632,0.9999362378264118,0.00013726103458817844
-0.4720372049727303,-0.4720372049727303,0.9999406803825945,0.00012668857357720105
-0.47198013845118114,-0.47198013845118114,1.000129099343774,0.00014258163269542548
-0.4719199833285529,-0.4719199833285529,0.9998029721695824,0.00013235498234385662
-0.4718434267655539,-0.4718434267655539,1.000209931435212,0.0001411312896807896
-0.4717317801892932,-0.4717317801892932,1.0000039534356617,0.00013287277058464796
-0.47160255574199256,-0.47160255574199256,0.9998785113214904,0.0001371351668857389
