time,time,flux,flux_err
-0.49994775916129586,-0.49994775916129586,1.0006273638385805,0.0016354856668781795
-0.4998470039878157,-0.4998470039878157,0.9986613158996832,0.001631880280888265
-0.4997162349827704,-0.4997162349827704,0.9991954585900347,0.0017309519535092944
-0.4995657325031061,-0.4995657325031061,0.9997946214573558,0.0023984590581821183
-0.49946452602307545,-0.49946452602307545,1.0014888925444558,0.0015905657498413903
-0.4993777406394656,-0.4993777406394656,1.0009723964089443,0.001657944308268284
-0.49928118540774447,-0.49928118540774447,1.0016342746597444,0.0014990621735754147
-0.4991370427160291,-0.4991370427160291,0.9979186384897248,0.0017224748569827021
-0.4989967945992248,-0.4989967945992248,1.0016193857067168,0.0015566190938640346
-0.4989137518692587,-0.4989137518692587,1.0004928547879925,0.001747586053117593
-0.49878343639938977,-0.49878343639938977,1.0005782532267997,0.001638539009321267
-0.49864749958796895,-0.49864749958796895,0.9984916113355247,0.0016175840250827783
-0.49856685079357704,-0.49856685079357704,1.0005547492610714,0.0016937835263590082
-0.498427897462534,-0.498427897462534,1.0005737991541035,0.0017035478112644507
-0.4983041974177468,-0.4983041974177468,0.9990022676228059,0.0016681886853365797
-0.49823774976612184,-0.49823774976612184,1.0002849808847383,0.001590484804601244
-0.49813397649486435,-0.49813397649486435,0.9985657021499682,0.0015916591879316145
-0.49802198450415747,-0.49802198450415747,0.9997159030895668,0.0016060484876211163
-0.4979056886084436,-0.4979056886084436,0.9979515998464301,0.0016399225900201487
-0.4977762716123834,-0.4977762716123834,0.9999149638026189,0.0017098846147758202
-0.49766801277583,-0.49766801277583,1.0008314750697116,0.00174520577237891
-0.4974870535617811,-0.4974870535617811,1.001486540301431,0.001554802925397704
-0.49732912003964885,-0.49732912003964885,1.004332210202587,0.0016863845685171556
-0.49722304975002773,-0.49722304975002773,0.9979932935319011,0.0016728677316591052
-0.4970674154086737,-0.4970674154086737,1.0002830113217531,0.0016255956874835589
-0.49692443114327034,-0.49692443114327034,0.9993000977642875,0.0016676630870463296
-0.49668866702486414,-0.49668866702486414,1.0001773963329934,0.0016228197834666572
-0.49648363017477093,-0.49648363017477093,1.000993768190146,0.0016153666078631682
-0.49630764985777204,-0.49630764985777204,0.9998182872032404,0.0016923762592300218
-0.49616401035964375,-0.49616401035964375,0.9993648860190081,0.001577183266179253
-0.49608068764209745,-0.49608068764209745,1.0008647617782669,0.0015737885296130706
-0.49598209361065526,-0.49598209361065526,0.9998707860364942,0.0015267541159549069
-0.4958856207755161,-0.4958856207755161,0.999414443811989,0.0016069513869929129
-0.49573967092073873,-0.49573967092073873,0.9990340200091739,0.0016779871266375732
-0.4956271907176415,-0.4956271907176415,1.0012668494745178,0.001559169915594333
-0.49551054880139417,-0.49551054880139417,0.9983143833998345,0.001689892288845084
-0.4953832861756382,-0.4953832861756382,0.9968193129027678,0.0018981186355666666
-0.49518988958734556,-0.49518988958734556,0.9959949889662603,0.0019354073212832505
-0.49509184864218697,-0.49509184864218697,1.0002088684908803,0.0016165648796125243
-0.494976003265765,-0.494976003265765,1.0008810523414973,0.0015964113004482323
-0.49479143570497397,-0.49479143570497397,0.9999007024706728,0.0016815862654799931
-0.49464158605769626,-0.49464158605769626,0.998308332139034,0.0016742721358826728
-0.49453207870974436,-0.49453207870974436,1.002324121110969,0.0016570546591240462
-0.4944361915673653,-0.4944361915673653,0.9995900264469242,0.0016348409824145384
-0.4943680063071952,-0.4943680063071952,1.0017168373974172,0.001650466562352352
-0.49421884570328983,-0.49421884570328983,1.0004497438604998,0.001591721894924722
-0.4940752751012042,-0.4940752751012042,0.9980365815787371,0.0016286792427566428
-0.4939602689410094,-0.4939602689410094,1.0043312338897712,0.0019270754673854859
-0.4938454732116952,-0.4938454732116952,1.0010980388030408,0.001673887213301343
-0.4937024385093537,-0.4937024385093537,0.998750082092313,0.0016320735576671598
-0.49357357011394926,-0.49357357011394926,1.0017390421421202,0.0016501412188847354
-0.49335861760846456,-0.49335861760846456,1.000218957290328,0.0015621140644114181
-0.4931182775209891,-0.4931182775209891,0.9973776634242204,0.001617198551654773
-0.49293336028858903,-0.49293336028858903,0.9971507337406231,0.0016511363251459263
-0.4927752526105905,-0.4927752526105905,0.9982460452679387,0.0015794552924943838
-0.4926999722250912,-0.4926999722250912,1.0005179293260336,0.0017192331958617185
-0.49258212312342947,-0.49258212312342947,1.0005461975291456,0.0015327790797932937
-0.4924688496714225,-0.4924688496714225,0.9975825673178376,0.001608591294987334
-0.492330445364496,-0.492330445364496,1.0009141067321679,0.001675786842574936
-0.4922122275122092,-0.4922122275122092,0.9994308207955127,0.0016156666926982778
-0.492100701322488,-0.492100701322488,0.9975426296148984,0.0016498110288457421
-0.49195787005810415,-0.49195787005810415,0.9979515826857874,0.001761303731093906
-0.49186287577831533,-0.49186287577831533,1.0000202079002232,0.0017191632335638181
-0.49180951416128665,-0.49180951416128665,1.0012879924285352,0.001545366405180691
-0.49172559741855365,-0.49172559741855365,0.9982710979757593,0.0016309868033885211
-0.49158634513878496,-0.49158634513878496,0.999757501683759,0.0015713939935514884
-0.49145295509151765,-0.49145295509151765,0.999397459837672,0.001648869317994167
-0.49132447481679264,-0.49132447481679264,1.0002643898520547,0.0016325742713331048
-0.4911803899674851,-0.4911803899674851,0.9996975672693669,0.0016674812742193345
-0.49109708046598827,-0.49109708046598827,0.9985364933594594,0.0016859667549315644
-0.4909365991399682,-0.4909365991399682,0.9974796739934803,0.0017382376877093674
-0.4908324626441754,-0.4908324626441754,1.000443612476295,0.001543587929743126
-0.4906688136332377,-0.4906688136332377,0.9997817475270023,0.0016073182122611415
-0.49057174487679733,-0.49057174487679733,0.9984580827012696,0.001580138554906945
-0.4904836932902981,-0.4904836932902981,1.0002904597680398,0.0016251504370994388
-0.4903894573246362,-0.4903894573246362,1.0009741551283429,0.0016074080513694868
-0.4902722816739697,-0.4902722816739697,0.9976825905947591,0.001668862522256283
-0.490016993250174,-0.490016993250174,0.9988886002339846,0.0016775058168232975
-0.48983999787451465,-0.48983999787451465,0.9987652570809346,0.0015365020796849617
-0.489688283232681,-0.489688283232681,1.0019126028774115,0.00167902673835006
-0.48947814690327507,-0.48947814690327507,1.0005848158820192,0.0016422133471835794
-0.4892947944004845,-0.4892947944004845,0.999672554166174,0.0016503027881387797
-0.48919681915504043,-0.48919681915504043,0.9980396617215337,0.0015807321919162713
-0.4890714477158326,-0.4890714477158326,1.000285203047356,0.0016387681724616414
-0.4889327967117424,-0.4889327967117424,0.9988783244970139,0.0016610551003818416
-0.48882053247580187,-0.48882053247580187,0.9993117216344679,0.001579246836970648
-0.4887151703835116,-0.4887151703835116,1.0013812876944574,0.0016718452763218271
-0.48856291163974674,-0.48856291163974674,1.0009956308105703,0.0017061871561146024
-0.48847312811703886,-0.48847312811703886,1.00036597616765,0.0017539198806464263
-0.4883949552720878,-0.4883949552720878,0.9971492385563916,0.0016716884176646708
-0.4882911939472251,-0.4882911939472251,0.998837087355874,0.0015538396270722633
-0.4881535842869198,-0.4881535842869198,1.0014867603190705,0.0017109527768087607
-0.48800840109033744,-0.48800840109033744,1.0002933409665882,0.0015699560783715236
-0.4879298375301005,-0.4879298375301005,1.0005878400884551,0.0016430655501019035
-0.4877899478269683,-0.4877899478269683,0.998905653364176,0.0016606107845333871
-0.48761559521371967,-0.48761559521371967,1.0019851723727833,0.0015657991773140429
-0.4875152872846229,-0.4875152872846229,1.001610816672262,0.0016284298388233045
-0.48735765650853863,-0.48735765650853863,1.0022537572881685,0.001600439527043259
-0.48723337313640513,-0.48723337313640513,0.9998583319652685,0.0015876729254807628
-0.48710005078828544,-0.48710005078828544,0.9991707723207892,0.0016229698307027214
-0.4869718042355089,-0.4869718042355089,1.0002399552816605,0.0015953576423444638
-0.4868343304056907,-0.4868343304056907,0.9999350742587486,0.0016761105132658799
-0.48669048327064957,-0.48669048327064957,1.002049949648092,0.0018458912458607355
-0.4865197734507092,-0.4865197734507092,0.9988254940732391,0.0015399192250376635
-0.4863438810774824,-0.4863438810774824,1.000548186383961,0.0016430852810456233
-0.4862014694554091,-0.4862014694554091,1.000657751072803,0.0016499207312377661
-0.48600972724816527,-0.48600972724816527,0.9999586501702507,0.001653229555632987
-0.4857523079183011,-0.4857523079183011,0.9998279072069988,0.0015747955382824845
-0.4855048533267109,-0.4855048533267109,1.0006871789505147,0.001593222345130699
-0.4853141703963047,-0.4853141703963047,0.9996108681284641,0.0016540743479847974
-0.4851584389187337,-0.4851584389187337,1.0027067876766114,0.001584127120356156
-0.4850799624211504,-0.4850799624211504,1.0003557701889965,0.0015497332415266782
-0.48498401502438354,-0.48498401502438354,0.9998048414931864,0.0015479946387007238
-0.4848630852284259,-0.4848630852284259,1.0026407774384292,0.001603880548145206
-0.48467052308405983,-0.48467052308405983,1.0004339311416452,0.001615599813842096
-0.4845379012913327,-0.4845379012913327,0.9987274985182978,0.0016693762959298923
-0.48439602963844663,-0.48439602963844663,1.0005380642497397,0.0016581347912231624
-0.4841807191267435,-0.4841807191267435,1.0004151357743742,0.0016350668667168707
-0.4839854957412172,-0.4839854957412172,0.9985747301943828,0.001609256501190455
-0.483800307380443,-0.483800307380443,0.9997545346317555,0.0016023887806767005
-0.4836681350076105,-0.4836681350076105,0.999836269172329,0.0016251139078611366
-0.48351957396080253,-0.48351957396080253,0.9985515382620609,0.0017172489872607035
-0.48339582379121565,-0.48339582379121565,1.0006575891074625,0.0016738931605729333
-0.4832471999725385,-0.4832471999725385,1.0020732063804227,0.0016223029118990178
-0.4831302701284585,-0.4831302701284585,1.001187850336663,0.0015410480756581518
-0.48295082072509105,-0.48295082072509105,0.9997435132340009,0.001653883681595911
-0.4828280194902618,-0.4828280194902618,1.000328629864963,0.001675051962599398
-0.4826488333157613,-0.4826488333157613,1.003213936941441,0.0016890116443330546
-0.4824209820457327,-0.4824209820457327,0.9981555443076264,0.0016665343973778154
-0.48207793166075136,-0.48207793166075136,1.000224968381125,0.0016121002078330685
-0.4818865476132487,-0.4818865476132487,0.9982378915730983,0.0016710970333609775
-0.4817763818995445,-0.4817763818995445,1.001950271479159,0.001564419527225779
-0.48172361095785166,-0.48172361095785166,0.9989414593857191,0.0015750154824748363
-0.48157437847476103,-0.48157437847476103,0.9991641388653907,0.0015305779815096478
-0.48146026546310167,-0.48146026546310167,0.9987729243668184,0.001615084235190196
-0.48132642744021725,-0.48132642744021725,0.9995394516977747,0.0016738737674662242
-0.4812243691289041,-0.4812243691289041,0.9993751550445756,0.0017062931709334289
-0.48112048168331967,-0.48112048168331967,0.9999312416275785,0.0016570478525657483
-0.48094445627066307,-0.48094445627066307,0.9997839042885073,0.001742706346433415
-0.4808483948407229,-0.4808483948407229,0.9959704422823166,0.0015579731655408853
-0.4807942697596445,-0.4807942697596445,0.9993547356443375,0.001617826571698631
-0.4806819858371455,-0.4806819858371455,0.9990855586497356,0.001692871846742682
-0.48049892181079484,-0.48049892181079484,0.9997654987648545,0.0015744617184888527
-0.4803504081617575,-0.4803504081617575,1.001839798311984,0.0015460255782083843
-0.4802507883636281,-0.4802507883636281,0.9985060705143589,0.0016514472000573456
-0.48011045347884646,-0.48011045347884646,1.0009534422818738,0.0015968483314343193
-0.48002200534683653,-0.48002200534683653,1.0000811414497142,0.001828356416866094
-0.47990549726819154,-0.47990549726819154,1.0006392992572628,0.001960336440250162
-0.4797591690970876,-0.4797591690970876,0.9996423547770974,0.0016108130771468887
-0.4796096007288725,-0.4796096007288725,0.9985332144207357,0.0016230222021573096
-0.47950080872469697,-0.47950080872469697,1.0000544870190509,0.0017267359818651333
-0.47939979140646755,-0.47939979140646755,1.0013754130940984,0.0016925526666792881
-0.4793191802382353,-0.4793191802382353,0.9996812841922742,0.0015954238260648568
-0.47913316044723614,-0.47913316044723614,0.9986812397947691,0.0017307037147441685
-0.47891935033985644,-0.47891935033985644,1.0007740433557277,0.0015950339830774884
-0.47878085877746346,-0.47878085877746346,0.9986796531243043,0.0016106024030699702
-0.47863418157139676,-0.47863418157139676,1.0003217002392437,0.0015846316899357752
-0.47850483903239366,-0.47850483903239366,1.0002193176525538,0.0016826883330230218
-0.4783287111007667,-0.4783287111007667,0.999495341119605,0.001627880360221085
-0.4782004076776502,-0.4782004076776502,0.9994194730858036,0.001549443352585064
-0.47805330453338685,-0.47805330453338685,1.0004436292560606,0.0016558243223787315
-0.4779229689083877,-0.4779229689083877,0.9989150260167289,0.0016573004415963394
-0.47780192518839615,-0.47780192518839615,1.0001153015374342,0.0015977460636667936
-0.4776222373606288,-0.4776222373606288,1.000274041209607,0.0017018865660292076
-0.47750706657825503,-0.47750706657825503,1.0020779420634263,0.0016841898955712322
-0.4774256102828076,-0.4774256102828076,0.9987610971722864,0.0016349470335462666
-0.47734942233000766,-0.47734942233000766,1.0007818166591693,0.0016729238964334138
-0.47727913470880595,-0.47727913470880595,1.0002998324525685,0.0015013082476912167
-0.47714139619711204,-0.47714139619711204,0.9993135952619709,0.0016210771578037855
-0.4769690778179211,-0.4769690778179211,0.9993659327508656,0.001557563483236681
-0.47688257959598557,-0.47688257959598557,1.0006884906896518,0.0016996964316176554
-0.4767261881796003,-0.4767261881796003,1.0023130757303471,0.0015345289981840715
-0.4765886785055045,-0.4765886785055045,0.9997291373238912,0.0017376608129113936
-0.4764773727023567,-0.4764773727023567,1.001453454334619,0.0015763740278824235
-0.47628591776883694,-0.47628591776883694,1.001235870799641,0.0015782275515639523
-0.4761820107800304,-0.4761820107800304,1.0017209340143698,0.0016124694692725688
-0.4760459599965543,-0.4760459599965543,0.998516450714296,0.001602040356782836
-0.4759368188955705,-0.4759368188955705,1.0003319313984431,0.001671889348491371
-0.4758235584879003,-0.4758235584879003,0.9991023691525676,0.0016772504940014694
-0.4756368244277837,-0.4756368244277837,0.999673910960572,0.0015979921866465512
-0.4754625448069419,-0.4754625448069419,1.0008296517605868,0.001581247136238969
-0.47530225824957595,-0.47530225824957595,1.0000782421226062,0.0016253537341683589
-0.4751991632692807,-0.4751991632692807,1.0023722543976457,0.0015998694514275287
-0.4750236558327742,-0.4750236558327742,1.0014508738223267,0.0016310269897230796
-0.47485425871855114,-0.47485425871855114,1.0008661530247474,0.00160108581914431
-0.47465324707882245,-0.47465324707882245,0.9981957199853889,0.0016490085469812589
-0.474471015996096,-0.474471015996096,1.0005192800173783,0.0015676280623468882
-0.4742644917721918,-0.4742644917721918,0.9991371413810457,0.0016478635291436016
-0.4741383828841208,-0.4741383828841208,0.9979894730354131,0.0016009063361367357
-0.47404948560433696,-0.47404948560433696,1.0037537334565259,0.0015996114069720437
-0.4739160237222677,-0.4739160237222677,0.9999921369474561,0.0015609311647810178
-0.47372779633224127,-0.47372779633224127,1.0003870666529189,0.0016762191970604294
-0.47357638648099964,-0.47357638648099964,1.0010378133081044,0.0015812526365053853
-0.4734196271507244,-0.4734196271507244,0.9994829736646675,0.0016407760717079994
-0.47324375746611624,-0.47324375746611624,1.0002026803445188,0.0017134011515487005
-0.4730681599925447,-0.4730681599925447,0.9987854019070875,0.001845896093968379
-0.4728756351127231,-0.4728756351127231,1.0004288500930216,0.0015340493580472678
-0.4727190312187304,-0.4727190312187304,0.9977330204921673,0.0015786708370847252
-0.47255146903698914,-0.47255146903698914,1.001368676268681,0.0016460813060795699
-0.47245919192719155,-0.47245919192719155,1.0004582279788492,0.0016602770649256284
-0.4723193421421456,-0.4723193421421456,1.0009488773892246,0.001622984809860037
-0.4721924057113938,-0.4721924057113938,1.0041215672916899,0.0016198027868650714
-0.47196835873401144,-0.47196835873401144,1.000453226464198,0.0016489438559229882
-0.4718174291338073,-0.4718174291338073,0.9999876344381302,0.0016423587967184714
-0.47163312493721604,-0.47163312493721604,1.000421710600694,0.0017010789350471508
-0.47145529417903165,-0.47145529417903165,1.0005009718396136,0.001680694541109158
-0.47121825897775127,-0.47121825897775127,0.9976892942127005,0.0016829368208663529
-0.47094177171602497,-0.47094177171602497,0.9992015369793128,0.0016156234860299399
-0.47075644548094714,-0.47075644548094714,0.9996035976905085,0.0015472506170729485
-0.47064242565174935,-0.47064242565174935,1.001163393840536,0.001539078561178519
-0.47053792464212163,-0.47053792464212163,1.0003742933715383,0.0015397989396631804
-0.4704057802009629,-0.4704057802009629,0.999354761060182,0.0017030917035706704
-0.4703039161715424,-0.4703039161715424,0.9994253297752292,0.001633384751796235
-0.4701761116361013,-0.4701761116361013,0.9978620301287133,0.0016828606722505996
-0.4700283104313712,-0.4700283104313712,1.001981390115579,0.0016755648275726186
-0.4698759602608334,-0.4698759602608334,0.9998539367216674,0.0018064299126923304
-0.4698367812525248,-0.4698367812525248,1.0011226198546734,0.0015551595544835545
-0.46974772511894114,-0.46974772511894114,0.9994236831802779,0.001590518402959322
-0.4696625645396125,-0.4696625645396125,1.000675462859488,0.0016538095870920813
-0.4694875557383057,-0.4694875557383057,0.999701294349923,0.0016046422443547939
-0.4693532195415173,-0.4693532195415173,1.0012253598543066,0.0015073544872664223
-0.4692203917424195,-0.4692203917424195,1.0015869373157245,0.0016683710883197526
-0.469075788705959,-0.469075788705959,0.9994508054357647,0.0015931894044781067
-0.46895517055745584,-0.46895517055745584,0.9968912935674039,0.001654587212141288
-0.4688824315642705,-0.4688824315642705,0.9998539730900292,0.0016279066970222606
-0.46877637538782435,-0.46877637538782435,1.0000040130204149,0.001572306267492532
-0.468638359077886,-0.468638359077886,0.999725780848762,0.001656648677021922
-0.46853179835597986,-0.46853179835597986,1.0001331152716288,0.0016428195996162462
-0.468403624023631,-0.468403624023631,1.0014703368735276,0.0016289543224106827
-0.4682955930911703,-0.4682955930911703,0.9985757314197945,0.0016370031517052425
-0.4681622480326041,-0.4681622480326041,1.000136010806949,0.0016500402502728831
-0.4680199165217346,-0.4680199165217346,0.9997377212757804,0.001964239175368833
-0.46787463026921616,-0.46787463026921616,0.9988570937702231,0.0015473381547480972
-0.4677374239021447,-0.4677374239021447,0.997420136709897,0.001614022199276832
-0.46761664862569885,-0.46761664862569885,1.000790476470777,0.0016603443015364514
-0.4674315886630211,-0.4674315886630211,1.0022587159192415,0.0016162745795250232
-0.4673463792954863,-0.4673463792954863,0.999624729024308,0.0016011903921262962
-0.46722597125044557,-0.46722597125044557,1.0003797880338006,0.001589202097759011
-0.4671000108581211,-0.4671000108581211,0.9986407320719755,0.0016147587953207056
-0.4669469220367318,-0.4669469220367318,0.9985720938104283,0.0016724584053648347
-0.466838118393207,-0.466838118393207,1.0012374769235222,0.001568589772383867
-0.46670166448602685,-0.46670166448602685,0.9983045121876337,0.001711188635306052
-0.4665454208079609,-0.4665454208079609,0.9997796957755731,0.001740868468304507
-0.4664502833409642,-0.4664502833409642,0.9986163291243846,0.0016748094473637404
-0.46636643783203907,-0.46636643783203907,0.9997791539860046,0.0016137536495232085
