time,time,flux,flux_err
-0.4999335478496505,-0.4999335478496505,1.0000737887450148,0.00014285855042998167
-0.49981892689538654,-0.49981892689538654,0.9998535227930461,0.00014588843800865262
-0.4997600418457296,-0.4997600418457296,1.0000510058684202,0.00013175423613410748
-0.49961662785499356,-0.49961662785499356,1.0000744643757584,0.00013042978191792865
-0.4994824266716023,-0.4994824266716023,1.000000315971413,0.0001368972363483338
-0.4993465598177863,-0.4993465598177863,0.9998402147230733,0.00013169093511378042
-0.49915901186323025,-0.49915901186323025,1.0000401925797302,0.00015137093782320262
-0.49902668549184453,-0.49902668549184453,0.9998232908122631,0.00012894047738249798
-0.49885632982477546,-0.49885632982477546,0.9999693031557013,0.0001298793630448746
-0.498754579864908,-0.498754579864908,1.0000767928967709,0.0001339894561313063
-0.49870159726560814,-0.49870159726560814,0.9998058904866991,0.00013265748246482252
-0.49861187564674764,-0.49861187564674764,1.0000942246968367,0.0001331266255428514
-0.4984637690227828,-0.4984637690227828,0.9999987793932392,0.00013198472919519257
-0.4983401039702585,-0.4983401039702585,0.9997403349936098,0.00013633438207187408
-0.4982223747778335,-0.4982223747778335,1.0000566509232027,0.00014143710933690477
-0.49804552337154745,-0.49804552337154745,0.9998653433878577,0.00014138088368158944
-0.4978878028705367,-0.4978878028705367,0.9998544691696851,0.00012953898170926998
-0.4977478346569114,-0.4977478346569114,1.00000784861335,0.0001291647787614854
-0.49765496425825406,-0.49765496425825406,0.9998942198478684,0.00013469057256773018
-0.4976020464091562,-0.4976020464091562,0.9999142657161559,0.00013326761913393513
-0.49742998511064795,-0.49742998511064795,1.0000703477272088,0.0001314973718893804
-0.49730817421950635,-0.49730817421950635,0.9997722565258332,0.00013618996341293783
-0.4971837048738962,-0.4971837048738962,1.0001119324721055,0.00013156798861389395
-0.4970326497874339,-0.4970326497874339,0.9999474910680185,0.0001507260227078869
-0.4968778604292311,-0.4968778604292311,0.9999545914365914,0.00012764987163048372
-0.49673505086830116,-0.49673505086830116,0.9999948765104456,0.0001307011834685876
-0.4966312148622819,-0.4966312148622819,0.9999915933934481,0.00013282146140959893
-0.4965597041838919,-0.4965597041838919,0.9997969895389724,0.00013331855892169487
-0.49646623198932505,-0.49646623198932505,1.0002001640323477,0.0001297663975494481
-0.49629988880478776,-0.49629988880478776,1.0001278729988594,0.00013600094190908534
-0.49620777029631424,-0.49620777029631424,1.0002050285985145,0.00014790650467913776
-0.49604756205371814,-0.49604756205371814,1.0000392929423885,0.00014128869638078297
-0.4958241361702676,-0.4958241361702676,1.0001708409387517,0.00012887772043572345
-0.49568126201629636,-0.49568126201629636,1.0000730079497964,0.00012992510102118878
-0.4955664211214753,-0.4955664211214753,1.0001553705745847,0.0001308014732514068
-0.49548901360685704,-0.49548901360685704,1.0000676016326504,0.0001340011787897446
-0.4954082315816777,-0.4954082315816777,0.9998355593393106,0.00013033935463087706
-0.49523157868388806,-0.49523157868388806,1.0000954162944407,0.00013532352347473168
-0.49515102190052857,-0.49515102190052857,1.0001019128895492,0.00013702344370509513
-0.49501843806065154,-0.49501843806065154,0.9999727560978439,0.00013196967605709427
-0.49486746464535825,-0.49486746464535825,1.000059394219416,0.00014081827643742026
-0.4946614592699916,-0.4946614592699916,1.0000174761017164,0.00012770034654402792
-0.49454185177455656,-0.49454185177455656,0.9999190176859397,0.00013102202232894043
-0.49444710655516244,-0.49444710655516244,0.9999590704875863,0.00013305721824484254
-0.49438502319389954,-0.49438502319389954,0.9999823053124084,0.00013282899946418764
-0.49431360725866397,-0.49431360725866397,1.0001925928819717,0.00013057153810097261
-0.4941832816635724,-0.4941832816635724,0.999862990375831,0.000134727535214462
-0.49408075415558417,-0.49408075415558417,1.0001627197329448,0.00013952454998749335
-0.49394994070607934,-0.49394994070607934,0.9998179476698054,0.0001282279519657679
-0.49383262186165666,-0.49383262186165666,0.9999450801373031,0.00014336465137405812
-0.4936688337329542,-0.4936688337329542,1.0001960227982376,0.0001301339386213437
-0.49350250056741063,-0.49350250056741063,0.999892219780626,0.00013103609120912064
-0.49338465531764086,-0.49338465531764086,1.0000127047463079,0.00012973140291534481
-0.49332253125321585,-0.49332253125321585,0.9999836462870506,0.00013344481670179122
-0.49323212972085456,-0.49323212972085456,0.9997849044738268,0.00013030036652839544
-0.49304734991601434,-0.49304734991601434,0.9998327820637944,0.00013714097817993295
-0.49291105680458713,-0.49291105680458713,1.000250853229066,0.00013489807817967977
-0.49275360651517985,-0.49275360651517985,1.0000069296413523,0.0001419342391094247
-0.49253199105733075,-0.49253199105733075,0.9999579548067471,0.00013006769922784401
-0.49237715300550916,-0.49237715300550916,0.9999616394419114,0.0001312144762184941
-0.4922640884411521,-0.4922640884411521,1.0000960553865461,0.0001294959004474281
-0.49221841675171163,-0.49221841675171163,1.000144659526115,0.0001335021947267826
-0.49207742254948245,-0.49207742254948245,0.9999683990063877,0.00012887749912286742
-0.49193816123588474,-0.49193816123588474,0.9998410084625536,0.0001378051497591244
-0.49178102357982423,-0.49178102357982423,0.9998740463757612,0.00013427824641717263
-0.4916335305591929,-0.4916335305591929,0.9998324885127605,0.00014277491979693976
-0.49142056619311913,-0.49142056619311913,0.9999337341485208,0.0001285544651902051
-0.4912614722561557,-0.4912614722561557,0.9999848841390383,0.00013285546727276782
-0.4911639680998633,-0.4911639680998633,0.999931428637006,0.00013049120642004685
-0.49108890357456403,-0.49108890357456403,1.000107381535572,0.00013325107449989028
-0.4909257205596077,-0.4909257205596077,0.9999287281873821,0.00013259600246974724
-0.49080503816512644,-0.49080503816512644,1.0001242704371927,0.00013358582527641405
-0.4906521671975497,-0.4906521671975497,1.0000463678631564,0.00014742236237282497
-0.4904473853239324,-0.4904473853239324,1.0002121895880296,0.00015579253552451756
-0.4902688011396094,-0.4902688011396094,0.9999922006308486,0.0001304021161282141
-0.4901171857767622,-0.4901171857767622,0.9999660572095056,0.00013352944434868904
-0.4900716024421854,-0.4900716024421854,0.9998605156763446,0.00013178935644579207
-0.4899729844997637,-0.4899729844997637,0.9998257590719228,0.00013184613090482154
-0.48980583574739284,-0.48980583574739284,0.9999221422039156,0.0001364264271540357
-0.4896974025192321,-0.4896974025192321,0.9999826536117563,0.00013598322737736675
-0.4895188839873299,-0.4895188839873299,1.0001904318746297,0.00014169348413686295
-0.4892802665839554,-0.4892802665839554,1.00011944273649,0.00012834964056483857
-0.48909092350077116,-0.48909092350077116,1.0000131135152188,0.00013299955015704535
-0.48899670198443346,-0.48899670198443346,1.0001141753023717,0.00013273208863169155
-0.488944237974647,-0.488944237974647,0.9999308657997528,0.00013134576685888965
-0.48881921719148524,-0.48881921719148524,1.0000043256180884,0.00013121580315865038
-0.4886881279206136,-0.4886881279206136,1.0000830204633724,0.0001375337200367679
-0.48857624766533264,-0.48857624766533264,0.9999709021533519,0.00013557644933837732
-0.4884184618276777,-0.4884184618276777,1.0002022840141782,0.00014152436474958115
-0.488259462856513,-0.488259462856513,0.9999734598741303,0.00013132207532044965
-0.48807007167779376,-0.48807007167779376,1.000080778089928,0.0001323568775406374
-0.4879327709364588,-0.4879327709364588,0.9999479356228065,0.000132819809046769
-0.487892456445843,-0.487892456445843,0.9999729596677239,0.00013085878659940922
-0.48775687904271764,-0.48775687904271764,0.9999057858555801,0.00013324870014269153
-0.4876273424801184,-0.4876273424801184,1.0000217323562772,0.00013666491424296897
-0.48751466766552765,-0.48751466766552765,1.0000685752144505,0.0001364739128706913
-0.48736701225861906,-0.48736701225861906,0.9998058338320316,0.00015135131800310416
-0.48722094407712574,-0.48722094407712574,1.000052031756993,0.0001290980907940859
-0.4870527372811921,-0.4870527372811921,0.9998247726234641,0.00012998395250816893
-0.4869203535083216,-0.4869203535083216,0.9998957228863002,0.00013320414993288316
-0.48683090203412577,-0.48683090203412577,1.0000642440033178,0.00013402021413877515
-0.48676467645709637,-0.48676467645709637,1.0000448062507277,0.00013108410280227508
-0.4865869007029687,-0.4865869007029687,0.9999461110103163,0.00013727458322816861
-0.4864653910146444,-0.4864653910146444,0.9999399972969387,0.0001392213653555468
-0.4863342737604398,-0.4863342737604398,1.0001626131463184,0.00014932472589873833
-0.48620057938533134,-0.48620057938533134,0.9997800081374951,0.00013192869840631907
-0.48598455682513303,-0.48598455682513303,0.9997388551221151,0.00012907594345006217
-0.48585367968044013,-0.48585367968044013,0.9999866204565644,0.00013265238750405185
-0.48574987491592764,-0.48574987491592764,1.0000327837776821,0.00013404614571827257
-0.48567385157512033,-0.48567385157512033,1.0000994465370399,0.00013010935029539875
-0.4854796682309825,-0.4854796682309825,0.9999642306705804,0.0001346600377903372
-0.48533623912808255,-0.48533623912808255,1.0000659826219918,0.0001367557238786203
-0.48520634289743614,-0.48520634289743614,1.0002036874559737,0.00014816970812086096
-0.4851073288213229,-0.4851073288213229,1.000162762744786,0.0001319322532659863
-0.4848952033920796,-0.4848952033920796,1.0000143982104484,0.00013031983607060383
-0.4847672535368474,-0.4847672535368474,0.9999125154534323,0.0001328193790506787
-0.4846667082325439,-0.4846667082325439,1.0001074070541296,0.0001328488079653383
-0.4845865834897268,-0.4845865834897268,0.9997889721886841,0.00013009471198136826
-0.48441754731466063,-0.48441754731466063,0.9998915589871828,0.0001368842414893499
-0.4842784454216599,-0.4842784454216599,1.0001737995258404,0.0001358154548972795
-0.48416590506531065,-0.48416590506531065,1.0000025080838915,0.00013905373377469935
-0.4840371542260982,-0.4840371542260982,0.999836522501224,0.00014266153345094526
-0.48385449197958225,-0.48385449197958225,0.9999616684846604,0.0001298586987819885
-0.4837400681732106,-0.4837400681732106,0.999778644761611,0.0001390579782392887
-0.48361999024491525,-0.48361999024491525,0.9997934058952345,0.00013676244412031584
-0.4835628468557843,-0.4835628468557843,0.9999547266064972,0.00013073750494629882
-0.48345084771572144,-0.48345084771572144,1.0000893455399071,0.00013018899557676498
-0.4833015971555142,-0.4833015971555142,0.9998755167868006,0.0001301918432477905
-0.48317766642576315,-0.48317766642576315,0.9999647334360509,0.00013914481984999647
-0.4830729725683341,-0.4830729725683341,0.9999435808811254,0.00013838871481622865
-0.48292534207284915,-0.48292534207284915,0.9998386477140002,0.00013164819841982316
-0.4827540231432067,-0.4827540231432067,1.000045658579201,0.00014101232195332032
-0.48265905020962235,-0.48265905020962235,1.0000499790237605,0.00012969877443937431
-0.4825689611985581,-0.4825689611985581,1.0000719453499367,0.00014587952042210422
-0.4824985084225773,-0.4824985084225773,1.0000677846285373,0.00013282474382794761
-0.4824158148170682,-0.4824158148170682,1.0001036460650718,0.00013268834184880773
-0.48230449417751514,-0.48230449417751514,0.9997172292793831,0.0001298582669758751
-0.48214013747492573,-0.48214013747492573,1.000118894910328,0.00013829037384324673
-0.48201894758385605,-0.48201894758385605,0.9999780118468781,0.0001417615062688532
-0.4818882607403793,-0.4818882607403793,0.9999870320026492,0.00013128667702718718
-0.4817410116243991,-0.4817410116243991,1.0000983465426831,0.00013915676282952186
-0.4815832733074785,-0.4815832733074785,1.0000306080614574,0.00013117303012203792
-0.4815376829938032,-0.4815376829938032,1.000100704258651,0.0001467462418846414
-0.4814481517445529,-0.4814481517445529,1.0001610046496032,0.00013254144163780612
-0.4813990192313213,-0.4813990192313213,1.000155275887531,0.00014199120838291404
-0.48129129647277297,-0.48129129647277297,1.000168082751265,0.0001310325597294685
-0.48113060458854306,-0.48113060458854306,0.9998837964735706,0.0001336625171220751
-0.480996480336762,-0.480996480336762,0.9999801855757944,0.00013644391774267895
-0.4809075309778564,-0.4809075309778564,0.9998784330703863,0.0001406610601390681
-0.48075699489563706,-0.48075699489563706,0.9999324842038435,0.00013171094312321039
-0.48056375447340544,-0.48056375447340544,0.9999853808863903,0.0001413064294706311
-0.4804624976371997,-0.4804624976371997,0.9999755210566169,0.00014405488514651355
-0.4804027390971896,-0.4804027390971896,1.0000755907746717,0.00014982925630646716
-0.4803386823798064,-0.4803386823798064,1.0000170421015635,0.00013408042594994222
-0.4802562857745215,-0.4802562857745215,0.9999744483566669,0.00014064575900740647
-0.48015460246970176,-0.48015460246970176,1.0001185223917055,0.00013311020371939284
-0.47998443034011873,-0.47998443034011873,0.9998614721902739,0.00013374860316115624
-0.4798888735400396,-0.4798888735400396,1.0001586293318472,0.00013634628699683713
-0.4797776940395124,-0.4797776940395124,1.0000363915253503,0.00013936017173459494
-0.47967430847929793,-0.47967430847929793,1.0002035412048589,0.00013173960718740422
-0.47952069125021807,-0.47952069125021807,1.0000427736536968,0.00014048720015992134
-0.4793903674828471,-0.4793903674828471,0.9998976111604527,0.00014374249021002343
-0.4793229314600467,-0.4793229314600467,0.999865155956748,0.00013393499407441124
-0.47924741153110517,-0.47924741153110517,0.9998731979035682,0.00013297132272956002
-0.4791637741174782,-0.4791637741174782,1.000040458805613,0.0001385626095114303
-0.4790686223292141,-0.4790686223292141,0.999962300969534,0.00013431298603708665
-0.4788996797069558,-0.4788996797069558,0.9998764981358959,0.00013878152513198074
-0.478806907532271,-0.478806907532271,0.9998863404202825,0.00013012510488324294
-0.47871066804946166,-0.47871066804946166,1.0000680087698566,0.00013892184332636688
-0.4785684762275196,-0.4785684762275196,0.9999705275113933,0.00014226304134444198
-0.4784342694998486,-0.4784342694998486,0.9998900168161271,0.00012920029723799523
-0.47830291703139666,-0.47830291703139666,0.9998599360600842,0.00014388468918291147
-0.4782115144858835,-0.4782115144858835,0.9999106376690525,0.00013411694879219988
-0.4781628379583708,-0.4781628379583708,1.000118272313386,0.00014235982634214513
-0.4780441249386058,-0.4780441249386058,0.9998650166116299,0.00013146172539539992
-0.47797190940909784,-0.47797190940909784,1.0000966429595244,0.0001298842583371781
-0.4778373091641697,-0.4778373091641697,1.0000680447252919,0.0001365913344339023
-0.4777398903417634,-0.4777398903417634,0.9999590145880491,0.00013409505657459173
-0.47765931222675134,-0.47765931222675134,0.9999696882866385,0.00013037616270883146
-0.47749958215426885,-0.47749958215426885,1.0001548783808165,0.00013107018792547813
-0.4773858501852374,-0.4773858501852374,1.0000486555631027,0.00015221057281724544
-0.4772498785285279,-0.4772498785285279,0.9999316408642249,0.00014398805358446798
-0.4771777659247164,-0.4771777659247164,0.9999214442286753,0.0001335816301465675
-0.4770957008746336,-0.4770957008746336,1.0000555405224272,0.00013406756976706456
-0.47701055011275456,-0.47701055011275456,1.0000358190702126,0.00014005221008167614
-0.4769021807660465,-0.4769021807660465,1.000049407409799,0.00013221524111666963
-0.4767662105179625,-0.4767662105179625,0.9999136976424031,0.00013620980551370547
-0.47663840849127154,-0.47663840849127154,0.9999808012235689,0.00013278046142059727
-0.4765287041052943,-0.4765287041052943,0.9999583117464319,0.00013361494477122718
-0.47637538260169093,-0.47637538260169093,0.9997798273476025,0.00013870781416645494
-0.47622341484820935,-0.47622341484820935,1.000037078641953,0.00014208952413640713
-0.47609768717375117,-0.47609768717375117,0.9999678500117144,0.00013425171771040388
-0.47601432275405386,-0.47601432275405386,1.0000475375882407,0.00013611720935123494
-0.4759051769695361,-0.4759051769695361,1.0001005659470186,0.00013976400618566286
-0.4757827069159248,-0.4757827069159248,0.999910615886731,0.0001349521011839243
-0.4756331204160233,-0.4756331204160233,1.0001443218544352,0.00013533496092071
-0.47554362423106794,-0.47554362423106794,1.0001121206474017,0.0001326114963379848
-0.4754361491708551,-0.4754361491708551,0.9999511154283086,0.0001300442470590127
-0.4752492519197403,-0.4752492519197403,1.00005706517843,0.00013171417896273415
-0.47507673158834224,-0.47507673158834224,1.000078419124965,0.00015543594758596905
-0.4749598791837343,-0.4749598791837343,0.9999685028107835,0.00013338066392679836
-0.47492473457677986,-0.47492473457677986,0.9998088510204888,0.0001439393520881937
-0.4747914107982069,-0.4747914107982069,0.9999458892160893,0.00013206307370254418
-0.47467401188041547,-0.47467401188041547,0.9999927369985036,0.0001324032159653801
-0.4745536814269144,-0.4745536814269144,1.0000409048369658,0.00013392169954007526
-0.47446880894858623,-0.47446880894858623,1.0001104039368065,0.0001315222200980216
-0.47440648435585897,-0.47440648435585897,1.0001308472095043,0.00013111109586439362
-0.4742170481593348,-0.4742170481593348,0.999816538685797,0.00013112125137986662
-0.47405779577238716,-0.47405779577238716,0.999952993063736,0.00014605378038643667
-0.4739167633262696,-0.4739167633262696,1.000093347138676,0.00014112333912992043
-0.4738502185340622,-0.4738502185340622,1.0001367043821014,0.00014516530983928666
-0.4737563401009538,-0.4737563401009538,1.0001806678911325,0.00013225837920091116
-0.47360751949017865,-0.47360751949017865,1.0000301051028146,0.00013279124300102593
-0.4735230550140841,-0.4735230550140841,0.9999182606971404,0.00013527239228212787
-0.47343316284823234,-0.47343316284823234,0.9999725946368454,0.0001370421871919134
-0.4733378943419666,-0.4733378943419666,1.0000111786197405,0.00012921412056752452
-0.47321460605307947,-0.47321460605307947,0.9999935603999115,0.00013329656726911062
-0.4730304131517187,-0.4730304131517187,0.9999364404816731,0.00014270633982743592
-0.4728868135905941,-0.4728868135905941,0.9998338940305004,0.00014503147691613793
-0.4727754914856632,-0.4727754914856632,0.9999909269502133,0.0001438373122660884
-0.4726735243675648,-0.4726735243675648,1.0001253471372515,0.0001338274533110251
-0.4725126916964655,-0.4725126916964655,0.9999282008271047,0.00013288466246035371
-0.4723932653636439,-0.4723932653636439,0.9999580992556478,0.00013558270520313957
-0.4722983357438352,-0.4722983357438352,1.0001977935842052,0.0001335578980695107
-0.47218418391857997,-0.47218418391857997,0.9999169662963366,0.00012968733178730552
-0.47196178665908517,-0.47196178665908517,1.0000828883654798,0.00014138897571284667
-0.47181916454428574,-0.47181916454428574,0.9998578345162731,0.0001457933036272641
-0.4717147069837665,-0.4717147069837665,1.000234248195968,0.0001432913949852692
-0.47168038193049144,-0.47168038193049144,1.0000104828999148,0.0001325147612919846
-0.47150072987133174,-0.47150072987133174,0.9999839827903563,0.00013232680037723738
-0.47138386212609473,-0.47138386212609473,1.0001189826454577,0.0001314346883087254
-0.4712411699758377,-0.4712411699758377,1.0000882317393764,0.00013266817796983636
-0.4711418865044834,-0.4711418865044834,1.000118268558904,0.00013151052434662438
-0.47096548949048156,-0.47096548949048156,1.0000627907397124,0.00012828302614562598
-0.47075186447182205,-0.47075186447182205,0.9999955099168382,0.00015641183547805226
-0.47061844776180806,-0.47061844776180806,1.000082778349319,0.00014224284953594354
-0.47056281125551325,-0.47056281125551325,1.0000262429805287,0.00013613712189569491
-0.4703650555355125,-0.4703650555355125,0.9998671398392232,0.0001330855093168861
-0.4702606992301298,-0.4702606992301298,1.000127737189013,0.00013138558091838325
-0.4701425032224506,-0.4701425032224506,1.0001895875082651,0.00013333207096307112
-0.46999209293717287,-0.46999209293717287,1.0000208123057386,0.00012972065393946584
-0.46980715062672973,-0.46980715062672973,0.9998819464493736,0.00014251458724839306
