time,time,flux,flux_err
-0.49988914334790024,-0.49988914334790024,0.9999606205791177,0.00018862256463283492
-0.49973815857447335,-0.49973815857447335,0.999988364318113,0.0001726936119242482
-0.4996376627306745,-0.4996376627306745,0.9998761452004759,0.00017137842225585991
-0.49957480609373306,-0.49957480609373306,0.9997484143033342,0.00017204702321087546
-0.49948215139302193,-0.49948215139302193,0.9999697883230777,0.0001744931248218575
-0.49939531659983916,-0.49939531659983916,0.9999906297819431,0.0001644450657452735
-0.49919072064512876,-0.49919072064512876,0.9998372167999918,0.0001677903892198887
-0.4990510271207313,-0.4990510271207313,1.0001617835507133,0.00017349899443685132
-0.4989145442072186,-0.4989145442072186,1.0001635718772606,0.00017647024600063796
-0.4987985414569266,-0.4987985414569266,1.0000753507652917,0.0001757199147931066
-0.4987183378114423,-0.4987183378114423,0.9997085196047909,0.00017343047590335478
-0.49858407904248453,-0.49858407904248453,0.9999931339852329,0.00017337794945212502
-0.49850038809818215,-0.49850038809818215,0.9998671456053689,0.0001706926923809081
-0.4983461849740706,-0.4983461849740706,0.9998946533378748,0.00017777927866686425
-0.4981822209127131,-0.4981822209127131,1.0000668786852676,0.00017078098892694848
-0.4980379607281066,-0.4980379607281066,0.999952928091347,0.00017640247043788093
-0.4978326751079294,-0.4978326751079294,0.9998364688581877,0.0001757809752499849
-0.49769997678013167,-0.49769997678013167,0.9998871593734991,0.00017442356960016827
-0.4975738370587351,-0.4975738370587351,1.000031981427282,0.00017060369304722155
-0.49750324522392475,-0.49750324522392475,1.000047431955132,0.0001714751382311391
-0.4973945493278734,-0.4973945493278734,1.0000467490454166,0.0001715166913709443
-0.49731145062178256,-0.49731145062178256,0.9999190345653499,0.00016581928000399443
-0.4971356879526866,-0.4971356879526866,1.0001182987909198,0.00016963430171539344
-0.4970066093126661,-0.4970066093126661,0.9999498863425018,0.00017200925106256376
-0.4969236319455376,-0.4969236319455376,0.9999625458800914,0.00017096614636757397
-0.4967538523633266,-0.4967538523633266,1.0000517913050806,0.0001765314675487208
-0.49665798042624376,-0.49665798042624376,1.0000865347793653,0.0001747263407709929
-0.49649437965708787,-0.49649437965708787,1.0002787547118241,0.00017055986438840688
-0.49632688056954066,-0.49632688056954066,0.9997375150107126,0.0001739001287243283
-0.49613106788456207,-0.49613106788456207,0.9997478108068915,0.00017061975293941316
-0.4960004803993797,-0.4960004803993797,0.9999583713463605,0.0001705871939798122
-0.4958329059176322,-0.4958329059176322,1.0000510223556989,0.00017960673754225824
-0.4956858501500392,-0.4956858501500392,0.9999873924798403,0.00017059518258273962
-0.49557847199757815,-0.49557847199757815,1.0003296051050004,0.000174219084445418
-0.4954847117624013,-0.4954847117624013,1.0001041891004718,0.0001722484784306598
-0.49539158531624705,-0.49539158531624705,1.0003133230556793,0.0001700526318175189
-0.4952777457270713,-0.4952777457270713,0.9999630410542268,0.00016884073095249397
-0.4951680321624735,-0.4951680321624735,0.9996633619440735,0.00016721085973380562
-0.49498528803451336,-0.49498528803451336,1.0000208285636245,0.0001746671597640268
-0.49466727503240693,-0.49466727503240693,1.0001713179138796,0.00017268324406760922
-0.4944722658430692,-0.4944722658430692,1.000028623153297,0.00017611690329751055
-0.49433279902950744,-0.49433279902950744,0.999976424596202,0.00017503015118410992
-0.4941731439139403,-0.4941731439139403,1.0000921860121657,0.00017367227068401664
-0.49398470558953705,-0.49398470558953705,0.9999221918009681,0.00017595596946898224
-0.4937325584614882,-0.4937325584614882,1.0000015343900963,0.00017002288377537163
-0.49356272476361485,-0.49356272476361485,0.9999427089292968,0.0001720995333856658
-0.4934643921245879,-0.4934643921245879,1.0001326500052676,0.000169494302406657
-0.4933865118699032,-0.4933865118699032,1.0000192082678725,0.00017376738386961325
-0.4932727859435545,-0.4932727859435545,0.9999965629999664,0.0001700501385705867
-0.4931860257696826,-0.4931860257696826,1.0002571491650993,0.00016885223220539132
-0.4930763984702935,-0.4930763984702935,1.0001071125274617,0.00016722007809628973
-0.49301975584894536,-0.49301975584894536,0.9997479594094228,0.00020262021507367
-0.4929088636068627,-0.4929088636068627,0.9997336808716929,0.0001710572188849204
-0.49275556188440534,-0.49275556188440534,1.0001452631012735,0.00017023130143726628
-0.4925275921305001,-0.4925275921305001,1.0001688783672373,0.00017021609577866928
-0.492405660336226,-0.492405660336226,1.0002060261137653,0.0001813390810534214
-0.4922913648617396,-0.4922913648617396,0.9999832750534227,0.00016900136077998418
-0.49210241300024793,-0.49210241300024793,0.9996844049696321,0.00017201710374225576
-0.4919634759207838,-0.4919634759207838,1.0000142591988943,0.0001733599741124108
-0.4918547877081437,-0.4918547877081437,0.9999842716328932,0.00017875067755956253
-0.4917008202741272,-0.4917008202741272,0.9997731084916275,0.00016951952559209193
-0.491488932777429,-0.491488932777429,1.0000601999901952,0.00017579848442257647
-0.491352885208471,-0.491352885208471,1.0001054235584848,0.00017673882552760755
-0.49123300688224847,-0.49123300688224847,1.000125861406457,0.00016725197200104935
-0.49115350416104775,-0.49115350416104775,1.0000704840028827,0.0001666825585640548
-0.49100591352253103,-0.49100591352253103,0.9997470541732228,0.0001711822288836125
-0.4909467083583877,-0.4909467083583877,1.0000231863425,0.00017096375149743882
-0.4908473195398983,-0.4908473195398983,1.0001899617362089,0.00017258194104486976
-0.490683172489662,-0.490683172489662,0.9999213739957218,0.00019530457844565288
-0.49051355017654713,-0.49051355017654713,1.0000589293944269,0.00016855636283257468
-0.49033250484208113,-0.49033250484208113,0.9999008180308673,0.00017161548386472632
-0.49024366245866985,-0.49024366245866985,1.0001618286204166,0.00020478284359671164
-0.4900084056876949,-0.4900084056876949,1.000012936281376,0.00017100878300099453
-0.48985816402419,-0.48985816402419,0.9996684999960056,0.0001761449573691566
-0.4897067324156524,-0.4897067324156524,0.9999937626565961,0.00017280291246970714
-0.4895309892213845,-0.4895309892213845,1.0001808406671506,0.00017032179432480984
-0.48937453610487863,-0.48937453610487863,1.000070318160508,0.0001777459845870324
-0.4892561903558089,-0.4892561903558089,1.0001664342521899,0.00016841631833920302
-0.4891299007678754,-0.4891299007678754,0.999711229686034,0.0001682388821494341
-0.4890484681229282,-0.4890484681229282,1.0000600477723451,0.00016552421658056466
-0.4889617818444094,-0.4889617818444094,1.0001796887568943,0.00016803976945570313
-0.4888854640586942,-0.4888854640586942,1.000206025719655,0.00019144130451013942
-0.4888175748259528,-0.4888175748259528,0.9999014736724654,0.00017367633437888512
-0.48871589731570564,-0.48871589731570564,0.999829449794251,0.00017670986420772913
-0.48854042386228685,-0.48854042386228685,1.0001681417157635,0.00016961054596453725
-0.4884090025530895,-0.4884090025530895,1.0000596485982087,0.00016989820039769044
-0.48818925283194403,-0.48818925283194403,0.999892180749975,0.0001764794446439607
-0.48803552676326944,-0.48803552676326944,1.0000153450873837,0.00016583926679105115
-0.4878672842001833,-0.4878672842001833,0.999733856732405,0.00017340276097812488
-0.48775886588482537,-0.48775886588482537,0.9997709377185817,0.0001699513285340183
-0.48760554498949205,-0.48760554498949205,0.999872614359778,0.0001730386491972245
-0.4873476078537351,-0.4873476078537351,0.999916831474029,0.00017395758651741875
-0.4872044424235355,-0.4872044424235355,1.0002866784808289,0.0001749900886346696
-0.4870532498425746,-0.4870532498425746,0.999754112992302,0.00017198387622046498
-0.48690500498196343,-0.48690500498196343,0.9996242060484433,0.0001686130074065023
-0.4867650785876322,-0.4867650785876322,1.0002048345720689,0.00016977711133311647
-0.48668658449460056,-0.48668658449460056,0.9998829036295577,0.0001735348586753591
-0.4865523880085675,-0.4865523880085675,0.9999020438760551,0.000174855687651263
-0.4863738046915387,-0.4863738046915387,1.000064579547491,0.00016769589713106747
-0.48611240316167825,-0.48611240316167825,0.9997734578179708,0.00017429210965727454
-0.48599432655391867,-0.48599432655391867,0.9998866893143061,0.0001837188731843333
-0.48583740508838674,-0.48583740508838674,0.9998778779010731,0.00017105043265969118
-0.4857047700876137,-0.4857047700876137,0.9998963384073608,0.00017560682210256677
-0.48553746017423693,-0.48553746017423693,1.000025035324732,0.00017245584871614135
-0.48525859160436086,-0.48525859160436086,0.9998891111113768,0.00017362842946339535
-0.485102732978703,-0.485102732978703,1.0001098287565522,0.00017160322710600148
-0.4849518853581685,-0.4849518853581685,1.0001987561987362,0.00017077316109716324
-0.48482809983906916,-0.48482809983906916,1.0001761943630771,0.00016783053057864878
-0.4847029459080659,-0.4847029459080659,1.0001483710602561,0.00017061614833280752
-0.48462161975330675,-0.48462161975330675,1.0000530453847858,0.00017208175685199948
-0.48449959200952436,-0.48449959200952436,0.9996969715519037,0.00017521078241607726
-0.48442486749409,-0.48442486749409,1.0001432891857853,0.00016951812484471818
-0.48425025632895996,-0.48425025632895996,0.9997625317133749,0.00016919172530705922
-0.48396168907929676,-0.48396168907929676,0.9999392107257433,0.00017761937587498598
-0.4838619545756956,-0.4838619545756956,0.9998905786203732,0.0001767234026733594
-0.48372026139040825,-0.48372026139040825,1.0000602309127045,0.00017125342830012362
-0.48357139317231485,-0.48357139317231485,1.0000372300784623,0.00017486702796056325
-0.4834526987848221,-0.4834526987848221,0.9998374790452385,0.00017132282230879117
-0.4832974968085182,-0.4832974968085182,0.99994570973568,0.00017393340002203435
-0.48308247359018425,-0.48308247359018425,0.999946716675167,0.00017694403814315327
-0.4829763675770664,-0.4829763675770664,0.9998759937144583,0.00016874209738312803
-0.48282690066553186,-0.48282690066553186,0.9999785565030475,0.00017090845087136116
-0.4827011816574668,-0.4827011816574668,0.9997817634100716,0.00018165725556203407
-0.48255225293469267,-0.48255225293469267,1.0001382983812488,0.0001680035762603572
-0.48242637892035417,-0.48242637892035417,0.9998714058277093,0.00017122343123338943
-0.48233026738162155,-0.48233026738162155,0.9999231789874244,0.0001745792484182213
-0.4821285459242063,-0.4821285459242063,1.0002428283047224,0.0001699008455896078
-0.48187336732808034,-0.48187336732808034,0.9997592454587119,0.00018453995193343115
-0.48178597757651004,-0.48178597757651004,0.9999778121834231,0.00017664497741132218
-0.4815852203704708,-0.4815852203704708,1.0000803754978544,0.00017844993334986862
-0.48146827240852874,-0.48146827240852874,0.9998624802556044,0.00016920579031908515
-0.4813410155700694,-0.4813410155700694,0.9999818024091713,0.0001734998115389714
-0.48122784693623544,-0.48122784693623544,1.000034490757368,0.00017036739754740793
-0.48101180470184773,-0.48101180470184773,1.0001008230491932,0.00017453397285462123
-0.4809389316513261,-0.4809389316513261,1.0000460085349168,0.00017391201710799926
-0.4808808874193346,-0.4808808874193346,1.0000406055805304,0.00016854711710647823
-0.4808245181055099,-0.4808245181055099,1.0000498335090837,0.0001649127221705306
-0.48075696070300183,-0.48075696070300183,0.9999325772026963,0.00016676939863514376
-0.4806245022416988,-0.4806245022416988,1.0000568446415528,0.00017326349749720172
-0.48047270466267944,-0.48047270466267944,1.0002076388260897,0.00017050125656442488
-0.4802868959581247,-0.4802868959581247,1.0001966447143684,0.00017283584710181202
-0.480112689435191,-0.480112689435191,1.0002159667397106,0.00017169518489924856
-0.4799441836257756,-0.4799441836257756,0.99979960608559,0.0001646322830236784
-0.4797578384619555,-0.4797578384619555,1.000129874640186,0.00019590108136816907
-0.4796701971281436,-0.4796701971281436,0.9997144129258185,0.00017448910793472475
-0.4794803170749219,-0.4794803170749219,0.9998780272518843,0.0001773894484082874
-0.47934952200812403,-0.47934952200812403,0.9998016155890838,0.0001712104727574042
-0.47920422933602824,-0.47920422933602824,1.000117834174532,0.00017454113850605982
-0.4790949847614684,-0.4790949847614684,0.9998220303907359,0.00017445540328890364
-0.47899155851482644,-0.47899155851482644,1.0000665517347656,0.00016809563266342777
-0.47886459120709335,-0.47886459120709335,0.9999162355750746,0.0001781981416186912
-0.4788185098099348,-0.4788185098099348,0.999768944075998,0.00016901228047908547
-0.4787812966387719,-0.4787812966387719,0.9999379713183147,0.00017144043227961127
-0.4787273131682014,-0.4787273131682014,0.9999528184216228,0.00016455172833477758
-0.4786083402686927,-0.4786083402686927,1.0001892120459766,0.00017210753268546758
-0.4784845427086111,-0.4784845427086111,1.0002707393888135,0.00016850052361332463
-0.47832158259989227,-0.47832158259989227,1.0000076723407822,0.00016475028919342622
-0.4781840916701185,-0.4781840916701185,1.0003444652966782,0.00017659545389448147
-0.47797747124568557,-0.47797747124568557,0.9999170413977222,0.00016979410208450672
-0.47780082750032304,-0.47780082750032304,0.9999710554470769,0.00016786838101602898
-0.4776392385349027,-0.4776392385349027,0.9996779077006254,0.00020529747803015025
-0.4775098229860305,-0.4775098229860305,0.9997920893477972,0.00017959741410101938
-0.47736408748241954,-0.47736408748241954,1.0000284592992148,0.0001699907891955453
-0.477207071652083,-0.477207071652083,1.0000389546695787,0.0001744947310803551
-0.47708004860687653,-0.47708004860687653,0.9998499686341994,0.00017446005024493487
-0.4769687191110279,-0.4769687191110279,0.9999369818169332,0.00017697800787596808
-0.4768828266496712,-0.4768828266496712,1.0002315994989255,0.00017263587377409415
-0.4767949766595848,-0.4767949766595848,1.0001614852628653,0.00016766470077134177
-0.476736560666177,-0.476736560666177,1.0001473093681224,0.00017444767300742238
-0.4766969751864963,-0.4766969751864963,1.000336411043868,0.00016970483989553006
-0.4766015495180909,-0.4766015495180909,0.9998085487375068,0.00017177798944460662
-0.4765040674988995,-0.4765040674988995,1.0001806697699311,0.0001712830907061377
-0.4763917720069003,-0.4763917720069003,1.000103526275222,0.00016483032450515897
-0.47623808918215216,-0.47623808918215216,0.9999800307327285,0.00017186774078257623
-0.47611941632494564,-0.47611941632494564,1.0000970135847325,0.00017830371169191077
-0.47602040382116684,-0.47602040382116684,0.9998631598371075,0.0001729317463643188
-0.4757590466142574,-0.4757590466142574,0.9998600054639877,0.0001730434967213546
-0.4755337336973753,-0.4755337336973753,0.9997108188126557,0.0001689062634848852
-0.475382681901101,-0.475382681901101,0.9999119074157405,0.00017285097731479075
-0.47520651855083995,-0.47520651855083995,0.9998918426023641,0.00017563338487637292
-0.4750835192695376,-0.4750835192695376,1.0003534446056181,0.0001788867414821179
-0.4749549531516095,-0.4749549531516095,0.999897715227496,0.00017393502687395012
-0.4748631339018175,-0.4748631339018175,1.0002682782284826,0.0001705454693690937
-0.4747717510646908,-0.4747717510646908,1.000097402558962,0.00017115445913473243
-0.47467186185676835,-0.47467186185676835,1.000007763149679,0.0001713599592121016
-0.4745821994016296,-0.4745821994016296,1.000286899775838,0.00017312203494718588
-0.4745094709127443,-0.4745094709127443,1.0001031676175902,0.00016968210047812524
-0.4744400758470874,-0.4744400758470874,1.0001336367890612,0.00016910738146655365
-0.4742799134575762,-0.4742799134575762,0.999891331795084,0.0001679518172827047
-0.4741104377928423,-0.4741104377928423,0.9999705615912685,0.00016837705006527744
-0.47396547300159,-0.47396547300159,1.0000415180554012,0.00018087330434884074
-0.47383761682067416,-0.47383761682067416,1.0000981846073507,0.00017295633412104384
-0.47360952715316673,-0.47360952715316673,0.9998448272696387,0.00017247398906771383
-0.47347573554943667,-0.47347573554943667,0.9998021049048832,0.00017471569523283447
-0.4733451553409395,-0.4733451553409395,0.9998801275471209,0.00017667915226634925
-0.4731853350793244,-0.4731853350793244,0.9999924243600002,0.00016828160854987366
-0.4729999706178205,-0.4729999706178205,0.9999140666788776,0.0001790376530790189
-0.47283926628588235,-0.47283926628588235,0.9999953656855144,0.0001719755799601233
-0.4727102823308087,-0.4727102823308087,0.9999779971403957,0.00017817247089822462
-0.47262285083997996,-0.47262285083997996,1.0001592725540929,0.00016817938885627996
-0.4725628031475935,-0.4725628031475935,0.9999649433490949,0.0001740113433282362
-0.47247750946189626,-0.47247750946189626,0.9999624251599464,0.00017449690618115792
-0.47242506953698465,-0.47242506953698465,1.0001099825555686,0.00017094605125436617
-0.47232342412971773,-0.47232342412971773,0.9998734950928526,0.00016632749817451314
-0.47221282636674006,-0.47221282636674006,1.0001497473252168,0.0001687565398161863
-0.4720880554974428,-0.4720880554974428,1.0000266650234924,0.00017011625408171112
-0.4719551410533313,-0.4719551410533313,1.0000118103956495,0.00017675599294101775
-0.47181420667111523,-0.47181420667111523,1.0000227220239273,0.00017562034417504307
-0.47169968311718546,-0.47169968311718546,0.9999932524984091,0.000181274227364417
-0.4715355514192197,-0.4715355514192197,0.9998114459110402,0.00016766151729954174
-0.47145757869730004,-0.47145757869730004,0.9997808395262513,0.00017160757663784804
-0.4713165335349913,-0.4713165335349913,1.000147668782081,0.0001760689674755273
-0.4711849209874345,-0.4711849209874345,1.0001065948420393,0.00017154441605873042
-0.4710618164295738,-0.4710618164295738,1.0001548782334284,0.00017188060679244576
-0.47086288220307326,-0.47086288220307326,0.9999642559624231,0.00017825468021943336
-0.4707033438862709,-0.4707033438862709,1.0000054188934182,0.00017143088629149913
-0.4705593326689268,-0.4705593326689268,1.0001851257553098,0.00017398987153411592
-0.47048226269762383,-0.47048226269762383,1.0001789679167365,0.00017153255789316473
-0.47037357668668844,-0.47037357668668844,0.9998128751342115,0.00017397050989672818
-0.4702573498339916,-0.4702573498339916,0.9999192505827944,0.00016420277535307792
-0.47007482398839784,-0.47007482398839784,1.000084707475231,0.00017044121507995994
-0.46995438249068683,-0.46995438249068683,0.9999874480890831,0.00017560961572671546
-0.469833462999668,-0.469833462999668,0.9996449606274762,0.00017468919376538954
-0.4696971833880525,-0.4696971833880525,1.0001500804851333,0.0001751383249038668
-0.4695770229882328,-0.4695770229882328,1.00002629824422,0.00017966746008687672
-0.46943675992733913,-0.46943675992733913,1.0000123902431999,0.00016891627125451196
-0.46925251717402716,-0.46925251717402716,0.9999129408226588,0.0001786300320596727
-0.46907326506989194,-0.46907326506989194,1.0003099638141584,0.00017081120602580193
-0.46895659324291045,-0.46895659324291045,1.0000637484104147,0.000171641142585834
-0.4687214482095442,-0.4687214482095442,1.0001833198582744,0.00017585663778943358
-0.46861458080020385,-0.46861458080020385,0.9998850289808884,0.00017015117511120327
-0.46852391003922095,-0.46852391003922095,0.9997294716797361,0.00017507190762939233
-0.4684348598384531,-0.4684348598384531,0.9998737317647363,0.00017118413563104723
-0.4683728370793688,-0.4683728370793688,1.0000604025916848,0.00017240830942974488
-0.46827016852475933,-0.46827016852475933,0.9999309642812344,0.00016917737485696785
-0.4681447437185852,-0.4681447437185852,1.000143744086154,0.0001696073753196698
-0.4679744455803302,-0.4679744455803302,0.9998910154168852,0.00017219260044700374
-0.46785515763695,-0.46785515763695,0.9999680322525382,0.00017669114985949117
-0.4677191544375091,-0.4677191544375091,0.9999321564136159,0.00016949839449642478
-0.4675711820287688,-0.4675711820287688,1.0000906698234435,0.0001750407817692905
-0.46742255587669207,-0.46742255587669207,1.0001102032705371,0.0001725530236931544
-0.4672632893278205,-0.4672632893278205,0.9999093658476819,0.00017196172154502462
