time,time,flux,flux_err
-0.4990788956832451,-0.4990788956832451,1.0002396112633554,0.00019184503787249212
-0.4967719951237086,-0.4967719951237086,0.9999263345481036,0.00019612762991853038
-0.49543220673222094,-0.49543220673222094,0.999789730473686,0.0001836870565634675
-0.4936507172707934,-0.4936507172707934,1.0000939682491583,0.00017863977949115456
-0.4928207379532978,-0.4928207379532978,0.9999416750579708,0.00017836385958890352
-0.4922291103081079,-0.4922291103081079,1.000264308765821,0.00017515167068697695
-0.4908060658402974,-0.4908060658402974,1.0000498730423975,0.00017808234853873136
-0.4890804991533514,-0.4890804991533514,0.9999535926575327,0.0001779981727175555
-0.487425818585325,-0.487425818585325,1.0001610620614572,0.0001841851812572349
-0.48593699546181596,-0.48593699546181596,1.0000959181592557,0.00017832719209907275
-0.4848339814489009,-0.4848339814489009,1.0000109278333595,0.00017636427736266146
-0.4836966818897054,-0.4836966818897054,1.0000645292265529,0.00017678914313340395
-0.4818383885198273,-0.4818383885198273,1.000066761611791,0.00017657469401650784
-0.48064056591829285,-0.48064056591829285,0.9999754705569032,0.00017896288354008909
-0.4788189399667317,-0.4788189399667317,0.9997418662069848,0.00018548804311209775
-0.4778331190289464,-0.4778331190289464,0.9999103463766936,0.00017959809443542275
-0.47695556278922596,-0.47695556278922596,1.0000658204837787,0.0001747780368618323
-0.47518990354146806,-0.47518990354146806,1.0000018034208515,0.00017677088044225432
-0.4737002582347486,-0.4737002582347486,1.0000611298891822,0.00017811710276858852
-0.4719611355802044,-0.4719611355802044,0.9999371678334346,0.00018550017637612004
-0.4704259138787165,-0.4704259138787165,1.0000138724352716,0.00017901307438158097
-0.46968671705399173,-0.46968671705399173,0.9999972927673826,0.0001765729666819803
-0.4687740065623075,-0.4687740065623075,1.0002093129626162,0.00017590055004137534
-0.4674511129531311,-0.4674511129531311,1.000086041306569,0.00017720524056694594
-0.4662479852035176,-0.4662479852035176,1.0001898418376425,0.00017754893668878074
-0.46416736231185496,-0.46416736231185496,1.0001435935169982,0.00018662642383213878
-0.4624701811175328,-0.4624701811175328,0.9999772016569384,0.00018037775259637992
-0.46173305029515177,-0.46173305029515177,0.9998598077527747,0.00017747189681566986
-0.46068863590771797,-0.46068863590771797,1.0001004017970345,0.0001763116174704409
-0.45907733124913647,-0.45907733124913647,0.9999056817219124,0.0001779663089072107
-0.4582356492988765,-0.4582356492988765,1.000076710279173,0.00017915878962527725
-0.4561020031978842,-0.4561020031978842,0.9999160280846411,0.0001858418866058486
-0.4547041435871506,-0.4547041435871506,1.0000028536742747,0.00018012072377293506
-0.453821131165023,-0.453821131165023,1.000024315890509,0.00017482933974425195
-0.45257353540509937,-0.45257353540509937,1.0001601472080597,0.00017743910148413673
-0.45122527635248844,-0.45122527635248844,1.0003482307590605,0.00017812773905514942
-0.4503508891473757,-0.4503508891473757,0.9998486299072924,0.0001791200178143903
-0.4473877547454322,-0.4473877547454322,0.9999946644576369,0.00018064598605114018
-0.4465288964798674,-0.4465288964798674,0.999881867691468,0.00017725543584689552
-0.44566265160392504,-0.44566265160392504,1.0001795396419282,0.00017672710021950606
-0.44349529198661913,-0.44349529198661913,0.9999633940542585,0.00017680548822383895
-0.44258644726651253,-0.44258644726651253,0.9999929353293224,0.0001801230120165598
-0.44114263843512164,-0.44114263843512164,1.0003711412542147,0.00017885182778311107
-0.4397547693166416,-0.4397547693166416,0.9998212983318331,0.00018138071182148294
-0.4389275800669566,-0.4389275800669566,1.0000921974467363,0.0001763675401879773
-0.4376080822228687,-0.4376080822228687,0.9998087816327272,0.00017514876206434926
-0.4354792937723687,-0.4354792937723687,0.9999078272678392,0.0001772351456098787
-0.43480967843788676,-0.43480967843788676,1.0000907730731983,0.00018103894453700962
-0.4327173403464258,-0.4327173403464258,0.9998497119985496,0.00017886423180765273
-0.4318848705792334,-0.4318848705792334,1.0001855966249376,0.00017870832305483237
-0.4310494179051602,-0.4310494179051602,1.0001509198418603,0.00017639556643763877
-0.4291699982743012,-0.4291699982743012,0.9999403098740041,0.00017655435472600054
-0.4274216050747782,-0.4274216050747782,0.9999695627269756,0.00017776355296852917
-0.4259849387133727,-0.4259849387133727,1.0000297516632917,0.0001824597687010142
-0.4247519350115908,-0.4247519350115908,0.9998631638951844,0.0001765492670432196
-0.4238963174429955,-0.4238963174429955,1.0002455767214282,0.00018008491243039478
-0.4226594671257772,-0.4226594671257772,1.000210749991638,0.00017675193485854824
-0.4203712266054936,-0.4203712266054936,1.0000343943835674,0.0001772067167423866
-0.4191043764294591,-0.4191043764294591,1.0000111568512426,0.00017931849746574468
-0.41710933462018146,-0.41710933462018146,1.0001083403514215,0.0001801746336665393
-0.41599458050332033,-0.41599458050332033,0.9999272998985924,0.00017711388271118793
-0.41484731309174094,-0.41484731309174094,1.0000871194369396,0.00017518890114875217
-0.41255530149501285,-0.41255530149501285,0.9998510327759591,0.0001783493670438926
-0.4111708645039471,-0.4111708645039471,1.0000848393539183,0.00017943827488892382
-0.4094322619755985,-0.4094322619755985,0.999849029058199,0.00018028940401872595
-0.40844793306605426,-0.40844793306605426,0.9999259964940066,0.00017887225257317104
-0.4076302184694214,-0.4076302184694214,0.9999854395354741,0.00017505053700636461
-0.4055731866712449,-0.4055731866712449,0.9999720213536103,0.0001758787511312255
-0.40384197016246615,-0.40384197016246615,1.0002848318535296,0.00017910648572641902
-0.4018022619944531,-0.4018022619944531,0.999925329113309,0.00018353661169630297
-0.4009126421471592,-0.4009126421471592,1.0002033726735,0.000178654317579922
-0.4000693435256835,-0.4000693435256835,1.00022354548664,0.00017476460192206595
-0.39895477645331995,-0.39895477645331995,0.9999493658096249,0.00017681357770282474
-0.3972157224925468,-0.3972157224925468,1.0000359433773884,0.0001777073096470377
-0.3957696512341499,-0.3957696512341499,0.9998432030803714,0.00018050141842912784
-0.39394525859679563,-0.39394525859679563,1.0000071195735578,0.00018239361516650526
-0.39292330657772256,-0.39292330657772256,1.0000487911734868,0.0001783917495122936
-0.3919669203023659,-0.3919669203023659,1.000075063322474,0.00017514242395941237
-0.3902206682978431,-0.3902206682978431,0.9999917801689598,0.00017775293574010494
-0.388834078880609,-0.388834078880609,0.9999027743988386,0.00017707695134602146
-0.38720842756156343,-0.38720842756156343,1.0001144058862574,0.0001847716640726239
-0.38563006775220854,-0.38563006775220854,1.0000367442718587,0.00017986364372113374
-0.38464427467260975,-0.38464427467260975,0.9999353786282417,0.0001747718798321076
-0.38287727639544755,-0.38287727639544755,0.9999552386700159,0.00017675324395619764
-0.3814931442699162,-0.3814931442699162,1.0001631861003364,0.0001786528886866449
-0.3795617942552781,-0.3795617942552781,0.9999436435540275,0.0001853356177484861
-0.37795323557802474,-0.37795323557802474,1.0001330738589709,0.00018016294406743736
-0.37707712533010634,-0.37707712533010634,1.0000685002471108,0.00017632668187008216
-0.3758417429286055,-0.3758417429286055,1.0000705557026774,0.00017602432997456224
-0.37439425992779435,-0.37439425992779435,0.9999707007513756,0.00017721981525399368
-0.3731403306883294,-0.3731403306883294,1.0000456173706724,0.00017988558626301688
-0.3711275963956723,-0.3711275963956723,1.0000341705591902,0.00018797311396599837
-0.37013395299727564,-0.37013395299727564,0.9997248699328317,0.00018008996544146698
-0.3692210585315479,-0.3692210585315479,1.0000922641673462,0.00017484307003483548
-0.3677341252128826,-0.3677341252128826,1.0000350127490973,0.00017739791341711032
-0.3664080342918169,-0.3664080342918169,1.0001524042344156,0.000178114106044513
-0.36516688808915204,-0.36516688808915204,1.0004437940783064,0.00018647060766985622
-0.36308682897943073,-0.36308682897943073,1.0002405397651526,0.00018045651301918717
-0.3619987158075674,-0.3619987158075674,1.0001898184952789,0.00017646551033775434
-0.3611646363948239,-0.3611646363948239,1.000136095224607,0.0001786735788200197
-0.35939265086781236,-0.35939265086781236,0.99992992608828,0.00017687933468231594
-0.3583256964193424,-0.3583256964193424,0.9999857839339112,0.00017824792401675496
-0.3565252648550086,-0.3565252648550086,1.0002658247292036,0.00018059050991769726
-0.3548792024841532,-0.3548792024841532,0.9999934321663856,0.00017905761058906042
-0.3542167990555754,-0.3542167990555754,1.0000683347640777,0.0001773396758356956
-0.35329270967049525,-0.35329270967049525,0.9998039213557327,0.00017587121321777186
-0.35118229112704286,-0.35118229112704286,0.999928882639699,0.00017681599632880335
-0.35028404780023265,-0.35028404780023265,1.0001637064645506,0.00018018396472068972
-0.3483123279700521,-0.3483123279700521,0.9997848452071645,0.00017847935485704782
-0.3469434484548401,-0.3469434484548401,1.000279601368741,0.00017839325707364682
-0.34609868472325617,-0.34609868472325617,1.0000598122711555,0.00017661815115911308
-0.34402841882838403,-0.34402841882838403,0.9999211637623583,0.00017599754906975324
-0.34294843492680227,-0.34294843492680227,0.9997601039602813,0.00017934066072009176
-0.34170439789886586,-0.34170439789886586,1.0000636272559391,0.00018016854608446912
-0.34023308714095035,-0.34023308714095035,0.9999755560006187,0.00017900815731007028
-0.339209501305595,-0.339209501305595,1.0001273978903453,0.00017821224081289571
-0.3383769798645517,-0.3383769798645517,1.0000014794730465,0.000176720870717743
-0.3357693061203463,-0.3357693061203463,1.0000908898081438,0.00017722544387308787
-0.33479382330551744,-0.33479382330551744,1.000054928521736,0.00017924818698788887
-0.3327184022811707,-0.3327184022811707,1.0000007164212683,0.00018001047208142872
-0.33196222434053196,-0.33196222434053196,1.0001703819726475,0.00017990822272349186
-0.3308903701836243,-0.3308903701836243,0.9998311730154802,0.0001767776183481919
-0.32948207010340413,-0.32948207010340413,1.0001562153250458,0.0001777892721829528
-0.32758790560183115,-0.32758790560183115,1.000298088989286,0.000179243700479523
-0.3263242014858406,-0.3263242014858406,0.9999036650669574,0.00017838121336698174
-0.3246221440989757,-0.3246221440989757,1.0001891398722855,0.0001802470817794602
-0.32348015263560226,-0.32348015263560226,1.00016304408511,0.00017689788406844171
-0.3220364098175196,-0.3220364098175196,1.0002410473988284,0.00017523197715290888
-0.3200113580271136,-0.3200113580271136,0.9999376134234496,0.00017844724747749597
-0.31869838522688954,-0.31869838522688954,1.0000755640451708,0.00018072080678741004
-0.3170798936713254,-0.3170798936713254,1.0000229268431933,0.0001801677539964366
-0.31603401427855715,-0.31603401427855715,1.0000267342620055,0.00017850724618168057
-0.31531882688286716,-0.31531882688286716,0.9997876973315181,0.0001750843968021669
-0.31325989244505764,-0.31325989244505764,0.9997467467790612,0.00017583684494607528
-0.31153587624430656,-0.31153587624430656,0.999761929461083,0.00017905679857933203
-0.3098180109169334,-0.3098180109169334,0.9999204633549776,0.00018188331992827762
-0.30833937400311695,-0.30833937400311695,1.000016583030662,0.0001784077703783617
-0.30738465663453096,-0.30738465663453096,1.0000312111153806,0.00017513043600775425
-0.3062805827066768,-0.3062805827066768,0.9999296585917475,0.00017660136098355964
-0.3044657987746177,-0.3044657987746177,0.9998568765866824,0.00017806075754627662
-0.3025830766768195,-0.3025830766768195,1.0001548545557482,0.00018296824247836618
-0.3012344250659226,-0.3012344250659226,1.0000869916054125,0.00017998523774958095
-0.30020773874712176,-0.30020773874712176,1.0000765041321908,0.0001763358257580833
-0.29908432460506446,-0.29908432460506446,1.0000444725330708,0.00017805311141338517
-0.29767466974735723,-0.29767466974735723,0.9996287357414525,0.00017685153964716897
-0.29660466297063975,-0.29660466297063975,0.9999889065153169,0.00017782435836926564
-0.29527715127624105,-0.29527715127624105,1.0000834852624845,0.0001849404363603392
-0.29354201422829646,-0.29354201422829646,0.999838439830407,0.00017852649949555118
-0.2924857721547596,-0.2924857721547596,0.9999998725397832,0.00017631627432850299
-0.2910138597595505,-0.2910138597595505,1.0001506255993893,0.00017611223971960273
-0.28938820949115324,-0.28938820949115324,1.0000719447692856,0.00017846422823497915
-0.28777581654139794,-0.28777581654139794,1.000227405543746,0.00018609353918365844
-0.2858092156238854,-0.2858092156238854,0.9997639565947196,0.00018009646308152788
-0.28504928155452947,-0.28504928155452947,1.000011120932745,0.00017698121754291794
-0.28414864650694655,-0.28414864650694655,0.9997915442597195,0.0001763598047862035
-0.2826057677535573,-0.2826057677535573,1.0001851478208987,0.0001760775994985269
-0.28161652327980846,-0.28161652327980846,0.9997742506837085,0.00017681853219633564
-0.27955564919975584,-0.27955564919975584,1.0001781229055224,0.0001868493425970859
-0.2778161974187242,-0.2778161974187242,1.0003353698411914,0.00018013467169160908
-0.27690994086151477,-0.27690994086151477,1.0000630718860042,0.00017484443555577705
-0.27542258393077645,-0.27542258393077645,0.999918011841196,0.00017732435744928905
-0.27409717588161586,-0.27409717588161586,0.9999703901745998,0.00017813930440049196
-0.2728649390308419,-0.2728649390308419,0.9998311812488245,0.00018709127653210783
-0.27077668876736427,-0.27077668876736427,0.9998182987719091,0.0001804769818515235
-0.26959702974709215,-0.26959702974709215,0.9999469907419408,0.0001769724389265881
-0.26863109871337654,-0.26863109871337654,0.999900290118258,0.00017696439701211873
-0.2665122463047737,-0.2665122463047737,0.9998606636700476,0.0001768548687049233
-0.2650747056759428,-0.2650747056759428,1.0002843731595894,0.00017966479094811596
-0.26321007015067155,-0.26321007015067155,1.000016512911267,0.00018008612279914372
-0.2621803519577952,-0.2621803519577952,1.0001266059439664,0.00017829827996071826
-0.2614270156103885,-0.2614270156103885,0.9999348808822639,0.00017581742462939188
-0.2596641136042308,-0.2596641136042308,1.0000160244679699,0.000176633526276058
-0.25841975820076185,-0.25841975820076185,1.0002409201639453,0.00017747025940029334
-0.2576472721790196,-0.2576472721790196,0.9998182553739952,0.00018107691101495955
-0.2555880088591948,-0.2555880088591948,0.9999640259760018,0.0001787962424815639
-0.25444740419916345,-0.25444740419916345,1.0000049248836902,0.00017822192888165933
-0.25340957525768315,-0.25340957525768315,1.0000963030026084,0.00017504168602813227
-0.2510870049271034,-0.2510870049271034,1.0002243667581356,0.00017663333467463839
-0.2505128429766046,-0.2505128429766046,1.0000127096785356,0.00017958270180462596
-0.24886199511238374,-0.24886199511238374,1.000408965816233,0.0001777915171076819
-0.24757015735085589,-0.24757015735085589,0.9999532432390692,0.00018206239688200513
-0.24658070369332563,-0.24658070369332563,0.9999542601152995,0.00017647735103085952
-0.24513643849932124,-0.24513643849932124,1.000035935755304,0.00017609086997798142
-0.2429290405358188,-0.2429290405358188,0.9997763901407026,0.00017745911486260346
-0.24158160390215927,-0.24158160390215927,1.0001073017844728,0.00018173902194090904
-0.24012705820205155,-0.24012705820205155,0.9999800796004814,0.00017799625865324377
-0.23904391068208497,-0.23904391068208497,1.0000882170480936,0.00017666141536365753
-0.2376761251798598,-0.2376761251798598,0.9999801401392541,0.0001767948206253417
-0.23538333648757542,-0.23538333648757542,0.9998870643371032,0.00017989355827406652
-0.23423056145256851,-0.23423056145256851,1.0000981428314404,0.00017942984470092172
-0.23248480951879175,-0.23248480951879175,0.9999469568205029,0.00018014342355840795
-0.23136304258950985,-0.23136304258950985,0.9999880671423209,0.00017709741119210497
-0.2305177696136525,-0.2305177696136525,0.9999229364585982,0.00017509867606873593
-0.22814886691630817,-0.22814886691630817,0.9999738853364535,0.0001770124571598259
-0.2267982339137234,-0.2267982339137234,1.0001474876057945,0.00017943908046793162
-0.22476773886883167,-0.22476773886883167,0.9998506935834326,0.0001801238653214525
-0.223760793657857,-0.223760793657857,1.000074853907887,0.00017806596979896375
-0.22315958961553406,-0.22315958961553406,0.9999329255626275,0.00017471753669910108
-0.2214505652373191,-0.2214505652373191,1.0000618617377404,0.00017635431944235987
-0.21952593373425772,-0.21952593373425772,0.9995645036873968,0.0001782334454609943
-0.21761362119868863,-0.21761362119868863,1.000169219685168,0.00018261308247549842
-0.21621440612943843,-0.21621440612943843,0.9998719920017145,0.0001780387250504605
-0.2152912805118831,-0.2152912805118831,0.9998502591924876,0.0001754499898739531
-0.21398367375368252,-0.21398367375368252,1.0000558182746553,0.00017609349276202752
-0.21235829795186872,-0.21235829795186872,0.999878427211112,0.00017782708068721397
-0.21075650599377696,-0.21075650599377696,1.0000454438870303,0.00018396180057319897
-0.2089789070363622,-0.2089789070363622,0.9997643650292994,0.0001783548531971446
-0.20789462835818995,-0.20789462835818995,1.0000725858569166,0.00017637928354526686
-0.2064257701364113,-0.2064257701364113,1.0001459798762729,0.00017616085439663804
-0.20467804277141113,-0.20467804277141113,1.0002039487074097,0.00017747688849449307
-0.20335779341694432,-0.20335779341694432,1.0000328342075644,0.00017874428005674848
-0.20183236656303052,-0.20183236656303052,1.000263717490353,0.000186051100997002
-0.20086490357352887,-0.20086490357352887,0.9999766472020347,0.0001786660443407143
-0.20002174470573664,-0.20002174470573664,0.9999408739475285,0.00017475418357677902
-0.19825204769149424,-0.19825204769149424,1.0001049578386065,0.00017680895058587394
-0.19688684686552732,-0.19688684686552732,1.0000504818864697,0.00017866183127951727
-0.19531484648468905,-0.19531484648468905,1.0002577256780436,0.0001853485791647101
-0.19349459701334126,-0.19349459701334126,0.9998185199266724,0.0001800809554215646
-0.19267013703065458,-0.19267013703065458,0.9999933562103849,0.00017724482595851085
-0.19179551043198445,-0.19179551043198445,0.999717079986573,0.0001764082748964971
-0.190025811054511,-0.190025811054511,0.999945398686169,0.00017602741309103175
-0.1890892832336249,-0.1890892832336249,0.9996952082763976,0.00017803034347518382
-0.1871661154611502,-0.1871661154611502,0.9999875403039526,0.00018570742051633173
-0.185498455222114,-0.185498455222114,1.0001785811796462,0.0001801025444726257
-0.1845988353365101,-0.1845988353365101,1.0000565238218553,0.00017485177909999362
-0.18311105721222704,-0.18311105721222704,1.0001246734353326,0.00017728262595547486
-0.18178632476192433,-0.18178632476192433,1.0000084280835597,0.00017816281238092565
-0.18056300699245184,-0.18056300699245184,0.9994806829491921,0.00018777220466240956
-0.17874553799047135,-0.17874553799047135,0.9999376845343692,0.0001794668942003901
-0.17748875440447592,-0.17748875440447592,0.999879412754113,0.000178318209821096
-0.1764463168103248,-0.1764463168103248,1.0000192951860847,0.00017667077093454686
-0.1745052602083888,-0.1745052602083888,1.000281681019874,0.00017579908227463055
-0.1734313072724035,-0.1734313072724035,1.0001288310545502,0.00017932761989248428
-0.17099023689806928,-0.17099023689806928,1.0000628501089033,0.000178846813677187
-0.16986524763924535,-0.16986524763924535,0.9998474670224647,0.00017825797851429384
-0.16911402814439497,-0.16911402814439497,0.9998203720104945,0.00017581127232767143
-0.1672538288490614,-0.1672538288490614,1.0003804399277534,0.00017796328715434677
-0.16621351642243098,-0.16621351642243098,1.0000783701360805,0.00017698223688249564
-0.16556476776022463,-0.16556476776022463,0.999994666243385,0.00018089122607617417
-0.16348628487903624,-0.16348628487903624,0.9999703787971075,0.00017878646119408022
-0.16248057346092537,-0.16248057346092537,1.000070305460541,0.00017857905719247515
-0.16167703715036624,-0.16167703715036624,0.9996615108333058,0.0001766125232639812
