time,time,flux,flux_err
-0.4992826840746905,-0.4992826840746905,1.00008037203984,0.00012216595168226452
-0.4981147764495593,-0.4981147764495593,0.9999480493227592,0.00012215418505479958
-0.4973843898854587,-0.4973843898854587,0.9999148560557177,0.00012203889898849676
-0.49681741777822025,-0.49681741777822025,0.9999856780201769,0.00011145935443626692
-0.49577202211512483,-0.49577202211512483,0.999873492888941,0.00011136306463151097
-0.4951612676421064,-0.4951612676421064,0.999979129104642,0.00011152286712357358
-0.4942009687278187,-0.4942009687278187,0.999979763022307,0.00011160358946591055
-0.49387579344547705,-0.49387579344547705,0.9999978820084598,0.00011165026255679437
-0.4934339196239307,-0.4934339196239307,0.9999925082364435,0.00011160692963648341
-0.4927437744605413,-0.4927437744605413,1.000054799643031,0.0001114405515027248
-0.49194512926769673,-0.49194512926769673,0.9999051318752785,0.00011131644950943516
-0.49123068910339496,-0.49123068910339496,0.9999354207267389,0.00011160293522602495
-0.4904557199894043,-0.4904557199894043,1.0000713735954472,0.00011167417043872311
-0.48981238831329393,-0.48981238831329393,0.9999390950292361,0.0001113541954737822
-0.48925503436112194,-0.48925503436112194,1.0000654820443355,0.0001113718153404624
-0.4886337327770889,-0.4886337327770889,1.0000033281402902,0.00011158234001838845
-0.4876257022449863,-0.4876257022449863,1.0000229425986285,0.00011153425349187752
-0.4861441166809527,-0.4861441166809527,1.000176175869657,0.00011149000533987911
-0.48571779718331526,-0.48571779718331526,1.0000136553624297,0.00011181457956255017
-0.48496213442849695,-0.48496213442849695,0.999948142700887,0.00011150426839188667
-0.4842169940100575,-0.4842169940100575,0.9998923342939683,0.00011140678547495896
-0.4835131757514318,-0.4835131757514318,0.9997947390070945,0.00011140079532399604
-0.48238696293119576,-0.48238696293119576,1.0000333373154189,0.00011150121014148473
-0.48150685696455187,-0.48150685696455187,0.9998505562519091,0.00011166272554468073
-0.4812153816914361,-0.4812153816914361,0.9999942347358461,0.00011165914396649854
-0.4806777966943628,-0.4806777966943628,1.0000197733139597,0.0001115672274510746
-0.47990426443429895,-0.47990426443429895,0.9999516519449516,0.00011204521328187086
-0.4793382726893469,-0.4793382726893469,0.9999883927324351,0.00011153570677620194
-0.4784278754137631,-0.4784278754137631,1.0000002108884394,0.00011232536283757873
-0.47771426930339655,-0.47771426930339655,0.9997678290679358,0.00011169700900317348
-0.47693846876136375,-0.47693846876136375,1.0000126170904595,0.00011229912028563885
-0.476199104659463,-0.476199104659463,1.0000223828173225,0.00011164968565666336
-0.47554607124184256,-0.47554607124184256,1.0000588601457523,0.00011134174137667635
-0.47417843087314393,-0.47417843087314393,1.000065889972754,0.00011144011030936069
-0.4730127465780242,-0.4730127465780242,0.9999350004568427,0.0001121930417290999
-0.47194256644652344,-0.47194256644652344,0.9999961252803224,0.00011196378659249773
-0.4714136502625479,-0.4714136502625479,0.9999617838454599,0.00011148485988414457
-0.4706414308922831,-0.4706414308922831,1.0001922155855103,0.00011156643046663866
-0.4694784448212886,-0.4694784448212886,0.99999176770571,0.00011164133117609455
-0.4686949905233632,-0.4686949905233632,0.9999180798793057,0.00011247267303920846
-0.4680686327730655,-0.4680686327730655,0.9999381377041969,0.00011168035449984695
-0.4675834346708143,-0.4675834346708143,0.9999481753177477,0.00011134773213571761
-0.4669166355895868,-0.4669166355895868,0.999969906755716,0.000111411275489904
-0.4663521823240444,-0.4663521823240444,1.0000348021960268,0.00011174185621157096
-0.46558505790453636,-0.46558505790453636,1.0002221600571315,0.00011154348582531493
-0.4645539711927995,-0.4645539711927995,0.9998977765974851,0.00011183737454999382
-0.46347789256760735,-0.46347789256760735,1.000031301404461,0.0001116410662829743
-0.46298373401150456,-0.46298373401150456,1.0000025133952561,0.00011247519002621866
-0.4617725845899258,-0.4617725845899258,1.0001466660921217,0.00011164049411100603
-0.4603238958246948,-0.4603238958246948,0.9999471280131436,0.00011161589398339727
-0.4596871744186501,-0.4596871744186501,0.9998706688702661,0.00011134285806720868
-0.4591699676049757,-0.4591699676049757,1.0001531802762689,0.00011224130578303371
-0.458538213979773,-0.458538213979773,0.9998313400117436,0.00011142625052401882
-0.457678703613783,-0.457678703613783,0.9999017792032421,0.00011156199009508346
-0.4569444650318474,-0.4569444650318474,0.9998941313579074,0.00011136989215204503
-0.45575503132349693,-0.45575503132349693,1.0000403649819327,0.00011175096009020205
-0.4552416610284126,-0.4552416610284126,0.9999026702168393,0.00011154074762263141
-0.45456446558746394,-0.45456446558746394,1.0000648131331777,0.00011226111766946037
-0.45337855684920214,-0.45337855684920214,1.000052990688006,0.00011147747790287788
-0.45251180536070024,-0.45251180536070024,0.9998591626010793,0.00011155213481717696
-0.45182347860609295,-0.45182347860609295,0.9998961573925491,0.00011145174702743099
-0.45118463830003747,-0.45118463830003747,1.00005752520208,0.00011135941588679816
-0.45008617921776023,-0.45008617921776023,0.9998868281586821,0.00011166764258297888
-0.44934546108925133,-0.44934546108925133,0.9999567783096965,0.00011127215278948326
-0.4489064262685133,-0.4489064262685133,1.0000768874872132,0.00011146208644412627
-0.44819076254498214,-0.44819076254498214,0.9998903648142099,0.0001123198978439849
-0.4473380667608581,-0.4473380667608581,1.0001108075352252,0.0001116706549934707
-0.44705310688659666,-0.44705310688659666,1.000025732934171,0.00011152743484258107
-0.4458636057206604,-0.4458636057206604,1.0000581676145301,0.00011154934922828932
-0.44524854551200405,-0.44524854551200405,0.9999733167294436,0.00011162291669909516
-0.44430247652780963,-0.44430247652780963,1.0000145672735121,0.00011141073148667897
-0.44357837375282544,-0.44357837375282544,1.000033879902828,0.00011131845426813672
-0.4430478678914369,-0.4430478678914369,1.0002435644592578,0.00011225748286246035
-0.4419480268152256,-0.4419480268152256,0.9999069018800609,0.00011162317613793511
-0.4414104200557631,-0.4414104200557631,1.0000727753172698,0.00011127452909754128
-0.4409630390044185,-0.4409630390044185,0.9998630709084949,0.00011145505516525889
-0.44030367412487975,-0.44030367412487975,1.0001068976475214,0.0001115444656038412
-0.43900165598315655,-0.43900165598315655,1.0000311659518721,0.00011156925167066628
-0.4379111785063287,-0.4379111785063287,1.0001194457758362,0.00011141030632741495
-0.4374903111209278,-0.4374903111209278,0.999889937491688,0.00011171165346846265
-0.4370850827537652,-0.4370850827537652,1.0000177683224731,0.0001116125743995978
-0.43645469389884967,-0.43645469389884967,1.0000003010263112,0.00011144421482024468
-0.43578533199615777,-0.43578533199615777,0.999927978518854,0.00011142861091056454
-0.43539096184031223,-0.43539096184031223,1.0000522951030475,0.00011138463587723368
-0.43471014441820444,-0.43471014441820444,0.9998766044115275,0.00011165663133618261
-0.43418031235560195,-0.43418031235560195,1.0000403696864981,0.00011167009630256052
-0.4335656563220255,-0.4335656563220255,1.0000013172297886,0.00011155189548241958
-0.43312324051294127,-0.43312324051294127,1.0000964875140472,0.00011141773696773023
-0.43267040457722034,-0.43267040457722034,1.00007262362867,0.00011165535372466146
-0.43187341596058104,-0.43187341596058104,0.9999584164493112,0.00011173106116534532
-0.4307604260015069,-0.4307604260015069,1.000108122790457,0.00011171790344606864
-0.42944632448561604,-0.42944632448561604,0.9999910696977224,0.00011178939769643977
-0.42879587568822897,-0.42879587568822897,0.9999942361968351,0.00011157037034391121
-0.42783449927301265,-0.42783449927301265,1.0000040493743527,0.00011165246828258124
-0.42707557951289343,-0.42707557951289343,0.9997854652291471,0.00011132106740946855
-0.42606791475918726,-0.42606791475918726,0.9998993783450627,0.00011157310646957304
-0.4249814086477272,-0.4249814086477272,0.9999631817245141,0.0001115629404633131
-0.42408907253848155,-0.42408907253848155,0.9999452172800536,0.00011191380060821075
-0.42307578463296525,-0.42307578463296525,0.9999444123088554,0.00011153264289419926
-0.4225432134713628,-0.4225432134713628,0.9999308955625095,0.00011150187421552632
-0.42161091582092924,-0.42161091582092924,1.0000651777436562,0.00011179399872276404
-0.42057515831911585,-0.42057515831911585,0.9999621372745089,0.00011177249420429984
-0.4195464316049765,-0.4195464316049765,1.000081912168728,0.00011154856308056289
-0.41898709362430964,-0.41898709362430964,1.0001229657172437,0.0001114358818526245
-0.4179543044359889,-0.4179543044359889,0.9999873469110442,0.00011166685450314333
-0.4169671863841359,-0.4169671863841359,0.9999194386974996,0.00011153681552948997
-0.415772535992437,-0.415772535992437,0.9999397839705887,0.00011180737247382345
-0.41515153611690037,-0.41515153611690037,1.0000246603472953,0.00011153633080953493
-0.41482128264324275,-0.41482128264324275,1.000010632934389,0.00011182355967071459
-0.41307374644020456,-0.41307374644020456,0.9999592965709423,0.00011158412187229358
-0.41206622781028274,-0.41206622781028274,1.0000782698736894,0.00011187459860213689
-0.41155736233413337,-0.41155736233413337,0.9998722574619354,0.00011151699585417302
-0.4109652008977719,-0.4109652008977719,0.9998081528531595,0.00011150654736208458
-0.4103604415096925,-0.4103604415096925,1.0002813401648227,0.00011143715998606617
-0.409750504654221,-0.409750504654221,0.9999369681908348,0.00011151903091836758
-0.40892902741761644,-0.40892902741761644,1.0002019233234207,0.00011138583362034008
-0.40803938480166835,-0.40803938480166835,0.9998415168874137,0.00011189311472306043
-0.4070408099229098,-0.4070408099229098,0.9999725877342127,0.0001115425468702253
-0.40648309872703975,-0.40648309872703975,0.9999659619287424,0.000111536034245209
-0.40487959718739147,-0.40487959718739147,1.000059292750008,0.00011147538513821171
-0.4035311321524205,-0.4035311321524205,0.9999032025717302,0.00011154290532657872
-0.40310899366086234,-0.40310899366086234,0.9999754703992201,0.000111416264478378
-0.40265031435264975,-0.40265031435264975,1.0000878321272593,0.00011226989168468549
-0.40216568931136865,-0.40216568931136865,0.9998176929808466,0.0001120619356058192
-0.40122087729905614,-0.40122087729905614,0.9999556267744882,0.00011151348041719329
-0.4005635307075863,-0.4005635307075863,1.0000759279437479,0.0001114593422776632
-0.39982306067395257,-0.39982306067395257,1.0001247253346726,0.0001116314965728386
-0.398925736513047,-0.398925736513047,1.0002001444768698,0.00011175283111076358
-0.39853302973206156,-0.39853302973206156,1.000067342422401,0.0001116666384715258
-0.3975977400346892,-0.3975977400346892,1.0001100033235475,0.00011127408421905472
-0.39681724421534453,-0.39681724421534453,0.9999208902980093,0.0001115992506663314
-0.3958846078734496,-0.3958846078734496,1.0000065214450626,0.00011164720853761985
-0.39527114160591736,-0.39527114160591736,1.0000289910585471,0.00011137010171697818
-0.39462708255814505,-0.39462708255814505,0.9997356432875952,0.00011231651882288307
-0.3937212471959356,-0.3937212471959356,1.000010409048675,0.00011169199258742366
-0.3928294871657272,-0.3928294871657272,1.0000931586854818,0.000111252883281514
-0.3923928057971352,-0.3923928057971352,0.9998836055318913,0.0001115537696372186
-0.3915999089818797,-0.3915999089818797,1.0000183393955322,0.00011136446658928555
-0.3908325078380585,-0.3908325078380585,1.0000533358903612,0.00011146175918054152
-0.390116737432254,-0.390116737432254,1.0000251000570322,0.00011150709342546802
-0.3892624042360694,-0.3892624042360694,0.9998299695960402,0.00011161763155021097
-0.388975066661078,-0.388975066661078,1.0000658489720755,0.00011164344991878646
-0.38842127201714904,-0.38842127201714904,0.9999188774042477,0.00011143536166628615
-0.3875715456044418,-0.3875715456044418,0.9999749721338894,0.00011202530903038689
-0.3870740242564352,-0.3870740242564352,1.0001253054399335,0.00011132567157975536
-0.3863912111155514,-0.3863912111155514,0.99989308374773,0.00011158913894336168
-0.38546698271966306,-0.38546698271966306,0.9999716690491247,0.00011153309758008463
-0.3847285898482369,-0.3847285898482369,1.0000124602077562,0.00011135835409822458
-0.3841888336333795,-0.3841888336333795,1.00014537195223,0.00011155271577579159
-0.3831767198018497,-0.3831767198018497,1.000040784419841,0.00011154029885452268
-0.38165819492205627,-0.38165819492205627,1.0000784130965878,0.00011148651264930652
-0.3810581579040445,-0.3810581579040445,1.0000173019944572,0.00011180287954862314
-0.38060181549735717,-0.38060181549735717,1.0000718658930157,0.00011161451117456792
-0.37966734352594356,-0.37966734352594356,0.9999973484742318,0.0001114293810122561
-0.37897364354357704,-0.37897364354357704,0.999890757440926,0.00011141309624379063
-0.3780115606990876,-0.3780115606990876,1.000026295533797,0.00011151848700646284
-0.37678394375907376,-0.37678394375907376,1.0000338988023167,0.00011166726243366703
-0.37643498933248337,-0.37643498933248337,1.0002560631073039,0.00011159034250820022
-0.3760108949179994,-0.3760108949179994,1.0000715875256205,0.00011159653056100021
-0.3751039655006025,-0.3751039655006025,1.0001298183877783,0.00011195124677077647
-0.374641264660022,-0.374641264660022,0.999934934328752,0.00011157815049380547
-0.37378264132348704,-0.37378264132348704,0.9998580869807714,0.00011237355326263162
-0.3728760222671553,-0.3728760222671553,1.0000935206906394,0.0001117081885894905
-0.3720033463047002,-0.3720033463047002,0.9997914072597048,0.00011237381767223293
-0.3712090211811301,-0.3712090211811301,1.0002171269923388,0.00011157666206846634
-0.3705392186930112,-0.3705392186930112,0.999918961027686,0.00011140394791077596
-0.36957321532827336,-0.36957321532827336,1.00001516465319,0.00011135301503078956
-0.36842593868059337,-0.36842593868059337,0.9998899933157792,0.00011136220835574807
-0.36720496992566043,-0.36720496992566043,1.000030233771978,0.00011287075577542938
-0.3668047682920587,-0.3668047682920587,1.0001464492089034,0.00011152004500714218
-0.36641328361583875,-0.36641328361583875,0.9998981885156442,0.00011156947990484686
-0.36528129915823226,-0.36528129915823226,0.9998279755665036,0.00011162852387838129
-0.3644633829499071,-0.3644633829499071,0.9999880379585708,0.00011155117704243634
-0.3637353260681266,-0.3637353260681266,0.9999408907134072,0.00011232770037385659
-0.3630336476628145,-0.3630336476628145,0.9999383573508057,0.00011144284655027202
-0.36242584606879974,-0.36242584606879974,1.000109805661538,0.00011135218851958685
-0.3617660793664982,-0.3617660793664982,1.000048110970327,0.00011176028601614504
-0.3610652652569115,-0.3610652652569115,1.0000847423001578,0.0001115781742588338
-0.36033038914465576,-0.36033038914465576,1.0000305454175513,0.00011145880136090335
-0.35880716602187024,-0.35880716602187024,0.9998869641874272,0.00011192291677298036
-0.3584526356753486,-0.3584526356753486,1.0001365046706225,0.00011174552420313855
-0.3572056256212818,-0.3572056256212818,0.9999677566700227,0.00011166333218601057
-0.3559719298435084,-0.3559719298435084,1.000054814009957,0.00011156925902618784
-0.35505591302353423,-0.35505591302353423,1.0001234942746993,0.00011143289805349127
-0.35455359247498563,-0.35455359247498563,0.9999769972265131,0.0001121576065714134
-0.3538772117142798,-0.3538772117142798,1.0000373341543394,0.00011160071232914443
-0.35283962198154767,-0.35283962198154767,0.9998818509381996,0.00011156085577868771
-0.3518825163439033,-0.3518825163439033,0.9999758908287063,0.00011135468520404913
-0.350696663101553,-0.350696663101553,0.9999142143132271,0.00011183889003699743
-0.34992759229426157,-0.34992759229426157,1.000068670099532,0.00011153330405679833
-0.34853891197417397,-0.34853891197417397,0.9998569226734573,0.00011147002851504307
-0.34750933476898355,-0.34750933476898355,0.999902978759849,0.00011152414254189753
-0.3469254209383507,-0.3469254209383507,1.0000417973379216,0.00011144834772649028
-0.34653687149620965,-0.34653687149620965,0.9997298573896538,0.00011127344572086425
-0.3456365545993322,-0.3456365545993322,1.000160259366302,0.00011154639578726854
-0.34509128062782113,-0.34509128062782113,0.9999870547464438,0.0001124476882383849
-0.3445049208778073,-0.3445049208778073,1.0001148844422638,0.00011127525886570026
-0.344070286306669,-0.344070286306669,1.0000634471853596,0.00011138823252698269
-0.3434645547356922,-0.3434645547356922,1.0000518267041498,0.00011177506351338969
-0.34252242249349363,-0.34252242249349363,1.0000446338470268,0.00011155288520711855
-0.3422883270213788,-0.3422883270213788,1.0000351126927796,0.00011165916739109816
-0.3416007835432538,-0.3416007835432538,1.0001655152036697,0.00011226307411414923
-0.34086053650971737,-0.34086053650971737,1.0000250957085808,0.00011165319738460418
-0.34025714757299286,-0.34025714757299286,0.9999694739111487,0.00011153462683314037
-0.33927121495871687,-0.33927121495871687,0.9999287618382997,0.00011141359121560571
-0.33859898316441106,-0.33859898316441106,0.9999981726400042,0.00011132198227040435
-0.3377889702525863,-0.3377889702525863,0.9998241919321913,0.00011242452964018045
-0.33678375760646306,-0.33678375760646306,0.999928560107849,0.00011145697136886723
-0.336265086192725,-0.336265086192725,1.0000867113423484,0.00011127958546415352
-0.33570870514886336,-0.33570870514886336,1.0000765412795032,0.0001115812631486615
-0.33476430259033807,-0.33476430259033807,1.0002036893121233,0.00011213176192168197
-0.3339385485058301,-0.3339385485058301,1.000013851782104,0.000111556958128098
-0.33291361498704647,-0.33291361498704647,0.999906897044059,0.00011149783233841192
-0.3324054508622794,-0.3324054508622794,1.0000141950539183,0.0001117024918045005
-0.33173620697052686,-0.33173620697052686,0.9999631582752773,0.00011144301700422531
-0.33102098109884537,-0.33102098109884537,1.0002200301076654,0.00011139950995462162
-0.33055200154558406,-0.33055200154558406,1.000037962128414,0.00011138968658552892
-0.3298776892392198,-0.3298776892392198,1.0001348873072626,0.00011160521412431196
-0.32930072816379835,-0.32930072816379835,1.000098362935773,0.00011168566604864
-0.32862416538773687,-0.32862416538773687,1.0001598986810099,0.00011151331608554062
-0.3281972622527974,-0.3281972622527974,0.9999846914328255,0.00011135638452053809
-0.32775367793947224,-0.32775367793947224,1.0000323341976167,0.00011173476201764378
-0.32681711161712884,-0.32681711161712884,1.0000878768040233,0.0001117362647368887
-0.3253477473612293,-0.3253477473612293,1.000139703816901,0.00011171985265564927
-0.32436263443451024,-0.32436263443451024,0.9999638199403214,0.00011180969743300497
-0.3234461653919425,-0.3234461653919425,1.0002561634833997,0.00011164313465035433
-0.32252563582078436,-0.32252563582078436,1.000200722902913,0.0001114232768799221
-0.32170253412259625,-0.32170253412259625,1.000274704421179,0.00011151541943034375
-0.3204663045777124,-0.3204663045777124,0.9996669627668675,0.00011169510562498092
-0.3200311890454032,-0.3200311890454032,1.0000601725546239,0.00011137539825506842
-0.31959064723268965,-0.31959064723268965,0.9999725659215624,0.00011152513878698101
-0.31852272125543096,-0.31852272125543096,1.0000350460000305,0.00011197865518744696
-0.3178073769406183,-0.3178073769406183,0.9999176653742132,0.00011167606298350587
-0.3165579199761851,-0.3165579199761851,0.999863644431683,0.00011171342396095001
-0.31519271541401395,-0.31519271541401395,1.000015271386154,0.00011160756095236945
-0.3144141322183714,-0.3144141322183714,0.9999109722398323,0.00011134922824570673
-0.3137899895620649,-0.3137899895620649,0.9999458375397765,0.00011145293877103803
-0.31270693756014223,-0.31270693756014223,1.0000541516797536,0.00011155293342179237
-0.3116211428634415,-0.3116211428634415,1.0000698269138601,0.0001114985438482445
-0.31049107895305494,-0.31049107895305494,0.9998449126819258,0.00011191915197316925
-0.31015328485518695,-0.31015328485518695,0.9999062116027504,0.00011165892134187647
-0.30912650193713487,-0.30912650193713487,1.0001619066677343,0.00011171993231830683
