time,time,flux,flux_err
-0.4996103744282057,-0.4996103744282057,1.0001242533020733,0.0002028438327163336
-0.4983402717922824,-0.4983402717922824,0.9997907430348603,0.000198991261347046
-0.49549145080527524,-0.49549145080527524,0.999978821273572,0.00019921668245117646
-0.49398989447157265,-0.49398989447157265,0.9999705154009207,0.00019884713298654464
-0.49292535786080405,-0.49292535786080405,0.9998938065504266,0.00018370493623396153
-0.49124322742791265,-0.49124322742791265,0.9998124467529161,0.00018583456788306187
-0.4881277166423388,-0.4881277166423388,1.0000427117660564,0.00018451482073513701
-0.4869759311695816,-0.4869759311695816,0.9997186027664364,0.00018544277848819244
-0.4859735440193617,-0.4859735440193617,0.9999573568934462,0.00018159573562010156
-0.48428298690123484,-0.48428298690123484,1.0001458178692826,0.00018183832567636137
-0.48245742293220245,-0.48245742293220245,0.9999439666099639,0.00018169848404156615
-0.48129499977148954,-0.48129499977148954,1.0001239428943554,0.00018156427194850904
-0.4803311770738219,-0.4803311770738219,1.0003811155015356,0.00018354070685118503
-0.4786498333516647,-0.4786498333516647,1.0001581758755147,0.00018533872401513927
-0.47555130147738967,-0.47555130147738967,1.0000916961277722,0.00018429884947115127
-0.47440005364842364,-0.47440005364842364,1.0002345889416695,0.00018513668100958412
-0.47326537589979123,-0.47326537589979123,0.9997302944467593,0.00018163710524371864
-0.4716266805604391,-0.4716266805604391,0.9995716060990908,0.00018173494109413157
-0.4698675313127751,-0.4698675313127751,1.0000343616769514,0.00018164239385976488
-0.46875048258443713,-0.46875048258443713,0.9997803637473861,0.0001817541278384869
-0.4677370548299223,-0.4677370548299223,1.0004065040857786,0.00018322863243116642
-0.4662745914807601,-0.4662745914807601,0.9997095757162298,0.00018172175669575416
-0.4633079246596026,-0.4633079246596026,0.9997152013674631,0.00018348139088692075
-0.46206728522010965,-0.46206728522010965,1.000066785018637,0.00018229202170606053
-0.46108863009430934,-0.46108863009430934,0.9998124158232768,0.0001847773922340738
-0.45917255378954,-0.45917255378954,0.9999824557888648,0.0001818189888144252
-0.4572777184526785,-0.4572777184526785,0.9998676078452868,0.00018158761638726678
-0.4560122451694042,-0.4560122451694042,1.0000706129503971,0.00018153042321835536
-0.4549264726585534,-0.4549264726585534,0.9998706257469505,0.00018338108692752677
-0.45368683849883384,-0.45368683849883384,0.9999367749466958,0.00018173071137389199
-0.4508745274571993,-0.4508745274571993,1.0000926983636051,0.00018320845818032248
-0.4497186164502637,-0.4497186164502637,0.9998013224530065,0.0001822667218394002
-0.4487139557124465,-0.4487139557124465,0.9997696945860259,0.00018455165855306893
-0.44700794142045197,-0.44700794142045197,1.0000352390022784,0.00018152696032898492
-0.44528297179567744,-0.44528297179567744,1.0000678631462503,0.0001817766195744263
-0.4440109531125927,-0.4440109531125927,1.0001370392738376,0.00018486008275279693
-0.4428006936781458,-0.4428006936781458,0.9999664384255837,0.0001823379534969102
-0.44172790188604266,-0.44172790188604266,1.0000470298072839,0.00018230441152731694
-0.43931469500457754,-0.43931469500457754,0.9998888262290577,0.00018176938489186247
-0.43762757281438097,-0.43762757281438097,0.9997348028911919,0.00018352882615036342
-0.43670917742638266,-0.43670917742638266,0.9998942316370778,0.00018162485532612814
-0.43489164562706717,-0.43489164562706717,0.9999048367365508,0.00018182822785667657
-0.4328980103397043,-0.4328980103397043,0.9999013788785165,0.00018177197168896766
-0.4316399861498212,-0.4316399861498212,1.000253524658484,0.00018446035288106997
-0.43051043705127084,-0.43051043705127084,0.9997042839809644,0.00018234709055341475
-0.429312159455003,-0.429312159455003,0.9998282205426744,0.0001822583651888539
-0.4261076930168201,-0.4261076930168201,0.9998357667160999,0.0001828899608444785
-0.4249812168447534,-0.4249812168447534,0.9999818096518085,0.00018205166119500198
-0.42413179757568287,-0.42413179757568287,1.0000344201807754,0.00018164615608426177
-0.4223146399664984,-0.4223146399664984,0.9999495839910917,0.00018183360286869995
-0.420307741509896,-0.420307741509896,0.9999287179717126,0.00018170752800688523
-0.4190454335817776,-0.4190454335817776,1.0001107643948681,0.0001839955328924524
-0.4179176519457542,-0.4179176519457542,0.9999706767901742,0.00018227812533244174
-0.4158007048150466,-0.4158007048150466,0.9998135093887613,0.00018216786110440285
-0.4131745381811925,-0.4131745381811925,0.9998086024839624,0.00018531964007300594
-0.4124031460582046,-0.4124031460582046,0.9999381677923621,0.0001820293221191587
-0.4115545879329147,-0.4115545879329147,0.9998980961682691,0.00018161462829411538
-0.4101363346890139,-0.4101363346890139,0.9999568181757036,0.0001817958934975189
-0.40780045104111196,-0.40780045104111196,0.9996470288743176,0.000181699447152054
-0.40667442507983653,-0.40667442507983653,1.0001488596792345,0.00018156190285050893
-0.40560340843585435,-0.40560340843585435,0.9998130772841647,0.00018436181041249792
-0.4038991335022729,-0.4038991335022729,0.9999101510874819,0.00018204904383907377
-0.4007891612316598,-0.4007891612316598,0.9998976809435417,0.00018399662714363218
-0.3999694408717914,-0.3999694408717914,0.9999003754795263,0.00018259447291257928
-0.39914799196776585,-0.39914799196776585,1.000057437680965,0.0001869983352029271
-0.39800715138553644,-0.39800715138553644,0.9999020675108202,0.00018162700243321098
-0.39550737559766275,-0.39550737559766275,0.9999145391918104,0.0001817659788414752
-0.39458258234590177,-0.39458258234590177,0.9998733155117969,0.0001815579753531257
-0.39363644466211556,-0.39363644466211556,1.0001650315305919,0.0001833829106234304
-0.3924140678223921,-0.3924140678223921,1.000108269468613,0.0001822104757450017
-0.3906058403372299,-0.3906058403372299,1.0001528400696538,0.00018677853369689708
-0.38801533696459956,-0.38801533696459956,1.0000362396006646,0.00018464296203090716
-0.38722181155244473,-0.38722181155244473,1.0000397487382582,0.00018162953404750592
-0.3861237131837697,-0.3861237131837697,1.0000298795485782,0.0001858019669178308
-0.3841990467008145,-0.3841990467008145,0.9998374816463554,0.0001819122472349023
-0.3823194619981223,-0.3823194619981223,1.0000660939039243,0.00018152980071664174
-0.3811864479073847,-0.3811864479073847,0.9998536301906394,0.0001831445223581219
-0.3801397649898718,-0.3801397649898718,0.9998838924613749,0.0001820808099219817
-0.3780553195370885,-0.3780553195370885,0.9999465861484864,0.00018581714541008495
-0.37537682196270905,-0.37537682196270905,1.0002230656316793,0.00018451173854176878
-0.3742282702034572,-0.3742282702034572,1.0000708496924433,0.00018542030331637787
-0.3732954616971256,-0.3732954616971256,0.9998152850732565,0.00018159040749069454
-0.3712664220802253,-0.3712664220802253,0.9999166985528947,0.00018184333107740085
-0.3697255941478943,-0.3697255941478943,0.9997770554043063,0.00018159214291308925
-0.36859761005980546,-0.36859761005980546,0.9998013191604309,0.0001829444603908648
-0.3675472952359996,-0.3675472952359996,0.9998615837694335,0.00018207254364937064
-0.3654654164449312,-0.3654654164449312,1.000263961315693,0.00018538463627921494
-0.36280164434938345,-0.36280164434938345,1.0000042415388775,0.0001842828488515563
-0.36165317033664907,-0.36165317033664907,0.9998070597919855,0.00018506604543404618
-0.36070966457918985,-0.36070966457918985,0.9997444821708598,0.00018470734794213826
-0.359116816437745,-0.359116816437745,1.000070829918431,0.0001817842936708945
-0.35735754888810334,-0.35735754888810334,0.9998101771477407,0.00018162610435203274
-0.3562404663563939,-0.3562404663563939,0.9995557268191426,0.00018174372924674692
-0.35522660139176876,-0.35522660139176876,0.9998902024797947,0.0001831687266948143
-0.35376483748768806,-0.35376483748768806,1.0002615129727754,0.000181757476003293
-0.3507995683066838,-0.3507995683066838,0.9999643219466389,0.00018340945100217077
-0.3495588806370506,-0.3495588806370506,0.9999324355333974,0.00018231249071687343
-0.3485794035994331,-0.3485794035994331,0.9998558720151791,0.00018475461497487268
-0.3466631733957911,-0.3466631733957911,0.9998494747734533,0.00018179215247964088
-0.3447677426695009,-0.3447677426695009,0.9997617611120612,0.00018161353944258696
-0.343479389231652,-0.343479389231652,1.0001403645541964,0.0001824837359102942
-0.3421460059515084,-0.3421460059515084,1.0000820967523547,0.00018239490826814532
-0.3406437439909496,-0.3406437439909496,0.9998800873486076,0.00018166959050878615
-0.33810034122725485,-0.33810034122725485,0.9998994455066272,0.00018317647080387962
-0.3369833178556291,-0.3369833178556291,1.0001358992944898,0.00018225118227508448
-0.3359964596122154,-0.3359964596122154,1.000052816226025,0.00018448490114726914
-0.333745738111611,-0.333745738111611,1.000037145946957,0.0001817734553414099
-0.3321780200349167,-0.3321780200349167,0.9999912192770001,0.00018164663809080243
-0.3310647692866041,-0.3310647692866041,0.9998820788989553,0.00018479129976097845
-0.3298212520981906,-0.3298212520981906,1.0000927198614655,0.00018314782287851805
-0.32858944167237497,-0.32858944167237497,1.0001067200097662,0.00018170740275999156
-0.32588207012377096,-0.32588207012377096,0.9999336719940629,0.000182974701798642
-0.32505070289189464,-0.32505070289189464,0.9997886040856763,0.00018214681530706286
-0.32420057041381367,-0.32420057041381367,0.9999310513356454,0.00018166301037954134
-0.3223830787472252,-0.3223830787472252,1.000091264108732,0.00018184389238118276
-0.32038797751811215,-0.32038797751811215,0.999819862817916,0.00018174352309299427
-0.3191294780946919,-0.3191294780946919,1.0000999082462727,0.00018442338814917905
-0.31800012273306494,-0.31800012273306494,0.9998976199744731,0.00018235555361629434
-0.3168023098056437,-0.3168023098056437,1.000190936978795,0.00018225862161394942
-0.31359928083256816,-0.31359928083256816,1.0001718245668036,0.0001829110092428303
-0.31247253644833106,-0.31247253644833106,0.9998807286966965,0.00018201868955656955
-0.3116232104795927,-0.3116232104795927,0.9997610177310973,0.00018159639902774996
-0.3098060984404583,-0.3098060984404583,0.9999330414248995,0.0001817990671430978
-0.307797716838104,-0.307797716838104,0.9996771804949777,0.00018170131714950594
-0.3065349312637409,-0.3065349312637409,0.9998859487570506,0.00018400686820528855
-0.30540734577953116,-0.30540734577953116,0.999870738197496,0.0001822846793120904
-0.3032911360562139,-0.3032911360562139,0.9999325073552177,0.00018212564628851234
-0.3006656845645921,-0.3006656845645921,0.9998035068074161,0.00018532741473271654
-0.29989447893676696,-0.29989447893676696,1.0000308090403196,0.0001820937532706554
-0.299046019843081,-0.299046019843081,1.000001599009854,0.0001816205457852884
-0.2972673716547433,-0.2972673716547433,0.9998478385280926,0.00018185978251780303
-0.2951170161017217,-0.2951170161017217,0.9998314789328158,0.00018154234061951638
-0.29394044236760236,-0.29394044236760236,1.0000954319727986,0.00018355989233822498
-0.29281464758096265,-0.29281464758096265,1.0000580524079234,0.0001822582876609677
-0.2907050667636213,-0.2907050667636213,0.9995994329087313,0.00018210968968700153
-0.2880860539306013,-0.2880860539306013,1.0000262252221614,0.0001848812064565144
-0.2872886429358914,-0.2872886429358914,0.9999841850343607,0.00018165435541249097
-0.2861926930316258,-0.2861926930316258,1.000119921054795,0.00018643758914989317
-0.2841270251039532,-0.2841270251039532,1.0000098513382731,0.0001817723023187466
-0.282316917758726,-0.282316917758726,1.0000554947467788,0.00018158324288596015
-0.2812654744295287,-0.2812654744295287,0.9999465389574101,0.00018331684544784324
-0.28022202634383575,-0.28022202634383575,0.9999878661320402,0.00018225786100782974
-0.27871577116602564,-0.27871577116602564,0.9997881157140036,0.00018666096940994558
-0.27568720092531296,-0.27568720092531296,0.999858395088933,0.00018471022039338286
-0.2747134658151481,-0.2747134658151481,0.9998470617617279,0.0001816461279748321
-0.27369089792700835,-0.27369089792700835,1.0001705650430504,0.00018570917485739025
-0.27224974670753,-0.27224974670753,1.000118355856457,0.00018190509993786495
-0.27002739316158114,-0.27002739316158114,1.000060287525919,0.00018164404653143673
-0.2688638232699304,-0.2688638232699304,1.0001328333949058,0.00018152197216383378
-0.2679044241376687,-0.2679044241376687,0.9998238261629124,0.00018367807619352818
-0.2662224690349831,-0.2662224690349831,0.9998202454524254,0.000185732264743383
-0.2631107293287641,-0.2631107293287641,1.0000686332430901,0.0001844555551824999
-0.26203291292040376,-0.26203291292040376,1.0000578302350003,0.0001816252846999108
-0.2610377115299343,-0.2610377115299343,0.9999515841197159,0.00018534428064916124
-0.2592634671644191,-0.2592634671644191,0.9999739992008287,0.00018179663344693547
-0.2574374414900376,-0.2574374414900376,0.9998661012213439,0.00018163453316578785
-0.2564109389059013,-0.2564109389059013,0.9999065154703816,0.00018158588458681073
-0.25550152536743553,-0.25550152536743553,0.9998319159597205,0.00018288729415825771
-0.25426244364934975,-0.25426244364934975,0.9998968583678144,0.00018570282669787394
-0.25086645383926226,-0.25086645383926226,1.0000009124694798,0.00018356748888526114
-0.24962616799675744,-0.24962616799675744,1.0000656401017698,0.0001823401732986458
-0.2484605323486903,-0.2484605323486903,1.0001193088192073,0.0001850361304114294
-0.24698429704149022,-0.24698429704149022,1.0002015008965905,0.0001816539142764956
-0.245161863679823,-0.245161863679823,1.0001847657023268,0.00018178387228133937
-0.24394638433732324,-0.24394638433732324,0.9998228437986023,0.00018169885408953135
-0.2429078823319287,-0.2429078823319287,0.9997684760758556,0.00018266566897472662
-0.24174805476286565,-0.24174805476286565,0.9998920571677387,0.000182161560381626
-0.23869279824066325,-0.23869279824066325,0.9998989203658175,0.00018337424718929197
-0.23727849325441638,-0.23727849325441638,0.9999048134497709,0.00018227149472109088
-0.2362747603780008,-0.2362747603780008,1.0001534168067672,0.00018477602704273168
-0.2350536244288378,-0.2350536244288378,1.0000318057152402,0.00019141818381958843
-0.23285377641732338,-0.23285377641732338,1.000197255769415,0.0001818211662495393
-0.2314631664514309,-0.2314631664514309,1.0002033938224257,0.0001815661325018233
-0.23013518738298444,-0.23013518738298444,1.0000151134469228,0.0001828511794601002
-0.2291179060121067,-0.2291179060121067,0.9999548784710163,0.00018211990435394526
-0.2262424258151441,-0.2262424258151441,1.0000276694862769,0.00018311290999827747
-0.2249366868454672,-0.2249366868454672,1.0000011816428498,0.00018226253389170438
-0.22385176140378463,-0.22385176140378463,1.0000782066204346,0.00018448581336895218
-0.22222230973420665,-0.22222230973420665,1.0000067240342205,0.00018156766989909935
-0.22026275044117938,-0.22026275044117938,0.9999724259270508,0.0001817518959459868
-0.21899087901765596,-0.21899087901765596,1.0001286687136377,0.00018475142603602157
-0.2177791818714468,-0.2177791818714468,0.9997551330764602,0.0001823905857217771
-0.21670821768129828,-0.21670821768129828,0.9998210478588551,0.0001822869661295323
-0.21429700648150174,-0.21429700648150174,0.9999751451369093,0.00018177575091868982
-0.2126864303376351,-0.2126864303376351,1.0000013300909845,0.00018293642579478422
-0.21189952944623655,-0.21189952944623655,0.9999736856307286,0.00018214685506411798
-0.21038429896507296,-0.21038429896507296,1.0001997050500424,0.0001818245654796531
-0.20814668115053792,-0.20814668115053792,1.0001283230994147,0.00018173948035140719
-0.20684052211800008,-0.20684052211800008,0.9999008333925528,0.00018156555297013652
-0.20577115737032728,-0.20577115737032728,1.0000884548516162,0.00018517567045759367
-0.2044567988232302,-0.2044567988232302,1.0000021371861991,0.00018227821380229026
-0.20180939964266145,-0.20180939964266145,1.0000605573498678,0.00018162960055618577
-0.200108221040864,-0.200108221040864,0.9999587913097228,0.000182818216952845
-0.1993242789976648,-0.1993242789976648,1.0000597989718345,0.0001821611119607581
-0.19780334182505613,-0.19780334182505613,0.9999343029003477,0.000181793643166751
-0.19561408189838403,-0.19561408189838403,0.9999888105757634,0.00018161415512307782
-0.19448886666068574,-0.19448886666068574,1.000232964480626,0.00018165317373647268
-0.1933663299831096,-0.1933663299831096,1.0002522747523552,0.00018393828827068418
-0.19212152514082845,-0.19212152514082845,1.0001214964002099,0.0001828557961052235
-0.1886598855468037,-0.1886598855468037,0.9998723241618922,0.00018419589423750873
-0.1876897964037198,-0.1876897964037198,0.9998854699793439,0.0001826863321819355
-0.18690634473023238,-0.18690634473023238,1.0002428491753874,0.00018208531209245286
-0.18588627698627533,-0.18588627698627533,0.9999327790139836,0.00018164102005628982
-0.18306462142354576,-0.18306462142354576,0.9999144546995289,0.00018176456504340473
-0.1818993929802673,-0.1818993929802673,1.000209445364526,0.00018159385095585428
-0.18077242864092113,-0.18077242864092113,1.0000969152318713,0.00018353685637053008
-0.17952700908936095,-0.17952700908936095,0.9999997973928234,0.0001827439791711326
-0.17608430959808175,-0.17608430959808175,0.9998877437281035,0.00018397592169463396
-0.17511153700834256,-0.17511153700834256,0.9998756647010086,0.00018254995889913683
-0.17413229145677178,-0.17413229145677178,1.0002664141996516,0.00018639488881241277
-0.1727855447890761,-0.1727855447890761,1.0000175650771672,0.00018177436673441014
-0.17019166856480297,-0.17019166856480297,1.0001393819151212,0.00018165770976008322
-0.16915649657676113,-0.16915649657676113,1.0000835848589116,0.0001815275675630429
-0.1681785924709402,-0.1681785924709402,0.9997949818449294,0.00018325286193007778
-0.16694831666973187,-0.16694831666973187,1.0001215543368067,0.00018694586394443763
-0.16350881723992644,-0.16350881723992644,0.9997972726295192,0.00018385695784350024
-0.1623742250551004,-0.1623742250551004,1.0002923065224945,0.00018244954407720736
-0.16137299088804866,-0.16137299088804866,0.9998457988735019,0.0001856912076843358
-0.16022529415786266,-0.16022529415786266,1.0000014893131166,0.0001816199799078311
-0.15811712359354715,-0.15811712359354715,0.9998101752385408,0.00018184444782149925
-0.15700694834449677,-0.15700694834449677,1.0000311903072379,0.00018183999578019568
-0.15602796606181074,-0.15602796606181074,0.9998314273448722,0.00018312695369022657
-0.15479618215831578,-0.15479618215831578,0.9999528625978662,0.00018206805873517267
-0.15236831874935888,-0.15236831874935888,1.0000976125244363,0.00018778936043604443
-0.15014876914356137,-0.15014876914356137,0.9999526596316584,0.00018240564956457182
-0.14897618737450102,-0.14897618737450102,1.000089912388352,0.0001852944406798929
-0.14764290995080956,-0.14764290995080956,1.000135193267057,0.00018162458144741443
-0.14552590086241252,-0.14552590086241252,0.9997533005325616,0.00018190323734176408
-0.1441912920330651,-0.1441912920330651,1.000002806262144,0.00018166712421473615
-0.14321270505242864,-0.14321270505242864,0.9998380309403607,0.0001828851843578069
-0.1419492292770883,-0.1419492292770883,0.99985073006935,0.00018216552264935595
-0.13954239625745685,-0.13954239625745685,1.0002692980034236,0.00018696130661925698
-0.13757525096880271,-0.13757525096880271,1.000033077740202,0.00018230811172105976
-0.13639838957315079,-0.13639838957315079,1.0001786792951297,0.0001850219880868788
-0.13506074060423998,-0.13506074060423998,1.0000635514076053,0.00018160018497907052
-0.13293474573001732,-0.13293474573001732,0.999930239263253,0.00018181936703416432
-0.13164994474645936,-0.13164994474645936,1.0003408215005412,0.00018185332745244956
-0.13061979441263247,-0.13061979441263247,1.0000941813531887,0.00018262821752483205
-0.12954886150619133,-0.12954886150619133,1.0000992400424138,0.00018242905835998791
-0.12755327224440408,-0.12755327224440408,0.9999896311264846,0.00018172508628313104
-0.12544953388642172,-0.12544953388642172,1.0000891796647733,0.00018394470674218811
-0.12433850867746514,-0.12433850867746514,1.00052009028128,0.00018165770908767367
