time,time,flux,flux_err
-0.4996068180820051,-0.4996068180820051,0.999846592815938,0.0005844113180800582
-0.4985484249627916,-0.4985484249627916,0.9996605337573555,0.00058139977220811
-0.4977868077279709,-0.4977868077279709,0.999174866276873,0.0005320751765693344
-0.49682865213035254,-0.49682865213035254,1.0003544365328207,0.000531366682173285
-0.49583783047346514,-0.49583783047346514,1.0001015214589075,0.0005317639329021258
-0.49522120063047625,-0.49522120063047625,0.9999107340439142,0.0005318131765015427
-0.4942284400887729,-0.4942284400887729,1.0003009639519158,0.0005370221795917708
-0.4932692622176546,-0.4932692622176546,1.0002584665285599,0.0005318294603832489
-0.49249532409594393,-0.49249532409594393,1.0004507466364478,0.0005324956338860975
-0.491474198250944,-0.491474198250944,0.999719519289803,0.0005328864231136191
-0.4904621073234011,-0.4904621073234011,1.0000216536508668,0.0005384470180329933
-0.4896890369440371,-0.4896890369440371,1.0005068964090897,0.0005312586128445863
-0.488779302049079,-0.488779302049079,1.0001979108434196,0.0005712759782580791
-0.48812024587459746,-0.48812024587459746,1.0006951174306014,0.0005309632339686708
-0.4871320262442168,-0.4871320262442168,0.9995721971821581,0.0005325673247665254
-0.48611600876320155,-0.48611600876320155,0.9997926619443606,0.0005292154829948137
-0.4852851045776333,-0.4852851045776333,1.0001513741089774,0.000533608687876441
-0.484310146576172,-0.484310146576172,1.0003539009635283,0.0005323052125347342
-0.48367857465345876,-0.48367857465345876,1.0009917752602748,0.000534479764471897
-0.48289252854156073,-0.48289252854156073,1.0006180232405728,0.0005317960372285032
-0.48232324281780165,-0.48232324281780165,1.00047259676853,0.0005349552689178205
-0.48143838730902644,-0.48143838730902644,0.9997059390031158,0.0005339233896596411
-0.48056917791545856,-0.48056917791545856,1.0003287830480503,0.0005312213223617833
-0.4797738336754264,-0.4797738336754264,1.0001559108999907,0.0005322698922890145
-0.47932553051650756,-0.47932553051650756,0.9997652152260027,0.000530625485707352
-0.47833879239988164,-0.47833879239988164,1.000208943195747,0.000537408104741576
-0.4773147553096351,-0.4773147553096351,0.9997323316124007,0.0005320818827702293
-0.47662417995816214,-0.47662417995816214,0.9998191888024109,0.0005332039269219216
-0.4755348500373657,-0.4755348500373657,1.0001240033510943,0.0005329909991469721
-0.4745368272997439,-0.4745368272997439,0.9996988105332457,0.0005409095737424587
-0.47381653460179224,-0.47381653460179224,1.0005331125349646,0.0005309134489313937
-0.4730177626828663,-0.4730177626828663,1.0003382841036745,0.0005839233492777476
-0.47237885543800073,-0.47237885543800073,0.9997654723391902,0.000531044911752916
-0.4714022423766437,-0.4714022423766437,1.0003282350188025,0.0005325204849029856
-0.4703903696296038,-0.4703903696296038,0.999170246097913,0.0005279665975320395
-0.46971776018181116,-0.46971776018181116,1.0006549238073343,0.000533408126718029
-0.4687297142256284,-0.4687297142256284,1.0002930682200666,0.0005326052305009422
-0.4681211852323031,-0.4681211852323031,1.0001111197423052,0.0005352775775188303
-0.46729364895290926,-0.46729364895290926,0.9996667936596388,0.0005320761685782842
-0.4666639418959676,-0.4666639418959676,1.0006165986245066,0.0005368616006673366
-0.4657645497158228,-0.4657645497158228,1.0004363291280591,0.0005335494314946178
-0.46472481474411326,-0.46472481474411326,0.9990595280678745,0.0005333901966058065
-0.46393137405611923,-0.46393137405611923,0.9992552378641468,0.0005299424573549844
-0.4634482087290962,-0.4634482087290962,1.0001684026860336,0.0005310179084878601
-0.4626065318523615,-0.4626065318523615,1.0004193960205419,0.000537745083893955
-0.4617915723596525,-0.4617915723596525,1.000517464101042,0.0005324097739096694
-0.4610422990263032,-0.4610422990263032,1.0003403585852495,0.0005328556013278573
-0.4600108401020407,-0.4600108401020407,1.0003769360870844,0.0005333278534847785
-0.458858442503697,-0.458858442503697,0.9995664660283324,0.0005317911983375503
-0.4580765649421664,-0.4580765649421664,1.0005462794110191,0.0005312922019862686
-0.45715825249862974,-0.45715825249862974,0.9993123832213365,0.0005902292403054141
-0.4565242963231867,-0.4565242963231867,1.0004655699310292,0.000530956943815828
-0.4556652682622371,-0.4556652682622371,0.999733247126211,0.0005330111457101246
-0.4546648304829432,-0.4546648304829432,0.9998016107480886,0.0005273643636882983
-0.4539845050065196,-0.4539845050065196,0.9999811663903774,0.0005325503203808264
-0.4531835051566304,-0.4531835051566304,1.000178658640543,0.0005331389921053178
-0.45249268764164297,-0.45249268764164297,1.0005770499927604,0.0005350245963003941
-0.451770220821345,-0.451770220821345,1.0004580829394372,0.0005324159587346595
-0.4509987454424845,-0.4509987454424845,1.0002031372934523,0.0005403737565621462
-0.4503192966323695,-0.4503192966323695,0.9999541367422274,0.0005341532729581089
-0.449172222186462,-0.449172222186462,0.9997474594787643,0.0005308312971913029
-0.4482049128848303,-0.4482049128848303,0.9989149879480209,0.0005301350714502549
-0.4475244021312392,-0.4475244021312392,0.9999871299504022,0.0005370443177251802
-0.44677194189207514,-0.44677194189207514,1.0005658180490653,0.00053187750193126
-0.4457835115346825,-0.4457835115346825,1.0002256356312436,0.000531893032743387
-0.44475980424394945,-0.44475980424394945,1.0003384208033765,0.0005330009873635193
-0.44359527821070516,-0.44359527821070516,0.9999407263482822,0.0005329706623447978
-0.4426037697456195,-0.4426037697456195,1.0001120077790286,0.0005315652606110411
-0.4417783654964296,-0.4417783654964296,1.0004722670391806,0.0006072936795934921
-0.4411267568160838,-0.4411267568160838,0.9995425622805729,0.000530733652697707
-0.44025648809329143,-0.44025648809329143,0.9996820050688855,0.0005324528463350352
-0.439242299470061,-0.439242299470061,1.000438893770866,0.0005260164081596711
-0.4383454128728772,-0.4383454128728772,1.000198603591468,0.000532149642689577
-0.4376510395552032,-0.4376510395552032,1.000168093817258,0.0005326147512993071
-0.4368788800042239,-0.4368788800042239,0.9998024962987258,0.0005350125559333326
-0.4361930248538556,-0.4361930248538556,0.9990801076059173,0.0005325764950823171
-0.4354021018691128,-0.4354021018691128,0.9995557006661032,0.000542677728795457
-0.4347814349202963,-0.4347814349202963,0.9994035751986766,0.0005345635277691097
-0.4337587453337619,-0.4337587453337619,1.0000679698732595,0.0005315389923695488
-0.4325590540356643,-0.4325590540356643,0.9991615915427264,0.0005309640325636115
-0.43179792787777843,-0.43179792787777843,1.0006131950430917,0.0005377269351173668
-0.4309667693290976,-0.4309667693290976,1.0007611164422046,0.000531055765988144
-0.4297709485705127,-0.4297709485705127,0.9995925020394136,0.0005320163715164821
-0.42861554186893047,-0.42861554186893047,1.0000639803131304,0.0005326521733774219
-0.42761855109492897,-0.42761855109492897,1.0006610030827159,0.0005330685914255793
-0.42674068540145527,-0.42674068540145527,0.9994587619349993,0.0005318501487712444
-0.42587458491761937,-0.42587458491761937,0.999450347502542,0.0006318377273723246
-0.42524680756469024,-0.42524680756469024,0.9999141000819286,0.0005314966560659831
-0.4243335313920397,-0.4243335313920397,0.9991855324670917,0.0005327101899331785
-0.42339423782468655,-0.42339423782468655,1.0001484730098495,0.00053092685665876
-0.4225133772051777,-0.4225133772051777,1.0013684736477377,0.0005309599548975576
-0.42172748076627614,-0.42172748076627614,1.0002525259141615,0.0005323262053243546
-0.42104805624985603,-0.42104805624985603,1.0007279699633735,0.0005349214388765072
-0.42032027219829615,-0.42032027219829615,0.9997210203240288,0.0005328689172201356
-0.4195460095856106,-0.4195460095856106,0.9997843937980482,0.0005457370555637097
-0.41885800812451635,-0.41885800812451635,0.9999817216711829,0.0005351500156778233
-0.41776930192572764,-0.41776930192572764,0.9997912611809868,0.0005315533235969578
-0.41669073453667804,-0.41669073453667804,0.9995623635365203,0.0005312725243152725
-0.41588384240676535,-0.41588384240676535,0.9994902426976617,0.000540128088309525
-0.41504277533240386,-0.41504277533240386,1.000345980951433,0.0005309130131703922
-0.41408329009645967,-0.41408329009645967,0.9996410874399227,0.000759192521791491
-0.41311373169519355,-0.41311373169519355,1.0001302542619308,0.0005509631885502589
-0.4123131771091721,-0.4123131771091721,1.0010917114636158,0.0005319380590976801
-0.4112882993322273,-0.4112882993322273,1.0000702194019746,0.0005327965214693129
-0.4105327766490518,-0.4105327766490518,1.0009561621343186,0.0006715508413672156
-0.4097407774781459,-0.4097407774781459,0.9997212095621745,0.0005294363168387369
-0.4089362023347348,-0.4089362023347348,0.9991739964251544,0.0005320277337109
-0.4081351039843867,-0.4081351039843867,1.0003118063216112,0.0005320046587945313
-0.40704486302638543,-0.40704486302638543,1.000509605373853,0.0005307865501034038
-0.4063873324725137,-0.4063873324725137,0.9991431516354112,0.000529819824241267
-0.40554083034803623,-0.40554083034803623,1.0000682257261946,0.0005364013909827682
-0.4048712409319705,-0.4048712409319705,0.9996717116542652,0.0005321941968612492
-0.4039620744995773,-0.4039620744995773,0.9995295421984217,0.0005481100939182939
-0.40333425529970557,-0.40333425529970557,0.9994940873441495,0.0005353745916573481
-0.402298668743606,-0.402298668743606,0.9997697223191316,0.00053300902562319
-0.40109359209163814,-0.40109359209163814,1.0008123383352223,0.0005315082934961866
-0.4003424423470278,-0.4003424423470278,1.00039341855375,0.0005321936367372901
-0.39930138456766145,-0.39930138456766145,0.9995642708616485,0.0005311595707211135
-0.39822672346708715,-0.39822672346708715,0.9993845307988536,0.0005367299082303842
-0.3971904780824843,-0.3971904780824843,0.9996773353354467,0.0005553697496701489
-0.3963646394753596,-0.3963646394753596,0.9995990602964906,0.0005325310905504712
-0.39540942814637675,-0.39540942814637675,1.0004665604757736,0.0005326665505171029
-0.394533324654185,-0.394533324654185,0.9998663597857023,0.0005301474317933468
-0.3937517382953956,-0.3937517382953956,0.9992098086802381,0.0005316662872610558
-0.39287231264752337,-0.39287231264752337,0.9999034961783847,0.0005333192375290708
-0.39210047105007106,-0.39210047105007106,0.9998831212316983,0.0005312592403350234
-0.3911620857994421,-0.3911620857994421,0.9998150520607189,0.0005302501732709677
-0.3904768578890071,-0.3904768578890071,0.9998102779780801,0.0005314894390167114
-0.38964707777049623,-0.38964707777049623,1.0004887329328154,0.0005313014011977385
-0.38876812945018174,-0.38876812945018174,1.0006671918160732,0.0005325146350067449
-0.3880064764198323,-0.3880064764198323,1.00030349649235,0.0005320263700598238
-0.3869303000850778,-0.3869303000850778,0.9999405884072532,0.0005366693219794859
-0.38575760947860543,-0.38575760947860543,0.9998617032330983,0.0005323113791794153
-0.38503413588477997,-0.38503413588477997,1.0000243311511006,0.0005319910894197103
-0.3839762379197055,-0.3839762379197055,0.9999180884607519,0.0005315518485109326
-0.38311075219899066,-0.38311075219899066,1.000929312581457,0.0005369622257387659
-0.38231896147408406,-0.38231896147408406,1.0001251341820219,0.0005315876191699072
-0.3812970055740152,-0.3812970055740152,1.000431765496355,0.0005618027311472257
-0.38040126861596946,-0.38040126861596946,0.9995497477252611,0.0005316709388683185
-0.37950121305475476,-0.37950121305475476,0.9989341684068396,0.000532172026382651
-0.37841761627350934,-0.37841761627350934,1.0067460576683822,0.0005311819369848943
-0.3776487046321563,-0.3776487046321563,1.0006227483713417,0.0005324831609205488
-0.3768898946727859,-0.3768898946727859,1.0004583539463314,0.000534329687217135
-0.37633219838899096,-0.37633219838899096,1.0001265748977766,0.0005316098899848284
-0.37543453329708426,-0.37543453329708426,0.9999168564262562,0.000530318940950129
-0.3747523612328223,-0.3747523612328223,0.99970654773039,0.0005321347269400257
-0.37379496860012296,-0.37379496860012296,0.99998451706024,0.0005315883951839218
-0.3728042024966271,-0.3728042024966271,0.9997166642968258,0.0005317585095003039
-0.3721005322142446,-0.3721005322142446,0.9998228606857313,0.000531071669405007
-0.37103773549824837,-0.37103773549824837,1.0004935109023108,0.0005374526583014599
-0.3700169379328145,-0.3700169379328145,0.999923409599057,0.0005325118223362933
-0.3693137005859171,-0.3693137005859171,0.999471549700211,0.000532498288448315
-0.3682390180787479,-0.3682390180787479,1.0001964592206911,0.0005324506995963323
-0.367241972485499,-0.367241972485499,1.000701391902481,0.0005388161091706229
-0.36652412018011093,-0.36652412018011093,0.9995224428809438,0.000530984848040284
-0.3655742061331694,-0.3655742061331694,0.9993228186653079,0.0005699951622185117
-0.36487919493229126,-0.36487919493229126,1.0008714471753286,0.0005313376095632717
-0.36409825636510507,-0.36409825636510507,0.9998512224659313,0.0005324626952179536
-0.3630817206685606,-0.3630817206685606,0.9994348616531783,0.0005292889818529946
-0.3622518699616194,-0.3622518699616194,1.0004282405234783,0.0005336322242301152
-0.3612760086340131,-0.3612760086340131,0.9998527813810817,0.0005322646436302531
-0.3606454690663668,-0.3606454690663668,1.0006922413428625,0.0005338829179909248
-0.3598586025633267,-0.3598586025633267,0.9997154878868123,0.0005314776230619312
-0.3592879306161194,-0.3592879306161194,1.0007803732970628,0.0005349788273811219
-0.35840409954471397,-0.35840409954471397,1.0006738222833762,0.0005339712096880574
-0.3575359142596426,-0.3575359142596426,1.000265848740299,0.0005314275580987516
-0.3566238157560292,-0.3566238157560292,0.9998647824661188,0.0005310793365215091
-0.35607902274496156,-0.35607902274496156,0.9995787642250431,0.0005357659564531963
-0.3551750694583461,-0.3551750694583461,1.0006776522291836,0.0005322667253448398
-0.3540849826938938,-0.3540849826938938,1.0011195698672741,0.0005325675786131093
-0.3534173283049313,-0.3534173283049313,1.000241125014193,0.0005333976141327497
-0.35225049323489654,-0.35225049323489654,1.0001404910955631,0.0005320524843212905
-0.351368352141435,-0.351368352141435,1.0002312813538354,0.0005407964264741834
-0.3506405224761693,-0.3506405224761693,1.0000407807065375,0.0005346570164397538
-0.34984902273354235,-0.34984902273354235,1.0008279088972327,0.0005793001754633631
-0.3491349136762437,-0.3491349136762437,1.0007846429295641,0.0005311138774211808
-0.3482332240077085,-0.3482332240077085,0.9997936253249573,0.0005323372918362662
-0.347144738354109,-0.347144738354109,1.000040369933349,0.0005292036865149165
-0.34651780198691995,-0.34651780198691995,1.0001896536280022,0.0005332619047163659
-0.3455491613509366,-0.3455491613509366,0.999432207087031,0.0005319822047606428
-0.3449124656683125,-0.3449124656683125,0.9996319007832793,0.0005353769475292603
-0.34412793363881067,-0.34412793363881067,1.0002758122738276,0.0005313850491702432
-0.3435704800838721,-0.3435704800838721,1.0005344938092733,0.0005365377228625529
-0.34267844588684965,-0.34267844588684965,1.0000858777304098,0.0005340392944549309
-0.3416900224008714,-0.3416900224008714,1.0005122887207456,0.0005332332682035682
-0.34089719255207457,-0.34089719255207457,0.9997437625276373,0.000530013763999006
-0.3404141065366275,-0.3404141065366275,0.9999786072113185,0.0005311259183126224
-0.3395730576572532,-0.3395730576572532,0.9998547862162553,0.0005377395059668253
-0.3387588443001732,-0.3387588443001732,1.000282513000417,0.0005323495787102551
-0.3380080974988232,-0.3380080974988232,1.000270265100971,0.0005327780447329612
-0.3372798459167825,-0.3372798459167825,1.000560868376432,0.0005348267998156791
-0.3363071716557897,-0.3363071716557897,1.0001020395754234,0.0005320928864522743
-0.33530191721147273,-0.33530191721147273,1.0000159059952387,0.0005314362762808909
-0.33447218231958686,-0.33447218231958686,0.9994410977099797,0.0005907447042168989
-0.33382560553800433,-0.33382560553800433,0.998831765800088,0.0005288477581167338
-0.3327615861468075,-0.3327615861468075,0.9994690452868842,0.0005324992686428227
-0.33184228876198174,-0.33184228876198174,0.9998482036252412,0.0005274714711803292
-0.33104149399878224,-0.33104149399878224,1.000256941175666,0.0005327773082774211
-0.330339558358537,-0.330339558358537,0.9993570574836138,0.0005331636860278857
-0.3295706310069363,-0.3295706310069363,1.0018368667442943,0.0005350003610322034
-0.3288890662443009,-0.3288890662443009,1.000046686398289,0.0005325187035720367
-0.3280948498162616,-0.3280948498162616,0.999269784897101,0.0005397732578457552
-0.3274706603981031,-0.3274706603981031,1.0007632792343824,0.0005342821045943679
-0.3265678750962252,-0.3265678750962252,0.9996407517362815,0.0005303802589891927
-0.32543400380236565,-0.32543400380236565,1.000071538588512,0.0005307014320816322
-0.3248564612687915,-0.3248564612687915,1.000739076583376,0.0005308151103132878
-0.323991164083418,-0.323991164083418,1.0005711907261585,0.0005368935584464949
-0.32320323087333236,-0.32320323087333236,1.0001441022624278,0.0005328838845726728
-0.32217463518463774,-0.32217463518463774,0.9996415603833813,0.0005317982706611338
-0.32102837002603335,-0.32102837002603335,1.000349931573574,0.0005334484870478447
-0.3198710146549274,-0.3198710146549274,1.000705698641106,0.0005318083319069093
-0.3191290744311118,-0.3191290744311118,1.0038959457943535,0.0005326620751937768
-0.3182983942722785,-0.3182983942722785,0.9999252971198684,0.0006033737953595367
-0.31754481940661206,-0.31754481940661206,0.999321069405471,0.0005313482892661343
-0.31677247881671067,-0.31677247881671067,0.9997229967038338,0.0005324970454264322
-0.315526796947961,-0.315526796947961,1.0000295243184818,0.0005263990187685606
-0.3149581537560152,-0.3149581537560152,1.0000621404306145,0.0005320414704906142
-0.3140958357391355,-0.3140958357391355,1.0003298106553282,0.0005321363274285423
-0.31345326589071193,-0.31345326589071193,0.9990413197839437,0.0005365800095069533
-0.312660401246103,-0.312660401246103,1.0002217846656316,0.0005323280130711181
-0.31213588493628774,-0.31213588493628774,0.9995893169869662,0.000541331760064669
-0.3111030657601077,-0.3111030657601077,1.0003218431480487,0.0005350093660412384
-0.3098975229448115,-0.3098975229448115,1.0004433844724538,0.0005306113812934235
-0.30912731005009847,-0.30912731005009847,1.0004575865669494,0.0005312980478743693
-0.308256438052922,-0.308256438052922,1.0001285621861329,0.0005377202080851106
-0.30723030776935045,-0.30723030776935045,0.9992962460165005,0.0005315030553278867
-0.3062575727730291,-0.3062575727730291,1.0000289000192937,0.0005320579710846072
-0.3052389869502804,-0.3052389869502804,0.9997291724767667,0.000533237142803199
-0.30413378853481843,-0.30413378853481843,1.0006109498112292,0.0005319770635386792
-0.30339375255061896,-0.30339375255061896,0.9995061082568405,0.0005328795588953098
-0.30257226079120303,-0.30257226079120303,0.9996207382797259,0.0006277048142644764
-0.30180990787048356,-0.30180990787048356,0.9999574845127128,0.000531834851478943
-0.3010348396026529,-0.3010348396026529,0.999709453326423,0.0005322871988228637
-0.2999655715277186,-0.2999655715277186,1.0007724385802748,0.0005248983228788968
-0.29934555350409936,-0.29934555350409936,1.0007416598990546,0.0005309914499329845
-0.2985209547034174,-0.2985209547034174,1.000154337836903,0.0005321742041499316
-0.29791314315225464,-0.29791314315225464,0.9994866629323204,0.000535574332383963
-0.297069900790666,-0.297069900790666,1.0002686151818865,0.0005330761807348475
-0.29645602194141246,-0.29645602194141246,0.9997865851026597,0.0005442730810478405
-0.29562894529735784,-0.29562894529735784,0.9999477438412215,0.0005359202771959018
-0.2944246711631422,-0.2944246711631422,0.9998183149614727,0.00053061811651553
-0.2935711125108355,-0.2935711125108355,1.000112489187599,0.0005313255217221377
-0.29264860601251713,-0.29264860601251713,1.0001661833788353,0.0005393532600498543
-0.2917756563670991,-0.2917756563670991,0.9995221269588483,0.0005348880454688128
-0.2907495193052455,-0.2907495193052455,0.9995916679251424,0.0005318943966373875
