time,time,flux,flux_err
-0.49988393945386633,-0.49988393945386633,0.9998999309477821,0.00025464735089847053
-0.49970851337275235,-0.49970851337275235,0.9998960481325879,0.00026250043902250415
-0.4996104401958291,-0.4996104401958291,0.9997396031647293,0.00023534955694666168
-0.49946492281451355,-0.49946492281451355,1.000161798925911,0.0002514441417125733
-0.4994035641211667,-0.4994035641211667,0.9997536304204516,0.00023965120889182803
-0.4992447176351561,-0.4992447176351561,1.0005640596400482,0.0002351474954525211
-0.49908955938153665,-0.49908955938153665,1.0001791832838083,0.0002785588910545321
-0.4989689325171639,-0.4989689325171639,1.0001244544154866,0.00023732613646683924
-0.49879924324923197,-0.49879924324923197,0.9996849253800194,0.0002361369172363188
-0.4985603144654306,-0.4985603144654306,0.9999519630852568,0.00023432171797098793
-0.49845951591123594,-0.49845951591123594,1.0001951631632566,0.0002258907429471429
-0.4983865161149879,-0.4983865161149879,0.9998346947853349,0.00024641101969258056
-0.49823064230586167,-0.49823064230586167,0.9999293622087381,0.0002425927416962581
-0.49813475769769866,-0.49813475769769866,0.9999720179612165,0.00025944607098260785
-0.49801927804219304,-0.49801927804219304,0.9999863834599558,0.00022537185158992093
-0.4979311121016508,-0.4979311121016508,0.9998561349129524,0.00024327659380863178
-0.4978585577948252,-0.4978585577948252,0.9999717459507818,0.00024431658711879603
-0.4977330339665059,-0.4977330339665059,0.9996169108117963,0.00024443497370685004
-0.4976030594581971,-0.4976030594581971,0.9996280544332045,0.00023737173598973766
-0.497509611469286,-0.497509611469286,0.9998923493945849,0.00023409743655149304
-0.4973824401458842,-0.4973824401458842,1.0005997374218736,0.00023065100640026884
-0.49728584237745965,-0.49728584237745965,0.9998491413086302,0.00023834821934611998
-0.4971421677968465,-0.4971421677968465,1.0001921898767867,0.00024188288766728176
-0.49691589324065716,-0.49691589324065716,1.0000381054991123,0.0002395764916303934
-0.4967120366214658,-0.4967120366214658,1.00004424272482,0.0002319905970271592
-0.49651850506925255,-0.49651850506925255,0.999896606288979,0.00024464856521060996
-0.49635469905188073,-0.49635469905188073,0.9999878457590249,0.00024244791267940681
-0.4962220923320274,-0.4962220923320274,0.9998700773832075,0.00023259183605732378
-0.49616142458398826,-0.49616142458398826,1.0001007893805371,0.00023370905166163837
-0.49606288090872114,-0.49606288090872114,1.0003761155672268,0.00024523129884927155
-0.49590914816362786,-0.49590914816362786,0.9996531602975679,0.00024238358637358308
-0.49578352176613405,-0.49578352176613405,0.9999970738017236,0.0002412112043522412
-0.49566247494658455,-0.49566247494658455,1.000134382512067,0.00023071143261099166
-0.49554145309666636,-0.49554145309666636,1.0002908342339867,0.00024066369275320816
-0.49538709117332475,-0.49538709117332475,1.0001441314135775,0.00023909212436619282
-0.4952264132371056,-0.4952264132371056,0.9999006414713193,0.00023252909840333576
-0.49516951780096863,-0.49516951780096863,1.0002533708311534,0.0002465609695974076
-0.49507649109145857,-0.49507649109145857,0.9998984059846705,0.0002515116516009847
-0.49495102186338047,-0.49495102186338047,0.9999647459071668,0.00024027602473760415
-0.4948759439677815,-0.4948759439677815,0.9997948848102265,0.00024034874841812238
-0.4947713941903203,-0.4947713941903203,1.000036151473695,0.0002356259860069967
-0.49457535629626365,-0.49457535629626365,1.0001215996089134,0.0002459348440303255
-0.49446695940132485,-0.49446695940132485,0.9999559142433977,0.0002470262831287082
-0.49438825059478403,-0.49438825059478403,0.9998746605668565,0.00025110450540416447
-0.4942318804867682,-0.4942318804867682,0.9997380582548685,0.0002384525922590678
-0.4941661830263911,-0.4941661830263911,0.999614883431506,0.00023777746249167164
-0.49403670029423663,-0.49403670029423663,1.000045192586453,0.00024127818791793175
-0.49386123979929836,-0.49386123979929836,0.9997749803470504,0.00024321380672208875
-0.4937669165476109,-0.4937669165476109,0.9998918957952536,0.00023555205526886317
-0.49369418823625894,-0.49369418823625894,1.0003593504159383,0.00024082000341311594
-0.4935687507793773,-0.4935687507793773,0.9997724894188641,0.00023450905607454257
-0.49338837357063314,-0.49338837357063314,1.0000644118858486,0.00022077500948586938
-0.49329922403849197,-0.49329922403849197,0.9996648780081234,0.00022971400782249968
-0.49312000667414396,-0.49312000667414396,1.0000131260843255,0.0002462602523857023
-0.4930400011508027,-0.4930400011508027,1.0001825568793634,0.0002714475342521947
-0.4929940670801443,-0.4929940670801443,0.9999061619044767,0.00023738220863511132
-0.49290062622894765,-0.49290062622894765,1.0001384646258498,0.00023327138338728685
-0.49270425083959707,-0.49270425083959707,1.0003203608571805,0.00024311753745600483
-0.49256927505048226,-0.49256927505048226,0.9998954605139232,0.00022852042018820163
-0.49248164929740595,-0.49248164929740595,1.0001814281812504,0.0002528848434103348
-0.4924242018518271,-0.4924242018518271,1.0000839578202811,0.0002421278857250851
-0.4923135915436433,-0.4923135915436433,0.9999179210075994,0.0002382206804596232
-0.49216023621265775,-0.49216023621265775,1.0002799381140597,0.0002365063615316824
-0.4919568273209734,-0.4919568273209734,1.0002096735122716,0.00023338113330898127
-0.49187134709063685,-0.49187134709063685,1.0004467917084734,0.0002519412316254417
-0.4918199561099755,-0.4918199561099755,0.9996200290884101,0.0002423744515337119
-0.4917311147131841,-0.4917311147131841,1.0003970717792554,0.00024774850143361273
-0.4915373742973316,-0.4915373742973316,1.0001542561442547,0.0002451351171830454
-0.4913942676896113,-0.4913942676896113,1.0004013965325833,0.00022864304955890865
-0.49121713688364255,-0.49121713688364255,1.0000981641455526,0.00022443342316851665
-0.4910853945373674,-0.4910853945373674,0.9997772689795055,0.00023271113503403623
-0.491055488101847,-0.491055488101847,1.0000983087518915,0.00025331573390695447
-0.49095150999637555,-0.49095150999637555,0.9997850773935214,0.0002680111130946972
-0.49081294367206285,-0.49081294367206285,0.999810657807075,0.00024071290790217528
-0.490730477804027,-0.490730477804027,0.9998944614390151,0.0002340482569130177
-0.4905596479147789,-0.4905596479147789,1.000090644797766,0.0002335244019691003
-0.4904265119912452,-0.4904265119912452,0.9999353244847764,0.00023903057177868345
-0.4903531987787574,-0.4903531987787574,0.9998036029763181,0.00024119035483866264
-0.49021129381872014,-0.49021129381872014,1.000091869379909,0.00024555917395886225
-0.4901463064670679,-0.4901463064670679,0.9999896320872192,0.00023955469428509727
-0.49002178509981603,-0.49002178509981603,0.9996932513038269,0.0002486367052096985
-0.48987203598662743,-0.48987203598662743,1.0000732578054852,0.0002865233258193132
-0.4896899387604208,-0.4896899387604208,0.9999472053131224,0.00023076138082888734
-0.4894233059574617,-0.4894233059574617,1.0000607496838292,0.00024062041487971065
-0.48921705375541935,-0.48921705375541935,1.000111941996148,0.00023099392960385036
-0.4890888671550783,-0.4890888671550783,1.0003979939177627,0.0002558268676329315
-0.4888973789813463,-0.4888973789813463,1.0003297938222144,0.0002311364763881911
-0.48877123287093127,-0.48877123287093127,0.999854503634183,0.00024658627967591575
-0.48866451524954757,-0.48866451524954757,1.0004337430451269,0.00023802240677267772
-0.4885852740204427,-0.4885852740204427,1.000175219886101,0.0002484978833252436
-0.48848072973341916,-0.48848072973341916,0.9996682499659639,0.00025178489916538973
-0.48836626189149684,-0.48836626189149684,0.9999376824085161,0.00024181659429353217
-0.4882626280814293,-0.4882626280814293,1.000201846299078,0.000236526801452968
-0.4881566431329702,-0.4881566431329702,0.9999601001611624,0.00022687924184214498
-0.48807872604229485,-0.48807872604229485,1.0001170866565128,0.00023938927801544973
-0.4879630687632016,-0.4879630687632016,0.9997823941964036,0.00023325083048043706
-0.48785555796494007,-0.48785555796494007,1.0000069182651434,0.00024645667595355424
-0.4876826221268857,-0.4876826221268857,1.0002830131230562,0.00025322299080965974
-0.48749647309305144,-0.48749647309305144,1.0004272092379716,0.00023335610076048312
-0.48736436399340166,-0.48736436399340166,0.9999028529832839,0.00023014118778484795
-0.4871944542333949,-0.4871944542333949,1.0001612295477176,0.00024972020266573336
-0.4870775481540477,-0.4870775481540477,1.0001243590098112,0.0002515301046818232
-0.48697680076147665,-0.48697680076147665,0.999994065561013,0.00023061415932548921
-0.48691593434487,-0.48691593434487,0.9998054299379897,0.00023994898051523124
-0.4868387489084853,-0.4868387489084853,1.0001657627436196,0.0002284071480521481
-0.486691466611228,-0.486691466611228,1.0001503364878281,0.0002579014305096919
-0.4865682667179499,-0.4865682667179499,1.0002576262053,0.00022693637718977942
-0.486474178059143,-0.486474178059143,0.999995593344081,0.00023508721513437912
-0.486376668101002,-0.486376668101002,0.9997796499698994,0.00023300402180613882
-0.4862423696191399,-0.4862423696191399,0.9999766596349655,0.00023226214470824423
-0.4860869939788245,-0.4860869939788245,1.0002456286395018,0.000237146458420804
-0.48596221113111826,-0.48596221113111826,0.9999990730411312,0.0002328748136382337
-0.48590956452389944,-0.48590956452389944,0.999827909328241,0.00024275292612484616
-0.4858482820345671,-0.4858482820345671,0.9999030320875242,0.00025341959752436284
-0.48572971546382177,-0.48572971546382177,1.0002449501521085,0.0002440581224450032
-0.4856382855330594,-0.4856382855330594,1.000136495012995,0.00024282588237079617
-0.4855613989930134,-0.4855613989930134,1.0000715635738944,0.00022962280380583712
-0.48548641092638717,-0.48548641092638717,0.9998867011552175,0.00023199512794534364
-0.4853687418581103,-0.4853687418581103,1.0003513815921414,0.0002538920732723242
-0.4852338584314566,-0.4852338584314566,0.9999323235511639,0.00023260998466731868
-0.4851341830290039,-0.4851341830290039,0.9999932841099373,0.0002648900389296342
-0.4849949215378729,-0.4849949215378729,0.999885927959842,0.00023536040024367777
-0.48488276669813785,-0.48488276669813785,1.0000440933101429,0.00023698057044214998
-0.4847420496851555,-0.4847420496851555,1.0001179208820445,0.00023358211335678048
-0.484590840137389,-0.484590840137389,0.9999226691278704,0.00024318828822603237
-0.484500432034838,-0.484500432034838,1.0000905444108934,0.0002354599142331705
-0.4844359485810855,-0.4844359485810855,1.0000533652332533,0.0002481836086282534
-0.4843006098948536,-0.4843006098948536,0.9998909073385345,0.00023440857386903096
-0.48411562911060174,-0.48411562911060174,1.0000257674173774,0.00022149556606754385
-0.4840085716772592,-0.4840085716772592,0.9997828751336391,0.0002361293389306433
-0.4838283618213609,-0.4838283618213609,0.9997234056725374,0.00024719842023165076
-0.4837589632646996,-0.4837589632646996,0.9999764253592172,0.0002712191587880956
-0.4837171476727235,-0.4837171476727235,0.9998690123792511,0.00023832559487916492
-0.48357087308104385,-0.48357087308104385,1.0001899932769256,0.00023998302714328554
-0.48341449366998857,-0.48341449366998857,0.9999310478562518,0.00023426642715771245
-0.4833008230154519,-0.4833008230154519,1.0001119585389813,0.00022858114232110764
-0.4832121014696895,-0.4832121014696895,1.0004382849402573,0.00025282027254173317
-0.48315751364134485,-0.48315751364134485,0.9998209888098948,0.0002383048803092684
-0.48306752481585136,-0.48306752481585136,1.0002872137781345,0.0002364468639424044
-0.48294557347689987,-0.48294557347689987,0.999773528025307,0.0002443787500302357
-0.4826968437890173,-0.4826968437890173,0.9999658870718349,0.00023262731795610606
-0.4826069120361353,-0.4826069120361353,1.0000138507746972,0.0002443356948253836
-0.4825533812036156,-0.4825533812036156,1.0000160635638178,0.00025050534501294144
-0.4824431719986023,-0.4824431719986023,0.9999300512958786,0.00024747864760369276
-0.4822504274910898,-0.4822504274910898,1.0003169741246283,0.0002312698692146631
-0.4821438657658291,-0.4821438657658291,0.999909955971843,0.00022724360776152488
-0.4820178472335101,-0.4820178472335101,0.9998511157119543,0.00022307767483583174
-0.4818918351040338,-0.4818918351040338,1.000186968679769,0.00023185047378872377
-0.48180546307266925,-0.48180546307266925,1.0000152388667698,0.00025652170187380344
-0.48178233290527717,-0.48178233290527717,0.9999814879474698,0.00023770896093637845
-0.48164661175978835,-0.48164661175978835,0.9998882834318173,0.0002597746277889901
-0.4815307432741974,-0.4815307432741974,0.9997437473517617,0.0002355075283967612
-0.48142936083022503,-0.48142936083022503,0.9999274508070088,0.00023356060943487502
-0.48125896973215276,-0.48125896973215276,0.9998379997879863,0.00022922641455649776
-0.4811424561077729,-0.4811424561077729,1.0000088667692273,0.0002551117519258639
-0.4810351923137205,-0.4810351923137205,0.9999384304708275,0.00023757332572361535
-0.480897690236452,-0.480897690236452,0.9999800659967824,0.0002426060392633593
-0.48085038442513905,-0.48085038442513905,0.9996441683470735,0.000231955540478664
-0.48072576751583257,-0.48072576751583257,1.0001782179680858,0.0002444826157976866
-0.48057145019120073,-0.48057145019120073,1.0000535411166933,0.0002855768794467236
-0.4804374300656491,-0.4804374300656491,0.9999222944975672,0.00023429141941676678
-0.48027232450986046,-0.48027232450986046,1.0001447251156812,0.0002331571767371148
-0.48002948494977316,-0.48002948494977316,1.00022514335188,0.0002363823509056665
-0.4799204276816454,-0.4799204276816454,1.0000700649934295,0.00022801616992952325
-0.47977876953518717,-0.47977876953518717,0.9998051421411006,0.0002586906348473959
-0.4796164963787305,-0.4796164963787305,1.0000105832743977,0.00022973800944408392
-0.47951139575161505,-0.47951139575161505,0.9997648459946668,0.0002513606644379545
-0.4794154773771879,-0.4794154773771879,0.9999885359856489,0.00023857091790347126
-0.4792979741279851,-0.4792979741279851,0.9998916641606505,0.00023924235924783428
-0.47917731731431557,-0.47917731731431557,0.9999710456721432,0.0002469078159439767
-0.4790475460351445,-0.4790475460351445,0.9999714842763678,0.00023058253740941675
-0.4789636557281483,-0.4789636557281483,0.9998257838694572,0.00023464678022012386
-0.47889920916204576,-0.47889920916204576,1.0000597056477236,0.00024908506835169493
-0.4788158160765306,-0.4788158160765306,1.0000823157488012,0.00023639829997902138
-0.47867378925002413,-0.47867378925002413,1.000191515208645,0.00024842936481609307
-0.4785661250396515,-0.4785661250396515,1.0000223621702975,0.0002468349527858395
-0.47836565876059467,-0.47836565876059467,1.0001474604838723,0.00025359365458219523
-0.4782068744825665,-0.4782068744825665,0.9999163730372299,0.00023191695071103944
-0.4780911707872292,-0.4780911707872292,0.9999344099490466,0.00023683653743135965
-0.47794197008624906,-0.47794197008624906,0.9999404183214177,0.0002284354485079595
-0.477815907211334,-0.477815907211334,1.0004076017236756,0.0002556373446445262
-0.47768556073569923,-0.47768556073569923,0.9999123935232921,0.00022941318404854586
-0.47761860786413307,-0.47761860786413307,0.9999700860372712,0.00023700058614640096
-0.47751684169634245,-0.47751684169634245,0.9997905059532813,0.0002491285695887385
-0.4773743870173348,-0.4773743870173348,0.9999523345673863,0.0002412598578970988
-0.47726704977976625,-0.47726704977976625,0.999937167183548,0.00023071452229239258
-0.47717995763960064,-0.47717995763960064,1.000208230855275,0.00023857949354388284
-0.47708904494793386,-0.47708904494793386,0.9999568477387148,0.00023295997126971746
-0.47692860697134165,-0.47692860697134165,1.0002371746002843,0.000231985706807548
-0.47673909668519626,-0.47673909668519626,1.0000168165213272,0.0002453787851342534
-0.4766426524583949,-0.4766426524583949,0.9998191219470274,0.00024633961864953583
-0.47658679069427307,-0.47658679069427307,1.0000524014650163,0.0002494808633496903
-0.47646191932581133,-0.47646191932581133,0.9999859564141383,0.00024676040676320906
-0.4763715814551688,-0.4763715814551688,0.9998481965690257,0.0002398116424349198
-0.47628771098825384,-0.47628771098825384,0.9996685317733641,0.00023268643481055484
-0.47619610601686874,-0.47619610601686874,1.0000204964500503,0.00023938904431648782
-0.47601685824629386,-0.47601685824629386,0.9999699827061358,0.00023977067511704947
-0.4758935055069742,-0.4758935055069742,0.9996798023161855,0.00024700842866483573
-0.47573054319946095,-0.47573054319946095,1.000033762751547,0.00024100943630152075
-0.4756266469164984,-0.4756266469164984,0.9997099277827566,0.00023021545163166875
-0.47551963845908174,-0.47551963845908174,0.9999556559370845,0.00024364768405119947
-0.47535712329263335,-0.47535712329263335,0.9997711833277595,0.000243993625048397
-0.47524931665248005,-0.47524931665248005,1.000302561867731,0.00023603706272134028
-0.4751747402799083,-0.4751747402799083,0.9997828821220857,0.00024956690515011117
-0.47503249074507037,-0.47503249074507037,1.0002618558409335,0.00023435627590715548
-0.4748564589943271,-0.4748564589943271,1.0001719764474137,0.00022694644129763727
-0.47475690911524,-0.47475690911524,0.9996997632085126,0.0002393267323204347
-0.4746158381181885,-0.4746158381181885,0.9997603322530839,0.0002447881307262828
-0.47450666388031093,-0.47450666388031093,1.0001623827202475,0.0002778687051190179
-0.47446110704913735,-0.47446110704913735,1.000349911698778,0.00023815330553798031
-0.4743427009409061,-0.4743427009409061,1.0002863274418643,0.00024388239353510693
-0.4741390535069513,-0.4741390535069513,0.9999144960177826,0.00022886196073085627
-0.4740016335141263,-0.4740016335141263,1.0001067635043426,0.00023727064196980046
-0.47391341633338013,-0.47391341633338013,1.0000709372221679,0.00023861457469669442
-0.47382263390754814,-0.47382263390754814,0.9999648339834671,0.00025108209792128953
-0.4737132206078968,-0.4737132206078968,1.000318320888761,0.00024405508951059305
-0.4735046595276799,-0.4735046595276799,0.9999638538843634,0.00023070394370335858
-0.47335303634463344,-0.47335303634463344,0.9998594023307559,0.0002454292953042453
-0.4732696618157206,-0.4732696618157206,1.0001743199850401,0.00025677751240108995
-0.47305418157047824,-0.47305418157047824,1.0001123377441363,0.0002364253769142181
-0.4728840723109897,-0.4728840723109897,1.0000382291778098,0.00022769684396780517
-0.47273321724933337,-0.47273321724933337,1.0002846528109681,0.0002268419129223126
-0.47260648336086886,-0.47260648336086886,1.000221826950424,0.0002289462554990641
-0.47252879916341045,-0.47252879916341045,1.000088384439114,0.0002707113284499492
-0.47250108455191364,-0.47250108455191364,0.9997180063799821,0.0002263921941323225
-0.4723612145258812,-0.4723612145258812,1.0003536848763837,0.0002504119016964306
-0.472272415192856,-0.472272415192856,1.0001907312010139,0.00024184186604974387
-0.4721652875290602,-0.4721652875290602,0.9996836746539696,0.00023288707702823794
-0.4719930962717626,-0.4719930962717626,0.9998347191358474,0.00023983827378911755
-0.47186187198240076,-0.47186187198240076,0.9999645948565794,0.00024246634926810857
-0.47172778596286663,-0.47172778596286663,0.9996732945690573,0.0002339046335685103
-0.4716241027461365,-0.4716241027461365,1.0001200776860035,0.0002421180227618813
-0.4715681966234115,-0.4715681966234115,1.0002757767399815,0.00023510986837256646
-0.4714328937086975,-0.4714328937086975,0.9998705152706272,0.00023417150215064244
-0.471225376187067,-0.471225376187067,0.9998386141142918,0.00029339648645284076
-0.4711184726460488,-0.4711184726460488,1.0002623043169065,0.00022822931584048326
-0.4708090640124283,-0.4708090640124283,1.0001759558317862,0.00024082225321756063
-0.4706512955701328,-0.4706512955701328,1.0000047758846384,0.000227891803640721
-0.4704918851464754,-0.4704918851464754,0.9997210684581483,0.00024943543834303976
-0.4703151452878956,-0.4703151452878956,0.99988784930466,0.0002454734020640935
-0.47021445709251564,-0.47021445709251564,1.0003029083598274,0.0002445044670938819
-0.4701430554050603,-0.4701430554050603,0.9998861081555427,0.0002408307270157519
