time,time,flux,flux_err
-0.49842355798440013,-0.49842355798440013,1.0010325396677189,0.005303523492532865
-0.4962722354363602,-0.4962722354363602,0.9970862256983041,0.005358507111334133
-0.4934757756636827,-0.4934757756636827,1.0001668502928107,0.005358227845079926
-0.4910403395551839,-0.4910403395551839,1.0052519561686368,0.004935105707700888
-0.48985412005858964,-0.48985412005858964,1.0044931285703012,0.004890689786592842
-0.488904396527505,-0.488904396527505,0.9956323939110918,0.0049101586248743315
-0.487647688366269,-0.487647688366269,1.0069679374464005,0.0049024293374153715
-0.4865030434790242,-0.4865030434790242,1.0019684407544247,0.004926285350287219
-0.48574975119554437,-0.48574975119554437,1.0054476405594592,0.004871876854278285
-0.48476326701565997,-0.48476326701565997,1.00273255891068,0.004895036606072153
-0.4835139208167675,-0.4835139208167675,1.0028659325989437,0.004860986868182137
-0.482345119274396,-0.482345119274396,0.9992165749940274,0.004908533628446029
-0.48103897640176,-0.48103897640176,0.9959424785261639,0.004910979443995509
-0.4799717994974344,-0.4799717994974344,0.9975470392310237,0.004936220851179578
-0.4791800221908488,-0.4791800221908488,0.9971989674456836,0.004950873087219107
-0.47841108593929677,-0.47841108593929677,0.9892615650625919,0.005096212961032769
-0.47741104396773154,-0.47741104396773154,0.9976479106107863,0.00491476222390422
-0.4766638264314679,-0.4766638264314679,1.0044079376242174,0.0050393823763271155
-0.47567100489832226,-0.47567100489832226,1.004714136723471,0.004871703936674959
-0.4746816795639461,-0.4746816795639461,1.0015999837089746,0.00489621473067645
-0.4731096881201665,-0.4731096881201665,1.0098685131248626,0.004873658274517286
-0.4718447347644542,-0.4718447347644542,1.0066676763721358,0.004977897696214032
-0.4704570071466151,-0.4704570071466151,0.9996221926473867,0.004893380652184587
-0.46935644509721897,-0.46935644509721897,1.0022932254366232,0.004935582945112491
-0.46845342163942405,-0.46845342163942405,0.9962176844028855,0.005032666514865667
-0.46732959512009986,-0.46732959512009986,1.001768483267984,0.0048767378778657045
-0.4657215264320257,-0.4657215264320257,1.0055618738405951,0.004937371791776989
-0.4623869662245852,-0.4623869662245852,1.0035360931483637,0.0048487616991168365
-0.46016048332458015,-0.46016048332458015,0.9958781822227891,0.004982099782311151
-0.45810762451656045,-0.45810762451656045,0.9996381132507468,0.004843433821122636
-0.45648043061592036,-0.45648043061592036,1.001375589215965,0.004849254315681243
-0.4549060334240494,-0.4549060334240494,1.0014861206590013,0.0049294143655707265
-0.45384923676829203,-0.45384923676829203,1.0022315041224816,0.0048780697404217106
-0.4528320544559392,-0.4528320544559392,1.007348343687855,0.004925143248208456
-0.451376419771259,-0.451376419771259,0.9935422928479059,0.004917467511597741
-0.45046750069450353,-0.45046750069450353,1.004595363396471,0.0048791718545149595
-0.44957057620122215,-0.44957057620122215,1.0076532699073684,0.005018429454254911
-0.44841966439125824,-0.44841966439125824,1.003252353774958,0.004908848813941421
-0.4471854143193923,-0.4471854143193923,0.9999331356409377,0.004881754865765748
-0.44548572197381875,-0.44548572197381875,1.0014462566160804,0.004850575782838132
-0.4445265755181026,-0.4445265755181026,1.0033308583738991,0.004873310913220783
-0.4437039973483479,-0.4437039973483479,0.9955046878030682,0.004960364066356093
-0.442732142276509,-0.442732142276509,1.0065384054996733,0.00502670927185759
-0.44191325612264337,-0.44191325612264337,0.9950196393008003,0.00508740778466193
-0.44096661811927335,-0.44096661811927335,0.9934664443259382,0.00488235999956149
-0.44007699453795796,-0.44007699453795796,1.0023157475547042,0.005082254658477547
-0.4391990179152344,-0.4391990179152344,1.0030214977492204,0.004888911487282389
-0.43778716210217683,-0.43778716210217683,0.9999242977955886,0.0049087641214997065
-0.4364192726381589,-0.4364192726381589,1.000178821636346,0.004936271473834539
-0.4347854559782718,-0.4347854559782718,0.9964634765108293,0.0048769946923277714
-0.43360062395004206,-0.43360062395004206,0.9999341722609429,0.004877307879049685
-0.4316289081252762,-0.4316289081252762,1.0029664045649371,0.004888154995656193
-0.42964458921414916,-0.42964458921414916,0.9964604420870014,0.004883180586065109
-0.42673984636130624,-0.42673984636130624,1.0041186284374677,0.004907787462935508
-0.42453580756045994,-0.42453580756045994,1.0001280671408797,0.005031982360782146
-0.4220749712869292,-0.4220749712869292,0.9960786147552847,0.004847926349279611
-0.41991950048395665,-0.41991950048395665,0.9926548922914368,0.0048762057577187625
-0.41796645393260407,-0.41796645393260407,1.005466256808807,0.004887291902110163
-0.4163754413173592,-0.4163754413173592,1.0098630452344042,0.0049263790777068165
-0.4153058038245945,-0.4153058038245945,0.9991327874162137,0.0048884262858594025
-0.4142973468944547,-0.4142973468944547,1.0057761480437382,0.004891073210182043
-0.4135575753018202,-0.4135575753018202,0.9959615346359507,0.004885560350346631
-0.4123009480055771,-0.4123009480055771,1.0029499615848203,0.004887079011378896
-0.4105886909266701,-0.4105886909266701,1.008321723585547,0.004866194564216877
-0.40925964167181517,-0.40925964167181517,1.0057386654871214,0.005029036025291996
-0.40831609128945273,-0.40831609128945273,0.9969494971391131,0.004898595526110396
-0.4073139164371241,-0.4073139164371241,0.9966904590071202,0.005003532339977025
-0.40629846535230174,-0.40629846535230174,1.0027996271969273,0.00497523187225696
-0.40578079381739374,-0.40578079381739374,0.9982303030463837,0.004998453279033961
-0.4047189701748721,-0.4047189701748721,0.995353183022422,0.004858635229808863
-0.40326473833993076,-0.40326473833993076,1.000450426289918,0.00490859115832865
-0.401635768662527,-0.401635768662527,1.002525547264072,0.004908271562599565
-0.40005909691826674,-0.40005909691826674,1.0015267012744973,0.00489533204959968
-0.39879209850696495,-0.39879209850696495,0.9981488529897689,0.0048970112974307594
-0.39768919424968774,-0.39768919424968774,1.003069754254798,0.004912715610218313
-0.39591616733305274,-0.39591616733305274,0.9987836590100251,0.004882115756237496
-0.39451348710936146,-0.39451348710936146,0.9977181288230492,0.004951059720403212
-0.3930106349020207,-0.3930106349020207,0.999105215632008,0.004940403983812774
-0.3910480079786794,-0.3910480079786794,0.9998806859046792,0.004833414325033812
-0.388659145879501,-0.388659145879501,0.9951767910224583,0.00496213843470652
-0.38657407351129225,-0.38657407351129225,0.9892440180342538,0.0048461234225361804
-0.3842307904837071,-0.3842307904837071,1.0063961199303013,0.00485277582191778
-0.3825419443564897,-0.3825419443564897,1.0063911417616516,0.004887145417816651
-0.38164733926387273,-0.38164733926387273,0.9950415810699278,0.004887446951417908
-0.38027595037128775,-0.38027595037128775,1.0061483015090449,0.0049092749504913895
-0.3792556496046018,-0.3792556496046018,1.0085189099636114,0.004932832806698034
-0.37847880975386944,-0.37847880975386944,1.0022360023842125,0.004892343959484442
-0.37757416070453476,-0.37757416070453476,1.0059361806544795,0.004866796591244384
-0.3764213986949471,-0.3764213986949471,0.9993610112655331,0.00485973215477342
-0.3751550585104269,-0.3751550585104269,1.0036434969195132,0.004902635178062424
-0.37355634952837136,-0.37355634952837136,1.0045946706020201,0.004976924694070495
-0.3725879580058972,-0.3725879580058972,0.9909914806419066,0.004888244250566151
-0.37161125738348344,-0.37161125738348344,0.9902655918651831,0.005013488085414365
-0.3710564821252774,-0.3710564821252774,0.9939797541847373,0.0050485310496196515
-0.370174011177005,-0.370174011177005,0.9964605357609091,0.0049088181291912555
-0.36961450715898536,-0.36961450715898536,1.0026833040162901,0.005108089620727667
-0.36867374758439836,-0.36867374758439836,0.9905074100274842,0.004879815559136288
-0.36778580528407473,-0.36778580528407473,1.005446499613662,0.004876574312506384
-0.36654765511702864,-0.36654765511702864,1.002276709890055,0.004885065408278322
-0.36526928315943225,-0.36526928315943225,0.9979877567765968,0.004975404482133934
-0.3641514199174708,-0.3641514199174708,1.0026356583759122,0.004896015857061302
-0.3631697969540255,-0.3631697969540255,0.9969963972123905,0.004872531633383879
-0.362045384747762,-0.362045384747762,1.0043475892158509,0.004924082974648502
-0.3611583988276834,-0.3611583988276834,1.0019359338348655,0.005039934619893377
-0.3598355184403772,-0.3598355184403772,1.001060927919528,0.004953103712284074
-0.35746436686313243,-0.35746436686313243,0.998180092930709,0.004842524179970287
-0.3548985474415531,-0.3548985474415531,1.0015786195634757,0.0048413682588413845
-0.3528961534088012,-0.3528961534088012,1.0011180374417699,0.004836738047940022
-0.3504143393285631,-0.3504143393285631,1.0055613064727111,0.004832483251342944
-0.3482157006073976,-0.3482157006073976,1.0017258387552876,0.004976465457517461
-0.3468986216823396,-0.3468986216823396,0.9993337070848198,0.004878416675565824
-0.34590613014515836,-0.34590613014515836,1.0002403029320477,0.004930466015820222
-0.3448751694049861,-0.3448751694049861,1.005222276789098,0.004904315268406485
-0.3437705905547773,-0.3437705905547773,0.9992951371229587,0.004910584709310764
-0.34283318354355286,-0.34283318354355286,1.001456047709916,0.00488472281773469
-0.34159649568173334,-0.34159649568173334,1.0046009643175213,0.004903764849386547
-0.3405130191502394,-0.3405130191502394,0.9964296430181099,0.005046002549630865
-0.33912653385850716,-0.33912653385850716,0.9958173870423945,0.004846621994668008
-0.3377208874124335,-0.3377208874124335,1.001632770869383,0.004858332416380731
-0.33689813530654644,-0.33689813530654644,1.0132914465978586,0.004951504805927457
-0.3361038773909968,-0.3361038773909968,0.997915676255029,0.00498334913817103
-0.33518942108130434,-0.33518942108130434,0.9941810884702956,0.005104186678119468
-0.3341263194408384,-0.3341263194408384,0.9985859627874781,0.004911359725464247
-0.3334546036181564,-0.3334546036181564,0.9964061076761178,0.005052811770961259
-0.3323337009976967,-0.3323337009976967,1.0011574945815487,0.004871684185681384
-0.33126457909311285,-0.33126457909311285,0.9982177859600776,0.004890179378717149
-0.32959791101311564,-0.32959791101311564,1.004811685125039,0.004946297390640858
-0.32828071219555566,-0.32828071219555566,0.9993506688667569,0.00494587281984943
-0.32697837002342567,-0.32697837002342567,0.993672437391869,0.004860380036139161
-0.3255833920105943,-0.3255833920105943,0.9960926856419826,0.005006320539001402
-0.3238616912036377,-0.3238616912036377,1.0023878488134916,0.004939440586506942
-0.32170567763168945,-0.32170567763168945,0.9941648654207356,0.004926406617418688
-0.3194607666460797,-0.3194607666460797,0.994264521232888,0.004825351513733926
-0.3177359691879246,-0.3177359691879246,1.002965201163844,0.005035889956069581
-0.3155282261337561,-0.3155282261337561,1.0032943859874537,0.004850799816750462
-0.3135359568892454,-0.3135359568892454,0.991720344698704,0.0048914170799031756
-0.31157286704619763,-0.31157286704619763,0.9911504917940424,0.0048724131813841194
-0.3099037642474286,-0.3099037642474286,1.0021951346949558,0.004900782305305622
-0.30858341390558053,-0.30858341390558053,1.0034847863645042,0.004917754546139406
-0.3076025587368349,-0.3076025587368349,1.0013142631898686,0.004855094493504077
-0.3067753509436443,-0.3067753509436443,0.9978125038811413,0.004904096453643413
-0.30549622717662717,-0.30549622717662717,0.9947818620816424,0.004882149205655035
-0.30388853192634996,-0.30388853192634996,0.9917617262891305,0.004848036612416008
-0.3023495286448451,-0.3023495286448451,1.0030447157372033,0.004987305286243422
-0.3016905454416701,-0.3016905454416701,0.9983117232122376,0.004892411868450761
-0.3005378600166296,-0.3005378600166296,1.0060253561787167,0.004959565248813871
-0.29959019723173697,-0.29959019723173697,0.9964045275628856,0.005073030670530996
-0.29882615126407475,-0.29882615126407475,0.9941038180439197,0.005016918519352429
-0.2979858745879028,-0.2979858745879028,1.0009557864042522,0.004845060261290943
-0.29689857380581086,-0.29689857380581086,1.003554988057473,0.00489852158654013
-0.2951547492863028,-0.2951547492863028,0.9980333614909455,0.004885713651836446
-0.29343084346619436,-0.29343084346619436,0.9990482316631738,0.004933423132411944
-0.29193173450694304,-0.29193173450694304,0.9970456216058897,0.004890308726858535
-0.29086780074067065,-0.29086780074067065,1.0019636487440933,0.00490971637032951
-0.28884825404675213,-0.28884825404675213,0.9954014156206814,0.004904046131962419
-0.2872876508656191,-0.2872876508656191,0.9994014139583116,0.004948831801145506
-0.28541849393877783,-0.28541849393877783,0.9993001230640722,0.004830631108804621
-0.2833238785613503,-0.2833238785613503,0.9960544699400276,0.00484068580202597
-0.28113042557233714,-0.28113042557233714,1.0025184802417015,0.004901076992680193
-0.27854616227050427,-0.27854616227050427,1.0009461933410946,0.0048412932213576015
-0.2765299318045436,-0.2765299318045436,1.0011442502593355,0.004849046606614242
-0.27513486283642125,-0.27513486283642125,0.993962884457939,0.004916448667399877
-0.2734743340937712,-0.2734743340937712,0.9981593968703631,0.0049048063831810835
-0.27216263371446986,-0.27216263371446986,1.0001500189484367,0.004926949369193986
-0.2713868730374088,-0.2713868730374088,0.9971458128839885,0.004888192189113646
-0.27035717439939616,-0.27035717439939616,1.0002165297937597,0.004854435651822949
-0.26913124007332956,-0.26913124007332956,0.9959757945965209,0.004862628010351187
-0.2680630022958212,-0.2680630022958212,0.9962220512241553,0.004898431548393504
-0.26649706300086107,-0.26649706300086107,0.999074198080028,0.0049156562835385356
-0.26557651058683407,-0.26557651058683407,0.9997217817804358,0.004922609492330374
-0.26467893941226067,-0.26467893941226067,1.000121037234242,0.005019428535369353
-0.2638955082846223,-0.2638955082846223,0.9972630163157318,0.005032552003574996
-0.26295919648182464,-0.26295919648182464,0.9984453863482561,0.004937726075420446
-0.26227853868331297,-0.26227853868331297,1.0028064500877818,0.0050700583849338406
-0.26157917857344726,-0.26157917857344726,1.0012165438023704,0.0048813889732988005
-0.2607134532328928,-0.2607134532328928,0.995022989818197,0.004878906412885124
-0.259985040446918,-0.259985040446918,0.9953824949271717,0.005025668418597855
-0.25863105006937986,-0.25863105006937986,0.9975888091066618,0.004953740821500945
-0.25756017908788637,-0.25756017908788637,0.9964786039837721,0.0049109318772274976
-0.2562688279409485,-0.2562688279409485,1.0012560837082838,0.004891446541629608
-0.2552702388740727,-0.2552702388740727,1.000985189571248,0.0049497167549872505
-0.25435586831808904,-0.25435586831808904,0.9955844263620242,0.0048876526176641595
-0.2530674957473821,-0.2530674957473821,1.0009198833004116,0.004857916701282009
-0.25174212401907425,-0.25174212401907425,1.0008871605479661,0.004936282226284979
-0.24926246918112155,-0.24926246918112155,1.0018362686108457,0.004857087656528517
-0.24684801802577566,-0.24684801802577566,0.9976096274965076,0.004836629088412534
-0.2449798743640713,-0.2449798743640713,1.0018246839711458,0.004838867767089024
-0.24235097461933036,-0.24235097461933036,0.9964657115553296,0.004890453189022705
-0.2404220501455711,-0.2404220501455711,1.0080384909925677,0.004938925673522147
-0.2394721388402104,-0.2394721388402104,0.9961397157789866,0.0048881057283376985
-0.23835571156814694,-0.23835571156814694,1.0028308055901427,0.004913855357980312
-0.23710669011343272,-0.23710669011343272,0.9947506310157191,0.004916014283710307
-0.23615150892510428,-0.23615150892510428,0.9988045545303683,0.004906485001289101
-0.23498565358604537,-0.23498565358604537,0.9943984717976043,0.004898811858831382
-0.23381617664272197,-0.23381617664272197,0.9998341358706522,0.00485355753852778
-0.2324186798883602,-0.2324186798883602,0.9965356877165794,0.004850495341755097
-0.23081338462798157,-0.23081338462798157,1.0065985016590122,0.004860837721739367
-0.22980545428290497,-0.22980545428290497,1.001859891848908,0.004935089917250871
-0.22901066301201353,-0.22901066301201353,1.0057812508358943,0.004984495493269727
-0.22809580169632682,-0.22809580169632682,1.0066284963762762,0.005115594442974223
-0.2270957892127626,-0.2270957892127626,1.0031997500944378,0.004848390664145322
-0.22631675836310022,-0.22631675836310022,1.0007941207574569,0.00504220822297621
-0.22503992695710623,-0.22503992695710623,1.0105077341570063,0.005006367433307687
-0.22384395219851286,-0.22384395219851286,1.006528916477422,0.004913622635143093
-0.2226089923584368,-0.2226089923584368,0.9968519937753554,0.00495519059343087
-0.22140464562398848,-0.22140464562398848,1.0063216212400954,0.00490551303213143
-0.2203151711197279,-0.2203151711197279,1.0029701478156219,0.004875720007461297
-0.21907427149126307,-0.21907427149126307,0.9949420199108404,0.00502118305068703
-0.217444681374036,-0.217444681374036,0.9978183018462531,0.004882662035741495
-0.21587207490010768,-0.21587207490010768,1.0001088043014408,0.004940841369302522
-0.21330529310653218,-0.21330529310653218,0.9991357137934864,0.004903672081716872
-0.21101279377107857,-0.21101279377107857,0.9948645311743091,0.004894797633877345
-0.20952059867486242,-0.20952059867486242,0.9939051388156044,0.005025513092519858
-0.20733980730583426,-0.20733980730583426,1.0020727302977999,0.0048426451709309105
-0.20530848277776387,-0.20530848277776387,1.0000349972357205,0.004884799843208282
-0.20394529949408025,-0.20394529949408025,0.9930684117053327,0.004929801771983255
-0.20242977037123638,-0.20242977037123638,1.0034116308205594,0.004916733428673711
-0.2012356988270767,-0.2012356988270767,1.0144659629974462,0.004917699129621968
-0.20033371673780492,-0.20033371673780492,0.9939397979559796,0.004881424386143771
-0.19933423438851605,-0.19933423438851605,0.9945047547220651,0.0048654180635570666
-0.19806643194897333,-0.19806643194897333,0.9997020889510584,0.004906761803667406
-0.19640407611004776,-0.19640407611004776,1.0026930789979924,0.004856081164835222
-0.1950080209564476,-0.1950080209564476,0.9908229233508712,0.004938119860566904
-0.19425193317656522,-0.19425193317656522,0.9970427794279111,0.0048230454959481564
-0.1932100596553937,-0.1932100596553937,1.0001612724099798,0.0049497283217762545
-0.1921101321837341,-0.1921101321837341,1.0061030377391205,0.004982266643504695
-0.1914440188455046,-0.1914440188455046,0.9936904158752693,0.005097782689927803
-0.190692850616324,-0.190692850616324,0.9952876443289256,0.004867523510913253
-0.18921814409695797,-0.18921814409695797,0.9966858816607317,0.004901718491828729
-0.18744718186353565,-0.18744718186353565,1.0037469046468428,0.004910868339095821
-0.18567592261606478,-0.18567592261606478,0.9983844952673724,0.0048969438234666715
-0.18436011523735943,-0.18436011523735943,0.995064650132085,0.004947688485360165
-0.18320792125377922,-0.18320792125377922,1.0088290796546282,0.004861292199892653
-0.18135064745220006,-0.18135064745220006,0.9941806358649862,0.004887910244607393
-0.17940523693177965,-0.17940523693177965,1.005249432388484,0.004943717235999555
-0.1762310528254602,-0.1762310528254602,1.002995305081247,0.00484100268544596
-0.17403652669891018,-0.17403652669891018,0.9970777888303308,0.004902745037180039
-0.1714530446974095,-0.1714530446974095,1.000805969396471,0.0048418867481715856
-0.1691749406469171,-0.1691749406469171,1.0014409553874897,0.004854776304525417
-0.16793404509371612,-0.16793404509371612,0.9933482708705477,0.0049102666156078684
-0.16631605836373636,-0.16631605836373636,0.9976353726005405,0.0049285001981119615
-0.16503629824219387,-0.16503629824219387,1.0029436503531377,0.004876109350170484
-0.16447246201860252,-0.16447246201860252,0.9980116511473691,0.004860782229894145
-0.16348579084369702,-0.16348579084369702,0.9926439873531165,0.004889825162090616
-0.16252089961635646,-0.16252089961635646,0.9897543745783601,0.004852473606495628
-0.16152172988731764,-0.16152172988731764,0.9962509329975509,0.004900742245530143
