time,time,flux,flux_err
-0.4994081766878556,-0.4994081766878556,0.9991953045970368,0.0005919831337221598
-0.4982457226514043,-0.4982457226514043,0.9992982777261538,0.000578365030786965
-0.4970706605222783,-0.4970706605222783,1.0004151276720146,0.0005804512739018603
-0.4961585463367631,-0.4961585463367631,1.000493040895085,0.0005870891390983466
-0.495220435770625,-0.495220435770625,1.0000143179191512,0.0005355673859634449
-0.49452137372795735,-0.49452137372795735,0.9998769585843108,0.0005390272160489143
-0.49342414369216386,-0.49342414369216386,0.9994324661603574,0.0005308357959947862
-0.4923894840214416,-0.4923894840214416,1.0009135182012732,0.000528568026879112
-0.4915615643567435,-0.4915615643567435,1.0001028883832617,0.0005278218155102127
-0.49063198042667866,-0.49063198042667866,0.9999491127242379,0.0005336866574119766
-0.4899786101009795,-0.4899786101009795,0.9990504612152102,0.0005352938593022117
-0.48901705753632996,-0.48901705753632996,1.0001595237652428,0.0005330394458890662
-0.488468184552039,-0.488468184552039,0.999787579349837,0.0005415133443541604
-0.4872994412934986,-0.4872994412934986,1.0006153763113108,0.0005307734161702519
-0.4864753915321671,-0.4864753915321671,0.999679324480789,0.0005261258133022507
-0.48545643346046746,-0.48545643346046746,0.999872387206007,0.0005282213860253616
-0.48455800562419427,-0.48455800562419427,1.0008971280361474,0.0006039429180821343
-0.4837194601439023,-0.4837194601439023,1.0000587641038585,0.000535465983880945
-0.4830402539058468,-0.4830402539058468,1.0001410133900903,0.000530583503628498
-0.4823770574742866,-0.4823770574742866,1.000399031210275,0.0005417009189810635
-0.4814201164944734,-0.4814201164944734,1.000404541330206,0.0005307514524245845
-0.4806068301767937,-0.4806068301767937,1.0001673111954883,0.0005261113266464936
-0.4795878153440299,-0.4795878153440299,0.9998004738049395,0.0005282585520217691
-0.4785813836742818,-0.4785813836742818,0.999973100491539,0.0005378555815498512
-0.4776385088999177,-0.4776385088999177,1.0001321169954736,0.0005354753302084872
-0.4771148897506464,-0.4771148897506464,1.000477064219187,0.0005286795906841869
-0.4762811493922072,-0.4762811493922072,1.000128126654698,0.0005417839625176346
-0.47532129719202204,-0.47532129719202204,0.9998781227203246,0.0005307711746004959
-0.4745890080643676,-0.4745890080643676,1.0006751207403104,0.000528571215361349
-0.473623098261578,-0.473623098261578,1.0008513875372917,0.000597067848985355
-0.4726147241028684,-0.4726147241028684,0.9996800200905682,0.0005352639167204366
-0.4716799854682904,-0.4716799854682904,0.9999418872766735,0.0005380585664342632
-0.4712077002276601,-0.4712077002276601,0.999855382893833,0.0005263528101777648
-0.47026330757435064,-0.47026330757435064,1.0002815810491186,0.0005440006422899972
-0.46945269064508466,-0.46945269064508466,1.0001553267568148,0.0005308766102802974
-0.4687204250969444,-0.4687204250969444,1.0006152511376545,0.0005285542089346425
-0.4677075671704188,-0.4677075671704188,0.9994562769580689,0.0005980664635997637
-0.4667460709554689,-0.4667460709554689,0.9997028408643743,0.0005353455317707476
-0.4657643054379605,-0.4657643054379605,1.0004885009091509,0.0005382130198388135
-0.4653391314584951,-0.4653391314584951,1.000982391514827,0.0005264897770401599
-0.4642721377457292,-0.4642721377457292,1.0004153741092132,0.0005309111568188902
-0.4635657400299351,-0.4635657400299351,0.9995165415012627,0.0005441086337787069
-0.46285184216912967,-0.46285184216912967,0.9993834281152696,0.0005283997855811708
-0.4617747198988127,-0.4617747198988127,1.0006056281653186,0.0005284586778763567
-0.46077368308770017,-0.46077368308770017,0.9994920872946059,0.0005332584661623771
-0.46007503748855927,-0.46007503748855927,1.0006960893404273,0.0006083164561681898
-0.45952154688038716,-0.45952154688038716,1.000138848773355,0.0005286470212539191
-0.4585458716994708,-0.4585458716994708,0.9997646693580148,0.0005308502524805646
-0.45778319106057097,-0.45778319106057097,0.9996634204106843,0.000544248120745444
-0.45713258528330697,-0.45713258528330697,0.9994902803228257,0.0005260147021117227
-0.4561133434450767,-0.4561133434450767,1.0001648581455007,0.0005285686151841708
-0.4550087648099179,-0.4550087648099179,1.0007896606201554,0.0005354062410816844
-0.45420633682729206,-0.45420633682729206,0.999964608128713,0.0006091957629390867
-0.4536529565937144,-0.4536529565937144,0.9993587767993788,0.0005284616575831539
-0.45253489248516415,-0.45253489248516415,1.0004803356957397,0.0005309233620033124
-0.4518691095932354,-0.4518691095932354,1.0002662359703731,0.0005445409111926058
-0.45126402418791256,-0.45126402418791256,0.999536111062139,0.0005261091779007955
-0.45024472562772644,-0.45024472562772644,1.0004857058739245,0.0005286333924805912
-0.4491401118198155,-0.4491401118198155,1.0001240982786022,0.0005353082793572635
-0.44833763622177686,-0.44833763622177686,1.0001508062454345,0.0006104069971118093
-0.4477843663698877,-0.4477843663698877,0.9995537664851006,0.0005286466419072157
-0.44666626990615443,-0.44666626990615443,0.9998919356637334,0.0005308827551288923
-0.44581894412549444,-0.44581894412549444,1.000096461088472,0.0005449033044288436
-0.44538919056763004,-0.44538919056763004,0.9995050351694956,0.0005260676644714721
-0.4443761078574425,-0.4443761078574425,1.0007132665007323,0.0005287225174918289
-0.44327145886904873,-0.44327145886904873,0.9997259587034358,0.000535337504826815
-0.4424219857602111,-0.4424219857602111,1.0004630818378286,0.0006115838779522909
-0.44191577617757505,-0.44191577617757505,1.0002193671866928,0.0005288350287084913
-0.4407976473981762,-0.4407976473981762,0.9996020926194232,0.000530818244547931
-0.43995029524371604,-0.43995029524371604,1.0007005035140306,0.0005451699762520428
-0.43937978920907883,-0.43937978920907883,1.0005504363954565,0.00052618761923993
-0.43850749011098744,-0.43850749011098744,0.9990647480378707,0.0005286325896026977
-0.4374028059814464,-0.4374028059814464,1.0005018458574224,0.0005353887861100649
-0.43646053960037534,-0.43646053960037534,1.0000933833929821,0.0006105461018348988
-0.43577547108802717,-0.43577547108802717,0.9995940113026547,0.0005312092514078989
-0.4349178861604287,-0.4349178861604287,1.0004144547884213,0.0005309946274008276
-0.4340816464012732,-0.4340816464012732,1.0004608497520895,0.0005453274499181797
-0.43350892835601373,-0.43350892835601373,0.9999332919408838,0.0005285847511474652
-0.43234616356753575,-0.43234616356753575,1.0005875787297032,0.0005263389089479335
-0.4314108343103271,-0.4314108343103271,0.9991129790701423,0.0006112801064669568
-0.43039985558275473,-0.43039985558275473,0.999451183678574,0.0005359340589956431
-0.42981295620461424,-0.42981295620461424,0.9992580581735595,0.0005313259879572852
-0.4289930605799782,-0.4289930605799782,0.9995743663859364,0.0005285148910304504
-0.42804426994971434,-0.42804426994971434,0.9997517653905517,0.0005456676032475643
-0.42748967604761673,-0.42748967604761673,0.9995153480336529,0.0005307974525049699
-0.4264775650010506,-0.4264775650010506,1.000037857962571,0.0005263035621445196
-0.42554222352873694,-0.42554222352873694,1.0003566610549743,0.0006125352049518707
-0.4244897606205541,-0.4244897606205541,0.9992311962015344,0.0005338649868546025
-0.4237979312682455,-0.4237979312682455,1.0002019380472065,0.000533746235397658
-0.4231244783286002,-0.4231244783286002,0.9998937414502034,0.00052841360238226
-0.4221286423049605,-0.4221286423049605,0.9992585051081712,0.000545798705409907
-0.42157413008158073,-0.42157413008158073,1.0002793844591396,0.0005308810473698976
-0.420608966528971,-0.420608966528971,0.999267817812355,0.0005263365366759133
-0.4196736127789336,-0.4196736127789336,0.9998362837008848,0.0006136431444217315
-0.4186210981858494,-0.4186210981858494,0.9986409443702133,0.0005338559285550853
-0.4178762192353133,-0.4178762192353133,0.9999772368548501,0.0005336488887351762
-0.41708678860268267,-0.41708678860268267,0.9996041559686926,0.0005287634421717912
-0.41613630146653124,-0.41613630146653124,0.999263806272541,0.0005288688143016757
-0.4153993286862715,-0.4153993286862715,0.9997716656180561,0.0005378610100460542
-0.4145909748801387,-0.4145909748801387,1.000900136726648,0.0005288669698279888
-0.41385618695644555,-0.41385618695644555,1.0008705680443222,0.0005333273055337788
-0.4129266653303148,-0.4129266653303148,0.9984349744118355,0.000613831069164248
-0.412172396957385,-0.412172396957385,0.9998688103596306,0.0005336388042536216
-0.4113873140234318,-0.4113873140234318,1.0006171844852463,0.0005287083889276896
-0.4103670611281814,-0.4103670611281814,0.9990960038885012,0.0005315870519606952
-0.4096733637769375,-0.4096733637769375,1.000503938397441,0.0005460289977832865
-0.40863576121550976,-0.40863576121550976,0.9996277377906534,0.0005287217676194579
-0.40776757979779177,-0.40776757979779177,0.997795337015306,0.0006166684434516392
-0.40670423640840453,-0.40670423640840453,0.9985906733467529,0.0005294442293111267
-0.4057312048154017,-0.4057312048154017,1.0011488919885203,0.000533572627257494
-0.4051964342753763,-0.4051964342753763,0.9990048672563002,0.00053178230490662
-0.4043155373838999,-0.4043155373838999,0.9994034704810824,0.0005262977827553722
-0.40357094262244575,-0.40357094262244575,1.0001414127555384,0.0005508584962080433
-0.40273163421925345,-0.40273163421925345,1.0007857545266825,0.0005289468806734044
-0.40174666479647386,-0.40174666479647386,0.9979645027815683,0.0006181970199904553
-0.400835646688256,-0.400835646688256,0.9988358502071538,0.0005295227817830143
-0.39981733836812056,-0.39981733836812056,1.0002423632963284,0.0005333744298372392
-0.3989923577542413,-0.3989923577542413,0.9991447859659177,0.0005294757187173004
-0.3982466640039547,-0.3982466640039547,0.9994037845332088,0.0005285926988555353
-0.39743316934991524,-0.39743316934991524,1.0002853434617607,0.0005440627555152095
-0.3966801817039595,-0.3966801817039595,1.0000366481706007,0.0005359736048457888
-0.39587802277787887,-0.39587802277787887,0.9989286440114942,0.0006197564277068677
-0.3949670570232229,-0.3949670570232229,0.9988095385629929,0.0005295510841257502
-0.3939486683699215,-0.3939486683699215,0.9985899872943091,0.0005330922937525188
-0.3931237658619011,-0.3931237658619011,0.9996174858466862,0.0005296654429785996
-0.3922523283057672,-0.3922523283057672,1.0006351907692053,0.0005311085301213694
-0.39144954412449806,-0.39144954412449806,1.001570149515477,0.0005424075197783372
-0.39051726413918003,-0.39051726413918003,0.9990533198875496,0.0005384896983301774
-0.3899809800097046,-0.3899809800097046,0.9963182669016921,0.0006182380954554646
-0.3890984673897947,-0.3890984673897947,0.99876599168174,0.0005297103682806281
-0.3880799984035548,-0.3880799984035548,0.9997940881988023,0.0005332341058736696
-0.38725517400102943,-0.38725517400102943,0.9995574646363539,0.0005297291157861802
-0.3863837237660846,-0.3863837237660846,0.9999823286654678,0.000530970697496089
-0.3854172223601381,-0.3854172223601381,0.9995588006283779,0.0005291870588716596
-0.384624488128793,-0.384624488128793,0.9997877153761661,0.0005513978521441502
-0.38411235039470737,-0.38411235039470737,0.9966007692273386,0.0006196061139565366
-0.38322987782712514,-0.38322987782712514,0.9988039294640961,0.0005297799484835364
-0.3822113284995794,-0.3822113284995794,1.0002735445508146,0.0005333131905678918
-0.3813865822108255,-0.3813865822108255,0.9990489361386867,0.0005296317723239239
-0.38046459760766993,-0.38046459760766993,0.9987818448050003,0.0005305237331913025
-0.3793872580804873,-0.3793872580804873,0.9988680411347227,0.0005428664624195964
-0.37864834102197165,-0.37864834102197165,0.9987276697284175,0.0005361466935125507
-0.37818745626559575,-0.37818745626559575,0.9959939263789248,0.0006232788154969376
-0.3773612883352143,-0.3773612883352143,0.9986937100354906,0.0005297977635928509
-0.3763426586437163,-0.3763426586437163,1.0000969627939198,0.0005331769937766204
-0.37551799046041195,-0.37551799046041195,1.0001117489952678,0.0005297158623349786
-0.3745960029528305,-0.3745960029528305,1.0004422629849956,0.0005308094389772241
-0.37347169369772926,-0.37347169369772926,0.9988443366743853,0.0005432469192590938
-0.3727289115455733,-0.3727289115455733,0.996378386043385,0.0005338654324958702
-0.37208786289065754,-0.37208786289065754,0.9966581094865383,0.0006266355687576525
-0.371492698906286,-0.371492698906286,0.9990634351375484,0.000529872017689867
-0.3704739888656604,-0.3704739888656604,1.0004644216963432,0.0005331863868068786
-0.36964939876475,-0.36964939876475,0.9993695656122125,0.0005296486379530376
-0.3687274083297325,-0.3687274083297325,1.0000665232945067,0.0005306893550695102
-0.367565773708202,-0.367565773708202,0.9990185788019206,0.0005292775068375659
-0.36665676590632756,-0.36665676590632756,0.9965668080373428,0.0006260570760892522
-0.36580056456259624,-0.36580056456259624,0.9958634240469479,0.0005350265127550694
-0.36541075647992327,-0.36541075647992327,0.9989583446353839,0.0005450345084207829
-0.3645391086623476,-0.3645391086623476,0.9998881552834094,0.0005330990783003866
-0.36378080712465816,-0.36378080712465816,0.9991021782504304,0.0005295366493983064
-0.3628588138162286,-0.3628588138162286,0.9997749703088095,0.0005307246359510668
-0.3616971666653626,-0.3616971666653626,0.998917523084085,0.0005294991368594221
-0.3606661712555706,-0.3606661712555706,0.9956449492336057,0.0006277917454487441
-0.35980700373670516,-0.35980700373670516,0.9985513395734497,0.0005319849630871506
-0.3590938552879379,-0.3590938552879379,0.9995948558440236,0.0005497234148734993
-0.35857504638579485,-0.35857504638579485,0.9990194286728414,0.0005288361663020235
-0.35776375516084047,-0.35776375516084047,0.99937250004749,0.0005318784693185276
-0.3569902192875361,-0.3569902192875361,0.9999717415821857,0.0005307280928098982
-0.3558285596618134,-0.3558285596618134,0.9990815904413157,0.0005295415685393726
-0.3547975294492062,-0.3547975294492062,0.9973182478120156,0.0006293940491454195
-0.3539383845971315,-0.3539383845971315,0.9987506789136885,0.0005319607486525916
-0.3530950388026213,-0.3530950388026213,0.9998554444277732,0.000532928254720748
-0.352546192656655,-0.352546192656655,0.999326631687571,0.0005434515359739738
-0.3517629568864777,-0.3517629568864777,0.999179199020603,0.000534365421804135
-0.35112162485306725,-0.35112162485306725,1.0000949674443445,0.0005306800568190556
-0.3499599527215196,-0.3499599527215196,0.9996226051559752,0.000529739764001862
-0.3489288876587125,-0.3489288876587125,0.9961907983424136,0.0006299163860753388
-0.348069765520404,-0.348069765520404,0.9991581496786612,0.0005319494028193654
-0.3472263813895552,-0.3472263813895552,1.0006843869850195,0.0005331580672760798
-0.3466547034186533,-0.3466547034186533,0.9988932481054936,0.000529122458520838
-0.34579956506272536,-0.34579956506272536,0.9997503658409513,0.0005316998290678422
-0.34508895080443835,-0.34508895080443835,1.0003750032133596,0.0005479558705756803
-0.34409134583615925,-0.34409134583615925,0.998630124541138,0.0005296175444401414
-0.343060245907418,-0.343060245907418,0.9978984877561196,0.0006305245027624928
-0.3421497526037456,-0.3421497526037456,0.9981594858975772,0.0005294109341700871
-0.34131521887647975,-0.34131521887647975,1.0008787434108672,0.0005352841888073997
-0.3407861148713437,-0.3407861148713437,0.9990277003125142,0.0005290569826404113
-0.33993093699036764,-0.33993093699036764,0.9997907681564033,0.0005316383005908369
-0.3392203104148848,-0.3392203104148848,0.9997631987498163,0.000548180761291076
-0.3382227390137359,-0.3382227390137359,0.9989717716594801,0.0005297050150707429
-0.33719160416417254,-0.33719160416417254,0.9979520013843327,0.0006310011882520051
-0.3362811635526214,-0.3362811635526214,0.9984630956909774,0.0005291592544181907
-0.33526197139594843,-0.33526197139594843,1.0003883342107844,0.00053305298992664
-0.3349142886134814,-0.3349142886134814,0.9996688892148284,0.0005313016982431333
-0.3340623089648943,-0.3340623089648943,1.000882803123959,0.0005317593082633319
-0.33335167004870525,-0.33335167004870525,1.0006213102184238,0.0005485427356618548
-0.33235413220704685,-0.33235413220704685,0.9987616554115014,0.0005296785394642667
-0.33132296248381865,-0.33132296248381865,0.9976243513445379,0.000631419862810303
-0.3304125745406054,-0.3304125745406054,1.0000434405579592,0.0005292382777146146
-0.3293933020118402,-0.3293933020118402,1.0003202449165187,0.0005331229179310517
-0.32889743778177943,-0.32889743778177943,0.9994578324165856,0.0005314842070495999
-0.3281072932756615,-0.3281072932756615,0.9993193864903027,0.0005292514707292103
-0.32716684051679296,-0.32716684051679296,1.0003013318200387,0.0005296465395967534
-0.32623820459571107,-0.32623820459571107,0.9989676212113595,0.0005509426240984697
-0.3254543208033283,-0.3254543208033283,0.9982658175581032,0.0006318937348269417
-0.3245439855920722,-0.3245439855920722,0.9997129284951045,0.0005290699462032558
-0.32352463271422494,-0.32352463271422494,0.9995490896074605,0.0005329911563084746
-0.32301043394459156,-0.32301043394459156,0.9995684604486156,0.0005321458671926963
-0.32221013454927744,-0.32221013454927744,0.9993928011908502,0.0005287137775390714
-0.3212982411082521,-0.3212982411082521,0.9992590966512559,0.0005295978216856092
-0.32018586757862977,-0.32018586757862977,0.9997859459556556,0.0005341017195016164
-0.319346800962694,-0.319346800962694,0.9996206471393719,0.0006469999203863532
-0.31867539670606676,-0.31867539670606676,1.0007210940880324,0.000529114087381546
-0.3176559634559908,-0.3176559634559908,0.9994967759336264,0.0005330802884726764
-0.3170630516022811,-0.3170630516022811,0.9993099920665818,0.0005295053255367865
-0.3162720088500919,-0.3162720088500919,1.0004840939642354,0.0005287955404509957
-0.31529623819233166,-0.31529623819233166,0.9998959852768519,0.0005319832423649389
-0.3143172504541326,-0.3143172504541326,0.9994641268014695,0.0005340135616528454
-0.31309565175238274,-0.31309565175238274,1.0015652168874936,0.0005359555309586764
-0.3127197734946094,-0.3127197734946094,0.9983002938959913,0.0006419981543486978
-0.31178729423695584,-0.31178729423695584,1.0000717163363269,0.0005331111332202668
-0.3111944642041635,-0.3111944642041635,0.9993424329550388,0.0005293655812564138
-0.3102393636584111,-0.3102393636584111,1.0003662331097338,0.0005287044145079881
-0.3092191874629407,-0.3092191874629407,0.9987247912514942,0.0005296697575920774
-0.3083516069159941,-0.3083516069159941,1.0002838404528096,0.0005361558330058253
-0.3071790045885791,-0.3071790045885791,0.9999907978602801,0.0005333838770032799
-0.306601180681173,-0.306601180681173,0.9996864829023313,0.0006309249357369292
-0.30588793591396096,-0.30588793591396096,0.9996280427664586,0.0005491873762265546
-0.3053258768216892,-0.3053258768216892,1.0007971809170146,0.000529389530948716
-0.3043707835795885,-0.3043707835795885,0.9999237332179367,0.000528831107489314
-0.3032502759455838,-0.3032502759455838,0.9994549525034966,0.0005295470278467131
-0.30234850794390694,-0.30234850794390694,0.9993503851520013,0.0005357698769103536
-0.3013103327568388,-0.3013103327568388,1.000361275739401,0.0005333149488851168
-0.3006961103338199,-0.3006961103338199,1.0002019985320094,0.0006312249632744588
-0.2998522343976674,-0.2998522343976674,0.9998914374983034,0.0005262243425945629
-0.2988860166444738,-0.2988860166444738,0.9996140218887868,0.0005482766763676263
-0.29805412679725124,-0.29805412679725124,0.9995442048719758,0.0005292566151667234
-0.29714638897835355,-0.29714638897835355,1.0002775377844748,0.0005337748193711222
-0.29626871061695964,-0.29626871061695964,0.9998512408104233,0.0005356046749833792
-0.2954207448872694,-0.2954207448872694,1.0005724716583753,0.0005334444714121589
-0.2947323163634792,-0.2947323163634792,0.9994953348037805,0.0006293865844154634
-0.2938910398811913,-0.2938910398811913,0.9997054935756475,0.000528598498181991
-0.2929704417782887,-0.2929704417782887,0.9998518827764556,0.0005486786805870741
-0.2921855209191563,-0.2921855209191563,1.0002737019975996,0.0005292069569991047
-0.29112773096953787,-0.29112773096953787,1.000608198229181,0.0005338662454211923
