time,time,flux,flux_err
-0.49990023653376764,-0.49990023653376764,0.9994204522568664,0.00021168896333308498
-0.49977395423185084,-0.49977395423185084,0.99743730313857,0.00021211466651974148
-0.49966494947618967,-0.49966494947618967,0.9952803635045564,0.0001860671986542185
-0.49953510247567295,-0.49953510247567295,0.9994954138210058,0.000196533593818581
-0.4994404010256176,-0.4994404010256176,0.9970797908280321,0.00018928747038062036
-0.49932804244236306,-0.49932804244236306,0.9968484555838761,0.00019417270070391232
-0.49920739326216934,-0.49920739326216934,0.9999501926810968,0.00019098134387737716
-0.4991161612658317,-0.4991161612658317,0.9944456722106374,0.0001946347161982188
-0.4989940017019066,-0.4989940017019066,0.9932560372925471,0.00019115602780336977
-0.49888516133841565,-0.49888516133841565,0.998831932308806,0.00019457142092525905
-0.49878973306667546,-0.49878973306667546,0.9947610124627826,0.00018569483371131749
-0.49865988233447067,-0.49865988233447067,0.9993911736982997,0.00019643541234631328
-0.49856378791168227,-0.49856378791168227,0.9958509187826984,0.00018887573401977765
-0.49844581895409734,-0.49844581895409734,0.9960242307558929,0.0001938651721470107
-0.49833217730977425,-0.49833217730977425,0.9998821852137647,0.00019080297884707475
-0.49823394552515765,-0.49823394552515765,0.9948048382796341,0.00019449761748868564
-0.4981162419412996,-0.4981162419412996,0.9998058503215175,0.0001918090925032633
-0.49800548331147637,-0.49800548331147637,0.99599343774473,0.00019447032140506516
-0.4979075149963904,-0.4979075149963904,0.9973474315397309,0.00018634794382018616
-0.4977846622076797,-0.4977846622076797,1.0002405823859963,0.00019640983458499485
-0.49768297380085613,-0.49768297380085613,0.9960416894511379,0.00018918954395687377
-0.4975677964274411,-0.4975677964274411,0.9981978313172297,0.0001942567703835277
-0.49745669197176456,-0.49745669197176456,1.0011789776313802,0.00019758513656954803
-0.4973519990404071,-0.4973519990404071,0.9974606561339033,0.00018803077468002588
-0.497234016788731,-0.497234016788731,0.9995444956794911,0.00019183528891446414
-0.4971246692360964,-0.4971246692360964,0.9943839906473405,0.00019429881493848223
-0.49701689478065847,-0.49701689478065847,0.9958516145082863,0.0001862087113782783
-0.49690228540242176,-0.49690228540242176,0.9997508871296577,0.000200007280811995
-0.49679391247472465,-0.49679391247472465,0.9959850494872631,0.0001852980067849112
-0.49668009657179935,-0.49668009657179935,1.0003914525353594,0.00019172556610913655
-0.49657154890978034,-0.49657154890978034,0.9989865456405745,0.00019996467115630402
-0.4964552831185031,-0.4964552831185031,1.000261305871396,0.00018561018665575775
-0.49634640512084616,-0.49634640512084616,0.9951221289647092,0.00019513367488332563
-0.4962302713819099,-0.4962302713819099,1.0000206604086752,0.0001964696802913153
-0.49612249771712413,-0.49612249771712413,0.9972558602566813,0.0001880162104471693
-0.4960028228561498,-0.4960028228561498,1.000063363598524,0.00019299460678685217
-0.4958884485286205,-0.4958884485286205,0.995395587487731,0.00019323620960310509
-0.4957809507484313,-0.4957809507484313,0.9999317739783177,0.00019131015203953394
-0.49566101064134216,-0.49566101064134216,0.9970164554688559,0.00019537685798957672
-0.49555249162544895,-0.49555249162544895,1.0011863898936906,0.00019104508696764704
-0.4954499071365078,-0.4954499071365078,0.9962083817422996,0.00018625325374523977
-0.49532944128407763,-0.49532944128407763,0.9956120447097799,0.00019969062473292474
-0.49522998074346275,-0.49522998074346275,0.999562314697872,0.00018568533331757511
-0.4951098982571466,-0.4951098982571466,0.9953105502863394,0.0001952108771365318
-0.49500496326722043,-0.49500496326722043,1.000199790981375,0.00019644545802047095
-0.4948803935388909,-0.4948803935388909,0.9964589895260106,0.00018791416334947264
-0.49477751647091284,-0.49477751647091284,1.0006154143587005,0.00019304910542226124
-0.4946645447533157,-0.4946645447533157,0.9959500451809268,0.00019314595258612322
-0.49455564655733897,-0.49455564655733897,1.0000934820052825,0.00019133756478089962
-0.4944497058101177,-0.4944497058101177,0.9954051559056671,0.00019494203026555566
-0.4943363175837746,-0.4943363175837746,0.9948775724069152,0.00018535438532900564
-0.49422947920148913,-0.49422947920148913,0.9992305192081933,0.0001918624849756561
-0.4941181409877373,-0.4941181409877373,0.9967488126745708,0.00019979216669015366
-0.49400517911885655,-0.49400517911885655,0.9966920044077024,0.00018796006867370454
-0.4939022976293998,-0.4939022976293998,1.0005791551209589,0.00019314312307595042
-0.4937893275518803,-0.4937893275518803,0.9953401198109079,0.00019309223697562458
-0.4936804292833443,-0.4936804292833443,1.0005435810136878,0.00019135732355242752
-0.49357448572264107,-0.49357448572264107,0.9958353756723509,0.0001950089302399557
-0.4934611057139463,-0.4934611057139463,0.9941884811067407,0.00018517055851702296
-0.4933542587229624,-0.4933542587229624,1.0008431904061172,0.00019192509884559367
-0.4932429241345687,-0.4932429241345687,0.9943106901902811,0.00019949393792216235
-0.49312946240875705,-0.49312946240875705,0.9992905739762262,0.00018581153631233664
-0.4930219797594404,-0.4930219797594404,0.9960396297193272,0.00019513256703670775
-0.4929071087056414,-0.4929071087056414,0.9958970460740412,0.0001931616747904598
-0.49280521201471006,-0.49280521201471006,1.0004188520572657,0.0001914014775446336
-0.49269226399283356,-0.49269226399283356,0.9984346855926752,0.00019531881365251192
-0.4925788921845097,-0.4925788921845097,0.999009458689779,0.00018593172692810288
-0.4924790382516576,-0.4924790382516576,0.9996655797160635,0.00019181635652989372
-0.49236070563472084,-0.49236070563472084,0.9969090690435525,0.00019990586801700797
-0.49225424644600224,-0.49225424644600224,0.9992846063857155,0.0001858889079685623
-0.4921453621489036,-0.4921453621489036,0.9961981115498763,0.00019531891440887332
-0.49202909084661145,-0.49202909084661145,0.996494082888443,0.00019333744481140892
-0.4919299947523811,-0.4919299947523811,1.0009892722694087,0.0001914508274733976
-0.4918100422191472,-0.4918100422191472,0.9962168254412097,0.0001951063001516628
-0.4916966785934719,-0.4916966785934719,0.9965757891548774,0.00018574122799492064
-0.49160381778792017,-0.49160381778792017,0.9998967238517806,0.00019186120278770434
-0.49147848708685443,-0.49147848708685443,0.9966756391502033,0.00019985948316090423
-0.4913725342278667,-0.4913725342278667,0.9984436866109349,0.00018831799087848643
-0.4912696394164996,-0.4912696394164996,1.0007120810767662,0.00019317756853073857
-0.49114699338890233,-0.49114699338890233,1.0003876063553006,0.00019648086305106057
-0.491051855438846,-0.491051855438846,0.9949131224431044,0.00018805336268521838
-0.4909278205259042,-0.4909278205259042,0.9964523436039574,0.00019508841025931182
-0.49081932380337745,-0.49081932380337745,1.0005831303259423,0.0001914192080607782
-0.490723738595527,-0.490723738595527,0.9955523479564267,0.0001863494543739107
-0.4905962686150616,-0.4905962686150616,0.9960148464458858,0.00020000643242532528
-0.4904968128213255,-0.4904968128213255,0.9999095807717329,0.0001859353777495921
-0.490387925948437,-0.490387925948437,0.9989781482415833,0.00019552127531037938
-0.490271773398382,-0.490271773398382,1.0004167218302662,0.00019642460744632675
-0.490175240710947,-0.490175240710947,0.996045376187294,0.0001882299526560785
-0.49004979984746766,-0.49004979984746766,0.9961698265458203,0.00019501206426519998
-0.48994410787237397,-0.48994410787237397,1.0001970609580941,0.00019137534592360972
-0.48984152055531494,-0.48984152055531494,0.9970219296576104,0.0001863778850312948
-0.4897184719469408,-0.4897184719469408,1.0004029536794572,0.0002000303222414067
-0.48961717509322256,-0.48961717509322256,0.9974069703526549,0.0001858246415086593
-0.48950570702807567,-0.48950570702807567,0.9989684484188677,0.00019555311464637977
-0.48939655342514643,-0.48939655342514643,1.0000176309238045,0.0001964056139931943
-0.4892930246629234,-0.4892930246629234,0.9977772849009924,0.00018856367528672236
-0.48916911427055965,-0.48916911427055965,1.0022275054316734,0.0001933562522162678
-0.48904646544085323,-0.48904646544085323,1.0000897842867038,0.00019629880612063072
-0.4889359372502199,-0.4889359372502199,0.9988674262208818,0.00018844182429268266
-0.4888190267510268,-0.4888190267510268,0.9991118074557634,0.00019318906013229676
-0.48871306803084735,-0.48871306803084735,0.9954364696338217,0.0001932425100477885
-0.488609215974833,-0.488609215974833,0.9969047322702022,0.00018646632090875984
-0.4884931627629555,-0.4884931627629555,1.0000447292717298,0.00020003438874268927
-0.4883848768264201,-0.4883848768264201,0.995801753075398,0.00018566959235420091
-0.488277980111225,-0.488277980111225,0.9991615282040408,0.0001919856588917463
-0.4881666665976354,-0.4881666665976354,0.9959244928034352,0.0001996485473956771
-0.48806072287361957,-0.48806072287361957,0.9963038343398957,0.00018821477539627954
-0.4879438079589292,-0.4879438079589292,1.0004426333971765,0.00019331024980209516
-0.48783785093857546,-0.48783785093857546,0.996522502675267,0.00019312550001696936
-0.487729798615932,-0.487729798615932,0.9967690155417339,0.00018634339574736717
-0.4876179419434763,-0.4876179419434763,0.9999450708512588,0.00019995002513640948
-0.4874984623126338,-0.4874984623126338,0.9974422680025781,0.00018588838947899343
-0.4874027596958982,-0.4874027596958982,0.9984339421654095,0.00019190705166084488
-0.48727744652258165,-0.48727744652258165,0.9981286628363911,0.0001999388975418296
-0.4871715051869174,-0.4871715051869174,0.9978619110966575,0.00018853540663908976
-0.4870685891769938,-0.4870685891769938,0.9994666200019667,0.00019327163299473325
-0.48694863054410575,-0.48694863054410575,0.9978860661489108,0.00019346484736927768
-0.48685373479174815,-0.48685373479174815,0.999394143123357,0.00019148518429475592
-0.48673376629293585,-0.48673376629293585,0.9981409820222652,0.00019525489712213188
-0.48662044979444374,-0.48662044979444374,0.9990397192954539,0.00018608117559767946
-0.48652753929286235,-0.48652753929286235,0.9996794325909557,0.00019202371264128267
-0.48640222978224157,-0.48640222978224157,0.9961044553921481,0.00019970592355204034
-0.48629629082928005,-0.48629629082928005,0.9971782897067711,0.00018834953243717555
-0.4861933704059297,-0.4861933704059297,0.999719776996978,0.00019326278863516881
-0.4860734134863705,-0.4860734134863705,0.9937424631030807,0.00019292620136868058
-0.4859785175913913,-0.4859785175913913,1.0003314818762927,0.0001915490534770658
-0.48585854637351245,-0.48585854637351245,0.9960676857230357,0.00019486555141391085
-0.48574523794395075,-0.48574523794395075,0.9965059922126658,0.00018594227820822892
-0.4856523189029744,-0.4856523189029744,0.9992942983642322,0.00019198528685387736
-0.4855270130577708,-0.4855270130577708,0.9981821239103823,0.00019995415702014533
-0.485421076482308,-0.485421076482308,0.996332479313651,0.00018849979866534852
-0.48531815164652414,-0.48531815164652414,1.0003065457893943,0.00019332679061301422
-0.48519819644642154,-0.48519819644642154,0.9974379646820097,0.0001934409349089579
-0.4851033004032345,-0.4851033004032345,1.0006103390415073,0.0001916632600541711
-0.48498332647534853,-0.48498332647534853,0.9975947113066596,0.00019513073096050904
-0.48487002609837476,-0.48487002609837476,0.9977934212667252,0.00018603746753165367
-0.4847770985268426,-0.4847770985268426,1.0002182755320976,0.00019204125446909516
-0.4846503960175227,-0.4846503960175227,0.995510493765976,0.00019963290001879966
-0.4845453446381782,-0.4845453446381782,0.9994222066881384,0.00018605125156824417
-0.4844364487483858,-0.4844364487483858,0.9944274250394212,0.00019516298016191924
-0.48432027794027166,-0.48432027794027166,0.999180597968787,0.00019631778158713057
-0.4842237830528674,-0.4842237830528674,0.9963253929859185,0.00018824118084664364
-0.484095503611799,-0.484095503611799,0.9960928993603867,0.0001948653324009136
-0.48399263972356155,-0.48399263972356155,1.0008918655311962,0.00019150631458446653
-0.48388304772178115,-0.48388304772178115,0.9957229698097037,0.00018625787688470596
-0.483766970612605,-0.483766970612605,1.0000705045246507,0.00019998853088625985
-0.4836587328419853,-0.4836587328419853,0.9952745924542311,0.00018575948061695966
-0.4835517900251915,-0.4835517900251915,0.9994470397713858,0.00019207854314634914
-0.48344049630467223,-0.48344049630467223,0.9960139646919798,0.00019974665990201028
-0.48333456541490705,-0.48333456541490705,0.9972407044261079,0.00018856389195352126
-0.4832176266758793,-0.4832176266758793,0.9995279835922529,0.00019328211288195936
-0.48311167894347024,-0.48311167894347024,0.9956636124774558,0.00019302767002573224
-0.48300783141149706,-0.48300783141149706,0.9936413275149951,0.00018598712679596195
-0.48289174992109307,-0.48289174992109307,0.9999451587887549,0.0001999133960221457
-0.48277932001408175,-0.48277932001408175,0.9931541892919646,0.00018541087383438105
-0.48267656968530304,-0.48267656968530304,0.9994425013860507,0.00019205778248121793
-0.482558277977337,-0.482558277977337,0.9975858444531045,0.0001997835756884361
-0.4824523494493718,-0.4824523494493718,0.9972040802989033,0.00018854896711548188
-0.48234240796154637,-0.48234240796154637,1.0002881503264553,0.00019330937505137035
-0.48222946030698066,-0.48222946030698066,0.9976328501134141,0.00019346428883249242
-0.4821275620642993,-0.4821275620642993,1.0001026595547986,0.00019171884848718943
-0.48201458064485364,-0.48201458064485364,0.9973120074125099,0.00019502137937575745
-0.4819013075242339,-0.4819013075242339,0.9970367100434441,0.0001861614992686689
-0.4818013493624818,-0.4818013493624818,1.000383016982615,0.00019201937005826916
-0.4816830613270241,-0.4816830613270241,0.9979526284184285,0.0001999532014395186
-0.48157713515646633,-0.48157713515646633,0.9951798581440647,0.00018848711264677292
-0.4814671892620751,-0.4814671892620751,1.0011326448206392,0.00019342587064489692
-0.4813542433491662,-0.4813542433491662,0.9966760620499834,0.0001930705978353207
-0.4812523449383178,-0.4812523449383178,1.0002860300174763,0.00019171514124609782
-0.48113936084501174,-0.48113936084501174,0.9950443890443145,0.00019463078940272935
-0.4810260957051497,-0.4810260957051497,0.9954928440519252,0.00018578573630941415
-0.48092612905659565,-0.48092612905659565,0.9998493860776522,0.00019214951564361404
-0.48080784469478033,-0.48080784469478033,0.9957886400324517,0.00019958523285318582
-0.48070192087798064,-0.48070192087798064,0.9970415681676699,0.0001885263719743272
-0.48059197057830116,-0.48059197057830116,1.0002465676775585,0.0001934129455154959
-0.4804790264106259,-0.4804790264106259,0.995314530245923,0.00019312175965210317
-0.48037712782843583,-0.48037712782843583,1.0013044516490262,0.00019180651305302534
-0.48026414106900434,-0.48026414106900434,0.9955515103128099,0.00019476471411984428
-0.4801508838931682,-0.4801508838931682,0.9958298754789613,0.0001858988083841856
-0.48005090876907985,-0.48005090876907985,0.9987660602272174,0.00019209789160578097
-0.4799326280808245,-0.4799326280808245,0.9948227528226326,0.00019964739572422312
-0.47982670661452714,-0.47982670661452714,0.9992961796155413,0.0001887978446867734
-0.4797167519110957,-0.4797167519110957,0.9989969115091686,0.0001934541772708516
-0.47960380949245546,-0.47960380949245546,0.9984984369913283,0.0001934848596129835
-0.4795019107357348,-0.4795019107357348,1.001645076214789,0.00019179581506826551
-0.4793889213172264,-0.4793889213172264,0.9965705527062874,0.00019501796122007873
-0.47927567208877375,-0.47927567208877375,0.998787299020767,0.00018640426551648368
-0.47917568850034514,-0.47917568850034514,1.0013717951216032,0.0001922827445783876
-0.4790574114858245,-0.4790574114858245,0.9958825886642814,0.0001997666716357052
-0.47895149236626083,-0.47895149236626083,0.9968353937472016,0.00018872273726822737
-0.4788415332610484,-0.4788415332610484,1.0003001142279138,0.00019338038812549455
-0.4787285925944914,-0.4787285925944914,0.997615314279179,0.00019356274144467845
-0.4786266936606836,-0.4786266936606836,1.0006734826318264,0.0001918005201439689
-0.47851370159027484,-0.47851370159027484,0.9985312976832148,0.00019510596424710054
-0.4784004602928448,-0.4784004602928448,0.9977625328266153,0.00018630319703231277
-0.47830046825126543,-0.47830046825126543,1.001755026669289,0.0001922513398920089
-0.4781821949099836,-0.4781821949099836,0.9977093365468599,0.00019989126054378062
-0.478076278134445,-0.478076278134445,0.9970588714964899,0.00018865518917139958
-0.47796631462891526,-0.47796631462891526,0.9985266882892126,0.00019337519387423603
-0.4778477743902897,-0.4778477743902897,0.9942408633292292,0.00019308211215356312
-0.4777514766039772,-0.4777514766039772,0.9998173845071475,0.00019168073716368782
-0.4776314802298799,-0.4776314802298799,0.9940856798171867,0.0001945095860355071
-0.4775160425594521,-0.4775160425594521,1.0010442013243235,0.00019188229957702046
-0.47742185098285433,-0.47742185098285433,0.997126993046226,0.00018629267674835843
-0.477290338127834,-0.477290338127834,0.9999005575243357,0.00019998350525324217
-0.4771891671105905,-0.4771891671105905,0.9978459114664643,0.00018600166291875704
-0.4770776230971208,-0.4770776230971208,0.9930694189604061,0.00019525900115960131
-0.47696843189533383,-0.47696843189533383,1.0001744171093452,0.00019636759292263853
-0.47686498155620993,-0.47686498155620993,0.997687639072295,0.00018846210422117284
-0.4767422572367323,-0.4767422572367323,0.9960521972499844,0.00019482732929951074
-0.4766408267816956,-0.4766408267816956,1.0002182764691492,0.00019177508679030957
-0.4765368324527344,-0.4765368324527344,0.9961222255242612,0.00018639062964851547
-0.4764151176408816,-0.4764151176408816,1.0001168161889136,0.0001999405066395095
-0.4763069536770871,-0.4763069536770871,0.9985183527936373,0.00018627085996879362
-0.47619993973910224,-0.47619993973910224,0.9991734925539735,0.00019213263910984455
-0.47608867686881523,-0.47608867686881523,0.9983532032098706,0.00019980877703864143
-0.475968229849974,-0.475968229849974,1.0000830785242074,0.0001862907695616427
-0.47584985166596,-0.47584985166596,0.9984352712495603,0.00019209004220305926
-0.47572178628246176,-0.47572178628246176,0.9979378641972803,0.00019975847505408948
-0.47561814356815973,-0.47561814356815973,1.0006311602256148,0.00018636498364782178
-0.47549976359669016,-0.47549976359669016,0.9998744986850534,0.00019216279610425176
-0.47536485309710486,-0.47536485309710486,1.000136679972881,0.00019982182871083748
-0.47526090055550585,-0.47526090055550585,1.0000715789055497,0.00018619888088641752
-0.47514967553112514,-0.47514967553112514,1.00016703170191,0.00019218994689387356
-0.47503841706363376,-0.47503841706363376,0.9963715468232779,0.0001995024800972135
-0.4749325087036951,-0.4749325087036951,0.995720843192875,0.00018833077284090066
-0.47481552771359076,-0.47481552771359076,0.9987134901493647,0.0001933098619358419
-0.47470679613448113,-0.47470679613448113,0.9960643940647145,0.00019310848752759864
-0.4746006953656874,-0.4746006953656874,0.9999462874440888,0.00019163857291158102
-0.47448769118264805,-0.47448769118264805,0.9957641930254288,0.00019463046581245463
-0.4743744861488679,-0.4743744861488679,0.9967014572348042,0.00018604497516361838
-0.4742744553834129,-0.4742744553834129,0.9995844674666087,0.00019206329725229284
-0.4741491972654714,-0.4741491972654714,0.9986367008511575,0.00019969472044962215
-0.4740427553397083,-0.4740427553397083,0.9998059006814983,0.00018638214378006895
-0.47393384341378636,-0.47393384341378636,0.9984846969966782,0.00019570026935009636
-0.4738176412314871,-0.4738176412314871,1.0000503159837009,0.00019640592732915176
-0.4736932055842672,-0.4736932055842672,0.9981689210896771,0.00018872333176987057
-0.47359022176453036,-0.47359022176453036,1.0007953473349906,0.00019344167765140348
-0.47347029000104895,-0.47347029000104895,0.9972913722196447,0.00019345841678689377
-0.47337539162593456,-0.47337539162593456,0.9992609220531452,0.00019164197747159153
-0.4732539817611496,-0.4732539817611496,0.9982180048290198,0.00019493110447444458
