time,time,flux,flux_err
-0.4999093888006125,-0.4999093888006125,1.0000339924410488,8.22783245468977e-05
-0.4997769975677026,-0.4997769975677026,0.9999641501182107,8.199605779411752e-05
-0.49964869400597917,-0.49964869400597917,1.0000464479611233,8.401141698824014e-05
-0.49947964513849,-0.49947964513849,1.0000206599097754,7.566903472141054e-05
-0.4992547767273209,-0.4992547767273209,1.0000629084310972,7.346137254637653e-05
-0.49914768227608874,-0.49914768227608874,0.9998959522858923,7.410888217750074e-05
-0.4990297538723098,-0.4990297538723098,0.9998783941344573,7.360208202235103e-05
-0.49885852354127563,-0.49885852354127563,1.0000889178998276,7.4211802297289e-05
-0.4986372973944526,-0.4986372973944526,1.0000888790560267,7.482325744201119e-05
-0.4985399743076414,-0.4985399743076414,0.9999756685452933,7.559013257863949e-05
-0.4984622445605055,-0.4984622445605055,0.9999690390433644,7.610177775242152e-05
-0.4983161805168493,-0.4983161805168493,1.0000355992242898,7.458095783736938e-05
-0.49810824584710645,-0.49810824584710645,1.0000995484947024,7.614210505317443e-05
-0.49789831344460256,-0.49789831344460256,0.9999036574975516,7.34920174681685e-05
-0.49781808011903195,-0.49781808011903195,0.9999815687722456,7.457536566956324e-05
-0.49772841473240986,-0.49772841473240986,0.9999659829483576,7.439586982123267e-05
-0.4976032282720553,-0.4976032282720553,1.0000574757944203,7.314256929932239e-05
-0.49747428404079985,-0.49747428404079985,1.0000215575772307,7.400205023432985e-05
-0.4973969632897933,-0.4973969632897933,1.0000502917274388,7.710358521581278e-05
-0.49736240484926386,-0.49736240484926386,0.9998907469258265,7.402006146806082e-05
-0.4972944531677058,-0.4972944531677058,1.000203315268229,7.539669159987358e-05
-0.49718820127091023,-0.49718820127091023,1.000055065466897,7.624265094176537e-05
-0.4970955389115261,-0.4970955389115261,0.9998380797545032,7.49231057657011e-05
-0.49694080415574715,-0.49694080415574715,0.9999285744609118,7.449700553408705e-05
-0.4968446380189562,-0.4968446380189562,1.000100882823189,7.53188244756529e-05
-0.49672783641144636,-0.49672783641144636,1.0000540202811632,7.529089533033947e-05
-0.4966687958112743,-0.4966687958112743,0.999993943299834,7.416715598528323e-05
-0.49659201331596703,-0.49659201331596703,1.0000284441166247,7.478282219001436e-05
-0.4964959796358016,-0.4964959796358016,0.9999819951502659,7.281139038813118e-05
-0.4964049091599009,-0.4964049091599009,1.0000996582795783,7.429806500106856e-05
-0.4962345961590472,-0.4962345961590472,0.999967869876819,7.572434308043393e-05
-0.4960833253324381,-0.4960833253324381,0.9999878067656038,7.591596954768513e-05
-0.4959092979734123,-0.4959092979734123,1.000000398266234,7.627685431760128e-05
-0.49575138473883273,-0.49575138473883273,0.9999839870954617,7.639061369228857e-05
-0.4956478829750267,-0.4956478829750267,0.9998769137469445,7.440989287031071e-05
-0.4955228464437823,-0.4955228464437823,0.9999774172102931,7.456652420120588e-05
-0.4954126245989755,-0.4954126245989755,0.9999217226856649,7.556797891498147e-05
-0.49528941565949935,-0.49528941565949935,1.0001980244496884,7.558101755639572e-05
-0.4952051856322214,-0.4952051856322214,0.999996775273243,7.698504379564756e-05
-0.4950538042052358,-0.4950538042052358,1.0000656074534322,7.56248724663643e-05
-0.4948017427515879,-0.4948017427515879,1.0000287394702796,7.663182555980776e-05
-0.4945611388153338,-0.4945611388153338,0.999998846764495,7.51058235238286e-05
-0.4944002360709419,-0.4944002360709419,0.9999538145400104,7.546938314429272e-05
-0.4942966265058203,-0.4942966265058203,1.0000189401248054,7.418436411264723e-05
-0.494242196092091,-0.494242196092091,1.0000823872917999,7.389426400305766e-05
-0.494093885536131,-0.494093885536131,0.9999484778286633,7.425730837346908e-05
-0.4939411942475999,-0.4939411942475999,1.0000685360272201,7.559503934456607e-05
-0.49382228398608274,-0.49382228398608274,0.9999642341763917,7.500939493753562e-05
-0.4936923959881824,-0.4936923959881824,1.0000034373074163,7.575314026196493e-05
-0.49341019810090075,-0.49341019810090075,1.0000867320973126,7.368761275159332e-05
-0.4932180624535249,-0.4932180624535249,1.000180552602644,7.472746660955426e-05
-0.4931185747991549,-0.4931185747991549,1.0001561774071337,7.286329311791809e-05
-0.49299777754058594,-0.49299777754058594,1.00004727573962,7.434075322506358e-05
-0.49281409673640153,-0.49281409673640153,1.0000168652802597,7.510795295048421e-05
-0.4925804488630092,-0.4925804488630092,1.0001054750767666,7.43109949259295e-05
-0.49253643277697845,-0.49253643277697845,0.9999496719204058,7.55473522879643e-05
-0.4923586118129606,-0.4923586118129606,1.0000741499274248,7.523706086434629e-05
-0.4920674162000068,-0.4920674162000068,1.0000469574783857,7.762344061986855e-05
-0.491884571765695,-0.491884571765695,1.0000472864577432,7.52465004223443e-05
-0.491770509435446,-0.491770509435446,1.000193726507673,7.430913745956334e-05
-0.49166331250962686,-0.49166331250962686,1.000108621708224,7.426270603387924e-05
-0.491505889986729,-0.491505889986729,1.0000259740350235,7.435385393942554e-05
-0.4914515525648312,-0.4914515525648312,1.0000253352692923,7.580444501068178e-05
-0.491392296703998,-0.491392296703998,0.9999169250326165,7.416624639127202e-05
-0.49131958563666556,-0.49131958563666556,1.0001728621595454,7.712565624666383e-05
-0.49119774216087536,-0.49119774216087536,0.9999499190722014,7.451895834399953e-05
-0.49109387836651874,-0.49109387836651874,1.0000425704228828,7.555392616180179e-05
-0.4909749012629618,-0.4909749012629618,1.0000290237908778,7.396766570423808e-05
-0.4908521268698678,-0.4908521268698678,1.0001279266984477,7.66581865382891e-05
-0.49074342518433695,-0.49074342518433695,1.0000306102933343,7.555605168267454e-05
-0.4906900046829833,-0.4906900046829833,1.0000359786857296,7.473142233490723e-05
-0.4906378209045215,-0.4906378209045215,1.000030416934571,7.435123128231975e-05
-0.4905363741709152,-0.4905363741709152,0.9999260251449362,7.280916742048523e-05
-0.4904292858096596,-0.4904292858096596,0.99999000533504,7.416293337394012e-05
-0.49022320891963317,-0.49022320891963317,0.9999942070917506,7.527334204573361e-05
-0.4901033943911898,-0.4901033943911898,1.0000109568045257,7.48993200955053e-05
-0.4899884557555197,-0.4899884557555197,1.0000841886705838,7.595921628758454e-05
-0.4898620395746548,-0.4898620395746548,1.0000189739961403,7.782595339529607e-05
-0.4897579863056308,-0.4897579863056308,1.0001104108215544,7.465291286908556e-05
-0.4896238915382128,-0.4896238915382128,0.9999600498076339,7.466861599070943e-05
-0.48955191013083094,-0.48955191013083094,0.9999050597874006,7.373427571729539e-05
-0.48946486052300314,-0.48946486052300314,0.9999910024853644,7.534998157132415e-05
-0.4893162862856116,-0.4893162862856116,0.9998915233719894,7.701698569269538e-05
-0.48917334595607825,-0.48917334595607825,1.0000954870133376,7.526515144738198e-05
-0.48905330627021615,-0.48905330627021615,1.000128321196699,7.618111290080441e-05
-0.48881362162574077,-0.48881362162574077,1.0000227704072604,7.648819498232972e-05
-0.488595536716457,-0.488595536716457,1.000004710179282,7.55595369073234e-05
-0.48835535652251566,-0.48835535652251566,0.9999865427690571,7.406016280300371e-05
-0.4882154409220675,-0.4882154409220675,0.9998950633398713,7.350156544589878e-05
-0.4880545831358177,-0.4880545831358177,1.0000506353339058,7.488356994310174e-05
-0.4879554510516755,-0.4879554510516755,0.9999556932770639,7.769195691027792e-05
-0.48784341263381065,-0.48784341263381065,0.9999276466031304,7.527791772205841e-05
-0.4877027868613368,-0.4877027868613368,0.9998803231465339,7.596286023220684e-05
-0.4874089617929712,-0.4874089617929712,0.9999329645502728,7.587727090145787e-05
-0.4872182223502023,-0.4872182223502023,1.0000081794096085,7.284305648258415e-05
-0.48713605874290805,-0.48713605874290805,0.9998961753617326,7.35675177253448e-05
-0.4870436054668971,-0.4870436054668971,1.0000554026507795,7.605369268637035e-05
-0.48676858370381526,-0.48676858370381526,1.0000705946178605,7.56913073298095e-05
-0.4865783272383851,-0.4865783272383851,0.9998460328590266,7.607362514193076e-05
-0.4865223838321981,-0.4865223838321981,0.9998720674665537,7.5895915050426e-05
-0.48639415479046877,-0.48639415479046877,1.0001227145248928,7.600277802987e-05
-0.4861648198100738,-0.4861648198100738,1.0001112342265384,7.540749082885173e-05
-0.48597299474713507,-0.48597299474713507,1.000046064654516,7.620445974797392e-05
-0.4858636149590893,-0.4858636149590893,1.000035584188031,7.368658660504793e-05
-0.4857844630190812,-0.4857844630190812,0.999995011259746,7.578241615133831e-05
-0.48560803694999777,-0.48560803694999777,1.0000756801753357,7.457959117723509e-05
-0.48552837162351353,-0.48552837162351353,0.9998546332617604,7.529326523007365e-05
-0.4854195810803503,-0.4854195810803503,0.9999395519647859,7.54039992678737e-05
-0.485377257312939,-0.485377257312939,0.9999423552008558,7.612291955434863e-05
-0.485278330577421,-0.485278330577421,1.0000114442389914,7.550208956197646e-05
-0.4851479701086646,-0.4851479701086646,0.9999540149266922,7.583098174987058e-05
-0.4850456451662467,-0.4850456451662467,1.000150205992767,7.515581652699597e-05
-0.4849214680500154,-0.4849214680500154,0.9999141320952528,7.369863742198313e-05
-0.4848219395833439,-0.4848219395833439,0.9999809625612285,7.575383075722013e-05
-0.48470849372970404,-0.48470849372970404,0.9999383842242693,7.611835754516552e-05
-0.4845742488236283,-0.4845742488236283,0.9999683556196356,7.581069450536937e-05
-0.4844983571849298,-0.4844983571849298,1.0000225414144333,7.421729720533236e-05
-0.4842856573195604,-0.4842856573195604,1.000009375684281,7.498555653248218e-05
-0.4841154391186137,-0.4841154391186137,1.0000357852965223,7.496606509255431e-05
-0.4840108146672719,-0.4840108146672719,1.0000121635922379,7.54329281011306e-05
-0.4838698436877166,-0.4838698436877166,0.99993756840623,7.628503515644472e-05
-0.48368839003742325,-0.48368839003742325,1.0000489786098814,7.478840541816687e-05
-0.4835938637414074,-0.4835938637414074,1.0000241672245025,7.577138319731226e-05
-0.48349741787824313,-0.48349741787824313,0.9999249915376132,7.410739348944208e-05
-0.4833769031931297,-0.4833769031931297,0.9999978822282684,7.43840400365983e-05
-0.48329834728501736,-0.48329834728501736,0.9999899918892021,7.54364500013728e-05
-0.4831872984410438,-0.4831872984410438,0.999983117035496,7.66214799287259e-05
-0.48306265014325617,-0.48306265014325617,1.0000024255599576,7.57253694098966e-05
-0.4828644001601788,-0.4828644001601788,1.0000063839708937,7.569485293948113e-05
-0.48263570924609667,-0.48263570924609667,0.9998714339170898,7.715416070788576e-05
-0.48240001478334305,-0.48240001478334305,0.9999811836814511,7.542586441549818e-05
-0.48226401682040887,-0.48226401682040887,0.9998904785174905,7.375891349209689e-05
-0.48208380070500423,-0.48208380070500423,0.9998500618863091,7.489644614331021e-05
-0.4819034731226566,-0.4819034731226566,1.0001510081183476,7.52157925396407e-05
-0.4817939392029075,-0.4817939392029075,0.9998515927227969,7.489064605042894e-05
-0.48159340529527983,-0.48159340529527983,1.0000134613142706,7.441856883728555e-05
-0.4813239370727388,-0.4813239370727388,0.9998910396895795,7.501590002643448e-05
-0.48118042144997164,-0.48118042144997164,1.0000705554219445,7.340673371000007e-05
-0.4810200843116036,-0.4810200843116036,1.0000220064776497,7.435381696577897e-05
-0.48086400345273433,-0.48086400345273433,1.0000388832017262,7.420218936438918e-05
-0.4806596315378556,-0.4806596315378556,1.0000864058256536,7.545519411898398e-05
-0.4805750219609763,-0.4805750219609763,1.0000467016300092,7.576160893187405e-05
-0.4805065400978492,-0.4805065400978492,1.0001537738747395,7.608492196872378e-05
-0.4803644722138415,-0.4803644722138415,0.999925491562043,7.397420860550888e-05
-0.4801825304995873,-0.4801825304995873,1.0001306630534283,7.68924597594428e-05
-0.479929681050271,-0.479929681050271,0.9999602003747015,7.356151071073969e-05
-0.4798468431086803,-0.4798468431086803,1.000025420312535,7.524089420543736e-05
-0.47974650926626056,-0.47974650926626056,0.9999167029604706,7.421367162343825e-05
-0.4796144118801749,-0.4796144118801749,1.000109772266915,7.342773174611281e-05
-0.47951197431757464,-0.47951197431757464,1.0000909764466215,7.411330649254102e-05
-0.4794561592774699,-0.4794561592774699,0.9999837272932824,7.486681626364123e-05
-0.47942737972116445,-0.47942737972116445,1.0000819617054975,7.628102218493374e-05
-0.4793715824787796,-0.4793715824787796,1.0000329016265521,7.48313655430598e-05
-0.4792289244491258,-0.4792289244491258,1.0000446832177716,7.567160555303578e-05
-0.47911851413809925,-0.47911851413809925,0.9999758411621649,7.511453418991501e-05
-0.47895182179709084,-0.47895182179709084,0.9999979546516606,7.359191489342772e-05
-0.4788768013488152,-0.4788768013488152,1.000065501341329,7.522440427179097e-05
-0.47879360917868324,-0.47879360917868324,1.0001416061115467,7.598331421892236e-05
-0.47872757989825915,-0.47872757989825915,1.0000456929685573,7.399285450963111e-05
-0.4786798725843255,-0.4786798725843255,1.0000109978394942,7.389561309868117e-05
-0.4785808400112728,-0.4785808400112728,1.0000532899451873,7.577941045474564e-05
-0.4784722013908322,-0.4784722013908322,1.0000755589345247,7.449850313640574e-05
-0.47823961910034996,-0.47823961910034996,0.99996744543623,7.437141669873704e-05
-0.47806996794315637,-0.47806996794315637,0.999963466550623,7.656296217231588e-05
-0.47788178077389604,-0.47788178077389604,1.0001248800649793,7.517401087258547e-05
-0.4777581158276007,-0.4777581158276007,0.9999302423350882,7.66040844569959e-05
-0.4776610129913024,-0.4776610129913024,0.9999946508440372,7.597489605042224e-05
-0.47755823908591993,-0.47755823908591993,0.9999771024989619,7.459568850008629e-05
-0.47745375626836906,-0.47745375626836906,1.0000001614524663,7.705880505988575e-05
-0.47734534196279127,-0.47734534196279127,1.0000892605562164,7.484986348243466e-05
-0.47728311654791467,-0.47728311654791467,0.9999634899924577,7.522657272887615e-05
-0.47718758177652487,-0.47718758177652487,0.9998965774204935,7.665763685190932e-05
-0.477037673615996,-0.477037673615996,1.000037688855355,7.553767344226208e-05
-0.47676043097817455,-0.47676043097817455,1.000047411194889,7.712941922981292e-05
-0.47657829284944453,-0.47657829284944453,1.000079529757105,7.623402093901112e-05
-0.4763414053537417,-0.4763414053537417,0.9999487986982013,7.472058305839839e-05
-0.4762647348419705,-0.4762647348419705,1.0000248789599326,7.352569220223459e-05
-0.47615383084703355,-0.47615383084703355,0.9999148656885037,7.566106634191751e-05
-0.4759769404256076,-0.4759769404256076,0.9998994055314767,7.562156838751288e-05
-0.47584544963319786,-0.47584544963319786,0.999948747299675,7.501313435173481e-05
-0.47569484538034884,-0.47569484538034884,1.000084875973963,7.5035798190958e-05
-0.47544572477199837,-0.47544572477199837,0.9999937263636436,7.361257167575731e-05
-0.47526794206278283,-0.47526794206278283,0.9999144803486258,7.469397061039055e-05
-0.47515415268862854,-0.47515415268862854,1.0000749047025885,7.33504778719208e-05
-0.47501388457603755,-0.47501388457603755,1.0000952091695954,7.616281509814276e-05
-0.4748474157102464,-0.4748474157102464,1.0000362754903445,7.526498145734916e-05
-0.47463459858772694,-0.47463459858772694,1.00002796871749,7.419535767208543e-05
-0.474578651185584,-0.474578651185584,1.000077631556616,7.591623050776957e-05
-0.47445934176575977,-0.47445934176575977,0.9999820131043524,7.49409259543588e-05
-0.47413636416895316,-0.47413636416895316,1.0001200232805498,7.845630629559381e-05
-0.47390063956117956,-0.47390063956117956,0.999984435888716,7.407478331447087e-05
-0.47379500278111664,-0.47379500278111664,0.9998392562425666,7.43430395603054e-05
-0.4736372435465455,-0.4736372435465455,1.0000059351337742,7.480435145479724e-05
-0.4735153958339652,-0.4735153958339652,1.000027546654405,7.51446563476967e-05
-0.47345103804036626,-0.47345103804036626,1.0000385387742428,7.463471559404762e-05
-0.4733855646903976,-0.4733855646903976,1.0000409972252469,7.575409524009515e-05
-0.47326768146958786,-0.47326768146958786,1.0000237486934098,7.645863001126904e-05
-0.47313541810653986,-0.47313541810653986,1.0000609714757052,7.610435462009584e-05
-0.47301988032413644,-0.47301988032413644,1.0000774295451327,7.340785992608577e-05
-0.47289892849366877,-0.47289892849366877,0.9999273205910889,7.663645186915761e-05
-0.47276544863489106,-0.47276544863489106,1.0000643872114563,7.515335499483629e-05
-0.47270576386654284,-0.47270576386654284,1.0000073959204223,7.47428111668948e-05
-0.47261342543788487,-0.47261342543788487,0.9998697301940176,7.348319002530338e-05
-0.4724982347281184,-0.4724982347281184,0.9999964331478717,7.345029762858214e-05
-0.47228062034118923,-0.47228062034118923,1.0000446729127712,7.517251930288415e-05
-0.47208820701562215,-0.47208820701562215,1.0001727343548206,7.612950955722693e-05
-0.47195807717725985,-0.47195807717725985,0.9999393396463827,7.513176329405562e-05
-0.47182951441500337,-0.47182951441500337,0.9999398474627001,7.649013364827266e-05
-0.47168482850611326,-0.47168482850611326,1.0000239056057993,7.43577021713685e-05
-0.471607873384346,-0.471607873384346,1.0000623422256774,7.430332145540655e-05
-0.4715642627590569,-0.4715642627590569,1.0000890888882545,7.34527871740566e-05
-0.47144141675016726,-0.47144141675016726,1.0000837716313842,7.552266387464823e-05
-0.4713479879705119,-0.4713479879705119,0.9998161673557409,7.671689810252917e-05
-0.47121401923141093,-0.47121401923141093,1.000018099211243,7.525974638207293e-05
-0.4710960522024834,-0.4710960522024834,1.0000805748403312,7.639289808622455e-05
-0.4709043989656493,-0.4709043989656493,0.9999906880647791,7.584020269656437e-05
-0.4706379563860537,-0.4706379563860537,0.9999324152848625,7.603842759311939e-05
-0.470433513190801,-0.470433513190801,0.9999020904429188,7.433671417426248e-05
-0.4702988137389184,-0.4702988137389184,0.9999131641516655,7.348989271978927e-05
-0.47010992650466504,-0.47010992650466504,1.0000234500747096,7.422416187159433e-05
-0.4700302333527361,-0.4700302333527361,0.9999290039602233,7.867183258340283e-05
-0.4698884059675038,-0.4698884059675038,0.9997830468321489,7.441485723142592e-05
-0.46974160027093603,-0.46974160027093603,0.9999876176770703,7.59005530731366e-05
-0.46946881794792716,-0.46946881794792716,1.0000639627597012,7.511311845937822e-05
-0.4692518834337534,-0.4692518834337534,1.0000147881340187,7.28413925938744e-05
-0.4691303906307439,-0.4691303906307439,1.0000407219099205,7.400327875370114e-05
-0.46892324572472716,-0.46892324572472716,1.0000667029785952,7.518972618783106e-05
-0.4686710659574601,-0.4686710659574601,1.0000565268977002,7.600727250787143e-05
-0.46859628813472226,-0.46859628813472226,0.9999144195670977,7.551275584317538e-05
-0.4685115660940937,-0.4685115660940937,0.9999867874886345,7.62555641259894e-05
-0.46835622354847145,-0.46835622354847145,1.0001812558364325,7.59841375628757e-05
-0.46817007973077124,-0.46817007973077124,0.999905244234667,7.448202356287638e-05
-0.4680173049266159,-0.4680173049266159,0.9999209775244416,7.639106047476607e-05
-0.46788167432532646,-0.46788167432532646,1.0002022672751048,7.469005840582743e-05
-0.4677902197072399,-0.4677902197072399,1.0001044366285832,7.577451305779248e-05
-0.46762578475754707,-0.46762578475754707,0.9999996886684134,7.378480772638064e-05
-0.4675152480362158,-0.4675152480362158,0.9999896808957175,7.467595049792928e-05
-0.4674409857427236,-0.4674409857427236,0.9997696500941385,7.538163411954258e-05
-0.4673914244973275,-0.4673914244973275,0.999764833662438,7.584562512913016e-05
-0.4672316272473836,-0.4672316272473836,0.9999763909382647,7.594271156303869e-05
-0.4671252718937467,-0.4671252718937467,1.0000417929072933,7.482223744374243e-05
-0.46697497751010814,-0.46697497751010814,0.9999077126755973,7.353014657018075e-05
-0.4668715557796531,-0.4668715557796531,1.0000261008668274,7.574633721320247e-05
-0.46676499887107636,-0.46676499887107636,0.9998353022933205,7.456568211272084e-05
-0.4666182645727531,-0.4666182645727531,0.9999524703548698,7.465696156033716e-05
