time,time,flux,flux_err
-0.4998852125900157,-0.4998852125900157,0.999794137679622,0.00029763783589437554
-0.4997100977076722,-0.4997100977076722,1.000088865916052,0.00030522968176255685
-0.4995647696938249,-0.4995647696938249,0.9999564820640587,0.00027532116468638977
-0.4994677533293725,-0.4994677533293725,0.9998172999445888,0.00027597958361684315
-0.499360262301343,-0.499360262301343,0.9999044724690982,0.00028611708864992004
-0.4992686702127685,-0.4992686702127685,1.000162327480877,0.0002783701334757627
-0.4991361659325776,-0.4991361659325776,1.000133422571738,0.00028470711789183907
-0.49898950089991556,-0.49898950089991556,1.0001180637340763,0.0002636790171369547
-0.49888948324660304,-0.49888948324660304,0.9999007278126225,0.0002630178376041376
-0.49874772280600155,-0.49874772280600155,0.9997438344598221,0.00030604323076646267
-0.4986454298166791,-0.4986454298166791,0.9999322593288376,0.0002877669907291736
-0.4984751805372071,-0.4984751805372071,0.9999533543857817,0.00026552558546524477
-0.4982429672643775,-0.4982429672643775,0.9999863256708725,0.0002939488419884189
-0.498080502229277,-0.498080502229277,1.000157138279048,0.0002836910390249047
-0.4979366518353345,-0.4979366518353345,0.9995085878362678,0.000276349477640474
-0.49782787691074193,-0.49782787691074193,0.9997971214354571,0.00027506924445744774
-0.49773641978390515,-0.49773641978390515,0.9998054330841674,0.00028535810397554084
-0.49762531492015116,-0.49762531492015116,0.9999518431389044,0.0002701789329944361
-0.4975350024207728,-0.4975350024207728,1.0000851026046944,0.00028558614872167907
-0.4974205585123855,-0.4974205585123855,1.0000709147651776,0.000291224702342516
-0.4973272112008999,-0.4973272112008999,0.9997948229618989,0.00028383733831687967
-0.4971659957591328,-0.4971659957591328,1.0001412316175209,0.0002645082539323939
-0.49707832788844825,-0.49707832788844825,0.9997693407666949,0.00028649179227147227
-0.49693492424848956,-0.49693492424848956,1.0001978728660237,0.000288634313264758
-0.4968416795498342,-0.4968416795498342,0.9997396603502804,0.0002914381590845731
-0.4967335561712389,-0.4967335561712389,0.9997228877680211,0.0002773753772600359
-0.49655592298222473,-0.49655592298222473,1.00001863080101,0.0002715028340131362
-0.49634295533469414,-0.49634295533469414,1.000143568944444,0.00030397347740447036
-0.49621090979344445,-0.49621090979344445,0.9998202053405747,0.00026765070995710637
-0.49611107450036795,-0.49611107450036795,0.9998502378921141,0.00026084071636784447
-0.4959757987628109,-0.4959757987628109,1.000007915668617,0.00028147061862825396
-0.49588603035663253,-0.49588603035663253,1.0001110860732865,0.00027754959901967483
-0.4958177468099166,-0.4958177468099166,1.0001550897851246,0.0002717172001069949
-0.495714504251373,-0.495714504251373,1.0004530615319394,0.0002731902576861425
-0.495574791211402,-0.495574791211402,0.9999647891210536,0.00028013596087577254
-0.4954582723090425,-0.4954582723090425,1.0000941287444562,0.0002978315587850926
-0.49530964972364017,-0.49530964972364017,1.0001844670097515,0.0002531522419834902
-0.4951828122109873,-0.4951828122109873,1.0003379189733193,0.0002858209178667141
-0.4950811477174284,-0.4950811477174284,0.9997034327325309,0.0002816078139631992
-0.494976808737556,-0.494976808737556,0.9995825664821572,0.0002745669579966801
-0.4948149616131559,-0.4948149616131559,1.0001509573722156,0.00026447692375552594
-0.4946009675884852,-0.4946009675884852,1.0001261978533171,0.00030376884300621393
-0.49444325143704193,-0.49444325143704193,1.0001036745770748,0.0002789152334331105
-0.49433227066328983,-0.49433227066328983,1.0001727041383126,0.00025975496876697946
-0.49419247447658565,-0.49419247447658565,1.0006843922771702,0.00028327569384459456
-0.49411034832737644,-0.49411034832737644,0.9997882817408806,0.000276268849854344
-0.4940488987340359,-0.4940488987340359,1.0005282105488573,0.000256058749347684
-0.49395605544268617,-0.49395605544268617,0.999672742481334,0.0002752254376729784
-0.4937984739372041,-0.4937984739372041,1.0000927558751342,0.00028554784548085333
-0.4936592830752488,-0.4936592830752488,1.0000439169717399,0.00028133381540959324
-0.4935379955350072,-0.4935379955350072,0.9998598637440154,0.00026228170511548516
-0.49339708670740945,-0.49339708670740945,1.0005190336861511,0.00028492355882219286
-0.49328686614026085,-0.49328686614026085,1.0003864346848539,0.0002818301633104585
-0.49319569429935656,-0.49319569429935656,0.9999248755117961,0.0002770223256152194
-0.4930544750066474,-0.4930544750066474,1.0000666337685278,0.00026488742908590743
-0.49283045716729246,-0.49283045716729246,1.0002026323958702,0.00027987484646583324
-0.49264807013387324,-0.49264807013387324,1.0000995991771056,0.00028443904663152584
-0.492527200798213,-0.492527200798213,0.9999183304734846,0.0002669358339781383
-0.4923847567348275,-0.4923847567348275,1.000132124019267,0.00028352617881857684
-0.49228580187627813,-0.49228580187627813,0.9996342613917895,0.0002707169507504555
-0.49223561486724066,-0.49223561486724066,1.0000251068215602,0.00026214099593343664
-0.49203989886300403,-0.49203989886300403,1.0003065027485936,0.0002864396963823797
-0.49193126662721626,-0.49193126662721626,1.0001985514533325,0.00027979633206706765
-0.4918125633790623,-0.4918125633790623,0.9997756489963356,0.0002812062470325143
-0.4916945447548642,-0.4916945447548642,1.0000664717610879,0.0002692230539946302
-0.49152743208687755,-0.49152743208687755,1.0001695905404715,0.0002895380345563331
-0.491415188657993,-0.491415188657993,1.0001805307099547,0.00029804922081082415
-0.4912895695655607,-0.4912895695655607,1.0001990384611446,0.0002663225932591451
-0.49109379430301486,-0.49109379430301486,1.0002191799893203,0.00027774074815148375
-0.490930144644517,-0.490930144644517,0.9995830546014515,0.00028521660132985215
-0.4907844561108504,-0.4907844561108504,1.0001690758982138,0.0002731153273032175
-0.49065285520919133,-0.49065285520919133,0.9999261479515228,0.0002674406158828846
-0.49056667141558136,-0.49056667141558136,1.0002801853952663,0.0002937673986403502
-0.49047062445170014,-0.49047062445170014,0.9997033045257734,0.0002559740896524571
-0.49036103678372456,-0.49036103678372456,1.000022840469159,0.0002743451047195893
-0.49021755934227257,-0.49021755934227257,1.0003707122954082,0.0002809035947236925
-0.49011209792952287,-0.49011209792952287,0.9999290451499876,0.0002793987248782836
-0.4900067822090932,-0.4900067822090932,1.0002728461065238,0.00028129644327368447
-0.48989037335704777,-0.48989037335704777,0.9998654206832418,0.00026929462549879344
-0.4897400534871849,-0.4897400534871849,1.0001944968319,0.0002831846060347942
-0.4896287658470101,-0.4896287658470101,0.9997744642066362,0.0003009506218663074
-0.48946007552585796,-0.48946007552585796,0.9999107639032211,0.0002653659929259608
-0.48926170998311136,-0.48926170998311136,1.0006411585668196,0.0002689642965569829
-0.4890939291915856,-0.4890939291915856,0.9997224330832392,0.000279380980882472
-0.48897109295794505,-0.48897109295794505,0.9999335402092242,0.0002721367494113113
-0.48883738374279345,-0.48883738374279345,0.9998416551190008,0.00027095708891038426
-0.48875860122643644,-0.48875860122643644,1.0000006132672712,0.0002904390967791526
-0.4886917070194613,-0.4886917070194613,1.0000666346293738,0.00029149081876791907
-0.4886495588318212,-0.4886495588318212,1.0001438112928112,0.00026104223244303266
-0.48849731288501064,-0.48849731288501064,0.9999796327082036,0.00028389645852163245
-0.48838967758783836,-0.48838967758783836,1.0002644726130054,0.0002666180432691854
-0.48831835781602423,-0.48831835781602423,0.9998149364605625,0.00029370865826019164
-0.4882530389819294,-0.4882530389819294,1.00026006411233,0.00027644942652150855
-0.48818358912249094,-0.48818358912249094,1.0001950946458635,0.0002864004407510923
-0.4880514881690033,-0.4880514881690033,1.000449667095241,0.00027851958025210154
-0.487911763584998,-0.487911763584998,0.9999183522140471,0.000295253400844972
-0.48782573078206043,-0.48782573078206043,1.0001910952681488,0.00028935328536673123
-0.4876305415367824,-0.4876305415367824,0.9996920205022019,0.00026567309564805335
-0.487483094111667,-0.487483094111667,1.0001086643365886,0.00029292494275477384
-0.487286238319939,-0.487286238319939,1.0002171466310004,0.0002845931394248041
-0.4871429907303536,-0.4871429907303536,0.9997657528385997,0.00027736294702223284
-0.4870198014541529,-0.4870198014541529,1.0004492947861885,0.0002806003455786193
-0.48693531664757755,-0.48693531664757755,0.9996434096644972,0.0002798274701943194
-0.486890370506444,-0.486890370506444,0.9998718940729182,0.0002953988805621284
-0.4867400675982935,-0.4867400675982935,1.000139477358639,0.00028660323999601055
-0.48658962434856223,-0.48658962434856223,1.0003776667625464,0.00027033161114451467
-0.4865064193567378,-0.4865064193567378,1.0000219965524053,0.0002839506374966062
-0.48642695328744595,-0.48642695328744595,1.0001507898427515,0.00028640848194903443
-0.4863355868277722,-0.4863355868277722,0.9997416843077362,0.0002737521813790286
-0.4862038338862476,-0.4862038338862476,1.0000624167776977,0.000286702412145169
-0.4861071647887002,-0.4861071647887002,0.9996857003344454,0.0003009804065955631
-0.48601657229155537,-0.48601657229155537,0.9999641154433039,0.00029049559023699414
-0.48581512602686416,-0.48581512602686416,0.9998004516003997,0.0002594528680020199
-0.48570888203394136,-0.48570888203394136,1.0000353229871317,0.0002704678497565559
-0.4855991448624991,-0.4855991448624991,0.9997710983867532,0.00026883163472774744
-0.48545489868702135,-0.48545489868702135,1.0000169147627382,0.00027853670623646397
-0.4852946235536365,-0.4852946235536365,1.0002518630392074,0.00027388338081568996
-0.4851825693811406,-0.4851825693811406,0.9999216800170517,0.00027322643402077863
-0.4851001904797158,-0.4851001904797158,0.9996979014205118,0.00027541898351120025
-0.48500525463023225,-0.48500525463023225,0.9998797921520893,0.0002942792504430475
-0.4848014524221071,-0.4848014524221071,1.00000544653842,0.00027790932060962984
-0.4847206149628619,-0.4847206149628619,0.9998362083350514,0.0002773840668046024
-0.4846335289315903,-0.4846335289315903,1.0000846266108474,0.0002819238160282797
-0.48454464069654934,-0.48454464069654934,1.0002156752105762,0.00027435801869372326
-0.48442650595970915,-0.48442650595970915,1.0001688372984945,0.0002901856847008134
-0.48432350571092686,-0.48432350571092686,1.0002424610991134,0.00028810363068287805
-0.4842170387681108,-0.4842170387681108,1.0001347927126538,0.00029233564362551086
-0.48409733745938865,-0.48409733745938865,1.0002956117748143,0.0002531687108217656
-0.4839255098733702,-0.4839255098733702,1.0000442011772805,0.0002704849959366157
-0.48377219793910625,-0.48377219793910625,1.0000966111183665,0.00026249714658698354
-0.4836450115224579,-0.4836450115224579,1.0001510798909679,0.00027869966683913397
-0.4835177849832689,-0.4835177849832689,1.0002210731294254,0.00027399688238060493
-0.4833951818378409,-0.4833951818378409,0.9997837778285923,0.0002893133431844143
-0.4833338490119786,-0.4833338490119786,1.0000391402153952,0.00026492341862504654
-0.48327011295768896,-0.48327011295768896,0.9999514452837154,0.00031139180925790917
-0.4831923524354352,-0.4831923524354352,0.9996794893353412,0.00025977116663957264
-0.48308856497023955,-0.48308856497023955,0.999356080544308,0.0002711034186572986
-0.48297345472092273,-0.48297345472092273,1.0001838363237057,0.00027215128923971496
-0.482875037183112,-0.482875037183112,1.0001290948122334,0.0002664653717902507
-0.4828178199066315,-0.4828178199066315,1.000668293621925,0.0002875441602992228
-0.48271781193616337,-0.48271781193616337,1.0000383783904645,0.00026833370550375225
-0.48264014731830684,-0.48264014731830684,0.9998533941684993,0.0002798183567561036
-0.482539764502144,-0.482539764502144,0.999851394886384,0.0002706062257417457
-0.48240780038177034,-0.48240780038177034,1.0000866509717972,0.00030447717624849826
-0.48222613577381707,-0.48222613577381707,1.0003676680317664,0.00027601699726741846
-0.48209316272259456,-0.48209316272259456,0.9996241053393188,0.0002803279351275143
-0.48197847110714065,-0.48197847110714065,1.0001174194426081,0.0002623163039503264
-0.4818460585855064,-0.4818460585855064,0.9998016840655868,0.0002796049972293836
-0.48168526397348616,-0.48168526397348616,1.0003771051530872,0.00027685690247311747
-0.4815873566069058,-0.4815873566069058,1.0001876712614788,0.0002753544403760441
-0.48150072600110433,-0.48150072600110433,0.9998658316522387,0.0002683171174422775
-0.48142566433962203,-0.48142566433962203,1.0001532376207953,0.00030195782917706685
-0.48134881645819405,-0.48134881645819405,1.0002029474514462,0.00026995366170639586
-0.4812440485096886,-0.4812440485096886,1.0000853047008875,0.00027907829257262947
-0.4811105494038202,-0.4811105494038202,0.9998271322440087,0.00028517845837429243
-0.481045083834033,-0.481045083834033,0.999703504995546,0.0002769316097837698
-0.4810010622444679,-0.4810010622444679,0.999994136770028,0.0002794985193235206
-0.4808853788024862,-0.4808853788024862,1.0000117906958903,0.0002688093095285555
-0.48080695913085947,-0.48080695913085947,0.9999266243523965,0.0002892690884858689
-0.48065234452224104,-0.48065234452224104,0.9999594672989737,0.00027620694279301724
-0.48045508735085607,-0.48045508735085607,1.000336224610283,0.00027973723221497604
-0.48033208442793696,-0.48033208442793696,1.0004869627059338,0.00026841224511438375
-0.48022892522712934,-0.48022892522712934,1.000100461641995,0.00027564247973844216
-0.4800425114648533,-0.4800425114648533,1.0001512877523153,0.00028496701617727015
-0.4798553917877143,-0.4798553917877143,1.0001055387290816,0.00028106860178383705
-0.47978478917939354,-0.47978478917939354,0.9997930964223409,0.0002611725234181904
-0.47966882401378824,-0.47966882401378824,1.000482374945492,0.00030766823431872657
-0.47957523837394544,-0.47957523837394544,1.0000424464231943,0.0002817188092664122
-0.47940558770496866,-0.47940558770496866,1.0001622243252508,0.00027986195885666015
-0.47927909257705326,-0.47927909257705326,0.9999087032696904,0.0002664968632187032
-0.47923617398337226,-0.47923617398337226,1.0001372684005976,0.00027977392639330634
-0.4791325486381538,-0.4791325486381538,0.999705794114195,0.00028553859878196135
-0.4790478425726178,-0.4790478425726178,0.9999480813190423,0.0002759924731730384
-0.4789604873760254,-0.4789604873760254,1.0002270377732565,0.0002709445935328944
-0.47878942961397114,-0.47878942961397114,0.9998326098835533,0.00028962225435932143
-0.4786294391116826,-0.4786294391116826,1.000004952979181,0.0002540805390369783
-0.4785090983757982,-0.4785090983757982,0.9998747141617095,0.00027517034582495416
-0.47836911308113483,-0.47836911308113483,0.999674950441156,0.00026954679910162055
-0.47822735424269924,-0.47822735424269924,0.9998410042416406,0.0002844792840041426
-0.4780350824061316,-0.4780350824061316,1.0001828374024817,0.0002764551694372714
-0.4779770833076327,-0.4779770833076327,1.0003973108553752,0.00029297052191013505
-0.4778747018397553,-0.4778747018397553,1.0001443760298505,0.0003023253321436328
-0.4777693447787897,-0.4777693447787897,0.9999094517861662,0.00027936426883225663
-0.4776330600871006,-0.4776330600871006,1.000109801736352,0.0002922415608301548
-0.4774997162428917,-0.4774997162428917,1.0003049859956188,0.0002648832597643784
-0.47744672776898367,-0.47744672776898367,0.9997362240019644,0.00028627089966505186
-0.4773899002902908,-0.4773899002902908,0.9998664535592601,0.0002604961110027444
-0.4772759888364817,-0.4772759888364817,1.000075359234735,0.00028086795308120144
-0.47720794205524725,-0.47720794205524725,1.000021101001162,0.0002722847199132428
-0.4771019327148679,-0.4771019327148679,1.0006410183190233,0.0002696407793320879
-0.47700107233540623,-0.47700107233540623,0.9995237095678293,0.00027414501719006946
-0.4768778800498694,-0.4768778800498694,1.0001540698812565,0.00025968321211105124
-0.47675765832536854,-0.47675765832536854,1.000117040455035,0.0002689314578077779
-0.47660909445985455,-0.47660909445985455,0.999820717755866,0.00028102094164796055
-0.47644454641704215,-0.47644454641704215,0.9999163687711065,0.00028405172513397154
-0.4762542852477054,-0.4762542852477054,0.9998119516912892,0.00027604709607062375
-0.47618320760084315,-0.47618320760084315,0.999950745371667,0.0002801077289628862
-0.47608537151099883,-0.47608537151099883,1.0003776489733078,0.0003083766018293134
-0.47593466494290626,-0.47593466494290626,0.9997147347824514,0.00029592359518900726
-0.47578978436795294,-0.47578978436795294,1.0002349362294414,0.0002639650516155233
-0.4756820768074249,-0.4756820768074249,0.9996556142851546,0.00027461906203038564
-0.47562571165181,-0.47562571165181,1.00032805297481,0.00028305500061174556
-0.4755775049634394,-0.4755775049634394,1.0001958481578797,0.00027088239092263325
-0.47548134920798474,-0.47548134920798474,0.9999638284251636,0.00026814529414632656
-0.47541627039317974,-0.47541627039317974,0.9999066233160452,0.00027780933821414035
-0.4753231095368392,-0.4753231095368392,1.0000059788977307,0.00028810147503262074
-0.47520037157664774,-0.47520037157664774,0.9998533982727903,0.00027051025414710013
-0.47508471160108456,-0.47508471160108456,0.9997418182906092,0.0002589575596735746
-0.47495852055435533,-0.47495852055435533,1.0000581708697682,0.00027091392385546117
-0.47479129253188146,-0.47479129253188146,1.000438569375381,0.0002813306788980416
-0.4746392314787954,-0.4746392314787954,1.0000760565518676,0.0002967286462898024
-0.47445800009008965,-0.47445800009008965,1.0003676802762147,0.0002779953107713534
-0.4743790579930646,-0.4743790579930646,0.9997418978042569,0.0002710751476550367
-0.47428857011691433,-0.47428857011691433,1.000162057727771,0.00031555373911886035
-0.4741675610406674,-0.4741675610406674,1.000298934547391,0.0002765404782612142
-0.47408099213498645,-0.47408099213498645,1.0003356647092634,0.0002971242591008896
-0.4739767560036853,-0.4739767560036853,0.9997637943384957,0.00026133263779720424
-0.4738703654293204,-0.4738703654293204,1.0001955228587287,0.00027338835796903197
-0.47380261168582366,-0.47380261168582366,0.9999888893422181,0.00028422227506427777
-0.47373890604649205,-0.47373890604649205,1.0006909158807313,0.0002683781354228852
-0.4736366251992877,-0.4736366251992877,0.9996966453079231,0.0002798579687308231
-0.47354363205085975,-0.47354363205085975,0.9998918822717027,0.0002973597220834644
-0.4734252303969697,-0.4734252303969697,0.9998675583108383,0.0002692318597831784
-0.4733311896867235,-0.4733311896867235,1.000060722837703,0.00026921913582151236
-0.4732194847223582,-0.4732194847223582,1.0001976288533716,0.00024979772778210244
-0.47310779300460126,-0.47310779300460126,1.0000530029944736,0.00029434705970034474
-0.4730240246586618,-0.4730240246586618,0.9999178231440471,0.00027831678501502225
-0.47290658371784955,-0.47290658371784955,1.0000450026268197,0.0002993619751905633
-0.472706791634846,-0.472706791634846,0.9998642671390607,0.00027836086061689384
-0.47261003440362404,-0.47261003440362404,0.9998344845967451,0.00027242585496578856
-0.47246063338243405,-0.47246063338243405,1.0000862382195517,0.00031163624595995575
-0.4723398165879189,-0.4723398165879189,1.0001586188624425,0.00027859872014303415
-0.47223338700132445,-0.47223338700132445,0.9999699344379674,0.0002876232387215027
-0.4721086473349715,-0.4721086473349715,0.9999092796519997,0.0002875946298362511
-0.472009617878939,-0.472009617878939,1.0000129444885733,0.00027663616180521893
-0.4719407833836158,-0.4719407833836158,0.9999264162339564,0.00027832882490252454
-0.4718113526483648,-0.4718113526483648,1.000123974492189,0.00028505473345152735
-0.47173424994252855,-0.47173424994252855,1.0002390423828014,0.0002926635060033611
-0.47160950555553427,-0.47160950555553427,1.000141850286357,0.0002682002460631516
-0.47151425848715006,-0.47151425848715006,1.0001386991564543,0.0002706936918785391
-0.4714417655210127,-0.4714417655210127,1.0001022604907823,0.0002535882864725562
-0.47133271493803475,-0.47133271493803475,0.9998545401407088,0.0002808305771782562
-0.4712320155245834,-0.4712320155245834,1.0006786019863483,0.000278691290929564
