time,time,flux,flux_err
-0.4999426936343904,-0.4999426936343904,1.0000699099887154,0.00023967454371878936
-0.49983366091025044,-0.49983366091025044,0.9996292726305326,0.0002414380756852808
-0.49970946780376835,-0.49970946780376835,0.999907901164308,0.0002561614645892391
-0.4996579115104396,-0.4996579115104396,1.000267343698696,0.000264298660379704
-0.49958136200366426,-0.49958136200366426,1.0002956662822229,0.0002272541518140297
-0.49949869728225166,-0.49949869728225166,0.9996519838602745,0.00022795311383607759
-0.49940056856139564,-0.49940056856139564,1.0000151599095433,0.0002149078422742946
-0.4993183880695142,-0.4993183880695142,1.0000697743884641,0.0002266577379315178
-0.49917850946003456,-0.49917850946003456,0.9997173807181733,0.00023219342534367863
-0.4990413740793883,-0.4990413740793883,0.9997965505101927,0.00021406073459669198
-0.49887967104368725,-0.49887967104368725,0.9999828486211785,0.00023016116967449602
-0.4987597100785933,-0.4987597100785933,0.9996491012419927,0.00021451940493615908
-0.49865319918826573,-0.49865319918826573,1.0001511947913133,0.00021738306678848487
-0.49858597762577117,-0.49858597762577117,0.9995447304075269,0.0002305212649769908
-0.49852482054557185,-0.49852482054557185,0.9996565552793483,0.00023943686650322954
-0.4984711692712153,-0.4984711692712153,0.9999237918214989,0.00023656707326859624
-0.4983652915667335,-0.4983652915667335,1.000124450800357,0.00022636915016485885
-0.49824518483073915,-0.49824518483073915,0.9998294051014767,0.00022154428343658812
-0.4981590649149439,-0.4981590649149439,1.0002450416164046,0.00022975909936495892
-0.49803982077355613,-0.49803982077355613,0.9998500724512775,0.00022522576778857286
-0.4979055401709047,-0.4979055401709047,1.0003493438179158,0.00021906594030813605
-0.4977542991982773,-0.4977542991982773,0.9999941734775588,0.00022346983797628912
-0.49761813705044916,-0.49761813705044916,1.0000086028437811,0.00021375721685784775
-0.49751536508701977,-0.49751536508701977,0.9999720092053132,0.00021461269805076166
-0.4974725248837785,-0.4974725248837785,1.0000755912153771,0.00022311571002068872
-0.49743341847570266,-0.49743341847570266,1.0003675618117365,0.0002495587597741832
-0.49736492105585056,-0.49736492105585056,1.0001006039305789,0.00022512085464303932
-0.4972463182399224,-0.4972463182399224,1.0000251862555125,0.00022840515876667482
-0.49711562817756205,-0.49711562817756205,1.0001905967892566,0.0002224889171191281
-0.4970023556052183,-0.4970023556052183,1.0001715297101683,0.00022737853194881717
-0.496847583255294,-0.496847583255294,1.0002324685919124,0.00023184078535064354
-0.4967228642235568,-0.4967228642235568,1.0001878605193602,0.0002120681672719091
-0.49656472126880546,-0.49656472126880546,1.0000007613794177,0.0002178661509341589
-0.4964636998403876,-0.4964636998403876,1.0001187851723428,0.0002252010254050083
-0.4963742436186294,-0.4963742436186294,1.0000331793437205,0.00021656483190435027
-0.49634291381808,-0.49634291381808,1.000166472376689,0.00023044493773769002
-0.4962765878910432,-0.4962765878910432,1.000076361588332,0.00024159594050776026
-0.49617538478414647,-0.49617538478414647,0.9998753362551531,0.0002241591564555268
-0.49607051861603396,-0.49607051861603396,1.0004021431591679,0.0002163695749992907
-0.4959587931676651,-0.4959587931676651,1.00014148868765,0.00022487718157127379
-0.49580722226091895,-0.49580722226091895,1.0002381433453356,0.00023240117116007708
-0.4957038820357411,-0.4957038820357411,0.999888180146322,0.00022122198132804548
-0.495581149408099,-0.495581149408099,1.0004140895932483,0.0002189173571295086
-0.4954645176861959,-0.4954645176861959,0.999873218928945,0.00022205009377064536
-0.4953593558355351,-0.4953593558355351,1.000294443831708,0.00020961805672756921
-0.4952740373075358,-0.4952740373075358,1.0002574275651401,0.00021581307416278835
-0.4952177241902973,-0.4952177241902973,0.9996905314542095,0.00023052625852741375
-0.4951691997128364,-0.4951691997128364,1.0001908989847574,0.00023266043367002162
-0.4950855261697143,-0.4950855261697143,1.0002146116322466,0.00021657291458019985
-0.4949893695535138,-0.4949893695535138,0.9996978083845937,0.00021931213825102477
-0.49486196057041526,-0.49486196057041526,1.0005254953105438,0.00022797817562527907
-0.49479422244476157,-0.49479422244476157,1.000086305775873,0.00022553693645687255
-0.4946675003258861,-0.4946675003258861,1.0003593016273904,0.00022288720198154725
-0.49458243302287885,-0.49458243302287885,1.000169821051992,0.0002270528873983192
-0.49446267549647016,-0.49446267549647016,0.9998517233442353,0.00021725112286144748
-0.49437225797955764,-0.49437225797955764,1.0002124329230213,0.0002114867831984606
-0.4942271880419867,-0.4942271880419867,0.9999737680195336,0.00020952650018315845
-0.4941595069176401,-0.4941595069176401,1.0001244958206563,0.0002158677602276234
-0.49409472875486243,-0.49409472875486243,1.0000840886473636,0.00022395445829152772
-0.49404399076083794,-0.49404399076083794,1.0000627012726055,0.0002398501760655493
-0.49396939487196506,-0.49396939487196506,0.9998127057671388,0.0002245288875157378
-0.49383322971625604,-0.49383322971625604,0.999844417807107,0.00022961433859267338
-0.4937074445930193,-0.4937074445930193,0.9997622197435433,0.00021775521992033778
-0.49359440049083786,-0.49359440049083786,0.999888377672632,0.00023857994125201534
-0.4934883741574595,-0.4934883741574595,1.000061320240387,0.00021275603902131426
-0.4933270801797335,-0.4933270801797335,1.000031479839814,0.00022806918267817504
-0.49322744188975776,-0.49322744188975776,1.0003382851240619,0.00022698476386194934
-0.4931031741303741,-0.4931031741303741,1.0000818610649422,0.0002153744554884846
-0.4930609247974644,-0.4930609247974644,0.9997234172046848,0.00020575423407943132
-0.4930210099548276,-0.4930210099548276,1.0002684716022605,0.0002179552987369794
-0.49293675074368365,-0.49293675074368365,0.9999553966104013,0.00023066976614501754
-0.49284431541454976,-0.49284431541454976,0.9999295142789728,0.00022163705105640745
-0.4927657305110188,-0.4927657305110188,0.999657904782663,0.00021258908202114994
-0.49268595232060763,-0.49268595232060763,1.0001043955086717,0.0002230671207420874
-0.4926035769407463,-0.4926035769407463,0.9999871221687506,0.00021688431987824513
-0.4925074522252544,-0.4925074522252544,0.9998194632975885,0.00024816147839842217
-0.4923885980701016,-0.4923885980701016,1.0000095581538773,0.0002136903919034865
-0.49221388599835336,-0.49221388599835336,1.0001628670842848,0.0002303697777489351
-0.49209253523222285,-0.49209253523222285,1.0004666214882991,0.00020850351270777944
-0.49197731232343356,-0.49197731232343356,0.9998024089954726,0.00021733513658259753
-0.4919227083439182,-0.4919227083439182,0.9999909219105299,0.0002094424009375584
-0.4918737004772993,-0.4918737004772993,0.9999926775093776,0.00022604100995336687
-0.49179426170885565,-0.49179426170885565,1.0004046812574106,0.00024276408779500339
-0.49171596318628874,-0.49171596318628874,1.0000119169023134,0.00020934585236002135
-0.4916295276336314,-0.4916295276336314,1.0000222783616455,0.0002154221701531461
-0.4915382492428762,-0.4915382492428762,0.9998495737829739,0.00022030712275518358
-0.49142782180351785,-0.49142782180351785,0.999738876787686,0.00022923189678404165
-0.49129427175575985,-0.49129427175575985,1.0002720848226807,0.00022719360362687325
-0.49111594926653196,-0.49111594926653196,1.0000151460898663,0.0002279818905640399
-0.49098838239879117,-0.49098838239879117,1.000025590400221,0.0002094104487687793
-0.4908541750963195,-0.4908541750963195,1.0001839813144149,0.00021624579732424683
-0.49078330917545826,-0.49078330917545826,1.0001253084760462,0.00022089659861858896
-0.4907173770501686,-0.4907173770501686,1.0000804819936984,0.00023391563396655993
-0.49063974330711063,-0.49063974330711063,1.0000320793675477,0.0002241425128617371
-0.4905234024445235,-0.4905234024445235,0.9999092609597738,0.00021014249478632467
-0.49040091310016576,-0.49040091310016576,1.0003325366940152,0.00022322474767729966
-0.49028317846532443,-0.49028317846532443,1.000085988489431,0.00023481326276727463
-0.49014422202235436,-0.49014422202235436,1.000050171747192,0.00021851696102463306
-0.4900064992834814,-0.4900064992834814,0.9998280759363602,0.0002215629531161245
-0.4898632886484847,-0.4898632886484847,1.000094392307248,0.00021361329571948818
-0.489739271828148,-0.489739271828148,1.0001116755781758,0.00022375576534427213
-0.4896731967040978,-0.4896731967040978,1.0001165223557993,0.00022384790075023848
-0.48957121892599387,-0.48957121892599387,1.0001049097779038,0.00023169671809328773
-0.4894733158311283,-0.4894733158311283,1.0001646982954857,0.00020739233879637584
-0.48934910903772105,-0.48934910903772105,1.0001515684563647,0.0002260049766004255
-0.48925431895186194,-0.48925431895186194,1.0000988290857522,0.00022905467187538282
-0.489125967954169,-0.489125967954169,1.0001144192645468,0.00022499077930914174
-0.489014025497454,-0.489014025497454,0.9999836270320166,0.00022847408847390975
-0.4888563825712481,-0.4888563825712481,0.9996778961599686,0.000226105960326221
-0.48870684636494843,-0.48870684636494843,0.9994593149123846,0.00023383259556616302
-0.48859065890865166,-0.48859065890865166,1.00053761738621,0.0002246533606938982
-0.4885087722832395,-0.4885087722832395,1.000093088771651,0.00024038096435754423
-0.4883993004608783,-0.4883993004608783,1.0001128364526854,0.00022613775113810918
-0.48826882229550395,-0.48826882229550395,1.0000548851233968,0.00022217135527270176
-0.4881969410671445,-0.4881969410671445,1.0001737057360947,0.00021371011788239814
-0.4881084218650358,-0.4881084218650358,1.0004388444006729,0.0002309164710930194
-0.48800837750022763,-0.48800837750022763,0.9998711255710164,0.00022555252092698206
-0.4878606223712268,-0.4878606223712268,1.0001363283439908,0.00024309005633574445
-0.48774651534404256,-0.48774651534404256,1.0000620744803155,0.0002213833101585112
-0.48763663427962456,-0.48763663427962456,0.9994224506989869,0.00022777930747671228
-0.4875088142718596,-0.4875088142718596,1.0000291172622775,0.0002147711057800924
-0.4874450168928888,-0.4874450168928888,1.0003893208275212,0.00021517948151433922
-0.48736323749399163,-0.48736323749399163,0.9997896671662325,0.00022926830348045046
-0.48724354826917987,-0.48724354826917987,0.9998600580827981,0.00023244991154064754
-0.48712342040089424,-0.48712342040089424,1.0000544280456907,0.00022236519258258037
-0.48704179015840054,-0.48704179015840054,0.9999260162810927,0.00021372790888458268
-0.48694404457346535,-0.48694404457346535,0.999927676668743,0.00022360889176238334
-0.48683018489173263,-0.48683018489173263,1.000176663213837,0.00022483568895755027
-0.4867406902885705,-0.4867406902885705,1.0003848925001155,0.00024256538604778486
-0.48663997847543217,-0.48663997847543217,1.0001301891402041,0.0002362548001993142
-0.4865553023737448,-0.4865553023737448,0.9999849704806998,0.00023549404474161348
-0.4863925405064947,-0.4863925405064947,1.0000353900410626,0.00021501438372557684
-0.4863464486465091,-0.4863464486465091,0.9998276600116689,0.00021987947849768397
-0.4862922976484697,-0.4862922976484697,0.9999710027440287,0.00023287389458111316
-0.48619207882511545,-0.48619207882511545,1.0005230118480575,0.00023528200898227953
-0.4860436522882082,-0.4860436522882082,0.999958784442432,0.00022278056726035181
-0.48594474199489923,-0.48594474199489923,0.9996740309676596,0.00021380550158275777
-0.48587405475846024,-0.48587405475846024,0.9998797815879084,0.00021799157181325588
-0.48578504377946957,-0.48578504377946957,1.0002949192691435,0.0002190656910615395
-0.4856794843333773,-0.4856794843333773,0.9998208655801063,0.00022392633813792814
-0.48560314522474074,-0.48560314522474074,0.9999197529093106,0.00023744745809065108
-0.4854524885187857,-0.4854524885187857,0.9999087242745672,0.00023414375439600467
-0.48528576290773345,-0.48528576290773345,1.0002538578198787,0.00022103236691008464
-0.48521499012276764,-0.48521499012276764,1.0000930245356614,0.00021853611224372725
-0.4851161670521833,-0.4851161670521833,1.0005309404547105,0.00022924693912095435
-0.4849506954837125,-0.4849506954837125,1.0000823564323114,0.0002141868157694425
-0.48487150663495415,-0.48487150663495415,1.0000802834271791,0.00022478470769022539
-0.48473531278505105,-0.48473531278505105,1.000034600698784,0.00022907080649147313
-0.48463934124811203,-0.48463934124811203,1.000235091423519,0.00022864022736311025
-0.48452576184354257,-0.48452576184354257,1.0001992337018764,0.0002425931438014122
-0.48445221041620246,-0.48445221041620246,1.0000097275556528,0.00022222296181031607
-0.4843304996844381,-0.4843304996844381,0.999993729732106,0.0002343727717597327
-0.4841077643839526,-0.4841077643839526,1.0001345616985398,0.00022450658876162666
-0.48392811401208746,-0.48392811401208746,1.0001351448676858,0.00021654812383316318
-0.48379182602511717,-0.48379182602511717,1.0001564432537116,0.0002220568354177331
-0.4836669195603463,-0.4836669195603463,0.9999943005681043,0.00023425223281158515
-0.48353572024498137,-0.48353572024498137,1.0001704503872573,0.000223884018739624
-0.4834164022708137,-0.4834164022708137,0.9998463786897108,0.00021990381650547746
-0.48334431346011114,-0.48334431346011114,0.9996851523834966,0.00022783053010743014
-0.4832635843500611,-0.4832635843500611,0.9998100396076612,0.00024047012040794482
-0.48308590761516823,-0.48308590761516823,1.0000359961160326,0.0002180082704798652
-0.4829191613782314,-0.4829191613782314,0.9997722142394296,0.00022463734064779415
-0.4827645907265833,-0.4827645907265833,1.0001313983618394,0.0002341190883974811
-0.4826542755115952,-0.4826542755115952,1.0000051505548782,0.00021489843231750763
-0.4825202388892649,-0.4825202388892649,1.0001887566837762,0.00021501316810697548
-0.48240021782257825,-0.48240021782257825,1.0001777480591092,0.0002217307798294857
-0.4822718738359981,-0.4822718738359981,1.0002366598991774,0.00023221940607274344
-0.48220336235099237,-0.48220336235099237,0.9999911008029538,0.00022287277816857094
-0.482073206120549,-0.482073206120549,0.9998882535343057,0.00023379400972463666
-0.4818506692630763,-0.4818506692630763,1.0001503089460013,0.0002231763114482449
-0.4816387760147336,-0.4816387760147336,1.0000383684889829,0.00022114411853847038
-0.4814910708744719,-0.4814910708744719,1.0000859133896216,0.00021416395358826867
-0.4813501318829367,-0.4813501318829367,0.9997263288757814,0.00021370591784010932
-0.4812217653881817,-0.4812217653881817,0.9998583783026931,0.0002362880983088448
-0.48113848236389456,-0.48113848236389456,1.0000921643520744,0.00023552697257829625
-0.48107606548437615,-0.48107606548437615,1.0001469327492163,0.000225837313606526
-0.4809514994012716,-0.4809514994012716,0.9999337350187879,0.00024215225919854995
-0.4807283644964627,-0.4807283644964627,0.9996675477209125,0.0002196687778127918
-0.480594098410802,-0.480594098410802,1.000174593169805,0.00022311521359409843
-0.4804691714118235,-0.4804691714118235,1.0002967795614466,0.00022851233683916314
-0.48035098620093775,-0.48035098620093775,0.9996821123059234,0.0002180018945011312
-0.4802069373516133,-0.4802069373516133,1.0004202521315464,0.00021724014995948708
-0.4800684441812336,-0.4800684441812336,1.0001145763634576,0.00023687282898187723
-0.4799847222311655,-0.4799847222311655,0.999893198351127,0.00023916051533719868
-0.4798832262917131,-0.4798832262917131,0.999978100041744,0.00023601346983558453
-0.4796665975052747,-0.4796665975052747,1.0000956749478762,0.00024153874222290552
-0.47948336477566045,-0.47948336477566045,0.9998685673813398,0.00021828837027017
-0.47929443145476397,-0.47929443145476397,1.0002230456511405,0.0002214708505390415
-0.4791399100053241,-0.4791399100053241,1.0003209972105405,0.00021677584741753935
-0.47900475003261817,-0.47900475003261817,0.999853006824248,0.00021385958022928747
-0.4789015629787173,-0.4789015629787173,1.000214268334636,0.00022786948124987002
-0.4788038238926674,-0.4788038238926674,0.9999271816437124,0.00022792431685558315
-0.4785963012756838,-0.4785963012756838,0.9997400573443629,0.00022574496170749115
-0.47839180092705647,-0.47839180092705647,0.9998699527149111,0.00022168038578764888
-0.4782020568854932,-0.4782020568854932,0.999890899019427,0.00022627868150659796
-0.47802834439498837,-0.47802834439498837,1.0000707715275947,0.0002098072659856113
-0.477886479566223,-0.477886479566223,1.0000560824135865,0.00022422396398783965
-0.4778138497902546,-0.4778138497902546,1.000021531038669,0.0002295030048308507
-0.47768692176105104,-0.47768692176105104,1.0003036044899865,0.00023330069047485013
-0.47757855714298786,-0.47757855714298786,1.0004116973085357,0.00021644114231249165
-0.47739034653568524,-0.47739034653568524,1.0001823562021777,0.0002253190893665971
-0.4772813819530711,-0.4772813819530711,1.000281751991469,0.00021046504192418443
-0.4771017767416197,-0.4771017767416197,1.0000585486444986,0.00022857422394278098
-0.4769357857054274,-0.4769357857054274,1.0000260786276796,0.00022963560539170062
-0.47678839890431846,-0.47678839890431846,0.9998695776460478,0.00021862901348374382
-0.47668376947913205,-0.47668376947913205,1.0001769642266276,0.00022094495413544865
-0.47656616277818103,-0.47656616277818103,1.0002245211384833,0.00024259355900861358
-0.4764395219914149,-0.4764395219914149,0.9998434965700953,0.0002226119389068344
-0.4762030612437229,-0.4762030612437229,1.0001955338015553,0.00022216000426098049
-0.4761359211930539,-0.4761359211930539,1.0000425380869602,0.00021313998020675435
-0.47602356700590465,-0.47602356700590465,0.9998022854760868,0.00023574130914391276
-0.4758438788754574,-0.4758438788754574,0.999672636090855,0.000214507415187853
-0.47575854233509746,-0.47575854233509746,1.0002897059379323,0.00023914739633791276
-0.4757266275410075,-0.4757266275410075,1.000580076372497,0.00022297658800411957
-0.475601034671854,-0.475601034671854,1.0002237030029595,0.0002228861646025128
-0.4754580975917634,-0.4754580975917634,1.000347224709582,0.00022706569246861122
-0.47532033022216635,-0.47532033022216635,0.9998271175498312,0.0002230402604249324
-0.47508437170399703,-0.47508437170399703,1.0000920317968327,0.00020854523882135479
-0.47496862387561123,-0.47496862387561123,0.9999215327366997,0.00021472891962683575
-0.47480385060262054,-0.47480385060262054,0.9997759887657252,0.00021906970365498678
-0.4746838155646401,-0.4746838155646401,1.000115170952635,0.00021527389598985895
-0.4746250936514116,-0.4746250936514116,1.0003536662515928,0.0002064532756816106
-0.4744755068335508,-0.4744755068335508,0.9998505933135547,0.00022247590662888774
-0.4743466827647353,-0.4743466827647353,1.0000987595719317,0.00022667973957080003
-0.4742403053140151,-0.4742403053140151,0.9998410154941473,0.00023208015300629255
-0.47414230565482285,-0.47414230565482285,0.9998079238338731,0.00021017899024500334
-0.47390030582027975,-0.47390030582027975,1.0000239533842805,0.0002161916860172988
-0.47383015370942305,-0.47383015370942305,0.9998638016773829,0.00022084640015582855
-0.4736302331570187,-0.4736302331570187,1.0001708583677653,0.0002223303905559471
-0.473538744738471,-0.473538744738471,1.0000908990490633,0.0002222748901281217
-0.47340189160386215,-0.47340189160386215,1.0002747897144597,0.00021549439249566845
-0.4732463281390665,-0.4732463281390665,1.0002044792535851,0.00022568450273217463
-0.47313348556126583,-0.47313348556126583,1.0001221914995797,0.00023278254102609467
-0.47296749260640353,-0.47296749260640353,1.000099083686901,0.00021037641145674565
-0.472786339794402,-0.472786339794402,0.999930910369824,0.00021580279738178172
-0.4726631873541919,-0.4726631873541919,1.0002274946910754,0.00022627296369174751
-0.47247924546245484,-0.47247924546245484,0.9998815681286001,0.00021640220064065853
-0.4724211118409585,-0.4724211118409585,1.0000265371100188,0.00022307491985709967
-0.4723459176151664,-0.4723459176151664,0.9999999645800102,0.0002105959408802017
-0.47224218113187816,-0.47224218113187816,0.9998777295246271,0.00021654413534985783
-0.47212187140321477,-0.47212187140321477,1.0000147465581841,0.00022277898996961266
-0.4719836273048713,-0.4719836273048713,1.0001952622958297,0.00023653596934115778
