time,time,flux,flux_err
-0.49945251185757417,-0.49945251185757417,0.9996875730156026,0.0005737090572628049
-0.49867295788196014,-0.49867295788196014,1.0016018049502302,0.0005099545857477988
-0.49752606701440527,-0.49752606701440527,0.9990822685675649,0.00046664882038022833
-0.49662757152436826,-0.49662757152436826,1.0006352558100908,0.0004689631216519342
-0.4960231333399861,-0.4960231333399861,1.0006881990906582,0.0004685587544099324
-0.49540435309900205,-0.49540435309900205,1.0003156541904634,0.0008559994676197797
-0.49478877617511896,-0.49478877617511896,1.001310232365682,0.00046758725044902273
-0.4940454565723485,-0.4940454565723485,1.000305899525778,0.00046345742847586256
-0.4931496690198401,-0.4931496690198401,1.0006700856773845,0.000466174244348202
-0.492369556767153,-0.492369556767153,1.0001929895834647,0.0006090369880459162
-0.49179230857589573,-0.49179230857589573,1.0001172724673284,0.0006357318064261016
-0.49113846508444114,-0.49113846508444114,0.9997977123869131,0.0004641636657162439
-0.49023183421631983,-0.49023183421631983,0.9996758713759804,0.0004695127032406271
-0.48953872196143494,-0.48953872196143494,1.0003418262053683,0.0004687906164570905
-0.488880215070094,-0.488880215070094,1.0002661524327148,0.00046868338284130056
-0.4879846380681556,-0.4879846380681556,0.999721937202463,0.0004642449551014948
-0.48731932064947614,-0.48731932064947614,1.0001964568108646,0.0004669565137536256
-0.48686604239301234,-0.48686604239301234,1.0000975245713275,0.0004761915643636242
-0.48628718791696884,-0.48628718791696884,0.9993118033850072,0.00046617790741759627
-0.4850989731126901,-0.4850989731126901,0.9997916472697452,0.00046737964672976954
-0.48439638963427567,-0.48439638963427567,1.0004006631059696,0.00046842310010643306
-0.4837268741590378,-0.4837268741590378,1.0010150005591787,0.00046843526096990883
-0.48303018142796644,-0.48303018142796644,1.0002894048015893,0.0006604311065377363
-0.4824022155346029,-0.4824022155346029,0.9995609559999357,0.00046568345305808974
-0.4816484919916547,-0.4816484919916547,1.0003419112029464,0.0005194211043987999
-0.4808456138627662,-0.4808456138627662,1.0001837248265364,0.00046677413381738755
-0.48026803201246365,-0.48026803201246365,0.9997934708261595,0.0005373463377388846
-0.47981724908895557,-0.47981724908895557,1.0002790027018205,0.00046891502939795903
-0.4792966553766746,-0.4792966553766746,0.9995646527939488,0.0005555449600778231
-0.4782989077288221,-0.4782989077288221,0.9994407833922654,0.0004669681244616001
-0.47740397875422785,-0.47740397875422785,1.0001732329374144,0.0004711047168725618
-0.4766022077914386,-0.4766022077914386,1.000888559330511,0.0004675671006789966
-0.47574504938565954,-0.47574504938565954,0.999309683474824,0.00046073746762232104
-0.4750699325479218,-0.4750699325479218,0.9997435833852893,0.00046871807550899453
-0.47452292125235546,-0.47452292125235546,1.0002942514054436,0.0004689221468529451
-0.47345753056797546,-0.47345753056797546,1.0004700042189767,0.00046662387232824457
-0.4723635145001026,-0.4723635145001026,0.9999433987793056,0.00046701885955651356
-0.4717617558744678,-0.4717617558744678,1.0005410149284104,0.0004672473902216889
-0.4708674790272198,-0.4708674790272198,1.0003694399163021,0.0004676579506786826
-0.4702650737730437,-0.4702650737730437,1.0004454808286147,0.00046504184676541904
-0.46935885509192304,-0.46935885509192304,0.9994158494123031,0.0004815208684749963
-0.468400601734902,-0.468400601734902,1.0005113061273636,0.0004947764460532327
-0.46775754107038664,-0.46775754107038664,0.9993974123077798,0.0004690177323833124
-0.4669888722295582,-0.4669888722295582,1.0003242220802608,0.0004670970766639152
-0.4661300101783127,-0.4661300101783127,1.0004831188039538,0.00046546479794599635
-0.46538934456657444,-0.46538934456657444,0.9999705970401556,0.0004791245088904974
-0.46473765593655114,-0.46473765593655114,1.000297017482232,0.000466193024706404
-0.463807012604957,-0.463807012604957,1.0001532856706254,0.0004652585755947756
-0.4630479270206706,-0.4630479270206706,0.9998123035720123,0.00046219511951743256
-0.46249202797589534,-0.46249202797589534,1.0002356621394148,0.00046821424900148474
-0.4616648734048795,-0.4616648734048795,1.0025478140812392,0.0009850362343116277
-0.4609779406728194,-0.4609779406728194,1.0002777886882137,0.0004669035204539934
-0.4603666391794832,-0.4603666391794832,0.9994661555178694,0.000472146016017495
-0.45982544093421895,-0.45982544093421895,1.0000054089888308,0.0004698389216641418
-0.4589711708129471,-0.4589711708129471,0.9995282267222665,0.0006458896863094396
-0.45824724658705235,-0.45824724658705235,1.0000211667028165,0.0004664086715556892
-0.4575067183413921,-0.4575067183413921,0.9987071147294981,0.0006760391332831837
-0.4565134831533214,-0.4565134831533214,0.9994731838269665,0.00047858981000690825
-0.4556846209256037,-0.4556846209256037,1.0004135988622551,0.0004699776399596072
-0.45500240791261604,-0.45500240791261604,0.9995179644327772,0.00046777911869584486
-0.4541400921123568,-0.4541400921123568,1.000118989833584,0.0004639327237629883
-0.45354894696174597,-0.45354894696174597,0.9989999271168634,0.0004966810909134831
-0.4530896160296834,-0.4530896160296834,0.9995382900096923,0.0006814697331341892
-0.45211719634971814,-0.45211719634971814,1.0006254992611088,0.0004660408532885828
-0.45111345708937733,-0.45111345708937733,1.0003971473899473,0.0004684487323933972
-0.4505406907515862,-0.4505406907515862,1.000023630236987,0.00046773786488265526
-0.44984719141502866,-0.44984719141502866,1.0006768090368017,0.0004670293641114813
-0.4493312292241171,-0.4493312292241171,1.0002018891025506,0.0007529811633180678
-0.4487079051334149,-0.4487079051334149,1.0006232740180796,0.0004657767244098999
-0.4477178027435002,-0.4477178027435002,1.0005272159308851,0.0004656251557477298
-0.44693207844429705,-0.44693207844429705,0.9994173941995911,0.0005726871990134715
-0.4463693171284831,-0.4463693171284831,1.0008986250823793,0.0004660394008372922
-0.44594224647989905,-0.44594224647989905,0.9991109075810117,0.0005968074978450899
-0.4453428294211335,-0.4453428294211335,0.9998281874231385,0.0005188389137042936
-0.4444385726750625,-0.4444385726750625,0.9996741505157415,0.00046684570638920637
-0.4437139780711732,-0.4437139780711732,0.9994794459497969,0.0004690728395740411
-0.4428603415726684,-0.4428603415726684,1.0002241251882498,0.0004689678041462876
-0.4420140258651372,-0.4420140258651372,0.9998587193994884,0.000461399096711746
-0.44139065488488993,-0.44139065488488993,0.9999392339683162,0.00047098457757878556
-0.44099527714970466,-0.44099527714970466,0.9995925941522964,0.0004661152174721021
-0.44020849935986917,-0.44020849935986917,1.0001294883879555,0.0004681632727051714
-0.4390723762950074,-0.4390723762950074,1.0000487460765153,0.0004655942053335073
-0.4384154745763226,-0.4384154745763226,0.9995284710325839,0.00046802384366837824
-0.4376417327352101,-0.4376417327352101,1.0001443743873577,0.00046693750050500924
-0.43688607197109375,-0.43688607197109375,0.999907098913998,0.0004663454229178801
-0.4362323984503746,-0.4362323984503746,0.9998780741454457,0.00046423820499348655
-0.43535247228610385,-0.43535247228610385,0.9996072200731977,0.0004967659816394784
-0.4345670400052768,-0.4345670400052768,0.9998336453600993,0.0005130511064955679
-0.4339741626925388,-0.4339741626925388,0.9999161038039388,0.0004693339230605791
-0.4331117726920638,-0.4331117726920638,0.9995685533280063,0.0004680661675825243
-0.43226804698060733,-0.43226804698060733,0.9993981625554472,0.00046521947977751644
-0.4315789834774478,-0.4315789834774478,0.9995580796762396,0.00047238912987033495
-0.4308195567478833,-0.4308195567478833,1.003582216221648,0.0004679061831030084
-0.4298179713488935,-0.4298179713488935,0.9991384117042628,0.000460070250058482
-0.42932601863030867,-0.42932601863030867,1.001286561593056,0.00046824134870209345
-0.428844325027967,-0.428844325027967,1.001160327547248,0.00046844478393994534
-0.4281335474857769,-0.4281335474857769,1.0017826164221664,0.0012608736905025185
-0.42749167504662183,-0.42749167504662183,0.9986934968584004,0.00046663298730283316
-0.4267087690965127,-0.4267087690965127,0.999950682350417,0.00048385697568837163
-0.42628800676975515,-0.42628800676975515,1.000051634085182,0.00046735410791683997
-0.4253448216499237,-0.4253448216499237,0.9990639492950107,0.00046903586188666157
-0.42465369652236407,-0.42465369652236407,1.0008626057800636,0.0004657691471771848
-0.42398226897566926,-0.42398226897566926,1.0001460704181493,0.00046463960997872756
-0.42323396942410907,-0.42323396942410907,1.0005069388149204,0.0006986852670172269
-0.4224308023687627,-0.4224308023687627,1.0008157064793124,0.00048590028805186
-0.4217805665542983,-0.4217805665542983,1.0003430594076879,0.00046978816910108796
-0.4209630109631689,-0.4209630109631689,1.000477123063614,0.0004684960200558948
-0.4201506376761245,-0.4201506376761245,0.9999743351278267,0.00046506224658499735
-0.41952486150439655,-0.41952486150439655,1.00060233947826,0.0005386783736663503
-0.4186786215133907,-0.4186786215133907,1.001008896905228,0.000467986046701486
-0.4176100815569953,-0.4176100815569953,0.9993018765004494,0.00046597427052456924
-0.41691679915638813,-0.41691679915638813,1.000212643808544,0.00046776212481019
-0.4161925636071828,-0.4161925636071828,0.9984155440604155,0.0007795441976048806
-0.4155064694816247,-0.4155064694816247,1.000613596589087,0.0006055258890310496
-0.4149966841181595,-0.4149966841181595,1.0015054584097682,0.0004653656365561212
-0.41440212046727537,-0.41440212046727537,1.0001471024224498,0.00046304544145711146
-0.41344321542419493,-0.41344321542419493,0.99961233369233,0.00046835968031393144
-0.41272099443740445,-0.41272099443740445,1.0006832994842738,0.0006111516974091076
-0.4121690187494096,-0.4121690187494096,0.999407275338528,0.0006393241531910984
-0.4113030511231045,-0.4113030511231045,0.9992447522136574,0.0004651452161116157
-0.4104270014220674,-0.4104270014220674,0.9998484244407477,0.0004714420984900405
-0.40981164023542077,-0.40981164023542077,1.0004348459353514,0.00046890282315028095
-0.40917450254892174,-0.40917450254892174,0.9994885331862129,0.0004680069586035192
-0.4083360507254838,-0.4083360507254838,1.0003228645260454,0.00046456924766276645
-0.40780471267753454,-0.40780471267753454,0.9999373481204359,0.0004670649512959803
-0.4073507387238351,-0.4073507387238351,1.0005000125326635,0.00047721935963212814
-0.40677270918858993,-0.40677270918858993,1.0003037512652557,0.0004661131248587931
-0.4055844615384558,-0.4055844615384558,0.9995200379485351,0.0004674379269373018
-0.40480215262214186,-0.40480215262214186,1.0000093915064725,0.0004673125295702369
-0.4040543381284806,-0.4040543381284806,1.0001618440320033,0.0004680242872523245
-0.40337876800804223,-0.40337876800804223,1.0005596534161256,0.000658492245833479
-0.4027292649094306,-0.4027292649094306,1.0000731307565547,0.00046483791342839256
-0.4020145806021901,-0.4020145806021901,0.9998494393513893,0.0005230124855297425
-0.4011949530013226,-0.4011949530013226,1.0003398060640898,0.0005390236727521963
-0.40062015740695645,-0.40062015740695645,0.9996195526344579,0.00046755796908996134
-0.40021663790575984,-0.40021663790575984,0.9997084331918662,0.00046874452067584646
-0.39964637299890454,-0.39964637299890454,1.0005152328001685,0.0005591094765542384
-0.3986538549364923,-0.3986538549364923,0.9999513625014064,0.0004673274989382612
-0.3978893585179321,-0.3978893585179321,0.9995754778379535,0.00047089522375349006
-0.39703561579299274,-0.39703561579299274,0.9995694532730705,0.0004686622385914982
-0.3960805516857363,-0.3960805516857363,0.9998851316390702,0.0004612035614706061
-0.3954500046700559,-0.3954500046700559,0.9998218774280734,0.00046822195166065377
-0.394843472743014,-0.394843472743014,1.0007493354671975,0.00046894725677443575
-0.3936829795569793,-0.3936829795569793,0.9996499583309341,0.00046589278495358307
-0.39275020902132385,-0.39275020902132385,1.000384215079548,0.0004669197015238714
-0.39219840338046197,-0.39219840338046197,0.9997867642526572,0.0004672798736153177
-0.3913533254330105,-0.3913533254330105,0.9999659589714277,0.00046766978350226983
-0.39075000086231737,-0.39075000086231737,0.9999491443565358,0.00046487856601092135
-0.38984368898672983,-0.38984368898672983,1.0003786090212698,0.00048240452841793796
-0.3888863910931832,-0.3888863910931832,1.0006978315334076,0.0004959325689604421
-0.38824258204986106,-0.38824258204986106,0.9998587873806066,0.0004692536066329647
-0.38747453415380734,-0.38747453415380734,1.000142178155873,0.0004672474654632996
-0.3866145246960514,-0.3866145246960514,1.0010021171355972,0.000465422182182212
-0.3858748743670731,-0.3858748743670731,1.0004896011877396,0.00047856164088584457
-0.3852232122902933,-0.3852232122902933,0.9998618472313009,0.0004663328040416171
-0.3842914052296692,-0.3842914052296692,0.9996814139747381,0.000465112734401472
-0.38353349211975,-0.38353349211975,0.9993530474632051,0.0004620702690255007
-0.3829764765836444,-0.3829764765836444,1.000406719509733,0.00046828099491475633
-0.3821507844342705,-0.3821507844342705,1.0020077484349155,0.0010047079334762554
-0.38146331617354007,-0.38146331617354007,1.0000423645071563,0.00046689076611750415
-0.3808514086613286,-0.3808514086613286,1.0009294349511189,0.00047274353547596085
-0.38031047007680174,-0.38031047007680174,1.0029181964428993,0.0004699407708851342
-0.37945653842034516,-0.37945653842034516,0.9995795360921923,0.0006484503485934643
-0.37873182316216114,-0.37873182316216114,1.0008074787420946,0.00046643718602740853
-0.3779920671833679,-0.3779920671833679,1.0004818120442143,0.0006778859721634641
-0.37699917866812027,-0.37699917866812027,1.0003638327719542,0.0004795743696914546
-0.3761700706454576,-0.3761700706454576,0.9997186503111694,0.0004699634232674485
-0.3754880730390141,-0.3754880730390141,0.9999862875390109,0.00046781485741944907
-0.37462485971591375,-0.37462485971591375,1.001188188033529,0.00046467645578034643
-0.3740346194070298,-0.3740346194070298,1.0004029382854815,0.0004985084242645091
-0.3735742549892166,-0.3735742549892166,1.0003424292672862,0.0006799292557748038
-0.3726031315862201,-0.3726031315862201,0.9997661271898932,0.000466060319080626
-0.3715984993479651,-0.3715984993479651,1.0002502599053311,0.0004684484552785113
-0.37102516378436123,-0.37102516378436123,1.0007545390756036,0.0004679333989284299
-0.3702352073691145,-0.3702352073691145,1.0007580200645325,0.0006311282218428628
-0.3696851516033348,-0.3696851516033348,1.0011724765478527,0.0006281629573942426
-0.36900154543400276,-0.36900154543400276,1.0003609574264762,0.0004664680385049155
-0.3680005508795148,-0.3680005508795148,0.9991747824449254,0.0004639082624828271
-0.3674042876642488,-0.3674042876642488,1.001480025857769,0.0005765034489797324
-0.36673959955442115,-0.36673959955442115,1.0000549554103353,0.0004683003770913079
-0.36634485654794846,-0.36634485654794846,1.0004692020936479,0.0005985922308431508
-0.3655495869305014,-0.3655495869305014,1.0138474738190422,0.0004675326974116563
-0.3645979895918572,-0.3645979895918572,1.0003881277301692,0.0004677687010627503
-0.36390716925561717,-0.36390716925561717,0.9999167775150652,0.00047056560569392795
-0.3629721584209619,-0.3629721584209619,1.0008001628909757,0.000466178755535939
-0.36206192442768953,-0.36206192442768953,0.9993725502093141,0.00046327619327825656
-0.3616119484348019,-0.3616119484348019,1.0001508421284047,0.00046954084028707913
-0.3611503234023985,-0.3611503234023985,0.9997470848092258,0.00046808687525726016
-0.35999483607265576,-0.35999483607265576,0.9995722084541917,0.00046589625672615996
-0.35905919497381544,-0.35905919497381544,1.0027565611105658,0.00046769444367630636
-0.35841660710211726,-0.35841660710211726,0.999894345371702,0.00046752542190716545
-0.35772271717942206,-0.35772271717942206,1.0007791729641764,0.0004676719797090184
-0.3571666623614874,-0.3571666623614874,1.0002158076696355,0.00046490409422874306
-0.35647106873257145,-0.35647106873257145,1.0003294873243305,0.0004634457765209328
-0.355652808593004,-0.355652808593004,1.0001128925522953,0.0004980857851839615
-0.3550525007081887,-0.3550525007081887,0.9992524580743479,0.0005150386865257447
-0.3544590904260986,-0.3544590904260986,0.9992031806751301,0.00046922631257686917
-0.35359773501331804,-0.35359773501331804,0.9993485926333964,0.0004679288497206886
-0.35275275578533183,-0.35275275578533183,0.9998206080458564,0.00046520138298848483
-0.3520643072632083,-0.3520643072632083,1.0007583218700402,0.0004733328870413727
-0.3513046983865934,-0.3513046983865934,1.0035608781071248,0.00046664154812446954
-0.350269243562434,-0.350269243562434,1.0006780127181858,0.00045877774185735745
-0.3497312022649567,-0.3497312022649567,1.0003157262030196,0.0004689051541014465
-0.34918733483827963,-0.34918733483827963,1.0000471466277265,0.00046918448667115296
-0.3484676105610561,-0.3484676105610561,1.0017649394875423,0.0012784719947411022
-0.3477386857335659,-0.3477386857335659,1.0003596159274275,0.00046681618544823473
-0.34692666447044757,-0.34692666447044757,0.9996509358843415,0.0004674435101861424
-0.34625230060228207,-0.34625230060228207,1.000709757426959,0.0004672061726773118
-0.34537384894138085,-0.34537384894138085,1.0043252047789002,0.00046842277303710457
-0.34478370341748815,-0.34478370341748815,0.9993468696685847,0.0004642422611504887
-0.34408849672727226,-0.34408849672727226,1.0009005089792649,0.0006983287015650452
-0.3433446305516554,-0.3433446305516554,1.0002117264695807,0.0005043255149232286
-0.34264487603613814,-0.34264487603613814,0.9999535630815274,0.0004694981316211411
-0.3419907642106409,-0.3419907642106409,0.9997296868922223,0.0004686874778477504
-0.3410766166070971,-0.3410766166070971,0.9998674797626427,0.00046581295665883306
-0.34038736430993594,-0.34038736430993594,1.0006956643600806,0.000545600637098507
-0.3397471980410046,-0.3397471980410046,1.0008158402554312,0.0004661265750697167
-0.338712962934369,-0.338712962934369,1.0003802210261399,0.000466298422605086
-0.33771233845218374,-0.33771233845218374,0.9994719663469933,0.0004682516340405142
-0.33716315989695433,-0.33716315989695433,0.9998033187749332,0.0004684463480246737
-0.3363831874074094,-0.3363831874074094,1.0000638842794038,0.0008815204048658586
-0.33575954146363074,-0.33575954146363074,0.9992185650870067,0.00046763165477782705
-0.33515267868751836,-0.33515267868751836,0.9999484975265149,0.0004632749831664495
-0.3343020721440553,-0.3343020721440553,1.0010601609754617,0.0004643882784730228
-0.33348307799169563,-0.33348307799169563,0.9996480368056421,0.0006150008940600173
-0.3328609628188133,-0.3328609628188133,1.000389213860807,0.00046740449967005385
-0.3323136168197379,-0.3323136168197379,1.000154464396897,0.000642968256715631
-0.33136241855572734,-0.33136241855572734,1.0018903757115818,0.00046922235470505183
-0.33063788654289966,-0.33063788654289966,0.9999000014066345,0.0004684616946614345
-0.3301001627907681,-0.3301001627907681,1.0000436071682544,0.0004688510046465232
-0.32931036595364277,-0.32931036595364277,1.0003967587750986,0.0004672263280750084
-0.32853494084411067,-0.32853494084411067,0.9989924740694722,0.00046291089349303056
-0.32799942362617,-0.32799942362617,1.00084215966708,0.00047921347723019393
-0.3276038173960842,-0.3276038173960842,1.0002729810726396,0.00046760136043778183
-0.32657060156343504,-0.32657060156343504,1.0008490988679262,0.0004660745147008219
-0.32546580161288147,-0.32546580161288147,0.9996395589584681,0.0004682219492125698
-0.32486261288722745,-0.32486261288722745,1.000166445750094,0.00046770442941969673
-0.324138714287983,-0.324138714287983,0.999660499945622,0.0006565443371605587
-0.32349040899425746,-0.32349040899425746,1.0005528742020515,0.00046665172673467017
-0.3226610531561164,-0.3226610531561164,0.9996928925781269,0.0005248891062312584
-0.3218162582241348,-0.3218162582241348,0.999828196610158,0.0004666675048669587
-0.32123826209026446,-0.32123826209026446,0.9992347760340596,0.0005421506210190987
-0.32078815641725666,-0.32078815641725666,1.000868652560646,0.0004689400076401379
