time,time,flux,flux_err
-0.4987643690783443,-0.4987643690783443,1.000062156371665,0.0002535461618445399
-0.496678081762487,-0.496678081762487,1.000036081024709,0.0002535411967994362
-0.49474834028878834,-0.49474834028878834,1.0001977692359745,0.00023145415155191845
-0.49330044035959875,-0.49330044035959875,1.0002119823221187,0.00023146818189796886
-0.49219033885892716,-0.49219033885892716,1.0001413975972766,0.00023136942500114172
-0.49039910088467875,-0.49039910088467875,0.9999068484623337,0.00023147617088684338
-0.48953164650229153,-0.48953164650229153,0.9997018670207549,0.000231382592074257
-0.48834272751919344,-0.48834272751919344,1.000207274449561,0.00023134482086838455
-0.4865847503351688,-0.4865847503351688,0.9998413478534678,0.00023148033744945315
-0.48556016088477916,-0.48556016088477916,0.9999279812936932,0.0002313075042478017
-0.48391468518821057,-0.48391468518821057,0.9998179289147082,0.00023155462433845157
-0.4826567849049752,-0.4826567849049752,0.9999764095520846,0.00023139258542284594
-0.48110279550382984,-0.48110279550382984,0.9998938201543854,0.0002324114545018709
-0.4795812736723747,-0.4795812736723747,1.0000367169846662,0.00023244739628771515
-0.4781753911775013,-0.4781753911775013,0.999997701324251,0.00023134812184159135
-0.4761589256529987,-0.4761589256529987,1.0001089123866902,0.0002314722912144075
-0.4742805106398009,-0.4742805106398009,1.0000979082718255,0.00023142345451176958
-0.4724330149234447,-0.4724330149234447,0.9999746264584808,0.00023149031804402202
-0.4701043511609896,-0.4701043511609896,0.9996225269814898,0.00023138527896762016
-0.46851091457065197,-0.46851091457065197,1.0001639633435777,0.00023146066531363826
-0.46670746804666124,-0.46670746804666124,1.0003310237785137,0.00023146668969671955
-0.46532565843881457,-0.46532565843881457,0.999838291626622,0.00023138179293624015
-0.4636567813329748,-0.4636567813329748,0.9997711797640434,0.00023139800230850545
-0.46234230847403524,-0.46234230847403524,0.9995477003919291,0.0002314411988366512
-0.4615280359117605,-0.4615280359117605,0.9998684125168472,0.00023134573433510096
-0.45992094976099906,-0.45992094976099906,1.000110112647574,0.00023147916284405718
-0.4587412274428061,-0.4587412274428061,0.9997351415504859,0.00023141741571851634
-0.45787434888625284,-0.45787434888625284,0.999880653920061,0.00023125225019196221
-0.4560699643108819,-0.4560699643108819,0.9997054383737878,0.00023155513926448142
-0.4547237796228728,-0.4547237796228728,0.9997844383317895,0.00023139311965780532
-0.45306151436961956,-0.45306151436961956,1.0003168463475745,0.00023235146964634395
-0.45158972569115574,-0.45158972569115574,0.9999049019924063,0.0002314622700475859
-0.4504877507286437,-0.4504877507286437,0.9997917920875958,0.00023136908859764787
-0.44877659347766896,-0.44877659347766896,0.999869278101053,0.0002342139743560125
-0.4474018516819342,-0.4474018516819342,0.9998979040297327,0.00023129364079212296
-0.4451235547836404,-0.4451235547836404,1.0002407292961861,0.00023146676847957004
-0.4428624488718924,-0.4428624488718924,0.9996465392509858,0.00023140043674851196
-0.4411552853693138,-0.4411552853693138,1.0001422635901447,0.00023142440341490612
-0.43951157979754496,-0.43951157979754496,0.9998916602527693,0.00023138366197509086
-0.43809705469975596,-0.43809705469975596,0.9995457683955534,0.00023135723805705935
-0.436816542512679,-0.436816542512679,0.9995972866258361,0.0002313698599132054
-0.43499078571112476,-0.43499078571112476,1.000218566922687,0.0002313967861558026
-0.43414992897451155,-0.43414992897451155,0.999757437952151,0.00023135329200673813
-0.43295209469652035,-0.43295209469652035,0.9998801603619052,0.00023139191360750316
-0.4314318302363972,-0.4314318302363972,0.9999827812027784,0.00023146865495602586
-0.43058017422954437,-0.43058017422954437,0.9995756204351736,0.00023134658760676363
-0.42914743668516164,-0.42914743668516164,1.0000211788787323,0.00023148521597084987
-0.42747558096816646,-0.42747558096816646,1.00013577714173,0.0002313743186752547
-0.42603396944978156,-0.42603396944978156,1.000034273166436,0.000231549237026209
-0.42418049923944634,-0.42418049923944634,0.9999938650161836,0.00023164733389229437
-0.4231256754632341,-0.4231256754632341,1.000144794571634,0.00023130857403624898
-0.4216267930496542,-0.4216267930496542,0.9998146979165607,0.00023560118959710727
-0.4202475073667301,-0.4202475073667301,1.0002134515687515,0.00023147228979444697
-0.41843567436080775,-0.41843567436080775,0.9999906716866324,0.00023141819753980277
-0.4161528527147311,-0.4161528527147311,0.9998070094682492,0.0002313959485307761
-0.41391339805413735,-0.41391339805413735,1.0000320648449104,0.00023144301065140403
-0.41254292664016246,-0.41254292664016246,1.000147607194815,0.00023144619078539026
-0.4105216290765384,-0.4105216290765384,1.0003380260848391,0.00023151776946562635
-0.4091238837776473,-0.4091238837776473,0.9996878423304476,0.00023132752679314687
-0.4072443137076334,-0.4072443137076334,0.9996713900622758,0.00023142416610076475
-0.4062404623575276,-0.4062404623575276,0.9992730333975374,0.00023144085266953927
-0.4045222984073916,-0.4045222984073916,1.0000691006480025,0.00023146100418100515
-0.40334266889258286,-0.40334266889258286,1.0003444032168434,0.00023146925866916477
-0.4025032140008989,-0.4025032140008989,0.9998470858143728,0.00023132384331882557
-0.40066433943939045,-0.40066433943939045,0.9992509564866865,0.00023143818740490582
-0.3994710532781028,-0.3994710532781028,1.0001397598065425,0.0002313713098500405
-0.3981011144533113,-0.3981011144533113,1.000308283937789,0.00023148922805788603
-0.39665847252035746,-0.39665847252035746,1.0001270258404178,0.00023155685657002292
-0.3956216100297752,-0.3956216100297752,1.0001409799339895,0.00023136752284955332
-0.3942565467019449,-0.3942565467019449,1.0001203795900209,0.00023439327839961757
-0.39278526505149786,-0.39278526505149786,0.9999943023458956,0.0002313799990929783
-0.39121129691193346,-0.39121129691193346,1.0002310307715268,0.00023134889939531718
-0.38896453901325,-0.38896453901325,1.000171343102847,0.00023144598019901418
-0.3865571236194228,-0.3865571236194228,1.0002837769016153,0.00023152143644958938
-0.38485110066394557,-0.38485110066394557,1.0001881600856306,0.0002314214328685351
-0.38282213280472205,-0.38282213280472205,0.9996798882766923,0.00023146603070817528
-0.3814313922724978,-0.3814313922724978,0.9997930583443528,0.00023137978856375296
-0.37954345176767673,-0.37954345176767673,0.9999006356284065,0.00023144589058311758
-0.37854558591061505,-0.37854558591061505,0.9999150202026771,0.00023147006832406657
-0.37682320304811584,-0.37682320304811584,0.9999223855242552,0.00023141242752978633
-0.3756436151867092,-0.3756436151867092,0.9998966371061886,0.00023143333027436102
-0.3748178923444357,-0.3748178923444357,0.9999280329240039,0.0002313035108241837
-0.3729617442972085,-0.3729617442972085,0.9996991715769024,0.00023144640069353782
-0.3717779081911431,-0.3717779081911431,0.9998564990186729,0.00023143140145526127
-0.37040823061324774,-0.37040823061324774,1.0001715309124388,0.00023143801444824126
-0.3689575147196592,-0.3689575147196592,0.9997283739332439,0.00023154684607090294
-0.36759944592631655,-0.36759944592631655,1.0002745120637928,0.00023232550189156745
-0.3660170648632629,-0.3660170648632629,1.0000371644164077,0.0002324055052402788
-0.36468439931704777,-0.36468439931704777,0.9997111698566827,0.0002313562927472017
-0.36317891965518356,-0.36317891965518356,0.9998448702219778,0.00023132210926775075
-0.3612666580273071,-0.3612666580273071,0.9996415487235651,0.00023143965606099462
-0.35931194092991064,-0.35931194092991064,1.0003623792180731,0.00023150052025121157
-0.35735223258816406,-0.35735223258816406,1.0000559193160694,0.00023142611722237063
-0.35512279947506614,-0.35512279947506614,1.0002004979480195,0.00023151528196743305
-0.353739070440497,-0.353739070440497,0.9998564352954314,0.00023136639763266754
-0.3518427395974868,-0.3518427395974868,1.0000512859658675,0.00023149562021752644
-0.35063152432921924,-0.35063152432921924,0.999857324814729,0.00023140588761393308
-0.3487713945170981,-0.3487713945170981,0.9996655047421601,0.0002314346488747787
-0.3477832751646929,-0.3477832751646929,1.000304681526079,0.00023144874145718952
-0.3468399406563549,-0.3468399406563549,0.99971079812129,0.00023134913022426458
-0.34513380318239795,-0.34513380318239795,1.0001525763943122,0.00023152564943443034
-0.34422956941634764,-0.34422956941634764,1.0003638265989476,0.00023139148407656557
-0.3430529794561153,-0.3430529794561153,1.0000471237601887,0.00023141011832188163
-0.3412566944360151,-0.3412566944360151,1.0000463129815051,0.00023150318198316366
-0.3399073489039438,-0.3399073489039438,0.9999416731960953,0.00023173208247871785
-0.33832437703749746,-0.33832437703749746,1.0002788385314485,0.0002318383416259891
-0.3369924584905675,-0.3369924584905675,0.9999747366037885,0.00023134481702364934
-0.335586558606883,-0.335586558606883,0.9999701263454719,0.0002340840696689515
-0.33399344199860936,-0.33399344199860936,1.00002000535696,0.00023137648706900805
-0.33240284110070206,-0.33240284110070206,0.999976941177706,0.0002314679600401835
-0.3301720562471019,-0.3301720562471019,1.000055140906318,0.00023148140559788198
-0.32777442535443696,-0.32777442535443696,1.0000055543930946,0.0002314902488202998
-0.3263792275000014,-0.3263792275000014,0.9999633312928564,0.00023137975882932897
-0.3244235124839179,-0.3244235124839179,1.0001377748955398,0.00023141236667116564
-0.32321601714284043,-0.32321601714284043,0.9995148676312299,0.00023139629897310802
-0.3214254787875689,-0.3214254787875689,0.999668475072391,0.0002314035622536309
-0.32024595646726084,-0.32024595646726084,0.9995561279186329,0.0002314180364241631
-0.31944774886142113,-0.31944774886142113,0.9997849792531126,0.00023128817802006468
-0.31768607678459376,-0.31768607678459376,0.9995589288797161,0.00023142176361847533
-0.3166825999171124,-0.3166825999171124,0.9998224265437766,0.00023146247747296258
-0.31572010483505436,-0.31572010483505436,0.9997215318446813,0.00023134628927796506
-0.3138777383661363,-0.3138777383661363,0.9999711704103846,0.0002315742083129809
-0.3125575606012717,-0.3125575606012717,0.9996328366261513,0.000231261410614527
-0.31085996542169597,-0.31085996542169597,1.0000076620399891,0.00023164348603975856
-0.3094913683795312,-0.3094913683795312,1.000085784435975,0.00023136747453840348
-0.3083320380676014,-0.3083320380676014,0.9998328931513683,0.00023318438591839386
-0.30689139912792596,-0.30689139912792596,1.000032200352054,0.00023371644351127607
-0.3055263303453103,-0.3055263303453103,0.9996414521359898,0.00023127288846984487
-0.30323562021148975,-0.30323562021148975,1.0002971365618398,0.00023150053973089026
-0.30097722328282545,-0.30097722328282545,0.9998904365000858,0.00023147056806875968
-0.2992720422822458,-0.2992720422822458,0.9999837769654973,0.0002314276159131147
-0.29746388326166195,-0.29746388326166195,0.999798050864187,0.00023146834434908457
-0.29586053947059554,-0.29586053947059554,1.0002519482538657,0.00023139347903706299
-0.29406970821801226,-0.29406970821801226,0.9999759325716886,0.0002314736338278665
-0.29262220276723383,-0.29262220276723383,1.0005268220890264,0.00023152128745335823
-0.29150241569150237,-0.29150241569150237,1.000082372409704,0.000231333706050792
-0.28972470824155605,-0.28972470824155605,0.9997551275739285,0.0002315017576532866
-0.28884693766667624,-0.28884693766667624,0.9999620018220318,0.0002313905595644191
-0.2876614768138097,-0.2876614768138097,0.9999898014386279,0.00023140561880988087
-0.28590966367555665,-0.28590966367555665,0.9999735107789423,0.00023149486642130507
-0.28487146009429126,-0.28487146009429126,1.000140290968924,0.00023130462772158721
-0.2832326433752314,-0.2832326433752314,0.9999354879872298,0.00023149853967081301
-0.2820079117460409,-0.2820079117460409,0.9996510799301944,0.00023141419078941526
-0.2809505186181923,-0.2809505186181923,0.9999234455240874,0.00023264507252995122
-0.2795218313709483,-0.2795218313709483,1.0001506434730003,0.00023300992625832411
-0.2780372318535228,-0.2780372318535228,0.9999957448416659,0.00023132950037257175
-0.2760762011857878,-0.2760762011857878,0.9999522744323421,0.00023142221784567128
-0.273746115060203,-0.273746115060203,0.9998283855325922,0.0002314147665788204
-0.2717580060561886,-0.2717580060561886,0.9999923365316505,0.00023147573585651215
-0.26976565557342835,-0.26976565557342835,0.9998876754211794,0.00023142077584970266
-0.26816725013195536,-0.26816725013195536,0.9998580824507938,0.00023139636379586052
-0.2663708257146936,-0.2663708257146936,0.9999229850994003,0.0002314294747515341
-0.2649228106267401,-0.2649228106267401,0.9998830986425311,0.00023145736807389956
-0.2638154808912077,-0.2638154808912077,0.9998968062092608,0.0002313738914790972
-0.2620203713304363,-0.2620203713304363,0.9997610709717893,0.00023146365694471372
-0.26115586787927897,-0.26115586787927897,1.00017748118686,0.00023142939943791868
-0.2599659593332035,-0.2599659593332035,1.0001469364949176,0.0002313708199760576
-0.2582062207722629,-0.2582062207722629,1.0002560233456887,0.0002315158158351281
-0.25718552252074006,-0.25718552252074006,1.0004720550168256,0.00023129709351255964
-0.25553814486484044,-0.25553814486484044,0.9995297542249644,0.00023149336347307118
-0.2542801254443475,-0.2542801254443475,0.9999645886879114,0.00023138620509294584
-0.25272678932669806,-0.25272678932669806,0.9999341555427724,0.00023227724069056383
-0.25120338452616126,-0.25120338452616126,1.0003299459080006,0.00023232748346306998
-0.25012028135970465,-0.25012028135970465,1.0001852331706766,0.00023132296449203992
-0.24816159184556455,-0.24816159184556455,1.0004477476051825,0.00023145352097050817
-0.2463649206838454,-0.2463649206838454,0.9997029704495354,0.00023135630707089082
-0.24428271510696503,-0.24428271510696503,0.9997983825938125,0.00023151192213431604
-0.24218133617032436,-0.24218133617032436,1.0000987984806753,0.0002314254033533198
-0.24047367755265442,-0.24047367755265442,1.000067690404618,0.0002314458610076748
-0.2386721092130756,-0.2386721092130756,1.0000428901781937,0.00023149891639390844
-0.2371898811601568,-0.2371898811601568,1.000172645595009,0.0002314134576896413
-0.23570471115453984,-0.23570471115453984,0.9998821452006688,0.0002313877662844516
-0.23415437032454064,-0.23415437032454064,1.0000915716130465,0.00023140568928891442
-0.23331454747458338,-0.23331454747458338,1.0002824468900904,0.00023139956121001037
-0.23188867908902466,-0.23188867908902466,0.999758450795299,0.00023143303968417816
-0.23056667557830224,-0.23056667557830224,0.9998367013050686,0.000231437546111434
-0.22972442470345414,-0.22972442470345414,1.000401484973692,0.0002314911859299943
-0.22803727501013782,-0.22803727501013782,0.9997570146077324,0.00023145916956381145
-0.22658525236038257,-0.22658525236038257,1.0000276179108156,0.00023137803455563864
-0.2250348699366441,-0.2250348699366441,1.000165458659016,0.00023185683855606347
-0.22350296086297022,-0.22350296086297022,1.0003402565695796,0.00023182398112985884
-0.22243575264292303,-0.22243575264292303,1.000106370191801,0.00023134333253753674
-0.22071992704513832,-0.22071992704513832,0.9998551406809144,0.00023414078974986225
-0.2192346999712754,-0.2192346999712754,0.999936304471508,0.00023135804225640237
-0.21728425593319117,-0.21728425593319117,1.000011930714019,0.00023148294447437287
-0.21494075949522085,-0.21494075949522085,1.0004045183835562,0.00023143212525598652
-0.21301113581939718,-0.21301113581939718,0.9999819969611661,0.00023149260277488393
-0.2114171375229489,-0.2114171375229489,1.0001926671629426,0.000231375387987468
-0.2097211321350187,-0.2097211321350187,1.0006449611348969,0.00023146933134211853
-0.20844038227805867,-0.20844038227805867,1.000056710227192,0.0002313680822496592
-0.20661211863698553,-0.20661211863698553,1.000457576117052,0.00023146714202114876
-0.20577422386122635,-0.20577422386122635,1.000235594796158,0.00023141907793820387
-0.2045753975682601,-0.2045753975682601,0.9999307230972896,0.0002313618974243393
-0.20305482070543804,-0.20305482070543804,0.9999883668674032,0.00023146308456791404
-0.2022040075629775,-0.2022040075629775,1.0000045138574654,0.00023139482602608217
-0.20077004553968436,-0.20077004553968436,0.9992954577474036,0.00023143010003085662
-0.199098662398319,-0.199098662398319,1.0000439171540623,0.00023142738446322678
-0.19776440717178048,-0.19776440717178048,1.000098444469593,0.0002315202745081037
-0.19610887149101472,-0.19610887149101472,1.0000035423947824,0.0002315974275656363
-0.19493537994057988,-0.19493537994057988,1.0001961329705067,0.00023138350138729983
-0.19357231565372784,-0.19357231565372784,0.999924872447898,0.00023532006489708387
-0.19210621614256523,-0.19210621614256523,0.9999705670457208,0.0002313716900145029
-0.19052538595788066,-0.19052538595788066,0.9998808993884974,0.0002313799978167146
-0.18828521660107073,-0.18828521660107073,0.9996845281108474,0.00023141364573660197
-0.18588182379608043,-0.18588182379608043,0.9999657901286734,0.00023149152962816943
-0.1845042908375035,-0.1845042908375035,1.0003954669550614,0.00023141644139500388
-0.18250680273922626,-0.18250680273922626,0.9997402374881948,0.00023148819152907221
-0.18106752182138736,-0.18106752182138736,0.999621925728064,0.00023135222289288881
-0.17913883660148713,-0.17913883660148713,0.9999599549209153,0.0002314594666761571
-0.17807901487612982,-0.17807901487612982,0.9999700619437093,0.00023142228980819714
-0.17648919436323923,-0.17648919436323923,0.9998208790063083,0.0002314249998122874
-0.17517131850327133,-0.17517131850327133,1.000052580649331,0.00023143493089827186
-0.17434430438297568,-0.17434430438297568,1.0001154912680683,0.0002314196409909406
-0.1726435932388995,-0.1726435932388995,0.9999710647331209,0.00023144021713488315
-0.1712845264482894,-0.1712845264482894,1.0001161493332538,0.00023140054291057648
-0.17006816045177403,-0.17006816045177403,0.9991898871660446,0.0002313429921150428
-0.16858832238649485,-0.16858832238649485,1.000049266028158,0.000231615641370504
-0.1674210950252018,-0.1674210950252018,1.0002008322289455,0.00023141425971988242
-0.16612600599764846,-0.16612600599764846,0.99990781068939,0.0002326271620831411
-0.16471498184182565,-0.16471498184182565,0.9999450830692833,0.00023289124183337276
-0.1633005852694623,-0.1633005852694623,0.9999413560031005,0.00023139137615037952
-0.16095962337276432,-0.16095962337276432,0.9999707229080826,0.00023144001780642763
-0.15863509251576033,-0.15863509251576033,0.9998418637995652,0.00023139692876591563
-0.15685779155537602,-0.15685779155537602,1.0000423515677108,0.00023139346417574494
-0.15480300394629012,-0.15480300394629012,0.9999518288218401,0.00023155288666439774
-0.15337957999508944,-0.15337957999508944,1.0001675070878104,0.00023136553007061872
-0.15144117214513245,-0.15144117214513245,0.9998667779721027,0.0002314320211566434
-0.15022796880075476,-0.15022796880075476,1.0000578596533505,0.00023144753181957123
-0.14844564682498457,-0.14844564682498457,0.9998598732283384,0.00023140959795710166
-0.14726606631156755,-0.14726606631156755,1.0001270894805117,0.0002314502106393717
-0.14644339945589308,-0.14644339945589308,1.0001695892661293,0.00023134733069529894
-0.14458340983474044,-0.14458340983474044,1.000212912598267,0.00023144483127566368
-0.14340167567279422,-0.14340167567279422,0.9999646039475664,0.00023134391265867052
-0.14203205812373199,-0.14203205812373199,0.999723047956865,0.00023862563167305058
-0.14089169405706342,-0.14089169405706342,1.0001028398620766,0.00023156820707286737
-0.13955546567158308,-0.13955546567158308,1.0002215666957741,0.00023135788140452992
-0.13786289059498813,-0.13786289059498813,1.0001364560226793,0.0002330325072588417
-0.13650379077953403,-0.13650379077953403,1.000074406155458,0.00023146554870721127
-0.13524824252017426,-0.13524824252017426,0.9999147158058115,0.0002313775780807523
-0.13362834988802205,-0.13362834988802205,1.000013164495548,0.00023462627771765466
-0.1321773243260395,-0.1321773243260395,1.0000240934392077,0.00023133090516088743
