time,time,flux,flux_err
-0.4999089384242931,-0.4999089384242931,1.0004116629996387,0.0002935658036662086
-0.49981631212479743,-0.49981631212479743,0.9998884476041004,0.00025355737502678926
-0.49960085403169313,-0.49960085403169313,1.0000773812556063,0.0002752851430263537
-0.49943616413729613,-0.49943616413729613,0.9999965543575497,0.00024283648664126149
-0.4993216577604471,-0.4993216577604471,1.0001900917648814,0.0002438386411525879
-0.4990970955579542,-0.4990970955579542,0.9997321187705458,0.00025514258158909663
-0.49893109553449905,-0.49893109553449905,1.0002604676449798,0.000259770700076846
-0.49875928633409783,-0.49875928633409783,1.000091406991234,0.0002498290092033166
-0.49866725331812634,-0.49866725331812634,1.000167372212972,0.00024208812080429707
-0.49858234394851025,-0.49858234394851025,0.999774955249992,0.000248136804735681
-0.4984624178621743,-0.4984624178621743,1.0002532719533044,0.00024034289973554006
-0.49837264034576945,-0.49837264034576945,0.9999502777122528,0.00024674852354733144
-0.4982361734095321,-0.4982361734095321,1.0000525315883908,0.0002478159623133069
-0.4981746435849345,-0.4981746435849345,0.9997300037927923,0.0002524187171083029
-0.498079561432678,-0.498079561432678,1.0001555164349054,0.00025679004716568993
-0.49796929323856604,-0.49796929323856604,1.0000976426615955,0.00024334151947148856
-0.49779627772659296,-0.49779627772659296,0.9999509845327141,0.00024416326741585887
-0.49763410235755146,-0.49763410235755146,1.0001201033798879,0.0002679094076115585
-0.4975047624444414,-0.4975047624444414,1.0000890939491127,0.0002724429384490505
-0.49743470243920457,-0.49743470243920457,1.0001224036765675,0.0002452670315601173
-0.49732544792204864,-0.49732544792204864,0.9999012891079218,0.00023397592981483237
-0.4971339809555502,-0.4971339809555502,1.0003115202445356,0.0002531961444743197
-0.49697501659320553,-0.49697501659320553,1.0003914372785117,0.00025469945651536245
-0.49683039750598257,-0.49683039750598257,1.0002591257092894,0.00025727143086368566
-0.4966998610587325,-0.4966998610587325,1.0002388656269823,0.0002645062782228903
-0.4965489262547635,-0.4965489262547635,0.9999184658051442,0.00023547683603672887
-0.4963762231716828,-0.4963762231716828,1.000075812887689,0.0002429585499854002
-0.49620315676147586,-0.49620315676147586,0.9999446975811838,0.00026825158020161706
-0.49599543797812656,-0.49599543797812656,1.0005872482167522,0.0002651812467784088
-0.4958729521989881,-0.4958729521989881,1.0002669792409642,0.0002599425314886223
-0.4957475072740635,-0.4957475072740635,0.9997270658539433,0.00023846515561702728
-0.49561256034066903,-0.49561256034066903,0.9997366808927621,0.0002479004827526952
-0.4954751721925277,-0.4954751721925277,0.9999516210824613,0.00024161585444355346
-0.4953626093141793,-0.4953626093141793,1.0001505497890588,0.00023875059607110657
-0.4952545959611598,-0.4952545959611598,1.0000596300098101,0.00024026273022464931
-0.49513229381045676,-0.49513229381045676,0.999886779449555,0.00025492159786191044
-0.4950248377979733,-0.4950248377979733,1.0001842443095286,0.0002409886093873837
-0.4947789803009073,-0.4947789803009073,0.9999076865085061,0.00024838976971344246
-0.4945973090805637,-0.4945973090805637,0.9998746326065836,0.00024034523252166126
-0.49452110554484535,-0.49452110554484535,1.00022654883677,0.00023196842714961227
-0.49444870919614914,-0.49444870919614914,0.9997934004691127,0.000241214104585869
-0.4942522543227824,-0.4942522543227824,0.9999264496118961,0.00026353701257561264
-0.49414558003336423,-0.49414558003336423,1.0001142712921856,0.000259617895047733
-0.49406056082298166,-0.49406056082298166,1.0000055816848052,0.0002508499254650794
-0.49399004794468054,-0.49399004794468054,0.9998517560920479,0.000252173997826397
-0.49390975846836227,-0.49390975846836227,1.0000720206330418,0.00023531039185469279
-0.49379527809360296,-0.49379527809360296,0.9999215603892144,0.00023370242721040742
-0.4935963785261265,-0.4935963785261265,1.0000249986166694,0.00023395423130073803
-0.49351328462362287,-0.49351328462362287,1.000041662995148,0.00023492783438496537
-0.4933839486075158,-0.4933839486075158,1.0003236183877056,0.00022938246769380375
-0.493131128091045,-0.493131128091045,1.000370575066754,0.00026238777378725714
-0.4929613821492239,-0.4929613821492239,1.0003750774411144,0.0002675331411003611
-0.4928391562687466,-0.4928391562687466,1.0003009156116254,0.000227381834416001
-0.4926824144778948,-0.4926824144778948,1.0000374592525019,0.0002660300800304746
-0.49256164091202664,-0.49256164091202664,1.0000940151646338,0.00026167482660024706
-0.49246952240282554,-0.49246952240282554,0.9999019066985315,0.0002380788069906991
-0.4923837002541404,-0.4923837002541404,0.9997935379571908,0.00025693001742200687
-0.492271172528126,-0.492271172528126,1.0000304407615075,0.0002582477506017047
-0.4921916055398469,-0.4921916055398469,1.000115636489538,0.00025103650415741
-0.4919122617691755,-0.4919122617691755,1.0002839596791249,0.00024312143560850722
-0.49173102351051057,-0.49173102351051057,1.0003431051490952,0.0002431928577929764
-0.49161307829272116,-0.49161307829272116,1.0001933946698185,0.0002487022209322928
-0.49134020118581245,-0.49134020118581245,1.0002392366040536,0.00024697062943109183
-0.4912274154368788,-0.4912274154368788,1.0004243394651176,0.000231189443124837
-0.491086315800203,-0.491086315800203,0.9999257072000249,0.0002473354200016511
-0.49087929083543713,-0.49087929083543713,1.0001229613678575,0.00023905808090312936
-0.49077013398127745,-0.49077013398127745,1.000656673020944,0.0002470055345751465
-0.4906983820728783,-0.4906983820728783,1.000348661506933,0.00024158307882400946
-0.49050341149559246,-0.49050341149559246,1.0004343961181952,0.00026054117157051077
-0.4903694920569251,-0.4903694920569251,0.9998446663986916,0.00025405421031966325
-0.4901696985660237,-0.4901696985660237,0.9998150797620763,0.00024896096773106586
-0.49006019439766535,-0.49006019439766535,0.9996286406016418,0.00024800061726430587
-0.4899421811220236,-0.4899421811220236,1.0004575839067513,0.00023986466120555516
-0.4898039185332891,-0.4898039185332891,0.9998921829973355,0.0002451265583743654
-0.48969546592488766,-0.48969546592488766,1.0001378569144124,0.000264037376521304
-0.48960750503683814,-0.48960750503683814,0.9999399795974396,0.00024796353374802594
-0.4895425493858056,-0.4895425493858056,0.9998764389745032,0.0002546151351279541
-0.4894322351741721,-0.4894322351741721,0.9998354661742811,0.0002494568086311983
-0.4893188624213508,-0.4893188624213508,1.00017944000446,0.00024657829390011216
-0.48912804647916347,-0.48912804647916347,0.9999159947105065,0.00025169642410245393
-0.4889396317419596,-0.4889396317419596,1.0002491849307833,0.0002299661160036162
-0.4888673888985068,-0.4888673888985068,0.9997726864026045,0.00026622812878439675
-0.4887855738859798,-0.4887855738859798,1.000078604288662,0.0002475021761646348
-0.48858737481568826,-0.48858737481568826,0.9998494756379028,0.0002321124927984391
-0.48844228713933263,-0.48844228713933263,0.999989271059454,0.0002722308226505407
-0.48828121488040777,-0.48828121488040777,0.9997957049864986,0.0002667635127323846
-0.48816424316974005,-0.48816424316974005,1.0000072776509898,0.00024212507045434807
-0.4880825608684972,-0.4880825608684972,1.0001495482891045,0.00024066193534428808
-0.4879404007930134,-0.4879404007930134,1.0001521253469194,0.0002422443731497933
-0.4877732939829002,-0.4877732939829002,0.9998042940574698,0.00023419060172487905
-0.48757806457579134,-0.48757806457579134,0.9996813125840525,0.00027054185929588397
-0.48741500403775717,-0.48741500403775717,0.999908386742533,0.0002641386251361421
-0.4872953849553596,-0.4872953849553596,0.9999882714270905,0.0002617292125122756
-0.48714900041304643,-0.48714900041304643,0.9998011402810079,0.0002511868946276271
-0.4870026518503437,-0.4870026518503437,0.9998061930259571,0.00024236068134679623
-0.48680510255435366,-0.48680510255435366,1.0003659960119855,0.0002568689391914474
-0.4866914115125837,-0.4866914115125837,0.9999955642838539,0.0002426180376056735
-0.48657214476843363,-0.48657214476843363,1.0000844947762253,0.00023265110456041467
-0.4864971205643087,-0.4864971205643087,0.9998625793855596,0.0002515478385905326
-0.48634313605798524,-0.48634313605798524,0.9999487325688683,0.00023858820651599224
-0.4861680039924977,-0.4861680039924977,0.9999431918698773,0.0002842385248369715
-0.4860092312665074,-0.4860092312665074,1.0000204459879138,0.0002323029736439889
-0.48592686656847944,-0.48592686656847944,0.9999317020233793,0.00023989000590428464
-0.48582982484658715,-0.48582982484658715,0.9998228215329034,0.00024259763847819422
-0.4856186820397852,-0.4856186820397852,0.9998865582333296,0.0002438553597331058
-0.48547388420120113,-0.48547388420120113,0.9999414940083712,0.0002560791416615405
-0.48538821675174404,-0.48538821675174404,0.999990964008447,0.00024206255217704915
-0.4853118950370117,-0.4853118950370117,1.0004121780112236,0.00023391919699776177
-0.48522906991202036,-0.48522906991202036,1.0001721864484312,0.00023911820928178306
-0.48505498185550094,-0.48505498185550094,0.9998167209614488,0.00022437418332233055
-0.4849001625632809,-0.4849001625632809,0.9996452403789118,0.00022840222909031974
-0.48481986065307864,-0.48481986065307864,0.999997648260684,0.0002423866649510729
-0.48467917880334427,-0.48467917880334427,1.000189342937777,0.00024319971865504968
-0.48448239320277936,-0.48448239320277936,1.0001344916068793,0.00025936544622658493
-0.48440951141601546,-0.48440951141601546,0.9999596895646355,0.0002540861008730448
-0.48433145906892605,-0.48433145906892605,0.9995299292671884,0.00025819457672254234
-0.48420316894407733,-0.48420316894407733,0.999749757836175,0.00023713216689269092
-0.4840830341425317,-0.4840830341425317,0.999834681367353,0.00025241856775654536
-0.483989497031871,-0.483989497031871,1.0001530956134537,0.00026097455571661625
-0.4838564322264574,-0.4838564322264574,1.000001837394836,0.0002524925442415959
-0.48377654504583917,-0.48377654504583917,1.0000393565524357,0.0002458348002695984
-0.4836711319258029,-0.4836711319258029,0.9997384620377966,0.00024464953649519917
-0.48360946031680213,-0.48360946031680213,0.9995982543451231,0.0002459327976736165
-0.48346627729115427,-0.48346627729115427,0.9999371925555274,0.00024542183062115997
-0.48325845179642785,-0.48325845179642785,1.0000240090059367,0.00026559670490910347
-0.4831404564116383,-0.4831404564116383,0.999821931765281,0.00024315208643092275
-0.48306556062816525,-0.48306556062816525,1.0002256627166126,0.0002487973773821553
-0.48291699963083373,-0.48291699963083373,0.9996428960342072,0.00023762562290603786
-0.4827105311829655,-0.4827105311829655,0.9998335531292787,0.0002496800890566109
-0.4826119553537865,-0.4826119553537865,1.0002424477667045,0.00024369111597107544
-0.4824964784318581,-0.4824964784318581,1.000147858180278,0.00023887289893112978
-0.4823688718664926,-0.4823688718664926,1.0000494199551437,0.0002451706090811553
-0.48220640683721283,-0.48220640683721283,1.0001892995686381,0.000246334651915944
-0.48213218043820233,-0.48213218043820233,0.9999973492776075,0.0002465054534217347
-0.4820124928744917,-0.4820124928744917,1.0000797406695878,0.00023703191009286786
-0.48183299110169175,-0.48183299110169175,1.0003255962862831,0.00025191882431660647
-0.48169390936163836,-0.48169390936163836,1.0001024657870092,0.000259615372877704
-0.48151648015991666,-0.48151648015991666,0.999852885781995,0.0002615263957689878
-0.4814147450197197,-0.4814147450197197,0.999893077884787,0.00024353018319818164
-0.48122990047195346,-0.48122990047195346,0.9999768533059237,0.00024858666297685725
-0.48111022363373196,-0.48111022363373196,1.0000258577961072,0.00023811963160589905
-0.4810178463056218,-0.4810178463056218,0.9999610738245209,0.0002479355264330107
-0.4809536718479649,-0.4809536718479649,0.9996348721656421,0.0002517394942280342
-0.48086138895814656,-0.48086138895814656,1.000100983115472,0.0002583198529335446
-0.4807512682309607,-0.4807512682309607,1.0000859083078837,0.0002473414502865911
-0.48059446856132126,-0.48059446856132126,1.000276592286377,0.0002374530661554537
-0.4803905221429886,-0.4803905221429886,0.999806724262247,0.000227409184937971
-0.4802661921006802,-0.4802661921006802,1.0001097435059698,0.000263533869157512
-0.4802138313549221,-0.4802138313549221,1.000206583806151,0.0002408908839234504
-0.4800533182882646,-0.4800533182882646,1.000199644280963,0.0002534981728968827
-0.47992911849942177,-0.47992911849942177,1.000127561504365,0.00025214326306722374
-0.4798281810726621,-0.4798281810726621,0.9997974793701994,0.0002509658787190429
-0.47960866379435174,-0.47960866379435174,1.0001801146332476,0.00025663537833921435
-0.4795133738902223,-0.4795133738902223,1.0003770412570403,0.0002320087042613107
-0.4794083840090025,-0.4794083840090025,1.000190811060407,0.00024797638328301195
-0.47924618643301076,-0.47924618643301076,1.0000203158132763,0.00023387255656230778
-0.47905823218243315,-0.47905823218243315,1.0001117963763062,0.0002531237690047623
-0.4789499886552221,-0.4789499886552221,1.0001825268971545,0.00023570323697154192
-0.47881318944782836,-0.47881318944782836,0.9998709814762947,0.0002541341397291405
-0.47872979645690067,-0.47872979645690067,1.0003378410919617,0.0003119451801274042
-0.47862603262765335,-0.47862603262765335,1.0002182372794461,0.00027770732333120266
-0.47849127023800975,-0.47849127023800975,1.0001198965497835,0.00024262520552733119
-0.47835476767941143,-0.47835476767941143,1.0001081016885354,0.0002457133409586182
-0.47819346645119365,-0.47819346645119365,1.000314283510869,0.00024856980286932503
-0.4781290337916289,-0.4781290337916289,1.0001867333991696,0.00024867392199993894
-0.4780012648858246,-0.4780012648858246,1.0000799813349914,0.0002403448068324627
-0.4779016786138527,-0.4779016786138527,0.9999602285918516,0.0002513550620937413
-0.4777455697323603,-0.4777455697323603,0.9996985356552118,0.00025270026627303304
-0.4776494296223973,-0.4776494296223973,1.0000172157148266,0.00024919591277445055
-0.47749430115291036,-0.47749430115291036,0.9997291028182212,0.0002666034267124374
-0.47739153567454196,-0.47739153567454196,0.9998029792273186,0.00023473420537124036
-0.4773346937094175,-0.4773346937094175,0.9999773778556476,0.00024096991931335442
-0.477254208708473,-0.477254208708473,1.000150549057071,0.0002358293097621768
-0.4771103346203745,-0.4771103346203745,0.9999036893052361,0.00024197408457186787
-0.4769324705222971,-0.4769324705222971,1.0001233078486096,0.0002333054156432421
-0.47682507483914377,-0.47682507483914377,1.0000940927724966,0.000256032544477023
-0.47675522883291704,-0.47675522883291704,0.9999660635600843,0.00024619939189871406
-0.4766734376345994,-0.4766734376345994,1.000051909939321,0.00025478544377033113
-0.47657490551137016,-0.47657490551137016,0.9998847109475513,0.00023070285003923933
-0.4763098904004437,-0.4763098904004437,0.9999105231778914,0.00023489057366009634
-0.476222385559231,-0.476222385559231,0.9998491109634667,0.0002193092213688506
-0.47607493800023803,-0.47607493800023803,0.999567992913865,0.0002480132512383147
-0.47590661687790997,-0.47590661687790997,1.0000253558765544,0.00027035348226980014
-0.475823238564044,-0.475823238564044,1.000045768923852,0.0002517128577865948
-0.47567542438846433,-0.47567542438846433,0.9999687776321455,0.00024973783320983244
-0.47555357612945953,-0.47555357612945953,0.9999350726006577,0.00023473917325565665
-0.47544456122341217,-0.47544456122341217,0.9999239567298451,0.0002628161668657764
-0.4753722900582943,-0.4753722900582943,0.9998407794258848,0.00023800714683757393
-0.47525396482087673,-0.47525396482087673,1.0000996609386879,0.0002511736082584123
-0.4751833458642068,-0.4751833458642068,0.9999403605954711,0.0002457312426873171
-0.4750469040402095,-0.4750469040402095,0.9999968333543284,0.00024949297685038913
-0.47498079370488994,-0.47498079370488994,1.0001971964801015,0.00024229789294453576
-0.47481775726919295,-0.47481775726919295,0.9999086829665845,0.00026630884213771415
-0.47465025371420777,-0.47465025371420777,0.9999756845523248,0.0002551292894360384
-0.4745007706245815,-0.4745007706245815,0.9997414333778758,0.0002442323395744862
-0.47432586391660153,-0.47432586391660153,0.9997458097718827,0.00022308574101675749
-0.47415723064550547,-0.47415723064550547,0.9996086289932148,0.00028326095828952957
-0.47404415955970763,-0.47404415955970763,0.9998667411246782,0.00024306853149989692
-0.47399135751984434,-0.47399135751984434,0.9995594564712398,0.00024461865575972717
-0.47390090357876036,-0.47390090357876036,0.9997432423336244,0.0002411306980810661
-0.47376015225818263,-0.47376015225818263,1.0003528293865664,0.0002427149492541984
-0.47359981618865277,-0.47359981618865277,0.9998993728665454,0.00024042395820449798
-0.4735322338499827,-0.4735322338499827,1.0002208269599309,0.00025515812635786873
-0.4734105604737124,-0.4734105604737124,1.0001291733587874,0.00023478473178850382
-0.47319175508237094,-0.47319175508237094,1.0001668765645668,0.0002529815199829726
-0.47299294418480714,-0.47299294418480714,0.999934236091048,0.00025769808895708757
-0.4728692482894985,-0.4728692482894985,1.000089863064456,0.00024228562341126338
-0.4727709997394413,-0.4727709997394413,1.000087500476655,0.00023895138649640017
-0.4726393077820831,-0.4726393077820831,1.0000961691053152,0.0002461446234786239
-0.47255756418962847,-0.47255756418962847,0.9998200322821109,0.0002449701620601816
-0.472456986940233,-0.472456986940233,1.0001382841297226,0.00024286323448910672
-0.4724022487462207,-0.4724022487462207,0.9999872923772051,0.0002511052604914542
-0.4723048832231143,-0.4723048832231143,0.9996457609253202,0.0002511917234410369
-0.4722238487323921,-0.4722238487323921,0.9997669071317707,0.0002482273128193091
-0.47212094332207927,-0.47212094332207927,0.9998323241397221,0.0002469439171269109
-0.47195596577439575,-0.47195596577439575,0.9998001612238859,0.00024925399647853413
-0.47178772092884175,-0.47178772092884175,0.9996907542874167,0.0002539439485570466
-0.4716705478982476,-0.4716705478982476,1.0001583917491372,0.00023402595313268753
-0.47157707884907724,-0.47157707884907724,1.0001813518765033,0.0002599940632883965
-0.4714055116433883,-0.4714055116433883,1.0001761037734682,0.00026168894209388526
-0.4712921370337426,-0.4712921370337426,0.9999103004832138,0.00023919133024659557
-0.4711853367261938,-0.4711853367261938,1.0000907898524227,0.00023652794791715047
-0.47095720251527384,-0.47095720251527384,1.0001403603093528,0.0002610061224287676
-0.4708362173943897,-0.4708362173943897,1.000011333534851,0.00023995650859048894
-0.47069838234892813,-0.47069838234892813,0.999533457257755,0.00024193257336639333
-0.470495393058809,-0.470495393058809,0.999849829262786,0.00024895174165778144
-0.4703717700962443,-0.4703717700962443,1.0001657927808094,0.00024669188130305554
-0.470208466846816,-0.470208466846816,0.9999349982829425,0.00025584545865635865
-0.4700643644668162,-0.4700643644668162,0.9997929941423388,0.00026067539250180236
-0.4699092531096539,-0.4699092531096539,0.9997772277140404,0.00024910469273849373
-0.4697525651237811,-0.4697525651237811,1.0000196447835459,0.0002427929900306906
-0.46960592411996915,-0.46960592411996915,0.999734670803212,0.00024884926554809067
-0.46953740480166745,-0.46953740480166745,0.9997834421896539,0.0002505349507541105
-0.469480420419859,-0.469480420419859,1.0001671819089597,0.0002534027210266909
-0.4693861126972479,-0.4693861126972479,0.9996855328593224,0.00024795628957555876
-0.4692945237424283,-0.4692945237424283,0.99985959785961,0.00025063855561355947
-0.4691130703409726,-0.4691130703409726,1.000327543162662,0.0002530940453369015
-0.4689913477930531,-0.4689913477930531,1.0000492955250477,0.0002536220823605153
-0.46887515676426117,-0.46887515676426117,1.0003767467635183,0.00027698998488465625
-0.46877316854661333,-0.46877316854661333,1.0001388425563522,0.0002417647004232659
-0.468705938875064,-0.468705938875064,0.999996638271942,0.0002411968675407048
-0.46856920422869736,-0.46856920422869736,1.0001483236137614,0.00022922580685976802
-0.46840442412212724,-0.46840442412212724,0.9996523487015196,0.00024302966579953415
