time,time,flux,flux_err
-0.4998983884252084,-0.4998983884252084,1.0000470547238438,0.00016870192585009288
-0.49981871175259585,-0.49981871175259585,0.9999920312130162,0.00018517408010831088
-0.4997513398433512,-0.4997513398433512,1.0001475793369552,0.00016304165250702224
-0.49966736561909786,-0.49966736561909786,0.999955093662645,0.00016251858823705345
-0.4995492735237349,-0.4995492735237349,1.0001287968268169,0.00018915413315169727
-0.49942728547830484,-0.49942728547830484,1.000005902815666,0.00017266656754013197
-0.4993384256704303,-0.4993384256704303,1.0002506309034378,0.00016504663405955333
-0.49924173862600585,-0.49924173862600585,0.9997887734039772,0.0001701984312022277
-0.49914288409272556,-0.49914288409272556,1.0001061016647095,0.00016474794804502608
-0.49903697957779514,-0.49903697957779514,1.0001653556717327,0.0001802364934014914
-0.4989278184075374,-0.4989278184075374,0.9999427553781206,0.00018639787625288634
-0.4988175470090937,-0.4988175470090937,0.9998729305444407,0.00018854022481861393
-0.4986880545729946,-0.4986880545729946,0.999923310396548,0.00018114959622229037
-0.4985447499573638,-0.4985447499573638,1.0000932542283718,0.00017283142052198537
-0.4983849519667274,-0.4983849519667274,0.9999018061125623,0.00018196464277178568
-0.49824555880768456,-0.49824555880768456,0.9999041043244485,0.0001914435677167389
-0.49810413278755733,-0.49810413278755733,0.9996953819750922,0.0001819550230462122
-0.4980064395072986,-0.4980064395072986,0.9999586549253203,0.0001665614574708574
-0.49793633305598634,-0.49793633305598634,1.0002030699148634,0.00016322450157320057
-0.49780498691252434,-0.49780498691252434,0.999950530241815,0.00020539795983986228
-0.49767011856165483,-0.49767011856165483,0.9996795663041983,0.00016510077627590757
-0.49756808318561524,-0.49756808318561524,1.000286338595846,0.00017626122748827007
-0.49747010141727516,-0.49747010141727516,1.0000194242521556,0.00017083818571735676
-0.4974063082430803,-0.4974063082430803,0.9996736059515923,0.00018520290604724519
-0.49734669184181257,-0.49734669184181257,0.9999581207856586,0.00016650419697483902
-0.4972278306937369,-0.4972278306937369,0.9998975934422196,0.00020301462469655206
-0.4971092655629036,-0.4971092655629036,0.9998464787172081,0.00019821425974555191
-0.4968870422853797,-0.4968870422853797,1.0002968907231007,0.0001901820371529107
-0.4967546994528675,-0.4967546994528675,0.9999813729627718,0.00016861779358139182
-0.4966656924974814,-0.4966656924974814,1.0001295567960986,0.00017987121705272447
-0.49657604814346995,-0.49657604814346995,0.9999791794891996,0.00017837003640941524
-0.4964795292908093,-0.4964795292908093,1.0001258288801698,0.00018305532825168728
-0.49642595910845555,-0.49642595910845555,0.9999655736322712,0.00016404290282240103
-0.496315597906505,-0.496315597906505,0.9997513449611528,0.00017407870886898316
-0.4961200124089373,-0.4961200124089373,1.000043736977559,0.00018803100725854336
-0.4960452622581215,-0.4960452622581215,1.0000015950674084,0.00018447585846688024
-0.4959107637572743,-0.4959107637572743,0.9998002770988741,0.00018135617239086382
-0.4958140474387619,-0.4958140474387619,0.9998986305297567,0.00018506156154704485
-0.49575898208131547,-0.49575898208131547,0.9999204209935353,0.00019149119511628772
-0.49560971683313254,-0.49560971683313254,0.9999355559475331,0.00017669102964986018
-0.4954656000023533,-0.4954656000023533,1.000104965636507,0.0001745137159814123
-0.49533713475830154,-0.49533713475830154,1.0001252138294798,0.00018477364100628443
-0.4952073268366803,-0.4952073268366803,0.9996135056367844,0.00015939166798580468
-0.49503924826785806,-0.49503924826785806,0.9998752586438782,0.0001892610323681047
-0.49494235212623605,-0.49494235212623605,1.0000424124206588,0.0001826683594665374
-0.4949029849449289,-0.4949029849449289,1.0002508293442052,0.00016302958413674272
-0.4948201704595704,-0.4948201704595704,0.9998985895423195,0.00018497242554038179
-0.49471177844752673,-0.49471177844752673,1.0002781986901221,0.00015570736098531411
-0.49454500519204886,-0.49454500519204886,1.0000787997377216,0.00016237611114780542
-0.49446325844110106,-0.49446325844110106,0.9998259300825044,0.0001835036364961469
-0.494378359951952,-0.494378359951952,1.000093441929512,0.00018482612072608204
-0.49430254026374315,-0.49430254026374315,0.999870398004678,0.00019972108691720093
-0.49420211627657407,-0.49420211627657407,0.9999049208092131,0.00019474176397336372
-0.49413293771940514,-0.49413293771940514,0.9998689503809801,0.0002188546882289207
-0.4940274158332613,-0.4940274158332613,0.9997218470679783,0.00016933303486652837
-0.49384488327850706,-0.49384488327850706,1.0004147339318326,0.00018870599880989027
-0.49376487565095883,-0.49376487565095883,0.999964350843625,0.00016448548753046456
-0.4936869157543697,-0.4936869157543697,1.0000492670904315,0.00016568915649435922
-0.4935738454834791,-0.4935738454834791,0.9998710660163195,0.0002012619469226856
-0.4934273851336911,-0.4934273851336911,1.0001897887463822,0.00016621848361103906
-0.4933468247749261,-0.4933468247749261,0.999745145701637,0.00016822124351443927
-0.49328023771668084,-0.49328023771668084,0.9997839084453133,0.0001840292015016347
-0.4931969151570229,-0.4931969151570229,1.000028071566999,0.0001722071108152368
-0.49312373197681153,-0.49312373197681153,1.0002258446379788,0.00018168236982516101
-0.49300888546640637,-0.49300888546640637,1.0000083487526723,0.00018756591101555376
-0.4928382463265734,-0.4928382463265734,0.999678263489994,0.00019233960163432122
-0.49277260128656053,-0.49277260128656053,1.000094551925532,0.0001805357420434838
-0.4927014911983861,-0.4927014911983861,0.9999413905888446,0.000164855433970712
-0.4925159570382675,-0.4925159570382675,0.999946900927015,0.0001898766646211247
-0.4924356997325958,-0.4924356997325958,0.9999398312746693,0.00016939004417682146
-0.49233628337824487,-0.49233628337824487,1.0002906864995746,0.00018162208647248297
-0.4921966233567218,-0.4921966233567218,0.9999001587906486,0.00019156949487432088
-0.4920445890238625,-0.4920445890238625,0.9999526452536724,0.000187146595649156
-0.49187953177824967,-0.49187953177824967,0.9998962309681023,0.00018258074434506158
-0.4917777665599715,-0.4917777665599715,0.9997990985944825,0.00018843604636033928
-0.4915834953564627,-0.4915834953564627,1.0000315124292498,0.00016320298974429386
-0.4915220430477348,-0.4915220430477348,0.9998447511733927,0.00016998883146425686
-0.4914570756875037,-0.4914570756875037,0.9997672134769366,0.00018235634702850814
-0.491357978634187,-0.491357978634187,0.9998993726534227,0.00018420682368029722
-0.4912648040612112,-0.4912648040612112,0.9999003949695542,0.0001882377016830236
-0.49118057689629496,-0.49118057689629496,0.9999589498799832,0.00021319565689767385
-0.49101941509725294,-0.49101941509725294,0.9999858937285975,0.0001846625309368621
-0.4908615956788708,-0.4908615956788708,0.9999649079813844,0.00019062576654681478
-0.49081469369630215,-0.49081469369630215,0.9999326045998806,0.0001691795421391397
-0.49071050718193876,-0.49071050718193876,1.0000724943139894,0.0001708884698136249
-0.49058622250231565,-0.49058622250231565,1.0002613957867457,0.00017828554589865742
-0.49048040415436844,-0.49048040415436844,0.9999876071293192,0.00017878201173225235
-0.4903991756895266,-0.4903991756895266,0.9999962776948369,0.00016798186930360484
-0.49032491879479495,-0.49032491879479495,0.9998792638833276,0.0001650968750702366
-0.49023602004599526,-0.49023602004599526,1.0001259826369013,0.00016907897058773518
-0.4900844151576166,-0.4900844151576166,0.9999258699887023,0.0002192433026406325
-0.48994186978743526,-0.48994186978743526,0.99979704982628,0.00018517196910041548
-0.4898271350270079,-0.4898271350270079,0.9997854488015822,0.00018353141942273695
-0.4897134439808724,-0.4897134439808724,0.9999712397873637,0.0001837840598689279
-0.48961200028716123,-0.48961200028716123,0.9997799235229918,0.00017702151450952488
-0.4894505919713993,-0.4894505919713993,0.9999806814536545,0.00017007221421384987
-0.4893539528879046,-0.4893539528879046,0.9996111548667962,0.00018572004599643342
-0.4892063162500563,-0.4892063162500563,1.0000111410280783,0.00019625614394501713
-0.48905299593970997,-0.48905299593970997,1.0002111427744997,0.00017225605401511126
-0.48893832063404263,-0.48893832063404263,0.9999264236824844,0.00020327508890900916
-0.4888299295875186,-0.4888299295875186,0.9997965679061614,0.00017057004161245227
-0.4887854343498475,-0.4887854343498475,1.0001098661217074,0.00018130533824353527
-0.48870359067004754,-0.48870359067004754,0.9998207765633275,0.00018523667066772375
-0.4885371665339335,-0.4885371665339335,1.0000471542369893,0.00016521395790449392
-0.48846434679289813,-0.48846434679289813,0.9998598625673818,0.0001879987497447329
-0.48835934329763403,-0.48835934329763403,0.9998063393561853,0.00018645007281231838
-0.4882661770701816,-0.4882661770701816,1.000175714347296,0.00021235719420140657
-0.4881995502320933,-0.4881995502320933,0.9999337469535682,0.00020410201276363282
-0.4880830429494381,-0.4880830429494381,0.999924226737573,0.00016700434621934557
-0.4879964566920535,-0.4879964566920535,0.9999190418734241,0.000166870255114926
-0.4879042271306389,-0.4879042271306389,0.9998526999584163,0.00018475153154158633
-0.487786703119491,-0.487786703119491,1.0001880553988687,0.000168743743018607
-0.4876916845641972,-0.4876916845641972,0.9996863912904891,0.00019202208761684344
-0.4876152119933977,-0.4876152119933977,1.0001022598275564,0.0001887990949194624
-0.4874909632198978,-0.4874909632198978,0.9999528005965029,0.00016677564940012328
-0.4874246088867949,-0.4874246088867949,1.0000503310609505,0.00016896522119382544
-0.48727083906996993,-0.48727083906996993,0.9998657191331033,0.00017847063656023287
-0.4871480209141737,-0.4871480209141737,0.9999633797335736,0.00018223062345672144
-0.4870185631189088,-0.4870185631189088,1.0001582077472737,0.0001629512630609645
-0.4868847233017732,-0.4868847233017732,0.999885836695185,0.0001944866091773195
-0.4867403456250031,-0.4867403456250031,0.9999267255014578,0.00017450047561286483
-0.4866554334803368,-0.4866554334803368,0.9999387110143912,0.0001677430707750416
-0.48656038326807904,-0.48656038326807904,0.9998512565689804,0.00016093084123681214
-0.4864407635766838,-0.4864407635766838,0.9999471552880635,0.00017291434693098777
-0.4863441091853019,-0.4863441091853019,1.0001492324733683,0.00018452668778124191
-0.4862222703450243,-0.4862222703450243,0.9999623976853738,0.00018575296871204902
-0.4861411659541773,-0.4861411659541773,1.0000194564425278,0.0001827985619824269
-0.4860888618997706,-0.4860888618997706,0.9996896865925681,0.00016712793469442414
-0.4859798183271778,-0.4859798183271778,0.999805375754138,0.00018772521240264503
-0.48577475136335124,-0.48577475136335124,0.9998114528937219,0.00018194206229446688
-0.48564197067171333,-0.48564197067171333,0.9999924862673879,0.00016773897647539865
-0.4854892105642648,-0.4854892105642648,1.000016503165552,0.00020392931201553225
-0.4853978408777039,-0.4853978408777039,1.0001196977698468,0.00018439830959494054
-0.4853144367079949,-0.4853144367079949,0.9998381069433945,0.00021050663245152256
-0.4852303967491025,-0.4852303967491025,0.9999096297879386,0.00021096641229718756
-0.4851446122054767,-0.4851446122054767,0.9998233854233505,0.0001851148704609278
-0.4850332643196452,-0.4850332643196452,1.000037695326795,0.00016269446242397244
-0.48492388036393097,-0.48492388036393097,1.000042707624017,0.00018586704014162664
-0.4848248234775383,-0.4848248234775383,1.0000478462592035,0.00017378960926357873
-0.48474229165003635,-0.48474229165003635,1.0000771631033014,0.00016467431325229267
-0.48459674048935997,-0.48459674048935997,0.9998778711368045,0.00020227390622531684
-0.48445842426808666,-0.48445842426808666,1.0000765301429622,0.0001686512933923828
-0.48435613421534074,-0.48435613421534074,0.9999103759284445,0.00017247620572177405
-0.4842025181198551,-0.4842025181198551,0.9998742672916825,0.00018550459863136075
-0.48416416302061405,-0.48416416302061405,0.9996443727813096,0.0001879365598250423
-0.4841108321212232,-0.4841108321212232,0.9998816083980948,0.00018205689713429683
-0.4839742051422945,-0.4839742051422945,0.9997546037295869,0.00018507015225973904
-0.48380419092281957,-0.48380419092281957,0.9997770907186855,0.00018335776341186602
-0.4836468733694346,-0.4836468733694346,0.9999043274394619,0.00016321362753755897
-0.48349376063852106,-0.48349376063852106,1.0001707635403203,0.00017065946822037906
-0.4833821043008356,-0.4833821043008356,1.0000367532229324,0.00020426765551692677
-0.48325229823676635,-0.48325229823676635,0.9997295563941281,0.00016252967604902128
-0.4831216575075814,-0.4831216575075814,0.9999761632646669,0.00019876915033469424
-0.4829871926747728,-0.4829871926747728,0.9999763967677222,0.00018785420931654757
-0.4828340700747503,-0.4828340700747503,1.0001439346676169,0.00018590230317538825
-0.4827704047645966,-0.4827704047645966,1.0001907024129724,0.00016778818769899934
-0.4826650252303807,-0.4826650252303807,1.0002566386600331,0.00016437998638740872
-0.48251725645823174,-0.48251725645823174,0.9998164910366298,0.00018734004095741127
-0.48237783814111024,-0.48237783814111024,1.0000725413552374,0.00018126482470741035
-0.4822571570446598,-0.4822571570446598,1.0000309695894665,0.00021670615834268073
-0.48208854626500397,-0.48208854626500397,0.9997559377587841,0.0001670617042197747
-0.48196156319972944,-0.48196156319972944,0.9998019889121004,0.0001859838268439478
-0.4819098209089134,-0.4819098209089134,1.000014668007706,0.00016177608956317502
-0.48180287971990765,-0.48180287971990765,0.9999657230976557,0.00017996339178127186
-0.48166459339045103,-0.48166459339045103,0.9998744961213669,0.00018247913391580578
-0.4816177948116092,-0.4816177948116092,1.0000832511275977,0.0001963903232947008
-0.4815019363370084,-0.4815019363370084,0.9997624282342767,0.00017657920300776742
-0.4813732461676409,-0.4813732461676409,0.9997655766208895,0.0001712260786411347
-0.48117973167609307,-0.48117973167609307,1.000209535529244,0.00019121348027399248
-0.4810771031327022,-0.4810771031327022,0.9999350583442073,0.0001827124521625013
-0.48098759097847504,-0.48098759097847504,0.999829011410658,0.00016508816171602772
-0.4808833416820562,-0.4808833416820562,0.9999495733174513,0.00018626281475152322
-0.48073064280761174,-0.48073064280761174,0.999953885847358,0.00019058849685614374
-0.48063498132978566,-0.48063498132978566,0.999909093318615,0.00018513169173911738
-0.4804940888490819,-0.4804940888490819,0.9999072896353216,0.00020283828209310514
-0.4803027477333671,-0.4803027477333671,1.0002009514646306,0.000165995444763658
-0.48019907958369,-0.48019907958369,0.9998577405561919,0.00017762365461731732
-0.4800940201472258,-0.4800940201472258,0.9999351429039427,0.00016861916809278853
-0.4799911935304408,-0.4799911935304408,0.9997963842358388,0.00018334884541082382
-0.47979684603778877,-0.47979684603778877,1.0001351027134127,0.00018501473311423726
-0.4796366665359528,-0.4796366665359528,1.0001104034626607,0.00018367326382406828
-0.4795304884006327,-0.4795304884006327,0.9997144055774936,0.00018538863416336292
-0.47942392940021816,-0.47942392940021816,0.9999121882303028,0.00020850361896885744
-0.4793250041468127,-0.4793250041468127,1.0001237763408597,0.00020206228151532042
-0.4792600071472407,-0.4792600071472407,0.9999345194210504,0.0002138689339326762
-0.4790786927529552,-0.4790786927529552,1.0000513945884797,0.00016530280906549454
-0.47895502594838035,-0.47895502594838035,0.9996054102187376,0.00018739600434779027
-0.47886126104640425,-0.47886126104640425,0.9998388674299857,0.00016312623978037105
-0.47876161192180006,-0.47876161192180006,0.9997893213136383,0.00018625588059872837
-0.47860897037462563,-0.47860897037462563,1.000062800329843,0.00017546830417158958
-0.478524275196105,-0.478524275196105,1.0000087065139993,0.0001657609638482114
-0.4784468200239644,-0.4784468200239644,0.9999716343050252,0.0001616992895175876
-0.4783697551516525,-0.4783697551516525,0.9996348624327561,0.00016941136819132363
-0.4782459775226016,-0.4782459775226016,1.0000232071475288,0.00016570397606082739
-0.4781112505173951,-0.4781112505173951,0.9998632551175597,0.0001863820572567672
-0.4780056163093832,-0.4780056163093832,0.9996652072416564,0.00018215875689520485
-0.4778862812483567,-0.4778862812483567,0.9997971565234071,0.00018722341123563846
-0.47769587803049945,-0.47769587803049945,0.9998515290828214,0.00017413984243975125
-0.4775397718847671,-0.4775397718847671,0.9999670901876696,0.0001616085127908803
-0.4773920240069856,-0.4773920240069856,0.9996848636335841,0.00019372118846300174
-0.477229810202698,-0.477229810202698,0.999948374462897,0.0001762110824901152
-0.4771377674987889,-0.4771377674987889,0.9999598562731572,0.00016158517053327398
-0.47694281794683774,-0.47694281794683774,0.9999533959325634,0.00022172676097262752
-0.4768168485541537,-0.4768168485541537,0.9999470884753844,0.00016521396181836063
-0.47671641553752125,-0.47671641553752125,0.9997131368451097,0.00017752023928869234
-0.476629000678804,-0.476629000678804,0.9999318560306737,0.0001664889174103268
-0.47656899225039523,-0.47656899225039523,1.000002554633428,0.00018467423158888364
-0.47649797935882815,-0.47649797935882815,0.999864903168139,0.000166523530855211
-0.47638917128424507,-0.47638917128424507,0.9997192641768573,0.00020310270964939424
-0.47628519925492585,-0.47628519925492585,0.9998945253630737,0.00021788914427003223
-0.4762062154703017,-0.4762062154703017,0.9999458743343655,0.000160499533740218
-0.4760450052359374,-0.4760450052359374,0.9997975961047938,0.00019029331187762351
-0.47589534909129727,-0.47589534909129727,1.0000760968682254,0.00017138283323120534
-0.47582594978448467,-0.47582594978448467,0.9999617744722753,0.00017685852632178428
-0.4756898864688992,-0.4756898864688992,1.0001916301408769,0.00019517154775982733
-0.47560521488267116,-0.47560521488267116,0.9998550071395652,0.00016339969076856566
-0.4755461239357828,-0.4755461239357828,1.0000262495514773,0.0001663378606168676
-0.47546373601508096,-0.47546373601508096,0.9998985971393086,0.00016941414311545094
-0.47525406055210623,-0.47525406055210623,0.9998154664473367,0.00020386330417837385
-0.47519280046908535,-0.47519280046908535,1.0000111577329858,0.00016081485049321522
-0.47506918581639185,-0.47506918581639185,0.9998663215791425,0.00018124771783766149
-0.4749652122583939,-0.4749652122583939,1.0001080484209606,0.00018359803223751166
-0.4748876034769637,-0.4748876034769637,0.9998544345109106,0.00017388977538091962
-0.47470720217534107,-0.47470720217534107,0.9999097139002695,0.00019138921033600207
-0.4745855065411888,-0.4745855065411888,0.9999149087200389,0.0001731814677177724
-0.4743260892726539,-0.4743260892726539,1.0000786174824454,0.00019940878545577278
-0.4741244666154671,-0.4741244666154671,0.9998111476986299,0.00018817479471198948
-0.4740578157929122,-0.4740578157929122,0.999950967484903,0.00015940463037265222
-0.4740200951688166,-0.4740200951688166,0.9999276497091246,0.00016674238856394875
-0.47385098049344376,-0.47385098049344376,1.0003531343366039,0.00017895615279389077
-0.4736580957738624,-0.4736580957738624,1.0001603657489342,0.0001638864255957272
-0.4735763122276694,-0.4735763122276694,0.999848503908976,0.00018487921567712922
-0.47349016896187096,-0.47349016896187096,1.000168287292643,0.00018330402615041516
-0.47338135522804803,-0.47338135522804803,0.9999770849159612,0.00021216737618362847
-0.4733053439937066,-0.4733053439937066,1.000126262164526,0.00021460440164092486
-0.47318048916204136,-0.47318048916204136,1.0000867373497835,0.00017098756445678746
-0.4730193681498349,-0.4730193681498349,0.9996868341973244,0.00018911198412323668
-0.4728789032094937,-0.4728789032094937,1.0000214273213355,0.00016823328793906365
-0.47279984062042785,-0.47279984062042785,0.9999240658087961,0.0001846365058579986
-0.4726687905815197,-0.4726687905815197,0.9999442271854833,0.0001659496136856364
-0.4725323497703357,-0.4725323497703357,1.0000141123826243,0.00016814743585421673
-0.4724604350500158,-0.4724604350500158,0.9999074183847159,0.00018209997214465267
