time,time,flux,flux_err
-0.4999087186279212,-0.4999087186279212,1.000011695330936,0.00015759551892972518
-0.49978751814342104,-0.49978751814342104,1.000131154911859,0.00017508060675018377
-0.4996872234667535,-0.4996872234667535,1.000269584071726,0.00016781164551433572
-0.4995755819225451,-0.4995755819225451,0.9999272964031498,0.00013879559777458394
-0.4994679256262316,-0.4994679256262316,1.000106215454644,0.00014051030041829874
-0.499401466587733,-0.499401466587733,0.9997838927158893,0.0001431791428334322
-0.499246273686731,-0.499246273686731,1.0000823973508335,0.0001423919191350665
-0.49899565812229413,-0.49899565812229413,1.0000221800041613,0.00014278568284538693
-0.4988591847315547,-0.4988591847315547,0.999978883272143,0.00014055321958447278
-0.4986994850863994,-0.4986994850863994,0.9999674035513516,0.00014101895125162722
-0.4985357176294201,-0.4985357176294201,1.000210088679299,0.00016542748732631217
-0.4984480257575342,-0.4984480257575342,1.0000362423785938,0.00015838698168339733
-0.49832810797015553,-0.49832810797015553,0.9999827559326244,0.0001671733749058997
-0.49818395674519705,-0.49818395674519705,0.9999702919578098,0.0001394785919467747
-0.4980946706076793,-0.4980946706076793,0.9999592090939062,0.000144091326647275
-0.49797388454680913,-0.49797388454680913,1.0000185977945104,0.000145185130507731
-0.49784150088598833,-0.49784150088598833,1.0000139654987614,0.00014089666000182733
-0.49774950363062087,-0.49774950363062087,1.0000247836408744,0.0001434630369994008
-0.4976269634949858,-0.4976269634949858,1.0000139786064177,0.00014488719399190138
-0.4975333312228031,-0.4975333312228031,0.9995865986173065,0.00017327342867199275
-0.49742939796269636,-0.49742939796269636,0.9999517600973011,0.00014762759344547015
-0.4973581608464883,-0.4973581608464883,1.0000259267579465,0.00015476857032172296
-0.49730675093378524,-0.49730675093378524,0.9998258051289147,0.0001595311040746498
-0.49724537082729514,-0.49724537082729514,0.9998340389557937,0.00013894436837659955
-0.49714915441145424,-0.49714915441145424,1.0001854026807064,0.00015411307462075363
-0.4970688213717949,-0.4970688213717949,1.0001209687189934,0.0001443888435029732
-0.49691522030334456,-0.49691522030334456,0.9998932962089819,0.00014316395322811398
-0.49674924385835767,-0.49674924385835767,0.999905609524778,0.0001433860234891935
-0.49656590101658366,-0.49656590101658366,1.0000429607919235,0.0001405474992553683
-0.4964508997567464,-0.4964508997567464,1.0000288256224135,0.00013712585945954982
-0.4961582616255328,-0.4961582616255328,0.999991738800782,0.00013933160921879875
-0.4959706732988707,-0.4959706732988707,1.0000916241486006,0.00016021683452027013
-0.49592740611406044,-0.49592740611406044,1.0000218815932163,0.0001403893476390197
-0.49575808847439473,-0.49575808847439473,1.0000893609501402,0.00014133782693909365
-0.49559087638190247,-0.49559087638190247,0.9997333496102401,0.00013776331675849308
-0.4954883840182447,-0.4954883840182447,1.000007619762989,0.00014507590241984958
-0.4953879041444452,-0.4953879041444452,1.000033513379697,0.00013906438496417425
-0.49532830290918356,-0.49532830290918356,0.9999390046701919,0.00014291174853997497
-0.4952186272297695,-0.4952186272297695,1.0001515752244101,0.00014386652823897343
-0.49512067257383024,-0.49512067257383024,1.0002014822758674,0.00015716670155493557
-0.4950106237127329,-0.4950106237127329,1.000120347944546,0.00014941363135678807
-0.49491597359083245,-0.49491597359083245,0.9998730662864569,0.00016223663399550666
-0.49482791652335434,-0.49482791652335434,0.9999330773970938,0.00014009608740656892
-0.4947805724150385,-0.4947805724150385,1.000101217642441,0.00014679337906907711
-0.4947377562224574,-0.4947377562224574,1.0000574324343359,0.00016307126118059282
-0.4946047985176847,-0.4946047985176847,1.0001940415364818,0.0001426687681042561
-0.4945140627969522,-0.4945140627969522,0.9999127700656443,0.00014784598437568366
-0.49443592967218136,-0.49443592967218136,0.9999844326577906,0.00014393720584633636
-0.4943256360682426,-0.4943256360682426,1.0002370197982433,0.00014158626940160012
-0.4942564165168733,-0.4942564165168733,0.9999287858937654,0.00014204207594429707
-0.4941714264226903,-0.4941714264226903,0.9999624046996285,0.00014769113308449176
-0.49394860753018294,-0.49394860753018294,0.9999740561026448,0.00013982411272384792
-0.4937778818595689,-0.4937778818595689,1.0000107186315053,0.00015340459806397448
-0.49362928927512256,-0.49362928927512256,1.0000986228612436,0.00015039736497100538
-0.49346584149025147,-0.49346584149025147,1.0001333098977125,0.00014388043924674603
-0.49321380939145454,-0.49321380939145454,1.0001470418260179,0.00013992461426394435
-0.49312670087238075,-0.49312670087238075,1.0002372668925237,0.0001397201400650627
-0.49297521659973426,-0.49297521659973426,0.9998418820252833,0.00014109614666775534
-0.4928527156727796,-0.4928527156727796,1.0002228100899628,0.0001444703135915745
-0.4927036387314729,-0.4927036387314729,1.0000354805055767,0.0001571056675966373
-0.49254900256783,-0.49254900256783,0.9999724690418003,0.0001653480873554602
-0.4924563737855351,-0.4924563737855351,0.9999636627669245,0.00017384788727564405
-0.4924096033173555,-0.4924096033173555,0.9999599832677533,0.00014373544043931496
-0.4923375621154264,-0.4923375621154264,0.9999417200162034,0.00016203640230479864
-0.4922883074832498,-0.4922883074832498,1.0001570312171688,0.00014557535301341857
-0.49223356938746293,-0.49223356938746293,0.999860111493977,0.0001445599435928095
-0.4921279714995762,-0.4921279714995762,0.9999970364279894,0.0001395132834090632
-0.49199461422977037,-0.49199461422977037,1.0001166313254681,0.00014413038038348208
-0.49187680560280567,-0.49187680560280567,0.9997918173470518,0.0001482734337025527
-0.4918279359997541,-0.4918279359997541,0.9999766020735045,0.00014010257008955463
-0.4917787286889507,-0.4917787286889507,1.0001453768078583,0.00014208715926226212
-0.4917154259463132,-0.4917154259463132,1.0002986745196574,0.0001428127673066707
-0.49161537815452905,-0.49161537815452905,1.0002137081997309,0.00014796557009469648
-0.49151473350066227,-0.49151473350066227,1.000025173948488,0.00014483357947749255
-0.4913949552246777,-0.4913949552246777,1.0000382708625084,0.00014522806270669678
-0.49130494225100846,-0.49130494225100846,1.000037008880285,0.00014192379812416424
-0.4912224179781333,-0.4912224179781333,1.000185125753868,0.0001730480599573505
-0.49113173419755185,-0.49113173419755185,0.9998141877661249,0.00014914742403208356
-0.4910255647111626,-0.4910255647111626,0.9999581690152473,0.0001411243221639753
-0.4909180815986474,-0.4909180815986474,1.0000209561429578,0.0001397025311053879
-0.4907473101724463,-0.4907473101724463,1.000088087432707,0.00014402868614285226
-0.4905290875853098,-0.4905290875853098,1.0002051310809648,0.00014375996088237104
-0.4902371767311706,-0.4902371767311706,1.0000629817919067,0.00015304340399657532
-0.49009181821529635,-0.49009181821529635,0.999917351756164,0.00013920516174099751
-0.49002580950327684,-0.49002580950327684,1.0001418377435383,0.00017115213348801057
-0.4899187574403186,-0.4899187574403186,0.99992747711908,0.0001547950560543759
-0.4898160197575635,-0.4898160197575635,0.9999258015469261,0.00014486250976838074
-0.48970626321970484,-0.48970626321970484,0.9998587438232613,0.0001416773343864023
-0.48964720819858487,-0.48964720819858487,1.0002127956197184,0.00014256711079290414
-0.48953413819981506,-0.48953413819981506,1.0001104000106324,0.0001440053978348511
-0.4894224324365496,-0.4894224324365496,0.9999346489749138,0.00014272749105748736
-0.48927774240146393,-0.48927774240146393,0.9999959629322761,0.00014821840050627475
-0.48914293386769714,-0.48914293386769714,1.0000157685874058,0.00015249336506258793
-0.4890498620523431,-0.4890498620523431,0.9996246916166799,0.00014961618575911343
-0.48897920032250114,-0.48897920032250114,1.0002157160655172,0.00014413604677686854
-0.48887542144802865,-0.48887542144802865,0.9999914592456302,0.0001439844301619353
-0.48881750010550606,-0.48881750010550606,1.000114051683327,0.00016303516063486694
-0.48875029661503505,-0.48875029661503505,1.0000304205919237,0.00014189344425275793
-0.48868138548859863,-0.48868138548859863,1.000027337316044,0.00015602929447312762
-0.48856057951561527,-0.48856057951561527,1.0001669991422668,0.00013966024103439486
-0.4884439786867006,-0.4884439786867006,1.0000826894859158,0.00014069349138896224
-0.4882892055240518,-0.4882892055240518,0.999833193782346,0.00014014690809789499
-0.48807562306465113,-0.48807562306465113,1.0000004880355164,0.00014625897901241334
-0.4878382283510291,-0.4878382283510291,0.9999932208592235,0.00014131495077683402
-0.4876756586025294,-0.4876756586025294,0.9999589354008066,0.00015141398968704394
-0.48756218620037545,-0.48756218620037545,1.0001763699502662,0.0001597420389141712
-0.48745792317276937,-0.48745792317276937,0.9999281962667481,0.0001774366079317444
-0.4872490789821313,-0.4872490789821313,0.9996644919883023,0.00014398940254528722
-0.4870813736255514,-0.4870813736255514,1.0001673941645361,0.0001411403597073038
-0.48696870558924277,-0.48696870558924277,1.0000809581681365,0.00014361406213995792
-0.4868132033472648,-0.4868132033472648,1.0002277718853856,0.00014580761594452338
-0.4867364077101229,-0.4867364077101229,0.9999730102468757,0.00014467913840272086
-0.48664105379284595,-0.48664105379284595,0.9998466840868996,0.00015066385474724224
-0.48649370214916415,-0.48649370214916415,1.0000092448241715,0.0001491375055638391
-0.48644612889402195,-0.48644612889402195,1.0000165482196706,0.00014368626739588196
-0.4863883541402174,-0.4863883541402174,1.0002993065297447,0.0001451733120667788
-0.48631851476529847,-0.48631851476529847,1.0000713010027287,0.00015338459094319258
-0.4862282771813625,-0.4862282771813625,1.0002352067717584,0.00015020026858085313
-0.4861391647951677,-0.4861391647951677,1.0000207989612555,0.00014415214505118218
-0.4861033293425862,-0.4861033293425862,0.9998404395617533,0.00014695100432776594
-0.4860119148484955,-0.4860119148484955,0.9998859930457611,0.0001422407392897398
-0.48584368875672224,-0.48584368875672224,1.0002365985855413,0.0001479473837213954
-0.48567180777536123,-0.48567180777536123,0.9999680280018433,0.00014452968144005075
-0.4854334416333586,-0.4854334416333586,1.000011800753146,0.0001365886978521349
-0.48527625707283734,-0.48527625707283734,0.9999038695750722,0.00013882754083453466
-0.48509437476895984,-0.48509437476895984,1.0000426132221252,0.00015060716293574837
-0.48499550674459896,-0.48499550674459896,1.000146174075376,0.0001407902367185439
-0.4848440534573456,-0.4848440534573456,0.9997642890197138,0.0001400641644671687
-0.48473316969830194,-0.48473316969830194,0.9999826958317353,0.00014175841205461942
-0.4845330706004461,-0.4845330706004461,1.0000127238434238,0.0001412803866013836
-0.4844075996959873,-0.4844075996959873,1.0001059057582617,0.00014896518080919805
-0.48430887814538437,-0.48430887814538437,1.0001781713923676,0.00014312702521675783
-0.4841670600057114,-0.4841670600057114,0.9995278652931393,0.00015535743691387488
-0.48402827169193186,-0.48402827169193186,1.0000978866437806,0.00015622090762648272
-0.4839291763964866,-0.4839291763964866,1.000298392255406,0.00015054835633719355
-0.4838690756529104,-0.4838690756529104,0.9998333016936423,0.00015173859732425142
-0.4838262730205315,-0.4838262730205315,0.9997566189798193,0.0001557455298462059
-0.4837772998282162,-0.4837772998282162,1.0000957107302544,0.00014316249534043472
-0.48365179180545964,-0.48365179180545964,0.9999442929895339,0.00013958237977750672
-0.48352049336608616,-0.48352049336608616,0.9999906190770818,0.00014715420195089495
-0.48344498695078075,-0.48344498695078075,0.9999879537747713,0.00014649507079194304
-0.48335667857099907,-0.48335667857099907,0.9999587500316398,0.0001412097663777863
-0.4832758109696442,-0.4832758109696442,0.9998563212904129,0.00014338737920491899
-0.483159066040389,-0.483159066040389,0.9998994514081595,0.00015947762576757108
-0.4829889988315699,-0.4829889988315699,0.9995754270083189,0.00014212753566645244
-0.48289268535445445,-0.48289268535445445,1.0000613490791463,0.00014587345604800348
-0.48274483617569786,-0.48274483617569786,1.0001438922209025,0.00016374037654366094
-0.48263113511202393,-0.48263113511202393,0.9998230297324779,0.00015137530368365362
-0.4825472501201148,-0.4825472501201148,0.9999930258961299,0.00013826336101197182
-0.48233479544505825,-0.48233479544505825,1.0001741169185556,0.00013907409925296697
-0.48207416063305575,-0.48207416063305575,0.9999195829509506,0.0001395234833674556
-0.48193593029063775,-0.48193593029063775,1.0000105100083052,0.00014046084418510788
-0.4817966526978125,-0.4817966526978125,0.9999892967531597,0.0001435595980031178
-0.48170993185558475,-0.48170993185558475,1.0000742970436722,0.00015354196784657495
-0.4816201274450577,-0.4816201274450577,0.9999333095902279,0.00016440936777809256
-0.4815209506021347,-0.4815209506021347,0.9997817025826435,0.00015266602262735106
-0.48144449314277155,-0.48144449314277155,1.0000738134131253,0.00016383197507291574
-0.48137671942895394,-0.48137671942895394,1.0000891576642448,0.00014591695903359858
-0.48126757380086926,-0.48126757380086926,1.0000135749687082,0.00014621821363058028
-0.48122082787012915,-0.48122082787012915,0.999958034121508,0.00014091509326680577
-0.4810943304866669,-0.4810943304866669,0.9993297993942921,0.00014215903082305913
-0.48096624808458727,-0.48096624808458727,1.0001329978618725,0.00014323976797784213
-0.4808522058483504,-0.4808522058483504,0.999998891230085,0.00014634391652370765
-0.48073712510522454,-0.48073712510522454,1.0001611287956582,0.00014745688832915206
-0.4806357414527156,-0.4806357414527156,0.9998225438601708,0.00014360034505381836
-0.48059056936617706,-0.48059056936617706,1.0001121098312666,0.00014304547951313158
-0.4804989311807731,-0.4804989311807731,1.0000111673584884,0.0001426539302115838
-0.4803787292563356,-0.4803787292563356,1.000030065504164,0.00015310530218438492
-0.48034886398163507,-0.48034886398163507,1.0001588758491486,0.00016879037684067744
-0.48029023624476397,-0.48029023624476397,1.00008838881246,0.00015629490948188324
-0.4801443926211505,-0.4801443926211505,1.0001135767198481,0.0001403744203742973
-0.4800360349385301,-0.4800360349385301,0.999997385442844,0.00014193178804864135
-0.4798798587115016,-0.4798798587115016,1.0001686143917816,0.00014363843625687247
-0.47962432261629145,-0.47962432261629145,0.9999292675133127,0.00014359923553218897
-0.479485283811664,-0.479485283811664,1.0001968240867796,0.00014039407873013665
-0.4793502015301783,-0.4793502015301783,1.0001158916405228,0.00014105753559969455
-0.47917789815182915,-0.47917789815182915,1.0000780247420384,0.0001643963644768788
-0.47904282246890945,-0.47904282246890945,1.000151611439464,0.00016159394426632916
-0.4789378231143928,-0.4789378231143928,1.0001985902613224,0.00013799890776044043
-0.47876607978978425,-0.47876607978978425,0.9997743276804153,0.00014128711717224516
-0.47868420188024174,-0.47868420188024174,1.0000507997762806,0.0001413411744854124
-0.4785073291968729,-0.4785073291968729,1.000069431754671,0.0001450215399459324
-0.4783627443910518,-0.4783627443910518,1.0000302704605182,0.00014544185627560048
-0.478289990893245,-0.478289990893245,1.000111865886911,0.00014368715074608655
-0.47815274064996627,-0.47815274064996627,0.9999278075393889,0.00015210711105643443
-0.4780933581227146,-0.4780933581227146,0.9999191288653743,0.0001689165522740577
-0.4779974774442962,-0.4779974774442962,0.9999888794162228,0.00016811392859668648
-0.4779333774218685,-0.4779333774218685,1.0001138903424243,0.00014673167202289075
-0.4778338329451799,-0.4778338329451799,0.9998831156515153,0.00015087578700350755
-0.47772383500632715,-0.47772383500632715,1.0000512720386092,0.00014850644906040279
-0.4776270035785274,-0.4776270035785274,1.0000616919121232,0.00013978132606764712
-0.47750473410633276,-0.47750473410633276,0.9999492866725588,0.0001427095874623507
-0.4773611836397322,-0.4773611836397322,0.99990981225199,0.0001496385484441441
-0.4772124841460027,-0.4772124841460027,0.9998292550833797,0.00014033586091353643
-0.4769879325220245,-0.4769879325220245,0.9999743971690211,0.0001345785077451832
-0.47672132503794273,-0.47672132503794273,0.9998552452287512,0.00013761390320910869
-0.47660968999844044,-0.47660968999844044,0.9999082958750278,0.00016152141029429203
-0.47650416098549614,-0.47650416098549614,1.0001458144133684,0.00013766506631500511
-0.47641325958975356,-0.47641325958975356,0.9999259660561407,0.00014096554170159358
-0.4762687997907051,-0.4762687997907051,0.9998510976347639,0.00013961035569751116
-0.4761272377756541,-0.4761272377756541,1.0001349689283017,0.000143699841309387
-0.47602827269802217,-0.47602827269802217,0.9999644190197097,0.00014180506191656798
-0.4759497505161562,-0.4759497505161562,1.0000261767903698,0.00014721029851666632
-0.47589430221996737,-0.47589430221996737,1.0002001132622982,0.00014362223049283612
-0.47576828727906106,-0.47576828727906106,1.000055539274761,0.00015912523877834446
-0.47557674251438586,-0.47557674251438586,0.9997851688436917,0.00016408792030275855
-0.4754636207340809,-0.4754636207340809,0.9999919912863777,0.00014329380944349022
-0.4754048792878166,-0.4754048792878166,0.999898668709287,0.00015754271280319206
-0.4753565151288058,-0.4753565151288058,0.9999796141548648,0.0001514309724495768
-0.47521080602164145,-0.47521080602164145,1.0000710091061005,0.00014213474518817156
-0.4751229810201039,-0.4751229810201039,0.9998633150442584,0.00014755036842714278
-0.47504545161718853,-0.47504545161718853,0.9999990524724842,0.0001465299386136061
-0.4749295168359822,-0.4749295168359822,0.9999996544275096,0.00014645156678601542
-0.47486676258558874,-0.47486676258558874,0.9997560061466544,0.00014562437255150233
-0.4747530565065972,-0.4747530565065972,0.9999563936395857,0.00014495326821813894
-0.47455959713915946,-0.47455959713915946,1.000073409979413,0.00013570067368374444
-0.47440933205070906,-0.47440933205070906,1.0000995931410057,0.00014190926186256704
-0.4742211907119781,-0.4742211907119781,0.9999384462566979,0.00015013842538263913
-0.4740171600969916,-0.4740171600969916,0.9998629696311958,0.0001405533040217031
-0.4738907630788162,-0.4738907630788162,1.0001289048179252,0.00013827138825227433
-0.47373732225678394,-0.47373732225678394,0.9999822126282112,0.00013844485041028168
-0.4735976529795153,-0.4735976529795153,0.9999198917716126,0.00014272520466929666
-0.47345570071120163,-0.47345570071120163,0.999932085149719,0.00014026436005913553
-0.4733268920062983,-0.4733268920062983,1.0000581052102355,0.00015614387768020244
-0.4731526598232449,-0.4731526598232449,0.9999654750976419,0.00015438810926846368
-0.4731011056021089,-0.4731011056021089,0.9999066360581434,0.00017510307197125745
-0.4729913433242473,-0.4729913433242473,1.0002202739142552,0.00015554775687203116
-0.4729337111115456,-0.4729337111115456,1.0001502421584259,0.000142027069220625
-0.4728669533440552,-0.4728669533440552,0.9999910810157389,0.00014048400374717902
-0.47279699032151257,-0.47279699032151257,0.9999483659143531,0.0001385664643440147
-0.47275619771826316,-0.47275619771826316,0.9999964039856118,0.00014127413484938577
-0.47266593754538916,-0.47266593754538916,0.9998417647420809,0.0001432886836888909
-0.4725455275052809,-0.4725455275052809,1.0000192291683463,0.0001483429578100753
-0.4724451697162294,-0.4724451697162294,0.9999238286720168,0.0001424172032084566
-0.472402562010393,-0.472402562010393,0.9999757414633079,0.00014377775013774515
-0.4723174693477631,-0.4723174693477631,1.0000045253605574,0.000147568540054594
-0.47224795294969224,-0.47224795294969224,1.0001255361082322,0.00014719176564871565
-0.4721677042740339,-0.4721677042740339,0.9999236187020643,0.00014808595315409103
-0.47206305031941154,-0.47206305031941154,1.0000729398121142,0.00014043595762951101
-0.4719948733487399,-0.4719948733487399,1.0005153668161575,0.00016801602502679232
-0.47189190573844825,-0.47189190573844825,1.0001799016522201,0.0001688556700726336
-0.4718093589195632,-0.4718093589195632,1.000225732170098,0.00016080139222354788
