time,time,flux,flux_err
-0.4991005604727737,-0.4991005604727737,0.9999397552079284,9.953343912941397e-05
-0.4977940724693326,-0.4977940724693326,1.0000976617194999,0.00010010119662300866
-0.4947012192866775,-0.4947012192866775,0.9999774065315644,0.00010036457587999858
-0.4928908488564048,-0.4928908488564048,1.000036256984192,9.973253819652813e-05
-0.4917174627866189,-0.4917174627866189,1.0000211742277914,9.102308905796841e-05
-0.490747513815586,-0.490747513815586,0.9999984759476053,9.089877975190635e-05
-0.48993904953167655,-0.48993904953167655,0.9999169822960432,9.095723872638342e-05
-0.4894243549533712,-0.4894243549533712,1.0000307163138957,9.102216336028345e-05
-0.4880724987706344,-0.4880724987706344,0.999960175640046,9.09834314462294e-05
-0.48622140250663504,-0.48622140250663504,1.0000286145740789,9.107148877818319e-05
-0.48496813683814255,-0.48496813683814255,1.000075008864161,9.105495297389234e-05
-0.4835185956886562,-0.4835185956886562,0.9999794624481018,9.092801164115468e-05
-0.48149912171138565,-0.48149912171138565,1.0000159024512159,9.137970917097408e-05
-0.48024171032739105,-0.48024171032739105,1.0000399999026888,9.10656451795595e-05
-0.47914592103479664,-0.47914592103479664,1.000027604314162,9.100940650484347e-05
-0.47826039736464737,-0.47826039736464737,0.999994262734378,9.066465483279236e-05
-0.4774960205249954,-0.4774960205249954,1.000045520562951,9.114734076004705e-05
-0.47654544812976385,-0.47654544812976385,1.0000489525903558,9.092029368366371e-05
-0.47451880210865055,-0.47451880210865055,0.9999012052231905,9.084121330438863e-05
-0.4735209502679936,-0.4735209502679936,0.999957860724676,9.084948698503644e-05
-0.47193907657201634,-0.47193907657201634,0.9999680734268631,9.103501945060726e-05
-0.46991087918213453,-0.46991087918213453,0.999769740805697,9.108906243949662e-05
-0.46851721357306814,-0.46851721357306814,0.9999584164290394,9.126707649570227e-05
-0.46756973983501665,-0.46756973983501665,1.0000351093817819,9.106590240266096e-05
-0.4662148551018618,-0.4662148551018618,0.9999996142422226,9.100251120404133e-05
-0.46536822059933913,-0.46536822059933913,0.9999210817486324,9.108503429170182e-05
-0.4644570499585825,-0.4644570499585825,0.9999851658002102,9.092978457961656e-05
-0.46265818773317735,-0.46265818773317735,1.000067404601017,9.071172304804371e-05
-0.46112004274182256,-0.46112004274182256,0.9999461354669614,9.099545104042737e-05
-0.4597761388373328,-0.4597761388373328,1.000091755929532,9.139296758165053e-05
-0.4575410060824652,-0.4575410060824652,1.000017667381228,9.103286499211077e-05
-0.4556139430438634,-0.4556139430438634,0.9998765952020816,9.115148680155873e-05
-0.4544673123782559,-0.4544673123782559,1.0000642239582276,9.083652322689875e-05
-0.4535362150389119,-0.4535362150389119,1.0000732066858486,9.102614652143613e-05
-0.45268991338816705,-0.45268991338816705,1.0000127539296695,9.12445908020395e-05
-0.4513833890669048,-0.4513833890669048,0.9999296034877861,9.098645621257043e-05
-0.4494010198948672,-0.4494010198948672,1.0000044197417228,9.084240840709968e-05
-0.448345716347103,-0.448345716347103,0.9999347178229208,9.144898378603351e-05
-0.44615783896588257,-0.44615783896588257,1.000045049468954,9.127967198211529e-05
-0.44413552796759176,-0.44413552796759176,0.9999305412694476,9.1367531288223e-05
-0.4431016763744992,-0.4431016763744992,1.000076919743377,9.1167635861428e-05
-0.44180798665984183,-0.44180798665984183,0.9999558632802671,9.073599725975816e-05
-0.44108441252756164,-0.44108441252756164,0.9999762474607881,9.09698997742559e-05
-0.44008926006572435,-0.44008926006572435,0.9999242583377532,9.114817120215853e-05
-0.4392182073839649,-0.4392182073839649,1.0000460950963705,9.112135346133314e-05
-0.43797362359255204,-0.43797362359255204,0.9999088325106339,9.24435335365133e-05
-0.436893708511343,-0.436893708511343,1.0000156797373327,9.06428548922471e-05
-0.43586875593900914,-0.43586875593900914,0.999873160935263,9.099114804852183e-05
-0.4342419503198471,-0.4342419503198471,1.000067312251086,9.123233239736327e-05
-0.4321774552052375,-0.4321774552052375,0.9998757757931708,9.108674042788394e-05
-0.43101699576582175,-0.43101699576582175,1.000110759507788,9.135169675302711e-05
-0.42978892803002966,-0.42978892803002966,1.000017341492234,9.11382602775792e-05
-0.42903290627582463,-0.42903290627582463,1.000030022640309,9.076275554080622e-05
-0.4282331789698219,-0.4282331789698219,0.9999880126112926,9.086300142898796e-05
-0.42729185809002956,-0.42729185809002956,1.0000402283554362,9.10193580332067e-05
-0.4254686569714977,-0.4254686569714977,1.0000757434210947,9.063768167899145e-05
-0.42447626687644513,-0.42447626687644513,0.9998121802030692,9.091272985010207e-05
-0.42320251673518217,-0.42320251673518217,1.0000233357252104,9.147260146251927e-05
-0.42017569627569173,-0.42017569627569173,0.99999115075119,9.129833365098983e-05
-0.41834284107826536,-0.41834284107826536,0.999879789422503,9.125859035689111e-05
-0.41712226232193644,-0.41712226232193644,0.9997399271723744,9.109953090106431e-05
-0.4160315742890816,-0.4160315742890816,0.9999905534141845,9.107187586902878e-05
-0.4152600043344137,-0.4152600043344137,0.9999553598064276,9.111478482444375e-05
-0.4131163147831103,-0.4131163147831103,0.999925003110187,9.06380421934348e-05
-0.41199894428209516,-0.41199894428209516,1.0003161102116187,9.115828865165391e-05
-0.4106239836961322,-0.4106239836961322,0.9997494478845181,9.160464219841162e-05
-0.40797155085601844,-0.40797155085601844,1.0000623116468657,9.151799125943704e-05
-0.4065347191753972,-0.4065347191753972,1.0000132237497779,9.109596483810963e-05
-0.40563660358893683,-0.40563660358893683,0.9997767357303964,9.101815661515733e-05
-0.40467833120710567,-0.40467833120710567,1.0000596867969656,9.068767112626247e-05
-0.40392839089618066,-0.40392839089618066,0.9998945828877318,9.100088882908392e-05
-0.40321121683882666,-0.40321121683882666,1.0001283430480403,9.115972782063408e-05
-0.40230626397096786,-0.40230626397096786,1.0000903919115018,9.10515516843943e-05
-0.40043631274311337,-0.40043631274311337,0.9999048570667555,9.066645423676085e-05
-0.39909210373516546,-0.39909210373516546,0.9997853278991691,9.10563976387792e-05
-0.39775898041843905,-0.39775898041843905,0.9999305270316746,9.128917326759374e-05
-0.3959648980286147,-0.3959648980286147,1.0000587319869487,9.100238966493515e-05
-0.39416486744230494,-0.39416486744230494,0.9999527205597147,9.136219859067866e-05
-0.393197416599287,-0.393197416599287,0.9999743539786738,9.099767967077774e-05
-0.3921891412581317,-0.3921891412581317,1.00004116874923,9.074745160617484e-05
-0.3915424619794067,-0.3915424619794067,0.9999129996520837,9.094616959485267e-05
-0.3905019440535398,-0.3905019440535398,0.9999744997109966,9.112371415895981e-05
-0.38913945829117436,-0.38913945829117436,0.9999517609139097,9.077548970614198e-05
-0.3876132045988925,-0.3876132045988925,0.9998676110750804,9.075216634117589e-05
-0.3866495993679564,-0.3866495993679564,1.0000304527846993,9.090350511670768e-05
-0.3847503381271963,-0.3847503381271963,1.0000281040252448,9.128070371037973e-05
-0.38281276534617065,-0.38281276534617065,0.9999468207477509,9.108484461432136e-05
-0.3816599840298295,-0.3816599840298295,0.9999545571773701,9.124187797194931e-05
-0.38046814047702354,-0.38046814047702354,0.9999808041162342,9.105852783113558e-05
-0.37916735724065803,-0.37916735724065803,1.0000204637144825,9.098139157459652e-05
-0.3784535062586656,-0.3784535062586656,1.0000265631092247,9.076231650412156e-05
-0.377147114550462,-0.377147114550462,1.0001185112977917,9.104565114616889e-05
-0.37519687660824275,-0.37519687660824275,1.0002204809959054,9.092283290002584e-05
-0.3739491752392496,-0.3739491752392496,1.0000573098755146,9.110595154438352e-05
-0.37220252139813964,-0.37220252139813964,1.0001325540568708,9.112844151092176e-05
-0.36986349740982405,-0.36986349740982405,1.000051702130829,9.117254957443285e-05
-0.36850464294839186,-0.36850464294839186,1.0001075321189965,9.116176890508089e-05
-0.3675076534411346,-0.3675076534411346,0.9999432161344528,9.100911969346646e-05
-0.3666837403434329,-0.3666837403434329,1.0000446207764697,9.101934273671794e-05
-0.3659333952527959,-0.3659333952527959,0.999910649300951,9.09732714626666e-05
-0.3640324024374422,-0.3640324024374422,1.0001419261718927,9.095906270170558e-05
-0.36268493733514334,-0.36268493733514334,0.9997889878115004,9.120978862793051e-05
-0.36134981556388085,-0.36134981556388085,0.9999949424247842,9.143694878571858e-05
-0.35867256994679336,-0.35867256994679336,0.9999722831674764,9.122990491393731e-05
-0.35725445327625494,-0.35725445327625494,1.0001758709769464,9.12822407712761e-05
-0.3562503109256795,-0.3562503109256795,0.9999527285195795,9.109498287632599e-05
-0.35498950094988685,-0.35498950094988685,1.000004430715034,9.065457819159695e-05
-0.3542283633374609,-0.3542283633374609,1.0000230207136265,9.120297818702828e-05
-0.3534885969136667,-0.3534885969136667,0.9998573376421147,9.095011038164245e-05
-0.3521745595760876,-0.3521745595760876,1.0000842483650483,9.107826724339034e-05
-0.35048843983604455,-0.35048843983604455,0.9999511334855795,9.063346573322892e-05
-0.3494633566646371,-0.3494633566646371,0.9999345660923099,9.098929135749533e-05
-0.3478364900991437,-0.3478364900991437,0.9999882736633452,9.12259022536889e-05
-0.34574896012927636,-0.34574896012927636,1.0000346506946323,9.124680392919692e-05
-0.3446114255180873,-0.3446114255180873,1.0000084120813548,9.13435147696193e-05
-0.343383731830545,-0.343383731830545,1.0000182702188143,9.114697936719751e-05
-0.342627748662926,-0.342627748662926,0.9998284178059624,9.07378943052065e-05
-0.34182808329642284,-0.34182808329642284,0.999984005296134,9.086349428156053e-05
-0.34088641310008827,-0.34088641310008827,0.9999228591366796,9.101244642665053e-05
-0.3390632715454558,-0.3390632715454558,1.0000355316853171,9.062727569747765e-05
-0.3380710138975701,-0.3380710138975701,0.9999988880964497,9.093682218655617e-05
-0.33679682996953486,-0.33679682996953486,0.9998956144622065,9.147100003486665e-05
-0.33396145102306035,-0.33396145102306035,0.9999255436829284,9.287467355489776e-05
-0.33217724885907957,-0.33217724885907957,1.000021467365177,9.13244436211895e-05
-0.3309553791797953,-0.3309553791797953,0.9998756339271455,9.116910374904985e-05
-0.3298200260862359,-0.3298200260862359,1.0000903514425026,9.098017409192767e-05
-0.3290717467927607,-0.3290717467927607,0.9999775175980166,9.096269121705241e-05
-0.3271701108620618,-0.3271701108620618,0.9998787552660996,9.094759868506105e-05
-0.3258233258886321,-0.3258233258886321,0.9997226733712005,9.110438478295006e-05
-0.32448206096087234,-0.32448206096087234,1.0000927440353293,9.147250797788184e-05
-0.3220299958346004,-0.3220299958346004,1.0000861926719113,9.117046177832627e-05
-0.32012935947495863,-0.32012935947495863,1.0000497572104166,9.109258948080964e-05
-0.31914816541830077,-0.31914816541830077,1.0000964357561508,9.104937791686058e-05
-0.3181266685838636,-0.3181266685838636,1.0000228376930673,9.060156427242201e-05
-0.3175232704816153,-0.3175232704816153,1.000054549141249,9.10108813827557e-05
-0.3168058362760348,-0.3168058362760348,0.9999308119469976,9.114573011249596e-05
-0.31617076192706006,-0.31617076192706006,0.9999307742886272,9.112803850642079e-05
-0.31442025871001533,-0.31442025871001533,1.0000528295526165,9.073444381451991e-05
-0.3129366031018435,-0.3129366031018435,0.9998701764715288,9.099866227337272e-05
-0.3116334458012716,-0.3116334458012716,1.0000082340803647,9.132682287575598e-05
-0.3098025614403014,-0.3098025614403014,1.0000182361502825,9.124039732660327e-05
-0.3080048312622239,-0.3080048312622239,1.0000604601282777,9.127572199056272e-05
-0.30700058529837404,-0.30700058529837404,1.0000244998899825,9.109543585807626e-05
-0.3060045088743209,-0.3060045088743209,0.9999067211020746,9.077710831317844e-05
-0.3052581412674044,-0.3052581412674044,0.9999587998705701,9.093645924360306e-05
-0.3042717060066934,-0.3042717060066934,1.0000617859955052,9.108787067210047e-05
-0.3029235584188427,-0.3029235584188427,1.0000166202662177,9.073373796646607e-05
-0.3013902505095757,-0.3013902505095757,0.9999186533204846,9.082704645705298e-05
-0.30042391793758727,-0.30042391793758727,0.9999556923617045,9.090744677459863e-05
-0.2987883104920911,-0.2987883104920911,0.9999717049663477,9.129329950037308e-05
-0.29667165135688267,-0.29667165135688267,1.000062362662095,9.095227459658483e-05
-0.295697418294003,-0.295697418294003,1.0000938409426037,9.129811060829605e-05
-0.2945424627927423,-0.2945424627927423,1.0001465509439698,9.097754307415243e-05
-0.29318301012099257,-0.29318301012099257,1.000124415310052,9.106697752171105e-05
-0.29243333126287324,-0.29243333126287324,0.9999420039441841,9.099440594518581e-05
-0.2914044125158398,-0.2914044125158398,1.000085636790072,9.094113646454685e-05
-0.2894527806463884,-0.2894527806463884,1.000130301455721,9.100603379944804e-05
-0.28808761946565936,-0.28808761946565936,0.9998563889907761,9.102220869842392e-05
-0.28656490515277255,-0.28656490515277255,1.0000157445725342,9.098645174156314e-05
-0.28396689338915165,-0.28396689338915165,1.0000163274670812,9.135539138492575e-05
-0.28234025666315576,-0.28234025666315576,0.999997683709173,9.117748808966811e-05
-0.28122725101056856,-0.28122725101056856,0.9999321959744003,9.109028427832867e-05
-0.2803309612369048,-0.2803309612369048,0.9999678005010211,9.091787061685394e-05
-0.27975213587706094,-0.27975213587706094,1.000011367063167,9.101147288972865e-05
-0.2780881996135577,-0.2780881996135577,1.0000729703240587,9.09693249630053e-05
-0.2764439972517721,-0.2764439972517721,1.000044231827843,9.122577164718202e-05
-0.2752925507222244,-0.2752925507222244,0.999988661574149,9.111035766470436e-05
-0.2731948727363488,-0.2731948727363488,0.9997950328510854,9.116525267016593e-05
-0.2713246819708729,-0.2713246819708729,1.0000586798732778,9.137333364620022e-05
-0.27029126004927095,-0.27029126004927095,0.9999301006305821,9.11783496274681e-05
-0.26899729767537794,-0.26899729767537794,0.9999754317861017,9.075196593632436e-05
-0.26827385326614606,-0.26827385326614606,1.000002378820577,9.096678289182409e-05
-0.26727821968743226,-0.26727821968743226,1.0001223516725513,9.115553684292744e-05
-0.2664072628787835,-0.2664072628787835,0.9999745661715711,9.114169193168124e-05
-0.26463645269177505,-0.26463645269177505,1.000193737682269,9.071274800645992e-05
-0.263304582703131,-0.263304582703131,0.9998875837126215,9.096153750056195e-05
-0.261874231290858,-0.261874231290858,0.9999810771251683,9.126807484631709e-05
-0.2595837394168484,-0.2595837394168484,0.9999363950001868,9.119492614364852e-05
-0.25791164150214174,-0.25791164150214174,1.0001064117510725,9.122354015451548e-05
-0.25684806595963894,-0.25684806595963894,0.9999750026614771,9.107338990780353e-05
-0.2562225909350673,-0.2562225909350673,0.9999912401064937,9.073709637361981e-05
-0.25542298663422114,-0.25542298663422114,0.9999720290362258,9.087489690695609e-05
-0.25427816372393863,-0.25427816372393863,0.9999650949061836,9.092375930805499e-05
-0.25239466262137283,-0.25239466262137283,0.9998862876746806,9.07325349041969e-05
-0.2514048266624741,-0.2514048266624741,1.0001452614803485,9.110102680010573e-05
-0.24904958233673824,-0.24904958233673824,1.000093280287265,9.128595516103149e-05
-0.24644812033802738,-0.24644812033802738,1.0000278406306573,9.141731827682186e-05
-0.24500234159859247,-0.24500234159859247,1.0001731704757424,9.09859209201288e-05
-0.2438490658722003,-0.2438490658722003,0.9999384908624794,9.110320706732359e-05
-0.24301587638037744,-0.24301587638037744,0.9998757377156118,9.116567236949951e-05
-0.24191466929696617,-0.24191466929696617,1.0001770811244617,9.107760843344158e-05
-0.24018572858913104,-0.24018572858913104,1.0000233066865991,9.074665073982417e-05
-0.23900008509226608,-0.23900008509226608,1.0000452285447323,9.106784096641853e-05
-0.23761497551458888,-0.23761497551458888,1.0000926898965914,9.141689811773796e-05
-0.23584444714215352,-0.23584444714215352,0.9999954863096086,9.121822372239233e-05
-0.23370278799848165,-0.23370278799848165,0.9999189681607327,9.108257326165513e-05
-0.23250196671870071,-0.23250196671870071,0.999994320117721,9.103421798520605e-05
-0.2315312707461999,-0.2315312707461999,1.0001027919017236,9.092168948399752e-05
-0.23071789397508838,-0.23071789397508838,0.9999729159678301,9.10505149362923e-05
-0.22998472895342276,-0.22998472895342276,0.999944694975623,9.098506727767206e-05
-0.22847245135853883,-0.22847245135853883,1.000127256077843,9.10070327099042e-05
-0.22692751483482426,-0.22692751483482426,0.9999402558864177,9.100608717355103e-05
-0.22575194492892478,-0.22575194492892478,0.9999965659803556,9.106002851148293e-05
-0.22409816935760318,-0.22409816935760318,0.9999594741151239,9.111402673389515e-05
-0.221851762462029,-0.221851762462029,0.9999497105230339,9.122661393949841e-05
-0.2205952700947819,-0.2205952700947819,1.0000083387958556,9.108306952865402e-05
-0.21983148967992747,-0.21983148967992747,1.0000775656052863,9.100414941073222e-05
-0.21904404560191323,-0.21904404560191323,1.0000477029544812,9.06613507014892e-05
-0.21828041466360446,-0.21828041466360446,1.0000241529919314,9.115518833514459e-05
-0.21754142699282966,-0.21754142699282966,0.9999276150717978,9.095691062617389e-05
-0.2159903773725091,-0.2159903773725091,1.0000237693256497,9.108478190856234e-05
-0.21455258858040907,-0.21455258858040907,1.00001118908828,9.061437987447116e-05
-0.21314398007743876,-0.21314398007743876,0.9999924998266989,9.126260592781169e-05
-0.21118663136367105,-0.21118663136367105,0.9999601342142818,9.12907756411787e-05
-0.20978841075411764,-0.20978841075411764,0.9999783302203081,9.091776901213838e-05
-0.20884917742368997,-0.20884917742368997,1.0000613409160954,9.127508462154851e-05
-0.20765777125561727,-0.20765777125561727,0.9999509204927408,9.106521923206936e-05
-0.20653248200032975,-0.20653248200032975,0.9999522783790621,9.085231601103542e-05
-0.20585827618342592,-0.20585827618342592,0.9999318620824142,9.090546826898759e-05
-0.20494368554936954,-0.20494368554936954,0.999949992017417,9.102626058341496e-05
-0.20309465142781846,-0.20309465142781846,1.0000615418088032,9.078823274630432e-05
-0.20190387603724957,-0.20190387603724957,1.0001027215877527,9.098713591146978e-05
-0.20064495237456867,-0.20064495237456867,1.000089773426335,9.129060480945104e-05
-0.19869904407823924,-0.19869904407823924,1.000060927802455,9.11122207447816e-05
-0.19639782732483582,-0.19639782732483582,0.9999966221049617,9.11755227537353e-05
-0.19524260295875137,-0.19524260295875137,0.9999626274156528,9.095716516763133e-05
-0.1943059133918723,-0.1943059133918723,1.0000337289764007,9.11098597331292e-05
-0.19347405769876785,-0.19347405769876785,0.9999929202398533,9.122610161431487e-05
-0.19216777405017638,-0.19216777405017638,0.9999730800892019,9.099043869186926e-05
-0.1901850026093598,-0.1901850026093598,0.9999740503382789,9.085217023461252e-05
-0.1891288236118271,-0.1891288236118271,1.000002276062712,9.145325852198056e-05
-0.18667447683765204,-0.18667447683765204,1.0001078656559514,9.144556537924455e-05
-0.1844436608698743,-0.1844436608698743,0.9998420367872555,9.126466222302013e-05
-0.18348507384725962,-0.18348507384725962,0.9999550653351703,9.10109344953303e-05
-0.18236900050833355,-0.18236900050833355,1.0000459016603922,9.071597764986528e-05
-0.18164159042789835,-0.18164159042789835,0.99993031887297,9.096330519762016e-05
-0.1808720541681396,-0.1808720541681396,1.000019047663751,9.108550199032981e-05
-0.18007268521469086,-0.18007268521469086,0.9999935573950592,9.095787736023918e-05
-0.17880338146351277,-0.17880338146351277,0.99997193852218,9.097326100285126e-05
-0.17729864969369374,-0.17729864969369374,0.9999623451760072,9.098676393354755e-05
-0.17576987060892862,-0.17576987060892862,1.0002415922574126,9.117658963983225e-05
-0.17360498696871218,-0.17360498696871218,1.0000144798523176,9.111218775744825e-05
-0.1718002834553772,-0.1718002834553772,0.9998804169331252,9.13418234866455e-05
-0.17057333920311066,-0.17057333920311066,0.999889120828129,9.113818481390517e-05
