time,time,flux,flux_err
-0.4990953414097021,-0.4990953414097021,0.999895415161357,0.00019223766004254134
-0.49765656993549784,-0.49765656993549784,1.000319852853059,0.0001915194872813317
-0.49588017183123156,-0.49588017183123156,1.0000656096203937,0.0001925228948045307
-0.49334267017111416,-0.49334267017111416,0.999878794897262,0.0001926754467681881
-0.4921891389210941,-0.4921891389210941,1.000013340787109,0.00019162370025321105
-0.49067347577365583,-0.49067347577365583,1.0000577434478495,0.00019288931068891453
-0.4896840284629434,-0.4896840284629434,1.0001548535933646,0.00019251229330320688
-0.4889492777525447,-0.4889492777525447,1.0002134103853408,0.00019309173498285404
-0.48836181781225607,-0.48836181781225607,1.0001070612831637,0.00019155763063751025
-0.48695346923050237,-0.48695346923050237,0.9998056506874058,0.00019276674357228966
-0.4851322778966278,-0.4851322778966278,1.0002680256764875,0.0001920072745754173
-0.4833414971908496,-0.4833414971908496,1.000020466098199,0.0001922213096753675
-0.4821107509014837,-0.4821107509014837,0.9998325007423461,0.0001916578385461553
-0.4812939168106823,-0.4812939168106823,0.9999986313806012,0.00019192588983908934
-0.4801840440362867,-0.4801840440362867,0.9999134518726566,0.00019126457122629648
-0.47904406515444864,-0.47904406515444864,0.999864322273126,0.0001924909307984015
-0.4779885862270021,-0.4779885862270021,1.0002810586591746,0.0001936740616624029
-0.47739205165198656,-0.47739205165198656,1.0001255796445263,0.00019376633023436183
-0.47585596309872924,-0.47585596309872924,0.999706674534963,0.00019271991410068422
-0.47508928487513913,-0.47508928487513913,1.000011550318789,0.0001919470035207807
-0.4742927477651392,-0.4742927477651392,0.9997647169962169,0.00019265703087204493
-0.47294192802364704,-0.47294192802364704,1.0002713434971917,0.00019262055612554225
-0.47078054776138745,-0.47078054776138745,1.0000163166364273,0.00019179469189805509
-0.4691802628127334,-0.4691802628127334,0.9997365147379037,0.00019170328084698514
-0.4678952743110131,-0.4678952743110131,0.9999753932732978,0.00019175217234868643
-0.4667266098564141,-0.4667266098564141,1.000239220007359,0.0001923419285870782
-0.4643575904483441,-0.4643575904483441,1.0000024381365717,0.000191654410749163
-0.46284875200581155,-0.46284875200581155,1.000168567508068,0.00019210361591350967
-0.4613897179362539,-0.4613897179362539,1.000068774573574,0.0001917452401458692
-0.45927497620286883,-0.45927497620286883,1.0000389824159293,0.0001919728418926923
-0.457604744641867,-0.457604744641867,0.999881348932313,0.0001924366046358344
-0.4565383208129788,-0.4565383208129788,0.9997999382449194,0.000193275506420336
-0.4557748726103455,-0.4557748726103455,1.000361015006802,0.00019158306736715523
-0.45451752972148823,-0.45451752972148823,0.999732543067043,0.00019158768057429194
-0.4528512287084595,-0.4528512287084595,1.0000048846646972,0.00019280744630010085
-0.45194437753089006,-0.45194437753089006,1.00006891147011,0.00019182864256812285
-0.45058809378097064,-0.45058809378097064,1.0000728742901976,0.00019179436149260995
-0.4495301988106803,-0.4495301988106803,0.9999984977585381,0.0001925998799536367
-0.44812802613741953,-0.44812802613741953,0.9998865436046348,0.00019327106386713956
-0.44642918149984323,-0.44642918149984323,0.9998572898787087,0.0001923530325199637
-0.4446094413906394,-0.4446094413906394,0.9997915774722008,0.00019126819959101965
-0.4429120963162859,-0.4429120963162859,1.0002067766184835,0.0001919822954101746
-0.4415498602138541,-0.4415498602138541,1.0002757175378976,0.00019335681472850422
-0.4410288854356622,-0.4410288854356622,0.9996356558550822,0.0001937261763026016
-0.43968309630217844,-0.43968309630217844,1.0001182641082837,0.00019321978477890154
-0.4386414942156989,-0.4386414942156989,0.9998755303810919,0.0001928465393653581
-0.43781461235194,-0.43781461235194,0.9998660763729484,0.00019287390208442705
-0.43700829458612134,-0.43700829458612134,1.0002575664693782,0.00019299732275664783
-0.4353822189637867,-0.4353822189637867,0.999665972506051,0.00019231955918543782
-0.43355759150945233,-0.43355759150945233,1.000011375827338,0.00019179304569592333
-0.4314160261899815,-0.4314160261899815,0.9998825651339869,0.00019267888325631607
-0.4296105303124932,-0.4296105303124932,0.9998873398945192,0.00019192247320175807
-0.42782750349797427,-0.42782750349797427,0.9998115975758392,0.00019266223863970296
-0.42650007731135703,-0.42650007731135703,1.0000472755190395,0.0001925075883046532
-0.42478253344161204,-0.42478253344161204,0.99956263801675,0.00019195792435173158
-0.4233729337429395,-0.4233729337429395,1.0000085756185306,0.00019231629607140523
-0.42182841033645674,-0.42182841033645674,0.9997690298951543,0.00019199313554636764
-0.42043012672584157,-0.42043012672584157,1.0004005985336195,0.0001927022275715961
-0.4191828663053457,-0.4191828663053457,0.999997145281504,0.00019211791834490596
-0.4177569120496628,-0.4177569120496628,1.000153781520321,0.0001911926587425059
-0.4162661521972041,-0.4162661521972041,0.9998960659676589,0.00019313411078593194
-0.41579822313797193,-0.41579822313797193,1.0001371751871424,0.0001917699015643573
-0.4140566705966194,-0.4140566705966194,1.0002869574066717,0.00019152338090864938
-0.41262538358496387,-0.41262538358496387,1.0000817265860849,0.0001933302970782333
-0.4113768969058583,-0.4113768969058583,1.0001095088427707,0.00019164354930691177
-0.4104915797863214,-0.4104915797863214,0.9996172139806634,0.00019192202687006541
-0.4086308710051526,-0.4086308710051526,0.999865670472024,0.00019170888505521354
-0.4063494360409095,-0.4063494360409095,0.9999872690808596,0.00019283926922169053
-0.4047672150787548,-0.4047672150787548,0.9999533729754406,0.0001931120484320899
-0.40403236975471374,-0.40403236975471374,0.9999065874483242,0.0001939889988754085
-0.40271671762893674,-0.40271671762893674,0.9997536475476106,0.00019184165874357918
-0.40135954787547234,-0.40135954787547234,0.9999681960866333,0.0001936906319398405
-0.40019428604937274,-0.40019428604937274,1.0002559223012923,0.0001915863789365933
-0.3988310281682061,-0.3988310281682061,0.9998396319910607,0.00019193209178202227
-0.3974039343527693,-0.3974039343527693,0.9995360873211074,0.00019155122601802006
-0.39573525603991583,-0.39573525603991583,0.9999795885620726,0.00019295730613962933
-0.39464871661402867,-0.39464871661402867,1.0002587829686758,0.0001926058043524277
-0.39347377621161284,-0.39347377621161284,1.0002625077118386,0.00019502943713935623
-0.392044340819848,-0.392044340819848,1.0001200037791071,0.00019249076981521613
-0.3907652711284754,-0.3907652711284754,1.000160004470277,0.0001924275377645138
-0.38910164998669644,-0.38910164998669644,0.999943924044388,0.00019269854636348675
-0.3876722517539747,-0.3876722517539747,0.9998539896741893,0.00019191403957608333
-0.3865635882684728,-0.3865635882684728,1.0000339881091775,0.00019194140643840428
-0.38452798719663406,-0.38452798719663406,1.0000335645230003,0.00019215981774102877
-0.3826774718501838,-0.3826774718501838,1.0002418322992814,0.00019245958328436972
-0.3807547638294636,-0.3807547638294636,1.0001815123051596,0.00019165349204994958
-0.3797684108474641,-0.3797684108474641,0.9999270049775293,0.000192211247873777
-0.3784311078576138,-0.3784311078576138,1.0000218763467514,0.00019220635186204912
-0.3772008683932654,-0.3772008683932654,0.9998044225590939,0.00019147654208121894
-0.3751544586739328,-0.3751544586739328,0.9999130362442333,0.00019257044676123576
-0.3731188883728464,-0.3731188883728464,0.9998530304156992,0.00019255930544526934
-0.37197322114589043,-0.37197322114589043,1.0000729130827282,0.00019226798075589903
-0.3705269601188775,-0.3705269601188775,0.9998992881074411,0.00019208342264606329
-0.36922735795233164,-0.36922735795233164,1.0000869655147233,0.0001924923718744087
-0.3684919807703409,-0.3684919807703409,0.9998451405359745,0.0001930705171534255
-0.36790707809050216,-0.36790707809050216,0.999683691092035,0.00019163885739754613
-0.36667288849130275,-0.36667288849130275,0.9999996241498785,0.0001925013880380453
-0.3651315995521145,-0.3651315995521145,0.9997439053571533,0.00019209205577736056
-0.36363614721340126,-0.36363614721340126,1.0001344364203928,0.0001915251614788565
-0.36238842096572627,-0.36238842096572627,0.9997027981221057,0.00019213102040661605
-0.3611558932549087,-0.3611558932549087,1.0000131828400836,0.00019197373896341237
-0.36030241586922784,-0.36030241586922784,0.9999178099578641,0.00019153561212352667
-0.35932951994254836,-0.35932951994254836,1.0000659040206483,0.0001924007104102138
-0.3583465095151041,-0.3583465095151041,0.9997250503115035,0.0001917023282161442
-0.3575314269110095,-0.3575314269110095,0.9999764544690194,0.00019364973737304443
-0.3567334295810724,-0.3567334295810724,0.9998478160714468,0.00019372469741683722
-0.3552292433530965,-0.3552292433530965,0.9999480689263202,0.00019304087525388451
-0.35435157377360155,-0.35435157377360155,1.0000560691326856,0.00019237278389142452
-0.35364880894558154,-0.35364880894558154,1.0001821818754668,0.0001928507095656313
-0.35209578831199906,-0.35209578831199906,0.9998571864509149,0.00019183192194069778
-0.349800313468586,-0.349800313468586,1.000326027791634,0.00019195474882591454
-0.3482485477186856,-0.3482485477186856,0.9998225112125319,0.00019134498055453582
-0.3468959388999792,-0.3468959388999792,0.9996896021842927,0.00019212156679013798
-0.3450378894973255,-0.3450378894973255,0.999810079189453,0.00019179803329944818
-0.3431043854085146,-0.3431043854085146,1.0000123939982264,0.00019154018762923273
-0.34195549379874135,-0.34195549379874135,0.9998360109486587,0.00019264367992614598
-0.34033370871620716,-0.34033370871620716,0.9999838018989387,0.00019249315940589011
-0.3382458239888365,-0.3382458239888365,1.0001573665222783,0.00019186790339433538
-0.33651241529369147,-0.33651241529369147,1.0000173407963346,0.0001928120433196206
-0.335343408533663,-0.335343408533663,0.9999297849285581,0.00019140639204262417
-0.3336482683516806,-0.3336482683516806,1.0000427064878337,0.00019221929683220924
-0.33222087540416395,-0.33222087540416395,0.9996111965342795,0.00019273566220054763
-0.3311986798667931,-0.3311986798667931,0.9997676372571573,0.00019125555782714207
-0.32990361618285535,-0.32990361618285535,0.9998244093993691,0.00019235745877820587
-0.3284252285862749,-0.3284252285862749,0.999938582376817,0.00019235520857689966
-0.3269322107000335,-0.3269322107000335,1.0002166650157271,0.00019258114434252328
-0.3252943430939922,-0.3252943430939922,0.9998510955653662,0.0001923390113194419
-0.3238058644274133,-0.3238058644274133,0.9999570706900032,0.00019153088708862131
-0.3223250990966335,-0.3223250990966335,0.9998871057659546,0.00019236443750384515
-0.3208305683110666,-0.3208305683110666,0.9999331012050418,0.0001929387256489749
-0.3202156172344985,-0.3202156172344985,0.9998673260266869,0.0001943404364058141
-0.3186663438587857,-0.3186663438587857,0.9999142925696205,0.00019220029176216243
-0.3176390678236203,-0.3176390678236203,0.9998718814254172,0.00019298154422348984
-0.31687045639191636,-0.31687045639191636,0.9999430838538708,0.00019327750213841743
-0.31601184364553775,-0.31601184364553775,0.999975713329411,0.00019174546921640542
-0.3140390569657029,-0.3140390569657029,1.0001858191121724,0.00019246767519001096
-0.3121657709743886,-0.3121657709743886,1.0000071485132176,0.00019148680582520918
-0.3100867051696696,-0.3100867051696696,1.0002536363895245,0.00019307651260914454
-0.3086853709624847,-0.3086853709624847,0.9999439988904463,0.0001931038956177607
-0.3072249734519573,-0.3072249734519573,1.0000955612249334,0.0001918648062806112
-0.30562955517088997,-0.30562955517088997,1.0003394014460187,0.00019281839296855492
-0.3041995134524768,-0.3041995134524768,0.999652604235868,0.00019214406317775323
-0.302588627077057,-0.302588627077057,0.9996668478211872,0.00019207652954586992
-0.3009347498016723,-0.3009347498016723,1.0002797020631746,0.00019217776759830558
-0.29956316255411364,-0.29956316255411364,1.000111667026742,0.0001929512814071245
-0.29808044003875694,-0.29808044003875694,1.000061592044379,0.0001912604565539533
-0.29661300641382693,-0.29661300641382693,1.0000702830203219,0.00019241922801845082
-0.2956494605423359,-0.2956494605423359,1.000032602678435,0.00019195361755030454
-0.29481449161467027,-0.29481449161467027,0.9998295576397174,0.00019213866562141075
-0.29330050202552227,-0.29330050202552227,0.9998656847062406,0.00019122777902852762
-0.29216831682715566,-0.29216831682715566,1.000221396371213,0.00019334696682207385
-0.290865136924549,-0.290865136924549,1.0002576194339654,0.00019616048712485013
-0.2898607876042661,-0.2898607876042661,0.9998714809534945,0.0001919652818051551
-0.28743806032362046,-0.28743806032362046,1.0000259758284706,0.0001918449513320936
-0.285964248439268,-0.285964248439268,1.0000364113448938,0.00019251814253159463
-0.2846207768649037,-0.2846207768649037,1.0000615640236794,0.0001930883193035138
-0.28414158034065623,-0.28414158034065623,0.9999621704774457,0.00019348533853749504
-0.2826460404299723,-0.2826460404299723,1.0001903274651907,0.00019306831382828718
-0.2817986703485076,-0.2817986703485076,0.999879063761489,0.00019222681393210936
-0.2804448526163469,-0.2804448526163469,0.9998293596430617,0.0001928815934605467
-0.2791486782232823,-0.2791486782232823,1.0000744957052288,0.00019214195419280962
-0.27793892534828046,-0.27793892534828046,0.9997900675546176,0.00019235727167210358
-0.2760785482489155,-0.2760785482489155,1.0000260819026103,0.0001916622294594736
-0.2739106290253403,-0.2739106290253403,0.9997177655580256,0.00019223709670184968
-0.2730890702798206,-0.2730890702798206,1.0000384928574988,0.0001958597994796083
-0.2717389711840951,-0.2717389711840951,1.0000940092508217,0.00019211259832757236
-0.2706028980086558,-0.2706028980086558,1.000261863833763,0.00019265677710545196
-0.2689883637649473,-0.2689883637649473,0.9997279833353139,0.00019223389094375382
-0.26711088836964336,-0.26711088836964336,1.0002864702107026,0.00019248314592631765
-0.2653875947122287,-0.2653875947122287,1.0000284258606098,0.00019205230179326414
-0.26372407491435296,-0.26372407491435296,0.9999391195215919,0.00019211301999019594
-0.26229707865495583,-0.26229707865495583,0.9999977732270372,0.00019215201178142318
-0.26067444029831677,-0.26067444029831677,1.0001666012910027,0.00019147746648967974
-0.2590855138434563,-0.2590855138434563,1.0000774530256527,0.00019266789694226093
-0.25760331166384276,-0.25760331166384276,0.9999341336925243,0.0001915997047782294
-0.25616270228056237,-0.25616270228056237,0.9999417749036684,0.00019287671645871568
-0.25450796524528413,-0.25450796524528413,0.9999179727314671,0.0001922352328781918
-0.25252706986357226,-0.25252706986357226,0.9998853927070774,0.00019297927249469212
-0.25105400369866404,-0.25105400369866404,1.0000171882042816,0.00019154306768001526
-0.2494324421932106,-0.2494324421932106,0.9997766252674938,0.00019293142952590868
-0.2484492372139357,-0.2484492372139357,0.9998247728469067,0.00019269952738200016
-0.24791123592076475,-0.24791123592076475,0.9997445190345318,0.00019210486169008687
-0.24686046262795572,-0.24686046262795572,1.000214263219068,0.0001926747193615039
-0.24568100823744315,-0.24568100823744315,0.9998348057747117,0.00019164709825456532
-0.24412046546203783,-0.24412046546203783,1.000405283283493,0.00019235294520300497
-0.24248945277140593,-0.24248945277140593,0.9995374140949032,0.00019147101372359816
-0.24142998407332925,-0.24142998407332925,0.9998265389650338,0.00019195559167493276
-0.24038080132522738,-0.24038080132522738,0.9998037233597671,0.0001918882625008557
-0.23948257181982627,-0.23948257181982627,0.9998642257603045,0.0001912400802974345
-0.23847765206373878,-0.23847765206373878,0.9999352569641321,0.00019226365526126265
-0.23733441771764774,-0.23733441771764774,1.000026407797977,0.00019310871393380874
-0.23631258479363168,-0.23631258479363168,1.0000233341108067,0.00019452928245214217
-0.23493067830859218,-0.23493067830859218,1.0001281134076916,0.00019256855525759625
-0.23383487494138536,-0.23383487494138536,0.999929590327022,0.00019297648356321915
-0.23305159351293697,-0.23305159351293697,1.0000260754742605,0.00019189459673987547
-0.23242021302867216,-0.23242021302867216,1.0000474172313862,0.00019338550166071044
-0.23071963434122153,-0.23071963434122153,0.9996206299267142,0.00019124831425331915
-0.2288853820246004,-0.2288853820246004,0.9997389482334963,0.00019179970951203496
-0.22786598202364985,-0.22786598202364985,1.0001400660684154,0.00019137655025027798
-0.2264936657717044,-0.2264936657717044,1.000069174648289,0.00019219117227789063
-0.22493155758274952,-0.22493155758274952,1.0002297178368282,0.0001925120885005128
-0.22261609345805483,-0.22261609345805483,1.0001318654121563,0.0001924652710958829
-0.2211942280533549,-0.2211942280533549,0.9996871418573358,0.0001916262644565224
-0.21957653403005678,-0.21957653403005678,0.9995571638389162,0.00019271585321508679
-0.21778223244837136,-0.21778223244837136,0.9998817116323865,0.00019185113288475413
-0.21622675175603945,-0.21622675175603945,0.9998224674227154,0.00019248428896072003
-0.2151266121014487,-0.2151266121014487,1.0000458427666712,0.00019179960744329742
-0.21360297350984184,-0.21360297350984184,1.0001192296666062,0.00019161520896918951
-0.2119378466530179,-0.2119378466530179,0.9998251632901924,0.0001927939184995664
-0.21109811498172348,-0.21109811498172348,1.0003499203941264,0.00019160032386388032
-0.20970196109410608,-0.20970196109410608,1.0000210001505785,0.0001920482067080979
-0.20809952697090922,-0.20809952697090922,1.0000279363996252,0.0001931602233018579
-0.20646414615766845,-0.20646414615766845,0.9999547873562807,0.00019193779838689117
-0.2048840384093637,-0.2048840384093637,1.0003563098692543,0.00019244452966157082
-0.2038363966945326,-0.2038363966945326,1.000422128847515,0.0001911818691175718
-0.20263106825586874,-0.20263106825586874,1.0001040915104016,0.00019232415861427106
-0.20080844185431487,-0.20080844185431487,0.9998747516497671,0.00019264918593802618
-0.20015512705867877,-0.20015512705867877,1.0003360535056958,0.00019211514848209503
-0.1990892710251501,-0.1990892710251501,0.9998620297107699,0.00019449272732340066
-0.19770359816684505,-0.19770359816684505,0.9997982317954369,0.0001918811512478721
-0.19692209862187154,-0.19692209862187154,1.0002790794802694,0.00019322050684243816
-0.19594236213815747,-0.19594236213815747,0.9998567268127398,0.00019268265507050764
-0.194058906576538,-0.194058906576538,0.9997290040812497,0.00019267160452259051
-0.19217689203214833,-0.19217689203214833,0.9999495831086609,0.00019138961885089347
-0.19009975802473492,-0.19009975802473492,0.9998182561730677,0.0001926192299408831
-0.18852136204513953,-0.18852136204513953,0.9999014103357133,0.00019196349963639773
-0.18692889948360972,-0.18692889948360972,0.9999763183195338,0.0001919383986038799
-0.18588087140669812,-0.18588087140669812,0.9994648684079671,0.00019262558489167457
-0.18432147356288625,-0.18432147356288625,0.9997873401136765,0.00019183915655827174
-0.18276232926145894,-0.18276232926145894,0.9998161212835157,0.00019269286500795378
-0.1814268569025444,-0.1814268569025444,1.000087718741479,0.0001917626704982589
-0.17977470258774703,-0.17977470258774703,1.0000463011115959,0.00019264227820924368
-0.17878423955553444,-0.17878423955553444,1.0001324093639021,0.00019185343157916988
-0.17751121212277213,-0.17751121212277213,0.9997486888142595,0.0001913866434069868
-0.17648148705484346,-0.17648148705484346,0.9999760524473388,0.00019150151140495593
-0.1752640704085934,-0.1752640704085934,0.9997354737358457,0.00019282467138480064
-0.17460251702723326,-0.17460251702723326,1.0004104614690303,0.0001925887809172305
-0.17350225917616627,-0.17350225917616627,0.9998880650066735,0.00019154373416814053
-0.17233564446869423,-0.17233564446869423,0.9999312963730593,0.00019183683638184407
-0.17111558101387345,-0.17111558101387345,0.9999633095235769,0.000192968202836071
-0.1698239907847892,-0.1698239907847892,0.9998390767128649,0.0001921000640427843
-0.16816967682243558,-0.16816967682243558,1.0000310127418035,0.00019302703571396224
