time,time,flux,flux_err
-0.4997654729007384,-0.4997654729007384,1.0000178307428107,0.00016310140109246823
-0.499266909682774,-0.499266909682774,0.9999630718023677,0.00016422896462656476
-0.4989322455105139,-0.4989322455105139,1.0002374663315468,0.00014882688281922377
-0.4983769924823719,-0.4983769924823719,0.9999370864767465,0.00014885306570304297
-0.49798434820768306,-0.49798434820768306,1.0000840584391086,0.00015106263686900055
-0.49721008310880277,-0.49721008310880277,1.0000878178084043,0.00014918610112471902
-0.49646005367103496,-0.49646005367103496,0.9998318934769997,0.0001482581053472301
-0.4956329576059943,-0.4956329576059943,1.000279086149105,0.0001485548447028609
-0.4946463369647972,-0.4946463369647972,1.0001433287554453,0.0001496197319439063
-0.4937277228666062,-0.4937277228666062,0.9999880091580469,0.00014953197168213027
-0.49300811979846915,-0.49300811979846915,0.9999267407547375,0.0001515225794511583
-0.4921712155199202,-0.4921712155199202,1.0001295520476865,0.0001521544094599145
-0.49150547175813697,-0.49150547175813697,1.0001505145538776,0.0001536573130391491
-0.49062611636109066,-0.49062611636109066,1.0002159274718534,0.00014855045854943394
-0.48963263865662154,-0.48963263865662154,0.9999702945340211,0.00014869644618364797
-0.4891852779146575,-0.4891852779146575,0.9998930656340633,0.00014979575070972657
-0.4884561847626173,-0.4884561847626173,0.9998396361702703,0.00015081146371168875
-0.48784091281413566,-0.48784091281413566,1.000027352894585,0.0001518054125629462
-0.48718626369882256,-0.48718626369882256,0.999969935664493,0.0001487009721229025
-0.4865605781029444,-0.4865605781029444,1.0001584620418715,0.00014912418625911478
-0.48592672732265785,-0.48592672732265785,1.0000263145188344,0.00014922759684136709
-0.48531076242070414,-0.48531076242070414,1.000031728359562,0.000149017574247552
-0.4846942099669832,-0.4846942099669832,0.9999106427229133,0.000149711668966008
-0.48406567178535626,-0.48406567178535626,1.000097438623947,0.00015225393966585146
-0.48316684019591777,-0.48316684019591777,0.9999995364016543,0.0001483995088081944
-0.4824838740009,-0.4824838740009,0.9998395146705557,0.00014879194566170677
-0.48149870615961843,-0.48149870615961843,1.0000011359861223,0.00014872789994179437
-0.48048268772763547,-0.48048268772763547,0.999979618894673,0.0001504954737676141
-0.4794490470929304,-0.4794490470929304,0.9999116469682893,0.000152800391876484
-0.4786825175797276,-0.4786825175797276,1.0001700716378523,0.00015291931255745047
-0.47811632214434213,-0.47811632214434213,0.9999411416562267,0.000151242118909752
-0.4769934370626288,-0.4769934370626288,1.0002578083227172,0.00014781427792921197
-0.4763236680759292,-0.4763236680759292,1.000092738248201,0.00014909520610410781
-0.47579459550033787,-0.47579459550033787,1.0000430617186213,0.00014954204666895238
-0.47505119607885715,-0.47505119607885715,1.0001093474300602,0.0001500170696359726
-0.4744041232937889,-0.4744041232937889,1.0001478476644334,0.00015178503325770625
-0.4739465766077046,-0.4739465766077046,1.0000860542525243,0.00015032110034153215
-0.47334869371188687,-0.47334869371188687,0.9999582196001153,0.00014910841772541842
-0.47284160281997173,-0.47284160281997173,0.99981597796078,0.00014888620325779724
-0.472235253850522,-0.472235253850522,1.0001077400305638,0.00014893295665750222
-0.4717240449666861,-0.4717240449666861,1.0000561503945347,0.00014995028172375735
-0.4712778776513005,-0.4712778776513005,1.0000963722215264,0.00015165529536537145
-0.47030397627240744,-0.47030397627240744,0.9999243441984366,0.00014791023372967332
-0.46967239139485173,-0.46967239139485173,1.0002683570327369,0.00014859404132480414
-0.46893517113785493,-0.46893517113785493,0.9999162262142731,0.00014857886486864823
-0.4678712241613539,-0.4678712241613539,1.0002069079386344,0.00014950582303626406
-0.46685993071369014,-0.46685993071369014,1.0002552649485739,0.00015045767811092998
-0.46610437434355845,-0.46610437434355845,1.0000224442026502,0.00015167539265057957
-0.4654735543277638,-0.4654735543277638,0.9998859644541188,0.00015212632177512403
-0.4647574863432965,-0.4647574863432965,1.0001269936494344,0.0001534769197854135
-0.46374905253978793,-0.46374905253978793,1.0000086572270583,0.00014824384270360327
-0.46278122307703595,-0.46278122307703595,1.0000193658234553,0.00014873126169265578
-0.4619760606685304,-0.4619760606685304,1.0001794591971342,0.00014956881102213914
-0.46132078672890203,-0.46132078672890203,1.0000921992357792,0.00015123778428956713
-0.46076020170512494,-0.46076020170512494,0.999939404539275,0.0001508929567855378
-0.46013143582313204,-0.46013143582313204,0.9997893109136955,0.00014931145150086575
-0.45971483022149184,-0.45971483022149184,0.9999344275184324,0.000148589171242623
-0.4592609324114164,-0.4592609324114164,1.0001449713796495,0.00014944171251025096
-0.4589459263581375,-0.4589459263581375,0.9998661377609341,0.00014929708253608615
-0.4583509700001741,-0.4583509700001741,0.9999891704354227,0.00014986767626383538
-0.4577873892529169,-0.4577873892529169,0.9998823933782754,0.00015066570100832354
-0.4569573179636791,-0.4569573179636791,0.9997151495410543,0.00014819486970160542
-0.4560530517635925,-0.4560530517635925,1.0003630983265142,0.00014812440018525607
-0.4549808682291768,-0.4549808682291768,1.000012514761582,0.00014829191823881034
-0.4536111629342486,-0.4536111629342486,1.0001116185668073,0.000150463323318817
-0.4529277466179337,-0.4529277466179337,1.0000625933635738,0.00015234356070494663
-0.4520896973910567,-0.4520896973910567,1.0002227816944187,0.00015056054107109843
-0.4512818202136259,-0.4512818202136259,1.00010973432909,0.0001526718939920077
-0.45050045712996506,-0.45050045712996506,0.9999413888215287,0.00014948472658695306
-0.44957054518672523,-0.44957054518672523,0.9998761116233064,0.0001485872916446341
-0.4490265170104976,-0.4490265170104976,1.0000531700055835,0.00014967319952671578
-0.4482090898374736,-0.4482090898374736,1.0000657033342424,0.00015056790164917047
-0.44751474429940574,-0.44751474429940574,0.9998766523529368,0.00015186234271886225
-0.44687992797626064,-0.44687992797626064,0.9998862499253292,0.00014902874190172687
-0.44622955276499854,-0.44622955276499854,0.99991147582669,0.00014921875027510198
-0.4456746283009124,-0.4456746283009124,0.9999721443345304,0.00014964426690915176
-0.44524227721994974,-0.44524227721994974,1.0000523579751173,0.00014914720949305322
-0.4446290053128905,-0.4446290053128905,0.9999954005648778,0.00014992441549854422
-0.4439579661710013,-0.4439579661710013,1.0002259628065868,0.00015107626742016212
-0.4431194665907242,-0.4431194665907242,0.9998751071322856,0.00014847887159092905
-0.4423880193651712,-0.4423880193651712,0.9998972303823797,0.00014808372768545505
-0.44107544413782307,-0.44107544413782307,0.9999922100477014,0.0001496432122961065
-0.4400818389964115,-0.4400818389964115,1.0000886546678727,0.0001500797254726607
-0.4393245493272843,-0.4393245493272843,0.999799871436607,0.0001521550454751703
-0.43862770074483703,-0.43862770074483703,1.0001425884593358,0.00015271562964822285
-0.43789479160623157,-0.43789479160623157,0.9999334496314883,0.0001518459867339227
-0.43664233550516657,-0.43664233550516657,1.0000328580309812,0.0001486505241898383
-0.43615602862046216,-0.43615602862046216,1.000238717239491,0.00014818575511359657
-0.4354640324301727,-0.4354640324301727,1.0000523095895393,0.000150407018765733
-0.43472055761594675,-0.43472055761594675,0.9999432310157529,0.00015194100273025672
-0.43429956989930363,-0.43429956989930363,0.9998842447765262,0.0001501448540912897
-0.4337003278989869,-0.4337003278989869,1.000045315777096,0.00014896969536594195
-0.4330990270820621,-0.4330990270820621,1.0000237566579748,0.000148846293232226
-0.432723700589122,-0.432723700589122,1.0002263846538182,0.0001495951069955675
-0.432130978773057,-0.432130978773057,0.9999753479611255,0.0001492915642656936
-0.43143882632430175,-0.43143882632430175,1.0001944523869892,0.0001510950128098991
-0.43080301813606636,-0.43080301813606636,1.0002939192314413,0.0001499518692458116
-0.42999187154709945,-0.42999187154709945,1.0000404711998374,0.00014831166461074308
-0.42921023099333977,-0.42921023099333977,1.0000375393905305,0.0001481180683199628
-0.42831804030865894,-0.42831804030865894,0.9999537410509263,0.0001489100180956306
-0.427610478704446,-0.427610478704446,0.9999388979394878,0.0001500283123630791
-0.426707436722063,-0.426707436722063,1.0000083245995999,0.00014988236364723518
-0.4261878090321261,-0.4261878090321261,1.0000148943475424,0.00015155111060510598
-0.42547561812825735,-0.42547561812825735,0.9999345489867819,0.000151758299724679
-0.4247262735130789,-0.4247262735130789,1.0000172354053267,0.00015402213852448263
-0.4237187683240336,-0.4237187683240336,1.0000929931884723,0.00014822814672247787
-0.4226855978020467,-0.4226855978020467,0.9996757113660568,0.0001500813833084433
-0.4219608818028064,-0.4219608818028064,1.0001305714053557,0.0001483972667542667
-0.42140427320628077,-0.42140427320628077,0.9996795899807861,0.00015098000942503
-0.4208412253807182,-0.4208412253807182,1.0000884989146812,0.00015142877147271628
-0.4203481575888873,-0.4203481575888873,1.0000026228095902,0.00014944472602429495
-0.4198540555385989,-0.4198540555385989,1.000346538488716,0.00014870025548131726
-0.4192565193705377,-0.4192565193705377,1.0000331603313515,0.00014898524268927135
-0.4187833963405865,-0.4187833963405865,1.0000604385447436,0.0001492359264953001
-0.41807613637065516,-0.41807613637065516,0.9999725045431708,0.00014986157239390538
-0.41734307753431493,-0.41734307753431493,1.0000310611385337,0.00015165760595979946
-0.4163009176583728,-0.4163009176583728,1.0000172653123804,0.00014856819096602188
-0.4155531780452293,-0.4155531780452293,1.0002213673074696,0.00014836714506218007
-0.4143670439036214,-0.4143670439036214,1.0000179812603083,0.0001494176133721357
-0.41345696620628586,-0.41345696620628586,1.0001484765604487,0.0001518989129526527
-0.41268512616952646,-0.41268512616952646,1.0001474886749644,0.00015221383404118388
-0.41192151793511583,-0.41192151793511583,1.0000909701993415,0.00015295285771147073
-0.4114330909476848,-0.4114330909476848,1.0000529394623812,0.00014879696015606748
-0.4108652418690326,-0.4108652418690326,0.9998443497829637,0.0001507742992612728
-0.4099317419437284,-0.4099317419437284,0.999891984388029,0.00014869728307730578
-0.40934594805003144,-0.40934594805003144,1.000349243194066,0.00014832182482490014
-0.4084820428448438,-0.4084820428448438,0.9999770441704934,0.00015055103833402578
-0.4077388360594341,-0.4077388360594341,1.0000529936618456,0.00015194315304691412
-0.4072229590608913,-0.4072229590608913,0.9999365844038097,0.00014987454078078951
-0.4065896152940695,-0.4065896152940695,0.9999915581599025,0.00014916048052759684
-0.40599739497702103,-0.40599739497702103,0.9998982066648345,0.00014921162520369058
-0.40537864790749156,-0.40537864790749156,1.0001085734487383,0.0001494049785877053
-0.4047117473826802,-0.4047117473826802,0.9998928435706496,0.00014990380177496698
-0.4040167240527808,-0.4040167240527808,1.0000623766725678,0.00015044506238739535
-0.40313838881993436,-0.40313838881993436,0.9998982999696884,0.00014863048375491744
-0.4023672253730183,-0.4023672253730183,0.9999586578734881,0.0001481855514399835
-0.40145116654166485,-0.40145116654166485,0.9999180054250063,0.0001488365061745464
-0.40051852396136384,-0.40051852396136384,0.99992955447048,0.00015124559949237707
-0.39954665277400636,-0.39954665277400636,1.000117145152567,0.00015202007988706452
-0.3988522194340476,-0.3988522194340476,0.9997300832317467,0.0001524026841515348
-0.39819447558475074,-0.39819447558475074,0.9997985175542354,0.00015231271717650342
-0.3971919562347466,-0.3971919562347466,0.9999584806295901,0.00014883026401059076
-0.3965144144560327,-0.3965144144560327,0.9997517446961878,0.00014865473426560697
-0.39584106110414724,-0.39584106110414724,0.999845562431732,0.00015015709969986844
-0.3950811884693394,-0.3950811884693394,0.9999133343805193,0.0001510307636868212
-0.3945517473883228,-0.3945517473883228,0.9999021598254376,0.00014947418492907192
-0.3940034717248636,-0.3940034717248636,0.9999858917254414,0.0001505911301310995
-0.3933738336701936,-0.3933738336701936,0.9999430916105251,0.00014930530595887992
-0.39294421150771086,-0.39294421150771086,0.9999881835645976,0.00014922521253206476
-0.39243572277191563,-0.39243572277191563,1.0002056750502444,0.0001491742250318868
-0.3920949794330227,-0.3920949794330227,0.99983579795488,0.00014955873744384134
-0.3915515748281905,-0.3915515748281905,0.9999119901053278,0.00014987932076957942
-0.391028430267761,-0.391028430267761,0.9999381242759044,0.00015077571284308834
-0.3901997009423212,-0.3901997009423212,0.9999349477889232,0.00014825442072129453
-0.38929369560210036,-0.38929369560210036,1.0000150656482325,0.00014809800275204018
-0.388332532557979,-0.388332532557979,0.9998412780732163,0.0001485144978518733
-0.38744577042452877,-0.38744577042452877,0.9996630868102558,0.0001509884696449557
-0.38656528783758404,-0.38656528783758404,0.9998995772958785,0.00015125890871190692
-0.38584444705193166,-0.38584444705193166,1.000030347142507,0.00015244319246738555
-0.3851069942720642,-0.3851069942720642,1.0002159231802474,0.0001490482483927949
-0.3845195390698791,-0.3845195390698791,1.0000124162051087,0.00015313929250181595
-0.3835058541604667,-0.3835058541604667,1.000165959265088,0.0001482389508776316
-0.38278777332598113,-0.38278777332598113,0.9999331566341537,0.0001488617425557742
-0.38226789643376835,-0.38226789643376835,0.9998625075530068,0.0001497376029130304
-0.38148771909982315,-0.38148771909982315,0.9997467960991505,0.00015083358450548894
-0.38088247397026864,-0.38088247397026864,1.0000394680500544,0.00015175602952642573
-0.3802464390333625,-0.3802464390333625,0.9999595317184111,0.00014883486536314925
-0.3797318399316282,-0.3797318399316282,1.000182252203062,0.00014936150450860743
-0.37915328161470824,-0.37915328161470824,1.0002149805547105,0.00014929461438715363
-0.37853149329166624,-0.37853149329166624,1.0002416653422057,0.00014964048433899072
-0.3778703592164675,-0.3778703592164675,1.0001623546439298,0.00014996284263515567
-0.377196899750561,-0.377196899750561,0.9999849746340324,0.00015116886220641336
-0.3762360004213406,-0.3762360004213406,0.9996790426109108,0.00014872783354734394
-0.3754264099072316,-0.3754264099072316,0.9999433468262687,0.0001482385068128334
-0.3742245405781432,-0.3742245405781432,0.9998457074981794,0.00015016150367628953
-0.3732833754889725,-0.3732833754889725,1.0001063975579425,0.0001500400285817025
-0.3724622957844986,-0.3724622957844986,0.9999017781447449,0.00015184326898377092
-0.3718666647313512,-0.3718666647313512,0.9999506578164905,0.00015293610336503295
-0.37130020261756724,-0.37130020261756724,1.0000825383997616,0.00015119255552548122
-0.370063763071812,-0.370063763071812,1.0001282651996672,0.0001484758436215984
-0.36956383245124014,-0.36956383245124014,1.000011564310278,0.00014905725605719839
-0.3689963431497745,-0.3689963431497745,1.0000764845532402,0.00015073581430234928
-0.36823910705861634,-0.36823910705861634,0.9998205169234874,0.00015119902653109194
-0.3676125954545569,-0.3676125954545569,1.0000898334588724,0.00014882776417947125
-0.36716558876942146,-0.36716558876942146,0.9999741360857757,0.00015015767996656292
-0.36660485247848557,-0.36660485247848557,0.9999328074590821,0.00014918549334781123
-0.36616558136083766,-0.36616558136083766,1.000150749624956,0.00014894494101645028
-0.36555938540623173,-0.36555938540623173,1.0000259407287424,0.00014893973356880152
-0.3649491989854141,-0.3649491989854141,1.0001334632879288,0.00014948979729027584
-0.36446471171148004,-0.36446471171148004,1.0000700347543496,0.00015162801456166763
-0.36347782044977067,-0.36347782044977067,0.9999264002515547,0.00014809777536632567
-0.36285336642176846,-0.36285336642176846,1.000014209546937,0.00014842880689087083
-0.36213933143371835,-0.36213933143371835,0.9998912823556175,0.00014869076083863888
-0.3611953829335107,-0.3611953829335107,0.9998922861340656,0.0001494842924231978
-0.3601839540373476,-0.3601839540373476,1.0000250662205787,0.00015039639003754378
-0.3594284345061169,-0.3594284345061169,0.9999706631104935,0.00015165900213184427
-0.35879746079735925,-0.35879746079735925,1.000339851157382,0.0001522108235373183
-0.3580815354544029,-0.3580815354544029,1.000105008313826,0.00015348634176249579
-0.357079551746574,-0.357079551746574,0.9999666286341011,0.00014851810849053184
-0.3562403415387962,-0.3562403415387962,0.9999770370090154,0.00014873981083829898
-0.355494415602152,-0.355494415602152,1.0001716743675784,0.00014973528785952014
-0.3547343896651,-0.3547343896651,1.0000274026681828,0.00015097640552368393
-0.3542205365956761,-0.3542205365956761,0.9999304966924456,0.00015126898609185363
-0.3535979658649012,-0.3535979658649012,0.9997821777261816,0.00014897151467740206
-0.353094000161218,-0.353094000161218,0.9999788165279906,0.00014880817232448292
-0.3526765959286422,-0.3526765959286422,1.000044032119457,0.00014951757126076008
-0.3523405735104461,-0.3523405735104461,1.0001966339854527,0.0001487932286834167
-0.3517837376712123,-0.3517837376712123,0.9998746988826166,0.00014885914509631243
-0.3512544520468509,-0.3512544520468509,1.0002231830912405,0.00015081537273430615
-0.35047291739610953,-0.35047291739610953,1.000123527296885,0.0001492437527607354
-0.3495424562570406,-0.3495424562570406,0.9998972631815732,0.0001485029924214439
-0.34857933020102794,-0.34857933020102794,0.9999458138511514,0.0001482476223212587
-0.34713499903300543,-0.34713499903300543,1.0000481690511727,0.00014955516573645814
-0.3464150930245523,-0.3464150930245523,1.000020791071573,0.00015129465820964844
-0.34557993118069136,-0.34557993118069136,0.9999511268771016,0.0001521630559699881
-0.34476737928489454,-0.34476737928489454,0.9998222595050024,0.0001527503401332773
-0.34382435079751306,-0.34382435079751306,1.000009981416461,0.0001493539459168142
-0.3428944472289004,-0.3428944472289004,1.000189823031337,0.00014860229296206955
-0.34235065721950375,-0.34235065721950375,0.999967377380903,0.00014970410765366104
-0.34153318451935777,-0.34153318451935777,0.9997188020549663,0.00015057462227411684
-0.3408388003488653,-0.3408388003488653,0.9999469903355525,0.00015187226600081014
-0.34020391120575366,-0.34020391120575366,0.9999697359355781,0.00014899006563023952
-0.3395539487057249,-0.3395539487057249,0.9999437284448769,0.0001492074160250437
-0.33899862945472703,-0.33899862945472703,1.0002310551350124,0.00014966391523405748
-0.3385662158827472,-0.3385662158827472,0.9999463699617437,0.00014918052744977443
-0.3379531428814516,-0.3379531428814516,0.9998242082232973,0.00014989216275738848
-0.33728186159423784,-0.33728186159423784,0.9996113749724435,0.00015105921842178868
-0.3364435786497779,-0.3364435786497779,0.9999213853279443,0.00014849788983245095
-0.33571201443191967,-0.33571201443191967,1.0004282519699035,0.00014807604558260976
-0.3343995090915996,-0.3343995090915996,0.9998084016220344,0.00014963667343260897
-0.33334029303441637,-0.33334029303441637,1.0001842373619314,0.00015068404888162273
-0.3325101857386471,-0.3325101857386471,0.9998936290140215,0.0001513663621076342
-0.3318545556583558,-0.3318545556583558,0.9998601621623135,0.00015286075603512797
-0.33116023645852694,-0.33116023645852694,1.0002602610724618,0.000151900970911424
-0.3299662557867123,-0.3299662557867123,1.0003010127552714,0.00014861346135024823
-0.3294800565839978,-0.3294800565839978,0.9999593731479794,0.00014818420649746053
-0.3287879778217757,-0.3287879778217757,0.9998629515859939,0.0001504413847560003
-0.32804490549315235,-0.32804490549315235,1.000110307076461,0.00015195426360099516
-0.3275174843161949,-0.3275174843161949,1.0000675876344272,0.00015032170598154273
-0.3268931174192403,-0.3268931174192403,1.0001195792639588,0.00014898830533016622
-0.32628945345277316,-0.32628945345277316,1.0000496826851624,0.00014876411822758643
-0.32577907431696074,-0.32577907431696074,0.9999504325807009,0.00014945687154962496
-0.3251769220092683,-0.3251769220092683,1.0000200670978336,0.00014930747545560064
