time,time,flux,flux_err
-0.4982702659272036,-0.4982702659272036,1.001239955627623,0.001027576601148588
-0.4968157588627946,-0.4968157588627946,1.0015023195331414,0.001135745328643837
-0.4952434025520536,-0.4952434025520536,1.0003069839154224,0.0010268463561007384
-0.49402087972994196,-0.49402087972994196,1.0006556150563408,0.0013518356751971695
-0.49273034555662887,-0.49273034555662887,0.9994518536095439,0.0009478630707747497
-0.49093535264328236,-0.49093535264328236,0.9996293999248532,0.0009382290634901019
-0.4880351659601729,-0.4880351659601729,1.0013879198340088,0.0009384713887131211
-0.486382987912657,-0.486382987912657,0.9996388958960107,0.0011000269198437743
-0.4850141317365342,-0.4850141317365342,1.0004522256388357,0.0009348684462681811
-0.48357039476759384,-0.48357039476759384,1.0012782341160826,0.0009386120162991243
-0.4826410754925746,-0.4826410754925746,1.0006621434424396,0.0009382456641138625
-0.4814262759377016,-0.4814262759377016,1.0008012839413223,0.0009596059027315576
-0.4799493869046273,-0.4799493869046273,1.0006417961368026,0.0009381278301198511
-0.4773665064421948,-0.4773665064421948,1.0001329922075395,0.000937438954606637
-0.47549779611144916,-0.47549779611144916,1.001248076247907,0.0009375750581107582
-0.47444619545785827,-0.47444619545785827,1.0027425019985994,0.0015466232327520269
-0.47317507913248846,-0.47317507913248846,1.0010831732118077,0.0014134329737998715
-0.4719561063015135,-0.4719561063015135,0.9993994682459002,0.0009383776257952161
-0.4709491827474267,-0.4709491827474267,0.999373894654382,0.0011778683631859127
-0.4697839246829972,-0.4697839246829972,0.9999634183869771,0.000937466386251832
-0.46832608152035393,-0.46832608152035393,1.0007116776205303,0.0009384612173850495
-0.46570657753618433,-0.46570657753618433,0.9996465817992611,0.0009381835457853479
-0.4640360767101811,-0.4640360767101811,0.9996629750761683,0.000938552344551968
-0.462936913028534,-0.462936913028534,0.9965229834887934,0.0019433176880751305
-0.46142285194873695,-0.46142285194873695,1.001046809991127,0.0009381479144117625
-0.4600330022156413,-0.4600330022156413,1.0012792554181207,0.0009386225993121873
-0.45902411042843594,-0.45902411042843594,0.9992434302425476,0.0012676268555824642
-0.45702145083632784,-0.45702145083632784,1.0009924790121665,0.0009387442861924068
-0.45440131990108057,-0.45440131990108057,0.9993773393153844,0.0009378630174866527
-0.45273333605509836,-0.45273333605509836,0.9996471847509156,0.0009436659059851164
-0.45148585235583594,-0.45148585235583594,0.9992589724195294,0.0016737724762299875
-0.4497729879367398,-0.4497729879367398,1.000605775832182,0.0009381256047953596
-0.44853904373158004,-0.44853904373158004,0.9997391916451939,0.0010457996504829648
-0.44733643834406395,-0.44733643834406395,1.0014744080386464,0.0012947265725085748
-0.44547291911803766,-0.44547291911803766,1.000433933169637,0.0009387762885523984
-0.4430960682759178,-0.4430960682759178,1.0008017876615523,0.0009376378796899541
-0.44143059758571324,-0.44143059758571324,0.9995355012489127,0.0009515158274258707
-0.43991324564267414,-0.43991324564267414,0.9985271177369988,0.0014154147544025626
-0.4385844469659787,-0.4385844469659787,1.0017482028085607,0.0009381613324736901
-0.43742491938101014,-0.43742491938101014,1.000163992936765,0.0009385939401088579
-0.43569159425242104,-0.43569159425242104,1.0014944685405744,0.0009387151973868264
-0.4334047423893935,-0.4334047423893935,0.9999506280393557,0.0009384207439196846
-0.43055884631612573,-0.43055884631612573,0.9996518024153529,0.0009621666350724563
-0.42952072609041353,-0.42952072609041353,1.0021923932221501,0.0014370832910621716
-0.42828440071607476,-0.42828440071607476,0.9977965806895333,0.0014036984102758034
-0.4268014080967987,-0.4268014080967987,0.9994767621477187,0.0009379243992393531
-0.42557965570231315,-0.42557965570231315,1.0001033723599249,0.000938003509145477
-0.4238409561854496,-0.4238409561854496,1.0004488573587997,0.0009378548685025093
-0.4214962818965432,-0.4214962818965432,0.9992478858185306,0.0009383702721518271
-0.4191996462926909,-0.4191996462926909,0.9999120870568742,0.0009749660250426932
-0.41817564945085905,-0.41817564945085905,0.9996449380419034,0.0009353691378880157
-0.4167027027979202,-0.4167027027979202,1.0003615523423306,0.0009359328186677281
-0.4152709229863831,-0.4152709229863831,0.9988248955121513,0.000937466448869227
-0.413922682696284,-0.413922682696284,1.0001218688106732,0.0009386519770935126
-0.4124553105117229,-0.4124553105117229,0.9992526891389628,0.0009381211086035756
-0.4101913645696186,-0.4101913645696186,1.0013693277448614,0.000938022859104461
-0.4079429575955146,-0.4079429575955146,0.998029878266258,0.0009951536180033327
-0.40687137593922673,-0.40687137593922673,0.9993367311018293,0.0009349158157272569
-0.40567990300114615,-0.40567990300114615,0.9984841476504227,0.000936621261699643
-0.40469174703976024,-0.40469174703976024,0.9992409033715159,0.0009381693264390015
-0.4035128126735799,-0.4035128126735799,1.0003279994639842,0.0009391272790938868
-0.401921859534923,-0.401921859534923,0.9999463248768139,0.0009379363185051583
-0.3996234896570968,-0.3996234896570968,0.9984496268817324,0.00093773204678221
-0.39690869643673066,-0.39690869643673066,1.0004104170699741,0.0009368988340116276
-0.39566116310306826,-0.39566116310306826,0.998516092329848,0.001477788256607926
-0.39483490451675607,-0.39483490451675607,1.0005775494118168,0.0009363381902333098
-0.39365437844389817,-0.39365437844389817,1.0005767852456064,0.0009391610849778531
-0.39246475287509386,-0.39246475287509386,0.9996613608915599,0.0009421160795354509
-0.39084764529325183,-0.39084764529325183,1.0012893480215563,0.0009378538097586184
-0.38831852363946384,-0.38831852363946384,0.9994666526865753,0.0009379234762633946
-0.3857370819816424,-0.3857370819816424,1.0010953188006633,0.0009377923699183449
-0.3845926341069571,-0.3845926341069571,1.0009214140435438,0.0010595533203296944
-0.38326855980049,-0.38326855980049,1.0008503861516063,0.0009366672884660362
-0.38215048138881685,-0.38215048138881685,0.9986306608494173,0.000936744305666862
-0.3809047754963103,-0.3809047754963103,0.9989730186134741,0.0009488438218281766
-0.3792748541447509,-0.3792748541447509,1.0009549514895568,0.000938252827930318
-0.3770135623504757,-0.3770135623504757,1.0008940814364056,0.0009385148911393038
-0.3745946180119063,-0.3745946180119063,1.0010843186752234,0.0009371445339975186
-0.37356092353438725,-0.37356092353438725,1.0007099015152758,0.0011044531868062036
-0.37171013581682927,-0.37171013581682927,0.999294305501732,0.000938047801338076
-0.3707053278129024,-0.3707053278129024,1.0001883415425727,0.0009385091539537135
-0.3696718787563441,-0.3696718787563441,0.9994244051213051,0.0011166679739483235
-0.36841975090283086,-0.36841975090283086,1.0000395301021932,0.0009374338848392273
-0.36685183595764104,-0.36685183595764104,0.9986106514611528,0.000938088853964785
-0.3642039384874806,-0.3642039384874806,1.000628011312252,0.0009375521602851946
-0.36297184506256597,-0.36297184506256597,0.998797505135147,0.0009357912402761058
-0.3618716791315819,-0.3618716791315819,1.0005102521988243,0.001880910505993022
-0.36047261134663133,-0.36047261134663133,1.0017270511048977,0.0009391004259319344
-0.35942295915810973,-0.35942295915810973,1.0018984378933982,0.0009382439069052313
-0.35836825747683176,-0.35836825747683176,1.0006662887412838,0.0011867627569625582
-0.35711540547054027,-0.35711540547054027,0.9992709310930454,0.0009376817733333556
-0.35554719600622775,-0.35554719600622775,1.0002223458799047,0.0009381476001474813
-0.3528667301616224,-0.3528667301616224,1.0003187243918956,0.0009383467904825772
-0.3514112485478108,-0.3514112485478108,0.9983427138289279,0.0012365558748082168
-0.35037079883913974,-0.35037079883913974,1.0026654928475047,0.0017780070811340327
-0.3487099204154219,-0.3487099204154219,1.0008300955543619,0.0009389058103161961
-0.3474755737595842,-0.3474755737595842,0.9994307084120061,0.0010097176999965493
-0.3462735299493943,-0.3462735299493943,1.000765331941753,0.0012235789776893183
-0.34424256095371675,-0.34424256095371675,0.9993927249450613,0.000938157238391058
-0.341562164388597,-0.341562164388597,1.0003976552368123,0.0009381181178141953
-0.34010885845273153,-0.34010885845273153,0.9996588041349325,0.0013113140364845307
-0.33884948076083676,-0.33884948076083676,0.999085548777208,0.0014114013578849643
-0.33714383539117987,-0.33714383539117987,0.999620491792226,0.0009373317142458177
-0.3361719794695091,-0.3361719794695091,0.9995987801016628,0.0010508026716137494
-0.33496930306428113,-0.33496930306428113,0.9993033054341284,0.0013027757651051524
-0.33293793098127933,-0.33293793098127933,0.998779611101622,0.000938323485825311
-0.330257616675226,-0.330257616675226,1.0003292606278318,0.0009384378668553558
-0.32879576858467774,-0.32879576858467774,0.9992321054918815,0.0009517194756673679
-0.3272330344472721,-0.3272330344472721,1.0000392823932232,0.0014164393897952126
-0.32599440098856575,-0.32599440098856575,1.0005987915915469,0.0009384139858948197
-0.324785141475877,-0.324785141475877,0.9979416423742793,0.000937660393404985
-0.3228856828667631,-0.3228856828667631,0.998167541748918,0.0009378726498295971
-0.3204339916839672,-0.3204339916839672,1.0004461481591052,0.0009384694217741786
-0.3179183010761335,-0.3179183010761335,0.9994549931393909,0.0009637506527610795
-0.3169458347489126,-0.3169458347489126,0.9998209581483698,0.001433732133174007
-0.3156221581812133,-0.3156221581812133,1.0013245805485844,0.0014014167757276262
-0.3143731239440967,-0.3143731239440967,1.000923363223386,0.0009383324908984819
-0.31321252969210034,-0.31321252969210034,1.0007441249256366,0.0009382008178678188
-0.3111794631418888,-0.3111794631418888,1.001540266403492,0.0009385716037650519
-0.308519387908018,-0.308519387908018,1.0002267971971182,0.0009371086863784919
-0.30683270778681615,-0.30683270778681615,0.9997615880434074,0.0009768654432335956
-0.3058085080665478,-0.3058085080665478,0.9997028828091112,0.0009354680367649653
-0.3043355906898796,-0.3043355906898796,0.9986155188675694,0.0009354532499955077
-0.30290383637548074,-0.30290383637548074,1.0017566842716061,0.0009381542012796694
-0.30155550539057,-0.30155550539057,1.0004441120609286,0.0009386021828364903
-0.3000881280066096,-0.3000881280066096,1.0004458709200494,0.0009383488720301122
-0.2978241520926531,-0.2978241520926531,1.000452913826377,0.0009378162931126102
-0.2955760144359374,-0.2955760144359374,0.9997153278919416,0.0009982608258253078
-0.2945275055746606,-0.2945275055746606,1.0000514545541026,0.0009347356627443515
-0.2935441204579547,-0.2935441204579547,0.9984853027244138,0.0009361483052863996
-0.29251272006658835,-0.29251272006658835,1.000119704783374,0.0009386881358662587
-0.29138740792550377,-0.29138740792550377,1.0001077234889686,0.0009394947212279682
-0.28978513394613403,-0.28978513394613403,0.998867136947273,0.0009374318416200675
-0.2872562710035709,-0.2872562710035709,0.9998030078188425,0.0009378959788707682
-0.2845416557182034,-0.2845416557182034,1.0005982013646124,0.0009368712418542904
-0.2832941972948902,-0.2832941972948902,0.9958118594328444,0.0014787991675531203
-0.2822131628898205,-0.2822131628898205,0.9996283559216804,0.0009363192398220757
-0.28111350982799194,-0.28111350982799194,0.999607179691034,0.0009387281063586748
-0.27984167628819706,-0.27984167628819706,0.9999122413311138,0.0009429440966600231
-0.2780785111041041,-0.2780785111041041,1.0002161874775002,0.0009380850881577401
-0.2752172095388232,-0.2752172095388232,0.999386935919517,0.0009379044046130937
-0.27321033672487827,-0.27321033672487827,0.9986682758018324,0.0009361052023479704
-0.2718507083998702,-0.2718507083998702,0.997818202277252,0.0010629987668558747
-0.2703549291676609,-0.2703549291676609,0.999727866844881,0.0009386889457380903
-0.26906566251855113,-0.26906566251855113,0.9995613493931372,0.000949732236632668
-0.26761426028097046,-0.26761426028097046,1.0018066584030387,0.0009385402725926855
-0.26580888661628704,-0.26580888661628704,0.999079483622884,0.0009376828194582164
-0.2633008065764443,-0.2633008065764443,0.9995088322093044,0.0009376745712528225
-0.26164911967352966,-0.26164911967352966,1.000148100640346,0.0011109723274181462
-0.2601603610732127,-0.2601603610732127,0.9999077125919109,0.0009364115891278355
-0.25862585152644896,-0.25862585152644896,0.9995507370963133,0.0009386814541523083
-0.2577157884865301,-0.2577157884865301,0.9996031523982927,0.0009627776932141195
-0.2566395962872775,-0.2566395962872775,0.9999793848338807,0.0011025884211662844
-0.25521509779064216,-0.25521509779064216,1.0006060721740613,0.0009377686286899597
-0.2528806607209845,-0.2528806607209845,0.9994593802802649,0.0009377872626750727
-0.2507637639719178,-0.2507637639719178,0.9976395064804127,0.0009372426019074797
-0.24971233803225915,-0.24971233803225915,0.9976292914344167,0.0015645168410362655
-0.2484410292672692,-0.2484410292672692,0.9975085627937389,0.0014118712750987004
-0.2472219013136055,-0.2472219013136055,0.999151004355227,0.0009382992681334775
-0.24621512748708482,-0.24621512748708482,1.0007479861890665,0.00119535803904022
-0.2450496363271668,-0.2450496363271668,0.9982118182894275,0.000937135099631113
-0.2436489506588259,-0.2436489506588259,1.000277519672172,0.0009373437017684165
-0.24157535699705476,-0.24157535699705476,1.0003867583876946,0.0009382340505191607
-0.23946062530521886,-0.23946062530521886,0.9985211602021551,0.0009404709125643557
-0.2384099990973482,-0.2384099990973482,0.9996411708886364,0.0016497652995002012
-0.23707128409805592,-0.23707128409805592,0.9999779131956095,0.0014121684781124872
-0.2355405256828817,-0.2355405256828817,0.999707849562291,0.0009386761873912402
-0.23451906921691262,-0.23451906921691262,1.0002546026102999,0.0012907318083969083
-0.2327260891383048,-0.2327260891383048,1.0002724789430846,0.0009386085784768922
-0.2302700571839523,-0.2302700571839523,1.001529706550172,0.000938270244347258
-0.22834709238959477,-0.22834709238959477,1.0003297023247495,0.0009454279696221559
-0.22728482874153996,-0.22728482874153996,0.9996475838898908,0.001311776804084082
-0.22576809795864392,-0.22576809795864392,1.000617816133015,0.0014127519540128675
-0.22423647659888957,-0.22423647659888957,1.000280754079585,0.0009387383348624498
-0.22321575139649213,-0.22321575139649213,1.0000446068842994,0.0013981899509735401
-0.22142148598068162,-0.22142148598068162,1.0012012267018906,0.0009389890822989775
-0.2189647616149159,-0.2189647616149159,0.9990228593414375,0.0009377535437325548
-0.21706865237574674,-0.21706865237574674,1.0006693418648833,0.0009547323441796802
-0.2158807632702519,-0.2158807632702519,0.998842098886995,0.0014160974339135254
-0.21433503618463873,-0.21433503618463873,0.9997497024014956,0.0009377903587664627
-0.213144342990563,-0.213144342990563,0.9981763343418546,0.0009378497690541186
-0.21179750665905886,-0.21179750665905886,1.0005810558380577,0.0009382607931979353
-0.20967784052700153,-0.20967784052700153,0.9998940338971536,0.0009384504672835491
-0.20672309278888862,-0.20672309278888862,1.0008570958061502,0.0009389689367919332
-0.2051876988451113,-0.2051876988451113,0.9990725344141758,0.0009614321261594205
-0.20395130877004702,-0.20395130877004702,0.9963904125202273,0.0014333436538384668
-0.20243143899715504,-0.20243143899715504,0.9999191667228275,0.0009374961933930077
-0.20138664888145286,-0.20138664888145286,1.0006997701768472,0.0009381744340723952
-0.19965261753168306,-0.19965261753168306,0.9987872494206222,0.0009378910322965789
-0.19736535471311073,-0.19736535471311073,1.0010522082719229,0.0009384237510302569
-0.1948864870311809,-0.1948864870311809,1.0007861122377588,0.0009365562496808095
-0.19388461715498123,-0.19388461715498123,0.9999552635390092,0.0009771645071035224
-0.19260595785890472,-0.19260595785890472,0.9986340315448835,0.000935747407227616
-0.19126128173811593,-0.19126128173811593,0.9984908653007523,0.0009379021125482717
-0.1900826137214608,-0.1900826137214608,1.0001827995737602,0.0009382666400439152
-0.18859222996034078,-0.18859222996034078,0.9997544989333704,0.000938809758249992
-0.1870686090158415,-0.1870686090158415,1.0010183641291643,0.0009382677499883106
-0.18424449140802607,-0.18424449140802607,0.9991078855634712,0.0009360569783530406
-0.18278849480775533,-0.18278849480775533,1.0005935010470661,0.0010017556397234552
-0.18168886139901588,-0.18168886139901588,0.9993978625561708,0.0009346824768221934
-0.18041505070214042,-0.18041505070214042,0.9980768465228307,0.000938158860441108
-0.17923298610112398,-0.17923298610112398,1.0006105657303412,0.0009392940921592085
-0.17785630475045763,-0.17785630475045763,0.9988046830402999,0.0009379858910269769
-0.17549274302728007,-0.17549274302728007,0.9997945972317991,0.0009378980989241225
-0.17247171761046048,-0.17247171761046048,0.9993080417773887,0.0009373255228279987
-0.1711767833287013,-0.1711767833287013,0.9991089614256655,0.0014800969374270912
-0.1701315815844282,-0.1701315815844282,0.998985985089849,0.0009361684937938557
-0.16892020136801875,-0.16892020136801875,0.9999177623008766,0.0009388304177923053
-0.16773053989745676,-0.16773053989745676,0.9984369237040452,0.0009431926337915986
-0.16632094509041054,-0.16632094509041054,0.99857383128025,0.0009371178793354992
-0.1641877601876331,-0.1641877601876331,1.000956340136725,0.0009380148894533042
-0.16142646650478126,-0.16142646650478126,0.9991372218124649,0.000955104172078442
-0.16033914074869243,-0.16033914074869243,1.000349521720262,0.0010708678732803535
-0.15889063757349503,-0.15889063757349503,0.9991843417848025,0.0009341259773791586
-0.15744267277259497,-0.15744267277259497,1.0007324074827502,0.0009383288319203896
-0.1561705516302027,-0.1561705516302027,1.001426449328891,0.0009512404977588668
-0.1547523903027468,-0.1547523903027468,1.0001209045514565,0.0009376683910097624
-0.15288278043590253,-0.15288278043590253,0.9988178327369484,0.0009379426457350934
-0.1499745619330497,-0.1499745619330497,1.0006113108057497,0.0009369994734260403
-0.1488269978290191,-0.1488269978290191,1.0009017668137201,0.0011162411518386285
-0.14723033558257156,-0.14723033558257156,1.0012107058468591,0.0009374002283799579
-0.1461050817189971,-0.1461050817189971,0.9998371096242659,0.0009382165350664961
-0.1451513656313182,-0.1451513656313182,0.9994630586893315,0.0011313168031667716
-0.14401358198520028,-0.14401358198520028,0.9985606051036171,0.0009375513085276212
-0.1428479533562495,-0.1428479533562495,1.000626979031674,0.0009380795340835307
-0.14051340452206204,-0.14051340452206204,1.0001506081826015,0.0009379215026454081
-0.1383967480971478,-0.1383967480971478,1.0004571011739984,0.0009380199817037634
-0.13734540990772076,-0.13734540990772076,1.0018570122178045,0.0015744385155828096
-0.1360740047697618,-0.1360740047697618,0.9999875457241003,0.0014116020760606483
-0.13485479826340452,-0.13485479826340452,0.9997359209956365,0.0009383196625988643
-0.1338481009704992,-0.1338481009704992,1.0010694156708262,0.001204327640559904
-0.13268249207612826,-0.13268249207612826,1.0008229295646385,0.0009378476590721253
-0.13122453756586766,-0.13122453756586766,0.9994804176401434,0.0009386336758476591
-0.1286048243076948,-0.1286048243076948,0.9998891549597149,0.0009380728030312238
-0.1269351631664904,-0.1269351631664904,1.0005878150067846,0.0009399735236743265
-0.12583638631695065,-0.12583638631695065,1.0002174839058167,0.0019665410744304974
-0.12432148976731697,-0.12432148976731697,0.998881800462773,0.0009374100183193878
-0.12293165529190446,-0.12293165529190446,1.0003587320123168,0.0009382012819136006
-0.12209206041225115,-0.12209206041225115,0.9996160723868206,0.001302898419797791
-0.1203589108918095,-0.1203589108918095,1.0002263733315582,0.0009387545076559839
-0.11790280198474648,-0.11790280198474648,1.0008659910431799,0.0009378745417682868
-0.11579048510320718,-0.11579048510320718,0.999545270952501,0.0009468088677042904
-0.1146904962908593,-0.1146904962908593,0.9996622216151859,0.001689804362948142
-0.11301741744900937,-0.11301741744900937,1.0004308321678783,0.0009376215855823197
