time,time,flux,flux_err
-0.4999189581806907,-0.4999189581806907,0.9999227610516644,0.00018543178813105346
-0.49981126873244647,-0.49981126873244647,1.0000405888593515,0.00017477326942021162
-0.4997483198167174,-0.4997483198167174,0.9999165126293041,0.0001756766870690499
-0.4996643586855498,-0.4996643586855498,0.9999083927256438,0.00017281293531110387
-0.49956555841417866,-0.49956555841417866,0.9997944547394937,0.00019927972879780855
-0.4994468944474647,-0.4994468944474647,1.0001012894356196,0.0001692083996986791
-0.49938085805260923,-0.49938085805260923,0.9999324545904568,0.00019037010743337435
-0.49925161923092676,-0.49925161923092676,0.9998334741086277,0.00017129405535902515
-0.49912719396088506,-0.49912719396088506,0.9998044867944079,0.0001751232621510122
-0.49897456233520643,-0.49897456233520643,1.0002041584164565,0.00017870437039420014
-0.4988766018548631,-0.4988766018548631,0.9998083134878104,0.00016251418160141066
-0.49874798003729665,-0.49874798003729665,1.0002445278361995,0.00016924058465658053
-0.49861960924899906,-0.49861960924899906,1.0003093321849463,0.00017537757966685136
-0.49848337433722917,-0.49848337433722917,0.9997133795520122,0.00021871622719899495
-0.49831700230788556,-0.49831700230788556,1.000035120660519,0.00017071979284990075
-0.49821115215017925,-0.49821115215017925,1.0003064718782162,0.0001782068442976213
-0.49809958363039186,-0.49809958363039186,1.0000027670065066,0.00017630856763817612
-0.497969399876456,-0.497969399876456,1.0000240827377516,0.0001723180625622089
-0.49786458753733315,-0.49786458753733315,1.0002370680156614,0.00017255116415672048
-0.49777554600441365,-0.49777554600441365,0.9998435492502915,0.00017334576339420062
-0.49766836762210004,-0.49766836762210004,1.0001323685001755,0.00017109979294246963
-0.49759190313125146,-0.49759190313125146,0.9999504850274871,0.00017091963060879452
-0.49747667996416567,-0.49747667996416567,0.9999621913404553,0.000179579234881268
-0.497337523502938,-0.497337523502938,0.9999524894351056,0.00017304264586682645
-0.4972212358668912,-0.4972212358668912,1.000121442755912,0.00017195255852267406
-0.49708267409369,-0.49708267409369,1.0001896036647349,0.00017132534568865574
-0.4969563673432276,-0.4969563673432276,1.0002718440045426,0.00017293136650615903
-0.4967032812222897,-0.4967032812222897,0.9999187488132739,0.00017319991874704623
-0.4964915156320785,-0.4964915156320785,1.0001100193238468,0.00017023061298390094
-0.49635137039076654,-0.49635137039076654,1.0001964518383162,0.00018530982820715936
-0.4962028207795811,-0.4962028207795811,1.0000208920346574,0.00017384827641440958
-0.496095017335756,-0.496095017335756,0.9998113231050789,0.00017318031142418106
-0.495949557692802,-0.495949557692802,0.9998680993651929,0.00017414271920558535
-0.4958548686838185,-0.4958548686838185,1.000046838981963,0.0001702237314688079
-0.4956673677159415,-0.4956673677159415,1.0000196771541796,0.00016836383191882575
-0.4955597079533618,-0.4955597079533618,1.0002068184935822,0.0001768129196167856
-0.49536461082534516,-0.49536461082534516,1.0001426769184814,0.00017224666360466122
-0.4952260399411898,-0.4952260399411898,0.9999979930030541,0.00017663588037773116
-0.4951652642303088,-0.4951652642303088,1.0001537743790645,0.00017490894956018543
-0.4950696234787756,-0.4950696234787756,0.9999663886467534,0.00017415562925239835
-0.4949543539158185,-0.4949543539158185,0.9998568229393182,0.0001692178929794967
-0.49488620700867614,-0.49488620700867614,1.0001730371485469,0.00017592458761892313
-0.49482572258202706,-0.49482572258202706,0.9999837647279941,0.00017673961007005158
-0.4947428904932167,-0.4947428904932167,0.9998686727529424,0.0001712593877128762
-0.49463832030378396,-0.49463832030378396,0.9997737497088812,0.000171640819832028
-0.4945181383693125,-0.4945181383693125,1.0000608637924318,0.00016936779549160026
-0.49443728674814336,-0.49443728674814336,0.9999697410461558,0.00017209494355587465
-0.494367633669026,-0.494367633669026,1.000085150964643,0.00017446869290548283
-0.4942866779987526,-0.4942866779987526,1.0002274674890759,0.00016745831615836717
-0.4941873401279736,-0.4941873401279736,0.9998379495400045,0.00017262641195930738
-0.49403179723158247,-0.49403179723158247,1.0000262507029545,0.00017558686318244022
-0.49397417903455787,-0.49397417903455787,1.0002298455077985,0.00016642377291546946
-0.493829064656893,-0.493829064656893,0.9999891312519951,0.00017265125879399335
-0.49370590200123843,-0.49370590200123843,1.0000065526084625,0.0001757942517030257
-0.4935744128531951,-0.4935744128531951,0.9997893183586222,0.00017172719266544956
-0.49345701241181816,-0.49345701241181816,1.000137524262716,0.0001754106226761973
-0.4933729814707476,-0.4933729814707476,0.9998742806920975,0.00017713313779106268
-0.49318130129468046,-0.49318130129468046,1.0001091901501638,0.00017119297604593298
-0.49307296501792736,-0.49307296501792736,0.9998431987938176,0.0001702916126538926
-0.49293468701289384,-0.49293468701289384,1.0000988021442685,0.00017117998528233273
-0.4928314417695219,-0.4928314417695219,1.0002302935680718,0.00017235296725059848
-0.4927213507056877,-0.4927213507056877,0.9999162000303132,0.00017212867635661263
-0.49262801550430596,-0.49262801550430596,0.9999948217150315,0.0001730765515706146
-0.49249648683980923,-0.49249648683980923,0.9998883681041905,0.00016854825369519514
-0.4924201739457203,-0.4924201739457203,1.0002508265696475,0.00017612276585946132
-0.49231375702656804,-0.49231375702656804,1.0003090650726925,0.0001710787577092245
-0.49221160401721137,-0.49221160401721137,1.0002728454038912,0.0001757450088856813
-0.492141300948424,-0.492141300948424,0.999934397390515,0.0001715664366455063
-0.492024155362742,-0.492024155362742,1.0001157256005766,0.00016836787405531017
-0.4919096643017838,-0.4919096643017838,1.0000427189676386,0.00017519883180889439
-0.49178323426967835,-0.49178323426967835,1.0001542000490407,0.0001686107329632987
-0.4916389697224076,-0.4916389697224076,0.9998140644944884,0.00017379271644161538
-0.491484319956362,-0.491484319956362,0.9999888757075668,0.00017098235620189897
-0.49135638191291947,-0.49135638191291947,0.9999433885939488,0.000167487150474414
-0.4911813481434365,-0.4911813481434365,0.9998914936403633,0.0001789888197202772
-0.4910754177501076,-0.4910754177501076,1.0000350787369063,0.00017037882471448247
-0.49095362400767045,-0.49095362400767045,1.0001724996885475,0.00017248704236599036
-0.4908461640254245,-0.4908461640254245,1.0003276388768183,0.0001653738421699515
-0.49074926810499164,-0.49074926810499164,1.0001150885416454,0.00017173638186066247
-0.49064483240435947,-0.49064483240435947,1.0000116939565036,0.00017061092973130062
-0.49054616995563266,-0.49054616995563266,1.000158601405939,0.0001724228679395209
-0.4904469735716702,-0.4904469735716702,0.9998780391930246,0.00016958911367969838
-0.4902862904309586,-0.4902862904309586,0.9998967340675969,0.0001772861183502256
-0.4901758982428873,-0.4901758982428873,0.9999061746169792,0.0001732548442496665
-0.49007315988710615,-0.49007315988710615,1.0002470117361255,0.00016957337341337754
-0.4899325925463927,-0.4899325925463927,0.9998234426845679,0.00017600380263430962
-0.4898102136896341,-0.4898102136896341,0.9997948708167522,0.0001756235455110455
-0.48973740414730854,-0.48973740414730854,1.000028483612526,0.00017030922064750537
-0.4896659227619239,-0.4896659227619239,1.0000879939598164,0.00017635535327281554
-0.489518795600452,-0.489518795600452,0.9998456799431695,0.00017078266643435878
-0.4894685094630404,-0.4894685094630404,1.000136820328975,0.00017416487841203415
-0.48940059300075517,-0.48940059300075517,0.9999323648618045,0.00017493887478810556
-0.48931198948776,-0.48931198948776,0.9999940147523871,0.0001715707169664772
-0.4892223546055902,-0.4892223546055902,1.0001774111805575,0.0001714377371853885
-0.48915726122577324,-0.48915726122577324,1.0000756722268995,0.0001681003788201227
-0.4890876476471021,-0.4890876476471021,0.9997567744996175,0.00020836476764472936
-0.4889766218511795,-0.4889766218511795,0.9998383348986944,0.0001730562228216549
-0.4888487783115124,-0.4888487783115124,1.0001403536608309,0.00017129870549306993
-0.4886892507049197,-0.4886892507049197,0.9999382448745809,0.00017240413664189422
-0.4885767978288641,-0.4885767978288641,1.000347882452063,0.00016474383909132552
-0.48839853166937247,-0.48839853166937247,0.9996956307879543,0.00018463076301781947
-0.4882902464189101,-0.4882902464189101,1.0000663608649494,0.0001701446076861984
-0.48816207320342075,-0.48816207320342075,0.9998149947618105,0.0001744036443600503
-0.4880075896966446,-0.4880075896966446,1.000413316982489,0.00016872255076517392
-0.4879304921159928,-0.4879304921159928,0.9997706123068101,0.00017224745047306425
-0.4877819534223818,-0.4877819534223818,0.999997093498205,0.00017089192733733358
-0.48763166620847187,-0.48763166620847187,0.9999934092868157,0.00017519823847625767
-0.4875149866224092,-0.4875149866224092,0.9998166729097854,0.00016779392784873164
-0.48745185771913385,-0.48745185771913385,1.0004889844429765,0.00017008820444817612
-0.4873620223275793,-0.4873620223275793,0.9996760805145953,0.0001730250515932612
-0.4872991979762446,-0.4872991979762446,0.9999213376917391,0.00017139744817997997
-0.48712251812030444,-0.48712251812030444,1.000022989150116,0.00017482593738087093
-0.48701930875031396,-0.48701930875031396,1.000051615305099,0.00022536721114386755
-0.48694890820552245,-0.48694890820552245,1.0001155432534705,0.00017075335708105504
-0.4868918560350721,-0.4868918560350721,0.9997679220583393,0.00017257201846579428
-0.48680517168249937,-0.48680517168249937,1.0001033984283332,0.00017238183565115089
-0.4866646736227267,-0.4866646736227267,1.0001362964565876,0.00016924432204168418
-0.4864631195589027,-0.4864631195589027,0.9997286425066345,0.0001697552997924893
-0.486354350973852,-0.486354350973852,0.9999898342577431,0.00017410457675719199
-0.48621202328358776,-0.48621202328358776,0.9999479012412336,0.00017231427781764665
-0.4861138259009749,-0.4861138259009749,1.000158972230265,0.00016862964774471388
-0.4859704934147885,-0.4859704934147885,1.0000271235043567,0.0001688647962185082
-0.4858475668959727,-0.4858475668959727,1.0001820750873773,0.00017655668026551018
-0.4857405041802849,-0.4857405041802849,0.9999093423620338,0.0001711112645238544
-0.4856324035761645,-0.4856324035761645,1.0000850943179094,0.0001722055287223368
-0.48553231836413036,-0.48553231836413036,1.0004027960422193,0.00017469182595337802
-0.48541570252054955,-0.48541570252054955,0.9998996261269056,0.00017288312040005533
-0.4853096570717753,-0.4853096570717753,1.0001658567628173,0.000169772304738769
-0.4852453694933502,-0.4852453694933502,1.0001672939159698,0.00017693346244734547
-0.4850605595856905,-0.4850605595856905,1.0000739098135751,0.00017411098508833477
-0.48492929556159653,-0.48492929556159653,1.000079846814669,0.00017462728421060265
-0.48484679482207865,-0.48484679482207865,0.9998521982231796,0.00017658004991621897
-0.48470139914061294,-0.48470139914061294,1.0000565667773282,0.00017441021915669892
-0.48460136606663584,-0.48460136606663584,1.0000864636236255,0.0001793607243703183
-0.48450668138102626,-0.48450668138102626,0.9996292903797244,0.00016997421469823945
-0.48437544798871385,-0.48437544798871385,1.0003186883828874,0.00017720925968389456
-0.4842214316289756,-0.4842214316289756,1.000065701879207,0.00016766205335057177
-0.4841321810061345,-0.4841321810061345,1.0000430599286672,0.00017574255950190113
-0.4840665017210995,-0.4840665017210995,1.0001698253152163,0.00017211004400665325
-0.48397417983433116,-0.48397417983433116,1.0002348033577781,0.00017316610914528853
-0.48387077068691725,-0.48387077068691725,1.0000051533805092,0.00017405009515674812
-0.48373661479417934,-0.48373661479417934,1.0000015399487314,0.00017464645317802815
-0.48367203366433387,-0.48367203366433387,0.9999132112944071,0.00016878475244789845
-0.48356176018351105,-0.48356176018351105,0.9998054900411877,0.00017303044323996328
-0.48344022502060396,-0.48344022502060396,1.0003499077635336,0.0001824133459773972
-0.48332532742424517,-0.48332532742424517,0.9999469985166254,0.0001773740241272273
-0.48320862183900315,-0.48320862183900315,0.9997764928442117,0.00017098156143037767
-0.483066572133248,-0.483066572133248,1.0000732522757807,0.0001681349891047502
-0.48292694347765064,-0.48292694347765064,0.9998051888988065,0.00016917789907251426
-0.48273769420775353,-0.48273769420775353,0.9999650861193718,0.00017156535207756924
-0.4826088448498922,-0.4826088448498922,1.0001028687887707,0.0001688466449928369
-0.48251134803140305,-0.48251134803140305,0.9998427093427118,0.0001778905837291555
-0.4823608929582406,-0.4823608929582406,1.0002944461887346,0.0001745996535142061
-0.48224159302408226,-0.48224159302408226,1.0002406915371356,0.00017383532754126845
-0.48208966995080116,-0.48208966995080116,1.0001793190876707,0.0001738268672626969
-0.48199493801585047,-0.48199493801585047,1.000090914990635,0.0001704435582588037
-0.48190866427321455,-0.48190866427321455,1.0002927703635336,0.00017607793774923375
-0.4818160990311299,-0.4818160990311299,1.000136073182456,0.00016941181564176356
-0.4817093805577315,-0.4817093805577315,1.0001965400689088,0.00017028877052875142
-0.48158916078391484,-0.48158916078391484,1.0000402702947455,0.00017553844426361186
-0.48148393934461636,-0.48148393934461636,0.9996052040402787,0.00017429178213734483
-0.48134304154446,-0.48134304154446,1.0001327622342928,0.0001734804929585883
-0.48113298240568836,-0.48113298240568836,1.000388494404054,0.00016865684697639887
-0.4809933559707133,-0.4809933559707133,1.0001604411751226,0.000176309869391789
-0.4809007323689002,-0.4809007323689002,1.0001628494071444,0.0001748354161991152
-0.48074650025882876,-0.48074650025882876,0.999985423988736,0.00017015732168701664
-0.48058438816442506,-0.48058438816442506,1.0000407550124157,0.00018119799156628705
-0.4804443111977889,-0.4804443111977889,0.9999588920855749,0.00017527958834826122
-0.4803287856528186,-0.4803287856528186,1.0001895981906366,0.00017566607064549162
-0.48021695064744563,-0.48021695064744563,0.9998603732287702,0.00016998224330003173
-0.480050203367864,-0.480050203367864,0.999810774123252,0.0001736331043776058
-0.47987138287135167,-0.47987138287135167,1.0002295765817308,0.00017285552417898735
-0.47973860616912134,-0.47973860616912134,0.9999173043234725,0.00017328530064068533
-0.4796133358962834,-0.4796133358962834,1.0000269667522683,0.00017353905413792565
-0.47953408485991533,-0.47953408485991533,1.000034113827987,0.00017306401472684473
-0.47942334552353716,-0.47942334552353716,1.0001145397362445,0.0001720658377220642
-0.47932117735399515,-0.47932117735399515,1.0002173429824022,0.00017434084156334756
-0.4792296769119275,-0.4792296769119275,1.0001619753108582,0.00017252103182461334
-0.47915874718601115,-0.47915874718601115,1.0000617144522337,0.00017641079872326597
-0.4790684461018827,-0.4790684461018827,1.0000199218880492,0.00017069148751584258
-0.47893702277797273,-0.47893702277797273,1.000119509989364,0.0001740288284200925
-0.47883871699741576,-0.47883871699741576,0.9998025220139644,0.00017266476420436626
-0.47874903549454756,-0.47874903549454756,1.000067980560523,0.0001742349670650191
-0.47865192169483634,-0.47865192169483634,0.9996610328129176,0.00018058942793964253
-0.47851700681785586,-0.47851700681785586,1.0001790602603955,0.00017115034363678899
-0.47838029632912366,-0.47838029632912366,0.9997884267412964,0.00017203591178703125
-0.47827948312988156,-0.47827948312988156,0.999861247757182,0.00016816206971954182
-0.478134930475062,-0.478134930475062,0.9998745376557334,0.00017466717360341364
-0.4780259558669059,-0.4780259558669059,1.0001496797931688,0.0001722702321787986
-0.47791717994914507,-0.47791717994914507,1.0000946720188462,0.0001842160703267191
-0.477748841806897,-0.477748841806897,0.9999670188194567,0.0001744047206941977
-0.47768743171618555,-0.47768743171618555,0.9998566714081394,0.00017033092805318617
-0.47752952936134535,-0.47752952936134535,1.0001818648728136,0.0001720629479450058
-0.47742789407566305,-0.47742789407566305,1.0000119112240662,0.0001767968571948451
-0.47728736172866776,-0.47728736172866776,0.9998229319371047,0.00017353252411980968
-0.47721545110907754,-0.47721545110907754,0.9999778030162823,0.0001702410167372482
-0.47712798057837064,-0.47712798057837064,1.000100299385773,0.00016765195586390075
-0.477051788756944,-0.477051788756944,0.9997638084095802,0.00017181588320084332
-0.476997483260493,-0.476997483260493,1.0004161229986566,0.00017646257266170067
-0.4768633615349245,-0.4768633615349245,1.0001256523066047,0.00017475763758621385
-0.4767287450071308,-0.4767287450071308,0.999951882977604,0.00017622466558214365
-0.4766299835842801,-0.4766299835842801,1.0000527700782151,0.0001734363537584739
-0.476552161420841,-0.476552161420841,0.9997473741322114,0.00017388742153663932
-0.47647102767659816,-0.47647102767659816,1.0000287681710336,0.00017461741156989317
-0.47635443641556774,-0.47635443641556774,0.999990574287202,0.0001657929355024317
-0.47625802347320134,-0.47625802347320134,1.0000808561758283,0.00017683544683805811
-0.4761240379542869,-0.4761240379542869,0.999847597750709,0.00017094595593248723
-0.476046697946731,-0.476046697946731,0.9999202329295755,0.00016988771712179095
-0.47590871214997604,-0.47590871214997604,1.0001469199031827,0.00017405794059449295
-0.47584713549076696,-0.47584713549076696,0.999999604984142,0.00016780004463989807
-0.47574685449144455,-0.47574685449144455,0.9998844594805675,0.00016820406371351106
-0.47562954427557996,-0.47562954427557996,1.0001649741347594,0.00016627309142320731
-0.47549358319156454,-0.47549358319156454,0.9999929747310823,0.00017892603986835998
-0.4754172427710728,-0.4754172427710728,0.9998399545283352,0.00017619945215872985
-0.4753262602345785,-0.4753262602345785,1.0003267269742562,0.00016920107261272584
-0.47518067052878904,-0.47518067052878904,1.0001007153720838,0.00016665280317815361
-0.4750589164243138,-0.4750589164243138,1.000086688645911,0.0001756516537385669
-0.47491579124107375,-0.47491579124107375,0.9999756688925674,0.00017225066512674905
-0.474739113549731,-0.474739113549731,0.9999754323658397,0.0002175057575783746
-0.47463888360289275,-0.47463888360289275,1.0001727676300909,0.000183052233508924
-0.4745456594355346,-0.4745456594355346,0.999737679457736,0.00017343631886496808
-0.4744252993426926,-0.4744252993426926,0.9999278094653116,0.00017639403933966062
-0.4743094123325136,-0.4743094123325136,1.0003353436968392,0.00017702872251682184
-0.4741854151870939,-0.4741854151870939,0.9997819535148651,0.00017234262879805046
-0.47411373010254465,-0.47411373010254465,0.9999231250418681,0.0001757470009920487
-0.47401328032938184,-0.47401328032938184,0.9999744937776949,0.00017040985704741996
-0.4738936317182379,-0.4738936317182379,0.9999913148997284,0.00017264115087757185
-0.4738308930696803,-0.4738308930696803,0.9998854813948638,0.0001756480368338548
-0.4737668491034128,-0.4737668491034128,1.0000261032350601,0.00016610667384626878
-0.47369443328061606,-0.47369443328061606,0.9999321984201058,0.00017484857931590508
-0.47363225775843604,-0.47363225775843604,0.9999661533743032,0.00021188297885432568
-0.47351902948212227,-0.47351902948212227,0.999975295770138,0.0001730476182623879
-0.473452359627845,-0.473452359627845,0.9998378752551792,0.00017094646605610246
-0.47332753905284336,-0.47332753905284336,0.9998177969045688,0.00017157235210345546
-0.4731948784654378,-0.4731948784654378,1.0000650671710019,0.0001751435151678055
-0.4731053905452427,-0.4731053905452427,0.9998502083856395,0.0001801592273000928
-0.4729965194121178,-0.4729965194121178,0.9999368369938886,0.00017200946393695725
-0.47292493910354094,-0.47292493910354094,1.0003028833550465,0.0001644377269406697
-0.4727238402323565,-0.4727238402323565,0.9999967522719195,0.0001748151107857787
-0.47262345078852375,-0.47262345078852375,0.9997992887827806,0.00021174417818458475
-0.4724099822997232,-0.4724099822997232,1.0000190330617955,0.00017291614372650437
-0.4722799794624734,-0.4722799794624734,1.0002165142983213,0.00017447110762401304
