time,time,flux,flux_err
-0.4999158815350408,-0.4999158815350408,1.0001356171278977,0.0001783411488918962
-0.49971386352960206,-0.49971386352960206,0.999972504070913,0.00018445935615466256
-0.49958528404276875,-0.49958528404276875,0.9999295999776738,0.0001792737090036497
-0.4994755931405962,-0.4994755931405962,0.9999414009981734,0.0001695399481574858
-0.499354615991615,-0.499354615991615,0.9999861370860529,0.00016398176410109698
-0.4992513278739352,-0.4992513278739352,1.000313883949705,0.00016994870878697622
-0.4991306351348612,-0.4991306351348612,0.9999587899471749,0.00016517326121744255
-0.49907784187780635,-0.49907784187780635,0.9998692371310496,0.00016660575513633246
-0.49892443676144466,-0.49892443676144466,0.9999978135231838,0.00017316250069631477
-0.49873581558240404,-0.49873581558240404,0.9999758149519782,0.0001683029632863138
-0.4985414861712343,-0.4985414861712343,1.0000851122872985,0.00017483038257546586
-0.4984508149791509,-0.4984508149791509,0.9995944514586667,0.0001750904641642219
-0.4982811576188396,-0.4982811576188396,0.9999817886911158,0.00016542972971292857
-0.4979713878892653,-0.4979713878892653,1.000199555770136,0.0001721711036507169
-0.4978452849551104,-0.4978452849551104,1.000219175881032,0.00017416006848915933
-0.49766254600581306,-0.49766254600581306,1.000085981858173,0.00017672069151971183
-0.497480160212217,-0.497480160212217,0.9999275476389695,0.00016808434933500576
-0.4973419608311815,-0.4973419608311815,0.9999071478911622,0.00016911044138827243
-0.4972367514790676,-0.4972367514790676,0.9998637823473938,0.00017117868642212606
-0.4971692423150671,-0.4971692423150671,1.0000501976449927,0.0001711196293712678
-0.4971006083291286,-0.4971006083291286,0.9998724728118304,0.00017427288541058098
-0.49698888650418666,-0.49698888650418666,1.0002452840669496,0.00017035017887314312
-0.4967978157554171,-0.4967978157554171,0.9997005409514073,0.0001660903628258323
-0.4965759958427952,-0.4965759958427952,0.9998475186363247,0.0001644137990799728
-0.49635127665969775,-0.49635127665969775,0.9998831467849085,0.0001724139280865835
-0.4960976806250983,-0.4960976806250983,1.00017695315296,0.00017221536718926565
-0.4959683850560396,-0.4959683850560396,1.0001676459648563,0.00017247965525610774
-0.4958236691352795,-0.4958236691352795,1.000189128128961,0.0001766671989161527
-0.4956721270340495,-0.4956721270340495,0.9998570650842069,0.00016320856039852807
-0.4955249619964889,-0.4955249619964889,1.0003065694710955,0.00016316269135547453
-0.49540935867262303,-0.49540935867262303,0.9997648851200067,0.0001705743957066541
-0.4952838719371357,-0.4952838719371357,1.0002541008941204,0.0001719284450950664
-0.49518993605342987,-0.49518993605342987,1.0000300330173377,0.00017027939637339473
-0.495059874454455,-0.495059874454455,1.0000359908284222,0.00017071584729187956
-0.4949554363545758,-0.4949554363545758,0.9998417314702343,0.00016713882720290825
-0.4947737055859761,-0.4947737055859761,1.0001320395513427,0.00016689083877140904
-0.4945053644882137,-0.4945053644882137,0.9999313878916143,0.0001696682736444546
-0.4943111156237137,-0.4943111156237137,1.0000805598742724,0.00016549528196760997
-0.4942151061230106,-0.4942151061230106,0.999971918856718,0.00017294114979255214
-0.4941373264995491,-0.4941373264995491,1.0000118970438316,0.0001651959479534894
-0.49405810541829853,-0.49405810541829853,1.0000606325337005,0.0001769941977004388
-0.49389992776341385,-0.49389992776341385,0.9998950966514204,0.00016780166138180515
-0.4936609214211785,-0.4936609214211785,1.0003001163684515,0.00016522179618062282
-0.4934841180780495,-0.4934841180780495,0.9999589686341459,0.0001692675184681891
-0.49337252067525694,-0.49337252067525694,0.99983123629684,0.0001789402900258245
-0.493278678025672,-0.493278678025672,0.9998653750749036,0.00016329883781752104
-0.4931740656174952,-0.4931740656174952,1.0000460974380343,0.00017678227899778202
-0.4930738104205375,-0.4930738104205375,1.0001660223887114,0.0001695285828391154
-0.49297723802410476,-0.49297723802410476,0.9998780779128678,0.00016298116626591827
-0.4929070227837656,-0.4929070227837656,0.999832083132761,0.00016827899547520612
-0.4928090292716661,-0.4928090292716661,0.9999325899727192,0.0001697816558474062
-0.4925998141603486,-0.4925998141603486,0.999993965757765,0.00017024087011835697
-0.4923811384171131,-0.4923811384171131,1.0002002762545774,0.0001734995505413085
-0.4922767532243597,-0.4922767532243597,0.9999599968118892,0.00017596059124771947
-0.4920325739629334,-0.4920325739629334,1.0002776207484527,0.00016614130778026286
-0.491775393674834,-0.491775393674834,0.9999009934948047,0.0001690631480847195
-0.49161655450261604,-0.49161655450261604,1.0001421274924343,0.00017435689181548604
-0.49137984341832636,-0.49137984341832636,1.0000543249497658,0.00017187417910217987
-0.4912135199087061,-0.4912135199087061,1.0000092245510508,0.00016938158073780935
-0.4910646034470119,-0.4910646034470119,1.0002243988891102,0.0001756511092243143
-0.49098488137424284,-0.49098488137424284,0.9998759641839868,0.00016947076496415174
-0.4909234180482599,-0.4909234180482599,0.9999685770645839,0.00017494921740407451
-0.490853471691662,-0.490853471691662,1.0002449944617222,0.00017679812051642928
-0.4907464837331645,-0.4907464837331645,0.9999780019218159,0.00016927669463826978
-0.49059773106055216,-0.49059773106055216,1.0000400088256307,0.0001707046865560751
-0.49036867425566016,-0.49036867425566016,1.0002500508275367,0.00016428463573235622
-0.4900377979443874,-0.4900377979443874,0.9999384492396347,0.00017407524805263119
-0.4898398566296237,-0.4898398566296237,0.9998907918978727,0.0001747039225805888
-0.48970086199806245,-0.48970086199806245,1.000111127466225,0.00017353593093050767
-0.48957197448216905,-0.48957197448216905,1.0003110886913547,0.00016236051196626047
-0.4894093030477961,-0.4894093030477961,0.9999909339993109,0.0001659202407631723
-0.48925948456235346,-0.48925948456235346,0.9999270872515618,0.00016793654555097583
-0.4891666876279487,-0.4891666876279487,0.9999114254334087,0.0001692690756084153
-0.48900754766436877,-0.48900754766436877,1.0000595439510007,0.00016520779408777154
-0.4888985592959216,-0.4888985592959216,0.999853031716176,0.0001738960043468423
-0.4887755094761815,-0.4887755094761815,1.0001273660086063,0.00016591389103765532
-0.4886521293901751,-0.4886521293901751,0.9999647582346437,0.00016341367520677502
-0.48847354571771573,-0.48847354571771573,1.0000899411295432,0.00016442331024272647
-0.488290469155254,-0.488290469155254,1.0001435036055368,0.00017006451911413768
-0.4881563529339473,-0.4881563529339473,1.000054505334764,0.00017141690297492568
-0.488055885257927,-0.488055885257927,1.0000331533981257,0.0001678053145469901
-0.4879675397514802,-0.4879675397514802,0.9998588686439129,0.0001716674538737387
-0.48784801872570827,-0.48784801872570827,0.999883674835508,0.0001738296570719192
-0.48768558892443253,-0.48768558892443253,0.9999181721607975,0.00016197037741575487
-0.48752655295320435,-0.48752655295320435,1.0001236314115463,0.0001651532009401408
-0.48731950013425374,-0.48731950013425374,1.0002900704710698,0.00016901942516060715
-0.4871875798402471,-0.4871875798402471,1.0000172262153388,0.00017430543657702256
-0.4870743231243978,-0.4870743231243978,0.9999536816786485,0.00016682385397345374
-0.4869475260096806,-0.4869475260096806,1.0000872876558566,0.0001603459658150447
-0.48684935205055807,-0.48684935205055807,0.9998482395794586,0.00017142366330134495
-0.4867443999588431,-0.4867443999588431,0.9999618513861162,0.00016334289357706274
-0.48666666152930704,-0.48666666152930704,1.0002427409933268,0.00017183608559108752
-0.48647275948969765,-0.48647275948969765,1.0003545251459731,0.0001708744030840626
-0.4861878424584575,-0.4861878424584575,0.9999942262651833,0.0001736297725623463
-0.48610033493168886,-0.48610033493168886,0.999926295494523,0.00016971215086332233
-0.4859721566175722,-0.4859721566175722,1.0000031785732273,0.00016853521637830371
-0.4857329217775259,-0.4857329217775259,1.000013656831436,0.0001698707637940383
-0.4855327253830183,-0.4855327253830183,0.9997385068943252,0.0001783882254286637
-0.4853600108097453,-0.4853600108097453,0.9998687117099072,0.00017719951986111554
-0.48512445410669897,-0.48512445410669897,0.999926557710513,0.00016321219139016962
-0.4849643230798392,-0.4849643230798392,0.9999985296880942,0.0001686544040286543
-0.4848630555043201,-0.4848630555043201,1.0002520201323732,0.0001726235437211698
-0.48478270430568954,-0.48478270430568954,0.9998818356842468,0.00017261922589701544
-0.4847067449652968,-0.4847067449652968,1.00018783527335,0.0001714878512458851
-0.48459875064691005,-0.48459875064691005,1.000318643485907,0.00017433645115916635
-0.4843509437279863,-0.4843509437279863,1.000008222183527,0.00016901060196138922
-0.48413900613377336,-0.48413900613377336,1.0000491127065076,0.00016349386829885736
-0.4838483803439885,-0.4838483803439885,1.0001052630543594,0.00017643881982354527
-0.4836489482851903,-0.4836489482851903,1.0001320691859292,0.00017477473272443561
-0.48346691902006567,-0.48346691902006567,1.0001907538098425,0.0001703569294008758
-0.4832539703871589,-0.4832539703871589,1.0000324673582648,0.00016451822754148866
-0.4830890143119177,-0.4830890143119177,1.0000295869119327,0.00016619538081970623
-0.48298360436237997,-0.48298360436237997,0.9999992496479745,0.00016906991032145536
-0.4828109519203281,-0.4828109519203281,0.9999887452239185,0.0001677529356073256
-0.482703452896385,-0.482703452896385,1.0000560406478114,0.0001739858851757445
-0.48259425361793545,-0.48259425361793545,0.9999769474927716,0.0001691015393805372
-0.48248708768660437,-0.48248708768660437,0.9999921812048502,0.0001633405761165544
-0.4822744599063299,-0.4822744599063299,0.9997811418098237,0.00016543021766004764
-0.4820670692351996,-0.4820670692351996,0.999742553979198,0.00018674623811273017
-0.4819013738546346,-0.4819013738546346,1.0002476007226293,0.00016464178985589077
-0.48181616205074534,-0.48181616205074534,1.0000139622708644,0.0001698185830566891
-0.48171573987492594,-0.48171573987492594,1.0001586283749275,0.00017291264726494948
-0.48162859656113144,-0.48162859656113144,1.0001121662539794,0.00017016895289242813
-0.48144366719752724,-0.48144366719752724,0.9997663008744535,0.0001619116632589679
-0.48124140618274397,-0.48124140618274397,1.0001883328631647,0.00016585917794685354
-0.48108001340988266,-0.48108001340988266,0.9997601366804281,0.00017101846916549806
-0.4809054698038381,-0.4809054698038381,0.9997672258114841,0.00016772479286122574
-0.48072921975544886,-0.48072921975544886,1.0001221922516774,0.00016937920385709117
-0.4806331015781325,-0.4806331015781325,1.0002137496322814,0.00017422840084102355
-0.4805347671110212,-0.4805347671110212,0.9998142784963509,0.00016643737212815134
-0.4804689306231012,-0.4804689306231012,1.0000113473782215,0.0001635836624399226
-0.4803613767562638,-0.4803613767562638,0.9997506566795231,0.00017317067829008607
-0.48012431811584977,-0.48012431811584977,0.9999488396342814,0.00016720955599734574
-0.47993214309826726,-0.47993214309826726,0.9998519420199532,0.00016955616705070203
-0.4798003633863118,-0.4798003633863118,1.0001884724668746,0.00016649215847289054
-0.47968073911906683,-0.47968073911906683,0.9998622962320987,0.00016983263562524037
-0.47946966869712926,-0.47946966869712926,1.0000988824830483,0.00017132658796243123
-0.47927066022530196,-0.47927066022530196,1.0000933186815388,0.00017601480016083407
-0.4790852911555703,-0.4790852911555703,1.0000075296572901,0.00017125267017671747
-0.4789497733592725,-0.4789497733592725,1.000005332789966,0.00016513348081354686
-0.4788328167880536,-0.4788328167880536,1.0001231081741737,0.0001660388510694082
-0.47872370449294976,-0.47872370449294976,1.000048069424572,0.00016885613207769855
-0.47865145457217295,-0.47865145457217295,0.9999256455909652,0.00017319209214035125
-0.4785746687764913,-0.4785746687764913,1.000093909467691,0.00017446557995636538
-0.4784652509148145,-0.4784652509148145,0.9997846710158447,0.00017436898492666496
-0.4782663889269315,-0.4782663889269315,0.9997564258688104,0.00017520479281535496
-0.47804728746159525,-0.47804728746159525,0.9998005991583876,0.00016964410121418676
-0.47786346486609543,-0.47786346486609543,0.9999477586371501,0.00016342774646394237
-0.47761803667162894,-0.47761803667162894,1.0001642706866998,0.00017847120517138214
-0.4774417903026915,-0.4774417903026915,0.9999554777384685,0.0001695956518074925
-0.47729358438919006,-0.47729358438919006,1.000076702578412,0.0001753070470903886
-0.4770928456910042,-0.4770928456910042,0.9998871371121545,0.00016607369719618802
-0.4769587267746829,-0.4769587267746829,0.9999914294869507,0.00016154696852236885
-0.4768515240215493,-0.4768515240215493,1.0000949061848807,0.0001687110077269457
-0.4766962722274911,-0.4766962722274911,0.9999118927529995,0.00017305101446614992
-0.4765607502475177,-0.4765607502475177,0.9999241965103416,0.00016876994493144698
-0.47647315374124444,-0.47647315374124444,1.0000781499662634,0.00017222700516132366
-0.4763665058831975,-0.4763665058831975,0.9999103617137453,0.00016652080833521416
-0.47619991819374263,-0.47619991819374263,0.9996951439081944,0.00016396689478210663
-0.4759937570361217,-0.4759937570361217,0.9999202228252333,0.00016624355861034852
-0.4758575081516028,-0.4758575081516028,1.0002594169200685,0.00018886658739481553
-0.4756930953306437,-0.4756930953306437,0.9999385556111674,0.00016757570050868916
-0.47560135973835715,-0.47560135973835715,0.9998493557366176,0.00017300317675931093
-0.47548542936710875,-0.47548542936710875,1.0000385122024447,0.0001754255673463576
-0.47533539120522617,-0.47533539120522617,0.999921876951617,0.00016340019708646825
-0.4751779970472853,-0.4751779970472853,1.0002698743709824,0.00016286540955565777
-0.47496770591533277,-0.47496770591533277,1.0001593465960605,0.0001685804731596427
-0.47477397932598253,-0.47477397932598253,0.9998961492962607,0.000173059194323983
-0.47456806571899507,-0.47456806571899507,0.9999140640429014,0.00016990550328574382
-0.4744588103138085,-0.4744588103138085,0.9999578706129622,0.0001656368959947893
-0.4743360991073132,-0.4743360991073132,0.9996865452679808,0.00016734240209812862
-0.4742422627783526,-0.4742422627783526,1.0003819071767794,0.0001681128047366334
-0.4741185773771576,-0.4741185773771576,1.0000576009227937,0.00017855803322577147
-0.47389735731158,-0.47389735731158,0.99970323144118,0.00017161172668867728
-0.4737238239875296,-0.4737238239875296,0.999927684546501,0.00017124299620868805
-0.4735777728670655,-0.4735777728670655,1.000098013749391,0.00017620480342146869
-0.47334122682987073,-0.47334122682987073,1.0004811372874396,0.00017241999204900785
-0.47313073863479077,-0.47313073863479077,1.0001997569317331,0.0001698190329772295
-0.472914107784527,-0.472914107784527,0.9999230363394236,0.00017571989294461518
-0.4727309508449252,-0.4727309508449252,1.0002281443761698,0.00016392273507927395
-0.47257755381324384,-0.47257755381324384,1.0000451220841282,0.00017337517790628402
-0.47249130110394616,-0.47249130110394616,0.9998899225224875,0.00017437453779701299
-0.4724080860160029,-0.4724080860160029,1.0002148290698676,0.00017264704767548227
-0.47233091078051076,-0.47233091078051076,1.0000238899851905,0.00017153710333420576
-0.47221180109627314,-0.47221180109627314,0.9997473600895395,0.0001690202644063264
-0.47200253471819453,-0.47200253471819453,1.000191346734908,0.00016138112756683084
-0.4718458474148065,-0.4718458474148065,0.9998883193756744,0.0001742434404113792
-0.4716084740382939,-0.4716084740382939,0.9999168005417912,0.00017421801503439597
-0.47130315615286233,-0.47130315615286233,0.999633929051239,0.0001729446258885694
-0.47113562536505926,-0.47113562536505926,1.0000083674782216,0.0001769632107693914
-0.470888622827988,-0.470888622827988,1.000005202281314,0.0001632239389493384
-0.4707543901673489,-0.4707543901673489,0.9999682011070558,0.00016610559966642643
-0.47060137507251054,-0.47060137507251054,0.9999133728214675,0.0001690670842728463
-0.47043613508685667,-0.47043613508685667,0.9999413413224574,0.00016614642453312802
-0.47034737241629043,-0.47034737241629043,1.0000997983739595,0.00016797082438490797
-0.47027795638714454,-0.47027795638714454,0.9999290480500171,0.00017723163140688448
-0.47015823505280424,-0.47015823505280424,0.9999683850769208,0.00016799517408735764
-0.4700136661362194,-0.4700136661362194,1.0000757600390446,0.00016617888591531364
-0.4698551250490709,-0.4698551250490709,1.0000104065465516,0.00016624809254356474
-0.46964074602365147,-0.46964074602365147,1.000135365356055,0.0001771896184005587
-0.4694762902588991,-0.4694762902588991,1.0000711302404188,0.00016692182981384424
-0.46938666605492474,-0.46938666605492474,0.9997180707128159,0.0001749296433145458
-0.4692695270296099,-0.4692695270296099,1.0003153785789822,0.0001740608215864877
-0.46905135183551466,-0.46905135183551466,1.0001626194429925,0.00016117355487431248
-0.4688263240943343,-0.4688263240943343,0.9999736619136058,0.0001669053190518854
-0.4686319346201344,-0.4686319346201344,1.000021281138142,0.0001745564602919527
-0.4684044474393886,-0.4684044474393886,1.0000412532840282,0.00016399889705148702
-0.4682901351199689,-0.4682901351199689,0.9996529037940622,0.00016969412348908085
-0.4682160826912877,-0.4682160826912877,1.0000229855668252,0.00016839848857908222
-0.468148779384137,-0.468148779384137,1.0000135611184422,0.0001722816688843201
-0.4680849745043815,-0.4680849745043815,0.9997804593391134,0.0001716226204062159
-0.46793116507506055,-0.46793116507506055,0.9998178459627223,0.00018604913001365645
-0.4677118322808383,-0.4677118322808383,1.0001594994964689,0.0001684254728928234
-0.4675240041240613,-0.4675240041240613,0.9999365769596654,0.0001699762248355187
-0.46740276860982705,-0.46740276860982705,1.0000992268707523,0.0001629150183164827
-0.4671985482360469,-0.4671985482360469,0.9999357701478534,0.000175690930164285
-0.4669302397291176,-0.4669302397291176,1.000238734653245,0.00017191995257695908
-0.46672859966929536,-0.46672859966929536,1.0001960459454273,0.00017452067034359663
-0.4665672890947462,-0.4665672890947462,1.0000395627755345,0.00016520632340327515
-0.46638824499787007,-0.46638824499787007,0.9999840173965046,0.00017384875231757788
-0.46627137493160264,-0.46627137493160264,0.9999831235788961,0.0001694576717123024
-0.466187224469104,-0.466187224469104,1.0001880061273032,0.00017446095357293297
-0.4660989585245261,-0.4660989585245261,0.9997306424473622,0.0001747897815220095
-0.4659372198337223,-0.4659372198337223,1.0002954594699158,0.00016673736491103604
-0.4656651182252972,-0.4656651182252972,1.0003412959555191,0.00016951802202597475
-0.46544703930194375,-0.46544703930194375,1.000191090259644,0.00017429716316582136
-0.46517782535374863,-0.46517782535374863,1.0003158984258593,0.0001717714991485301
-0.4650417954202567,-0.4650417954202567,1.0000629458742867,0.0001659695276743107
-0.46491120728678653,-0.46491120728678653,0.9999720154562706,0.00016850257333535067
-0.46472011556325016,-0.46472011556325016,0.9998294984699545,0.00016893853138027928
-0.46462713021974195,-0.46462713021974195,0.9999671401993202,0.00016229827320615598
-0.4644732897522772,-0.4644732897522772,0.9998174028682796,0.00016856960088537404
-0.464329114818247,-0.464329114818247,1.0002026460566213,0.00016567051684623907
-0.46420316178373466,-0.46420316178373466,0.999956883933297,0.00017192331983370446
-0.4640994855471945,-0.4640994855471945,0.9999906561183896,0.00016783365274979756
-0.4639710624353029,-0.4639710624353029,0.9999694452517833,0.00016985051464098424
-0.4638324050447409,-0.4638324050447409,1.0002882176011998,0.00016580167820195787
-0.4637237063994689,-0.4637237063994689,1.0000834584794553,0.0001666204882029288
-0.4635468121206941,-0.4635468121206941,0.9998982845475645,0.0001682824579228412
-0.4633645120939036,-0.4633645120939036,1.0000879142132804,0.00017087889593775835
-0.46323761153907983,-0.46323761153907983,1.000020804085354,0.00017133310930920572
-0.463122371553618,-0.463122371553618,1.0000694238284802,0.0001713599379209516
-0.4629550226520223,-0.4629550226520223,0.999832292286877,0.0001680543417179158
