time,time,flux,flux_err
-0.49995335199340235,-0.49995335199340235,0.9998887052261045,5.109332735770964e-05
-0.4998285476898066,-0.4998285476898066,0.9999102535992792,5.139029658884324e-05
-0.499644507418149,-0.499644507418149,0.9999957263875711,5.1266265103363476e-05
-0.499502431246583,-0.499502431246583,0.9999382996704299,5.157158681195712e-05
-0.499402612360791,-0.499402612360791,0.9998666384618213,4.689352906815334e-05
-0.49934264204966894,-0.49934264204966894,0.9999722488271775,4.7115254671447734e-05
-0.49923356112485634,-0.49923356112485634,1.0000010847719976,4.670851785546042e-05
-0.4990355588059174,-0.4990355588059174,0.9998470207150184,4.711471316938383e-05
-0.4988748562791443,-0.4988748562791443,0.9999761094443782,4.6641335834193926e-05
-0.4987544541800162,-0.4987544541800162,0.9999988569552141,4.668932266602319e-05
-0.49867177247324435,-0.49867177247324435,1.0000211357803657,4.689996329207522e-05
-0.49859692339414324,-0.49859692339414324,1.0000540376696214,4.71381717700406e-05
-0.49854173492967674,-0.49854173492967674,0.9999474848815411,4.68452590846927e-05
-0.4984798029767262,-0.4984798029767262,1.0000123818922733,4.6732220149971196e-05
-0.49833053964393914,-0.49833053964393914,1.0001076393135733,4.677146904342367e-05
-0.4981651771264296,-0.4981651771264296,0.9999086018637644,4.706554777972725e-05
-0.4979862250704173,-0.4979862250704173,1.0000980073097154,4.6668516903789575e-05
-0.4978661051198287,-0.4978661051198287,1.0000078304767863,4.698573423279744e-05
-0.49772646487654126,-0.49772646487654126,1.0000808488555588,4.6759988455705406e-05
-0.4976647155974206,-0.4976647155974206,0.9999607989566158,4.675014241104931e-05
-0.4975901151225116,-0.4975901151225116,0.9998975890595456,4.66057032733778e-05
-0.49738015962720966,-0.49738015962720966,1.0000236922637746,4.68142809013869e-05
-0.4972521530486119,-0.4972521530486119,0.9998844433219796,4.7031076652630496e-05
-0.4970919897554268,-0.4970919897554268,1.0000228255297743,4.690037404796935e-05
-0.4969928044694825,-0.4969928044694825,1.0000510562538107,4.6818241399186866e-05
-0.4968932708685315,-0.4968932708685315,0.9999624836975556,4.684113735930648e-05
-0.49681053593558316,-0.49681053593558316,0.999945152446687,4.703501332255779e-05
-0.49674131294668766,-0.49674131294668766,1.0000687237761217,4.69080022917776e-05
-0.4965653167833807,-0.4965653167833807,0.9999123305987704,4.682035895049083e-05
-0.496474271763509,-0.496474271763509,0.9998710423361479,4.6952970193024166e-05
-0.4963641336311412,-0.4963641336311412,0.9999580036498934,4.656043009458196e-05
-0.496254127686916,-0.496254127686916,1.0000496938391916,4.691636427817208e-05
-0.4961561547788733,-0.4961561547788733,1.0000380456659517,4.691880004108484e-05
-0.49604518507112516,-0.49604518507112516,1.000073620335614,4.705426018918299e-05
-0.49595821640941723,-0.49595821640941723,0.9999650099909434,4.7126885596032274e-05
-0.49584179941230105,-0.49584179941230105,1.0000188092452185,4.704757028079762e-05
-0.49569593290543706,-0.49569593290543706,1.0000104736959075,4.697481317500678e-05
-0.4955450042092707,-0.4955450042092707,1.0000078873576725,4.692261737231666e-05
-0.4954185567734385,-0.4954185567734385,1.0000631252921839,4.6659658078765114e-05
-0.4953112222803611,-0.4953112222803611,0.9999912485430397,4.699519284946732e-05
-0.4952305669889029,-0.4952305669889029,0.9999261943203723,4.7060886043146365e-05
-0.4951475227895571,-0.4951475227895571,0.999861818299731,4.687663041219875e-05
-0.49500311132360364,-0.49500311132360364,0.9999780809373544,4.681593160642313e-05
-0.49484910717401365,-0.49484910717401365,0.9999347733845617,4.68875788215213e-05
-0.49469210280694825,-0.49469210280694825,0.999901822571452,4.6596409369349636e-05
-0.4945801075416966,-0.4945801075416966,0.9999265579527276,4.6721583178590666e-05
-0.4945009393712098,-0.4945009393712098,0.9999816808436839,4.7133976362979335e-05
-0.49442559626077126,-0.49442559626077126,0.9999516210299,4.704650902138351e-05
-0.4943366894774954,-0.4943366894774954,0.9998657625955586,4.706406184223852e-05
-0.49406731648632557,-0.49406731648632557,1.0000060653380696,4.733420212197292e-05
-0.49389552394459313,-0.49389552394459313,0.9999161384895029,4.630841472737783e-05
-0.4937620427495858,-0.4937620427495858,1.0000061297498768,4.698524662523633e-05
-0.49367823417233014,-0.49367823417233014,0.9998958483876356,4.681377559581299e-05
-0.49361084879965345,-0.49361084879965345,0.9999435187638517,4.686321130170205e-05
-0.49353976090242213,-0.49353976090242213,0.9998224400007256,4.712718168381628e-05
-0.4934295820316038,-0.4934295820316038,1.0001330167624853,4.736990829524348e-05
-0.4932218541376642,-0.4932218541376642,0.9998371372839202,4.687038169346883e-05
-0.493094154713981,-0.493094154713981,0.9999884672163233,4.629436415841555e-05
-0.49297929180029315,-0.49297929180029315,0.9999325430398033,4.640627914391021e-05
-0.4928884949324129,-0.4928884949324129,0.9999690181661837,4.736678919716196e-05
-0.4928044328647957,-0.4928044328647957,1.0000565991127555,4.699631957053969e-05
-0.4927405226928386,-0.4927405226928386,0.999992300837594,4.715495469177899e-05
-0.4926060021516605,-0.4926060021516605,1.0001004703535472,4.7298838156742545e-05
-0.4924030860165658,-0.4924030860165658,1.0000058115702946,4.70166780210048e-05
-0.492255697229848,-0.492255697229848,1.000023488678221,4.633483813547533e-05
-0.49211232689849566,-0.49211232689849566,1.0000155119012155,4.679866599218461e-05
-0.4920222949513118,-0.4920222949513118,0.9999506027843215,4.690747923396592e-05
-0.49192343746362893,-0.49192343746362893,1.000045198825236,4.719795423044343e-05
-0.49181502875944716,-0.49181502875944716,0.9998770121098571,4.741615030464957e-05
-0.4916609063584474,-0.4916609063584474,0.9999392874444387,4.640455404816325e-05
-0.491462479357142,-0.491462479357142,0.999993239184748,4.642477137392499e-05
-0.49126954635066794,-0.49126954635066794,1.0000201698232491,4.7020929161608684e-05
-0.4911655647894804,-0.4911655647894804,1.0000176084760324,4.674313439694077e-05
-0.4910133502587996,-0.4910133502587996,1.0001046943707563,4.712535042754058e-05
-0.4908344098799716,-0.4908344098799716,1.0000289520567325,4.6639502314376426e-05
-0.49062753567559414,-0.49062753567559414,0.999925496368224,4.651486863998409e-05
-0.4904843795211491,-0.4904843795211491,0.9999083288597742,4.671562741597038e-05
-0.490353243611753,-0.490353243611753,1.0000106762046568,4.673860997007285e-05
-0.4902125689553941,-0.4902125689553941,1.000003511782253,4.75281362348714e-05
-0.49007224195338495,-0.49007224195338495,0.9999962208887659,4.6650588619086424e-05
-0.4898656170091272,-0.4898656170091272,1.000032550925993,4.661454915398363e-05
-0.4896625722722092,-0.4896625722722092,0.9998718660950925,4.704574534972531e-05
-0.4895227624572726,-0.4895227624572726,0.9999753648008894,4.68202990218911e-05
-0.4893945261454064,-0.4893945261454064,0.9999550791043742,4.708562705676033e-05
-0.48924327576096405,-0.48924327576096405,0.9999237511226724,4.717272992009913e-05
-0.48908136192367235,-0.48908136192367235,0.9999294073724325,4.7117504188609594e-05
-0.48891956743646003,-0.48891956743646003,0.9998994209826811,4.673125861248787e-05
-0.48870263810240433,-0.48870263810240433,1.0000245732477075,4.714359907194064e-05
-0.48859588845407415,-0.48859588845407415,1.0000266279899768,4.693916864185838e-05
-0.4884666712456237,-0.4884666712456237,1.0000486864033808,4.673086291679227e-05
-0.48834360003493205,-0.48834360003493205,0.9998407257664089,4.684879413182231e-05
-0.4881384042710124,-0.4881384042710124,0.9999364454975403,4.676881648301631e-05
-0.4879227102963341,-0.4879227102963341,0.9999503253430323,4.693105690278475e-05
-0.4878133017609798,-0.4878133017609798,0.9999960434853113,4.673635101067893e-05
-0.4877216914930614,-0.4877216914930614,0.9999800268882879,4.685515723947103e-05
-0.48757493801749663,-0.48757493801749663,1.0000319391511554,4.708214493771906e-05
-0.4873830192584137,-0.4873830192584137,0.9999753103719792,4.759281094980267e-05
-0.48719395774169244,-0.48719395774169244,1.0000179600448174,4.693089164513609e-05
-0.4870576701028767,-0.4870576701028767,1.0000056865844797,4.687252014156206e-05
-0.48689960163465,-0.48689960163465,0.9999051547946752,4.725418077024715e-05
-0.48668936536887486,-0.48668936536887486,1.0000071767584466,4.703149119440374e-05
-0.48648358610589637,-0.48648358610589637,0.999947098588828,4.623012189257973e-05
-0.48635046037270513,-0.48635046037270513,1.0001119185528036,4.709240311739531e-05
-0.48617546112509447,-0.48617546112509447,0.9999583987165179,4.69857522972285e-05
-0.4859705917635438,-0.4859705917635438,0.9999165511965133,4.6991408980038486e-05
-0.48580575054511427,-0.48580575054511427,1.0000230096888807,4.651854202285991e-05
-0.4855619015823322,-0.4855619015823322,1.000032153784246,4.7109877691771826e-05
-0.48536656578144177,-0.48536656578144177,1.0000354910807983,4.7260183029720474e-05
-0.48518012341301076,-0.48518012341301076,0.9999415554064559,4.6767413424412036e-05
-0.4850630867025757,-0.4850630867025757,1.0000807359840815,4.707080814511874e-05
-0.48492241224266763,-0.48492241224266763,1.000009032409991,4.671391876055955e-05
-0.48468833085207735,-0.48468833085207735,1.0000007957412465,4.719919925903055e-05
-0.48454858386321575,-0.48454858386321575,1.0000202972150363,4.6826891739186286e-05
-0.48439182126749075,-0.48439182126749075,0.999971054910884,4.678052204261875e-05
-0.48424656432835034,-0.48424656432835034,0.9998976950867636,4.733780053862761e-05
-0.483993490292778,-0.483993490292778,0.9999609680974526,4.689557302640912e-05
-0.48381347607137287,-0.48381347607137287,0.9999677266521448,4.7046706201825245e-05
-0.48360338686179605,-0.48360338686179605,1.0000220339698462,4.670510242094751e-05
-0.48343465664111135,-0.48343465664111135,0.9999957225907622,4.698824358744182e-05
-0.4831655536316248,-0.4831655536316248,1.0000340156977305,4.727649120220604e-05
-0.4829534417036484,-0.4829534417036484,1.0000944697029168,4.7075266216259126e-05
-0.48279624602510013,-0.48279624602510013,0.9998933181906915,4.680014633792521e-05
-0.4826274928615021,-0.4826274928615021,0.9999783708380088,4.6775907464388374e-05
-0.4823912336010835,-0.4823912336010835,0.9999464431079469,4.7262254681956753e-05
-0.4821695991387969,-0.4821695991387969,1.0000062935488188,4.7049905743660144e-05
-0.48201175414942554,-0.48201175414942554,1.000074348346311,4.726684581632683e-05
-0.48188897630643623,-0.48188897630643623,1.0000234155564809,4.6483415937074613e-05
-0.4817046942211164,-0.4817046942211164,0.9999868946107011,4.70159578064737e-05
-0.4814064903977851,-0.4814064903977851,0.9999097707613529,4.6944194462838874e-05
-0.48124039458598417,-0.48124039458598417,0.9999359296129917,4.7206414636708494e-05
-0.48108443784767585,-0.48108443784767585,1.0000067906388064,4.662328273425261e-05
-0.48088441265608706,-0.48088441265608706,0.9999013351185664,4.745342510801724e-05
-0.4806227323919302,-0.4806227323919302,0.9999317177526148,4.657714743542493e-05
-0.48044358781698976,-0.48044358781698976,1.0000581274989309,4.667729255417944e-05
-0.48027840908252983,-0.48027840908252983,0.9999021311680453,4.683671591946418e-05
-0.4801245922968519,-0.4801245922968519,1.000066800668529,4.701791513590782e-05
-0.4799288787708065,-0.4799288787708065,0.9998743071204907,4.716253338306525e-05
-0.4797600741389033,-0.4797600741389033,1.0000988354804623,4.6917879217538365e-05
-0.4795173182148574,-0.4795173182148574,1.0000140336045031,4.661644677290661e-05
-0.4793739082488173,-0.4793739082488173,0.9999914789476376,4.6634270777222484e-05
-0.47928772766972544,-0.47928772766972544,0.9999026827340147,4.708442240696837e-05
-0.4791646103894891,-0.4791646103894891,0.9998687929518055,4.76401613015773e-05
-0.4788495690052514,-0.4788495690052514,0.9999840560817983,4.7046213345296626e-05
-0.4787227252687444,-0.4787227252687444,0.9999941706277091,4.650008307650973e-05
-0.47849806349913704,-0.47849806349913704,0.9999114996081445,4.69284716441027e-05
-0.47839882128391764,-0.47839882128391764,0.9999627979702664,4.6804965883288466e-05
-0.47822710364634985,-0.47822710364634985,1.0000423307733424,4.7384204469039545e-05
-0.47803103437254324,-0.47803103437254324,0.9999562894686918,4.661780731826362e-05
-0.47792733633032186,-0.47792733633032186,0.9999895896882866,4.688294476716974e-05
-0.47769431542692475,-0.47769431542692475,1.0000063283837748,4.669483458084526e-05
-0.4775764355861611,-0.4775764355861611,0.9999722414062223,4.6909712564723787e-05
-0.477463262647143,-0.477463262647143,0.9997129088553617,4.7310429288086984e-05
-0.47738305276579923,-0.47738305276579923,0.999873096239196,4.6961358683173156e-05
-0.4772323736273393,-0.4772323736273393,1.0000026687690047,4.683738417246908e-05
-0.4770825016043091,-0.4770825016043091,0.9999834889005349,4.669803965355297e-05
-0.47686128624773116,-0.47686128624773116,0.9998853191709254,4.6930038454493306e-05
-0.4767313593114523,-0.4767313593114523,1.00003055442489,4.678417136422769e-05
-0.47661653143441074,-0.47661653143441074,1.0000692666753879,4.720603824953614e-05
-0.47647096260516264,-0.47647096260516264,0.9999428145017598,4.696579471386953e-05
-0.47638154646629116,-0.47638154646629116,0.9999075739989113,4.641985192223167e-05
-0.4762786938026693,-0.4762786938026693,0.9999362816918508,4.681583503005144e-05
-0.4760904967726674,-0.4760904967726674,1.0000668831670219,4.6960983551903914e-05
-0.47594095249296514,-0.47594095249296514,0.9999288638399916,4.679185963106666e-05
-0.47582490148524814,-0.47582490148524814,0.999957135438658,4.7296945377756075e-05
-0.4757059266961733,-0.4757059266961733,0.9999637678264367,4.711077659103232e-05
-0.4755520388855075,-0.4755520388855075,0.9999051730773457,4.680852292522548e-05
-0.47542672833478716,-0.47542672833478716,0.9999302867039223,4.6907607724337186e-05
-0.47523630570503883,-0.47523630570503883,1.000037857608579,4.686424162941644e-05
-0.4751392946262058,-0.4751392946262058,1.0000581184918902,4.7062191196074365e-05
-0.4750696096536558,-0.4750696096536558,1.0000209237458184,4.723844034625479e-05
-0.4749714571844379,-0.4749714571844379,1.0000345285636254,4.7369637282854756e-05
-0.47490060581949367,-0.47490060581949367,1.0000130653407202,4.639220920555907e-05
-0.47473374317887646,-0.47473374317887646,1.0000350113830687,4.688109877965409e-05
-0.47459545116689694,-0.47459545116689694,0.9998759724578582,4.690756336852242e-05
-0.47442076164843455,-0.47442076164843455,1.000000995859931,4.6673816044469817e-05
-0.4743061242515978,-0.4743061242515978,1.0000382954021927,4.681178663155045e-05
-0.47420317035685,-0.47420317035685,0.9999572069154761,4.695138848053782e-05
-0.4741307736145245,-0.4741307736145245,0.9999825155013287,4.690386290489554e-05
-0.4740432883500034,-0.4740432883500034,0.9998611324723777,4.655714481242909e-05
-0.4739269343492197,-0.4739269343492197,0.9999857810007411,4.673022638910438e-05
-0.47373443639698964,-0.47373443639698964,1.000020448349853,4.707884388860832e-05
-0.4735406659081491,-0.4735406659081491,0.9999774043244176,4.6672313963061905e-05
-0.473430269977689,-0.473430269977689,1.000029553300769,4.701833570710041e-05
-0.4733031101121014,-0.4733031101121014,0.9999544601713609,4.7390096348972236e-05
-0.47325831781563465,-0.47325831781563465,0.9999847685133931,4.65307520133568e-05
-0.4731740887069463,-0.4731740887069463,0.9999831592015136,4.668255881317851e-05
-0.47301516243933295,-0.47301516243933295,0.999980060905903,4.716549077875427e-05
-0.4728911540416448,-0.4728911540416448,0.9998954833957756,4.7074139082695885e-05
-0.47270582083983753,-0.47270582083983753,0.9999823752607628,4.688684191884193e-05
-0.4726092948774749,-0.4726092948774749,0.9999960410379067,4.6653317722862704e-05
-0.4724634176647669,-0.4724634176647669,1.000038047622789,4.697024530316288e-05
-0.4723792988617788,-0.4723792988617788,0.9999808575605723,4.697211351305742e-05
-0.4722654076824256,-0.4722654076824256,1.0000334534556916,4.691717557017103e-05
-0.4720760677108046,-0.4720760677108046,0.9999716952923237,4.7190923675857196e-05
-0.47187896080868086,-0.47187896080868086,0.9999240721635422,4.674825086164989e-05
-0.47176028643298196,-0.47176028643298196,0.9999698767445929,4.686936466333536e-05
-0.47162731158132376,-0.47162731158132376,0.9999382491788443,4.714762723273e-05
-0.4715310368381324,-0.4715310368381324,0.9999505259982786,4.693141264975372e-05
-0.4713924042964209,-0.4713924042964209,1.0000086109616793,4.7196819954275023e-05
-0.47123522221663733,-0.47123522221663733,0.9999411790735069,4.6957348175127324e-05
-0.4711009821152402,-0.4711009821152402,0.9999425961472108,4.6931228368132986e-05
-0.4709855800945661,-0.4709855800945661,0.9998441755787393,4.6758203646942844e-05
-0.47090844509621094,-0.47090844509621094,1.0001119873403372,4.673670432173282e-05
-0.4708153519797634,-0.4708153519797634,1.0000068002736977,4.7044947558125556e-05
-0.47070911187693126,-0.47070911187693126,0.9999678489359722,4.721919657484872e-05
-0.4706089827912365,-0.4706089827912365,1.0000506409396297,4.692007626063156e-05
-0.47043808573871504,-0.47043808573871504,0.9999678397899462,4.6934528438569455e-05
-0.47027461352045064,-0.47027461352045064,1.0000155017841483,4.693663646513255e-05
-0.4701538141773199,-0.4701538141773199,0.9999778453563641,4.6711066012872435e-05
-0.4700765034514916,-0.4700765034514916,0.9999506526745015,4.700363010857389e-05
-0.4699831236481259,-0.4699831236481259,0.9999207747110539,4.70061553474102e-05
-0.4698345891185454,-0.4698345891185454,0.9998720949162626,4.73552687805414e-05
-0.4696076963424275,-0.4696076963424275,1.0000882404512974,4.6614662645827036e-05
-0.4693965303787991,-0.4693965303787991,1.000136408225634,4.663168477118904e-05
-0.4692710613653617,-0.4692710613653617,0.9999596759279132,4.722501530766392e-05
-0.46918192749872106,-0.46918192749872106,0.9999953703652522,4.666214838491241e-05
-0.4691135734752606,-0.4691135734752606,0.9999335855665266,4.750349575199254e-05
-0.46897267706553974,-0.46897267706553974,1.0000130966237695,4.734600013534582e-05
-0.4687352205757634,-0.4687352205757634,1.0000048290924732,4.6676674997589085e-05
-0.46861227565568697,-0.46861227565568697,0.999975807220542,4.6564447426950616e-05
-0.46846779322368093,-0.46846779322368093,0.9999891030692115,4.694925349596627e-05
-0.46839947829903394,-0.46839947829903394,0.9999742828482088,4.663913787496979e-05
-0.4683250260473869,-0.4683250260473869,0.9999911196757616,4.7271469082206755e-05
-0.4682680594094563,-0.4682680594094563,0.9999988867986012,4.691779323639301e-05
-0.4680378632907377,-0.4680378632907377,0.9998798239535152,4.7619913706712395e-05
-0.4678438095812453,-0.4678438095812453,1.0000097187288401,4.6381077132806464e-05
-0.467702727231881,-0.467702727231881,0.9999133231807497,4.6462005376099675e-05
-0.4676232152593002,-0.4676232152593002,0.9999687771900799,4.731467929455992e-05
-0.46753486585512294,-0.46753486585512294,1.0000509388161671,4.6982421632816014e-05
-0.46747269226762,-0.46747269226762,1.0000520537852005,4.7153551747959537e-05
-0.46733543020964136,-0.46733543020964136,0.999949023581492,4.73354003627054e-05
-0.46716009286174087,-0.46716009286174087,0.999843995680625,4.702645378614814e-05
-0.46695643220191413,-0.46695643220191413,1.0000254270452362,4.650029881603868e-05
-0.46681008667910645,-0.46681008667910645,0.9999622840276018,4.687464744387064e-05
-0.4666813147276116,-0.4666813147276116,0.9999157448746512,4.719275956718156e-05
-0.4665674330248294,-0.4665674330248294,1.0000345711936465,4.7856192724737005e-05
-0.4663605345416727,-0.4663605345416727,0.9999743427448881,4.667002150930628e-05
-0.4661935115549568,-0.4661935115549568,0.9998481724628219,4.624341224731193e-05
-0.4660016864516365,-0.4660016864516365,0.9999442079853604,4.686726410442572e-05
-0.46586939930857624,-0.46586939930857624,0.9999909147739876,4.6820769314542676e-05
-0.4656743908399221,-0.4656743908399221,1.0000447101476233,4.719089882254019e-05
-0.46549957729293967,-0.46549957729293967,0.999983169255696,4.66862608463728e-05
-0.46529290320431754,-0.46529290320431754,0.9999038957080675,4.676402642599952e-05
-0.4651448793269083,-0.4651448793269083,0.9999645880928563,4.656820789521604e-05
