time,time,flux,flux_err
-0.4999161954610827,-0.4999161954610827,1.0023950816044715,0.0038078019380904096
-0.4997783816995707,-0.4997783816995707,1.0052934144523038,0.004037269628758361
-0.4996644777286671,-0.4996644777286671,1.0004254765187823,0.0029033324099256566
-0.49947115443118645,-0.49947115443118645,0.9997644356129474,0.0038247975892747137
-0.4993161835447154,-0.4993161835447154,1.0036853069302467,0.003629681853738852
-0.49923672369436645,-0.49923672369436645,0.9992125753924797,0.0025873139928363565
-0.49910516038025887,-0.49910516038025887,0.9975779292527628,0.0029750395695717006
-0.4989854910770646,-0.4989854910770646,1.000200317972726,0.0040040462270524105
-0.49887800876576877,-0.49887800876576877,1.000917729920003,0.0030610789763654725
-0.49875005714461623,-0.49875005714461623,0.9971605068212085,0.0032952239160279487
-0.49866479481634085,-0.49866479481634085,1.001441979923373,0.0030003933875460504
-0.4985660897372327,-0.4985660897372327,1.000164177238136,0.003656910845566877
-0.49843544779487275,-0.49843544779487275,1.0026154481147116,0.0027290302732921067
-0.49830398544536364,-0.49830398544536364,1.0004634465741673,0.0024709516585943647
-0.4982420753477072,-0.4982420753477072,1.000628271312109,0.0026731017091038635
-0.49811619490492376,-0.49811619490492376,1.0000490310197392,0.0036816711272997607
-0.4979698085380278,-0.4979698085380278,1.0016845483986048,0.002559861808932533
-0.49787923041553767,-0.49787923041553767,0.9985198281709481,0.0029456727437642744
-0.49776791653166585,-0.49776791653166585,1.0010999785557564,0.00462582428323088
-0.49762559770433656,-0.49762559770433656,1.001018864681938,0.002923246306140573
-0.497487380978464,-0.497487380978464,1.0011479651760744,0.0026237315686788304
-0.49732924982872645,-0.49732924982872645,0.9985405620201346,0.0026688243749789214
-0.4972329870483918,-0.4972329870483918,0.9981486071935046,0.003670452570620613
-0.4971141355797954,-0.4971141355797954,1.002586203237072,0.003070464583540557
-0.49704290867630335,-0.49704290867630335,1.0041876678631423,0.003598635115889505
-0.4969381388226338,-0.4969381388226338,1.0021618558786005,0.002644214991513449
-0.49669237828097723,-0.49669237828097723,0.9963478240561123,0.0027221086220637234
-0.496581601197704,-0.496581601197704,1.0007298724002078,0.003897505919261017
-0.49647631317584456,-0.49647631317584456,1.0031183318617876,0.0037347930465166128
-0.4962479947818338,-0.4962479947818338,0.9994100201492737,0.002711152195392515
-0.496108849213897,-0.496108849213897,0.996595121935874,0.0035963561016355396
-0.49602544196200143,-0.49602544196200143,0.9985620504733278,0.0035604442540839686
-0.49593008562169416,-0.49593008562169416,1.000846221984464,0.003070605997589651
-0.4957949034549074,-0.4957949034549074,0.9954307635757675,0.0026613385360024304
-0.4956942072001766,-0.4956942072001766,0.9984507113065823,0.0038457504472429274
-0.495571927814899,-0.495571927814899,1.0014994084530768,0.003066970656857028
-0.49550367689816993,-0.49550367689816993,1.0001877874110499,0.002684103938372527
-0.4953851699087409,-0.4953851699087409,1.0003880685091935,0.002954337378371226
-0.49529626635453494,-0.49529626635453494,0.998018570027836,0.0028314598046301582
-0.49520699240401883,-0.49520699240401883,1.004628700969389,0.0026471372097263044
-0.49505034807607445,-0.49505034807607445,1.0005170095009164,0.003967238619931519
-0.49491430046309687,-0.49491430046309687,0.9956812405218474,0.003070546533591463
-0.49486070640468827,-0.49486070640468827,0.9993044851798022,0.0036575411290847614
-0.4947806595114798,-0.4947806595114798,0.9946302410575119,0.0036075899226294165
-0.49462820398866825,-0.49462820398866825,1.0011381890131594,0.0031612402452338823
-0.4945567360831319,-0.4945567360831319,0.9986410539036535,0.0038235629223345945
-0.4944620467512323,-0.4944620467512323,0.9994310248453677,0.0036024037581720647
-0.4942797484954099,-0.4942797484954099,0.997369869194425,0.003670164710542132
-0.49417746036542665,-0.49417746036542665,1.0061588615973491,0.0027133411285180887
-0.49408210183883056,-0.49408210183883056,0.9990753569530775,0.0032698394979610475
-0.493994317948318,-0.493994317948318,0.9955469927310816,0.004659862869240082
-0.4938780109907839,-0.4938780109907839,1.0001517405738432,0.0026038298471987393
-0.4938076889194235,-0.4938076889194235,1.0002882827306094,0.0029897355530697977
-0.49369533574863456,-0.49369533574863456,1.0020209087926113,0.0026291788365076967
-0.4935693316801462,-0.4935693316801462,1.0007227858932235,0.0025592343995241244
-0.4934670331149846,-0.4934670331149846,0.9978141486542607,0.00407730640369844
-0.49339439493619464,-0.49339439493619464,0.9995341246127942,0.0027162932587175377
-0.49330593441086423,-0.49330593441086423,1.002652688537694,0.002917456283474216
-0.49323090979914924,-0.49323090979914924,1.0005441634688594,0.0028616928153452634
-0.49312427005752396,-0.49312427005752396,0.996099001631158,0.0027097856907490046
-0.49293893428398405,-0.49293893428398405,1.001562961504153,0.0036124296546389085
-0.49285941086495766,-0.49285941086495766,0.9972219734436842,0.0027707108988644226
-0.4927494944436148,-0.4927494944436148,1.0026223955414193,0.0035634270451591885
-0.4926078759947359,-0.4926078759947359,0.9997222666329051,0.003902876921219326
-0.4925058315550814,-0.4925058315550814,0.9987449426415769,0.0036107281208699925
-0.4923276542652729,-0.4923276542652729,0.9987958887457928,0.002645442020601278
-0.492188047822674,-0.492188047822674,1.000887602059662,0.0036217174013810096
-0.4921086176344943,-0.4921086176344943,0.9989614343378784,0.0025844840548300803
-0.491977048777062,-0.491977048777062,1.0016399937836968,0.002977773938491286
-0.4918573105489486,-0.4918573105489486,1.002318026076896,0.004010520389351781
-0.491749840760167,-0.491749840760167,1.0001526622480448,0.003059445092297513
-0.49162194748550975,-0.49162194748550975,1.0002383931854189,0.0032975472770167664
-0.4915366383737819,-0.4915366383737819,1.0007489112963897,0.0029988649676588215
-0.4914247625554708,-0.4914247625554708,0.9993538237704922,0.0036156933978837465
-0.491295900467685,-0.491295900467685,1.0005515627857269,0.003344634192267338
-0.49117582428816603,-0.49117582428816603,1.0014876339072056,0.002469759093821594
-0.4911139862488653,-0.4911139862488653,0.9998731513557806,0.0026726921615751924
-0.4909880588013948,-0.4909880588013948,0.9985595684726185,0.0036715383551839233
-0.49085961524147026,-0.49085961524147026,0.9996523749628949,0.0026475259398749994
-0.49077035825275744,-0.49077035825275744,1.0021081947452255,0.002967897047226959
-0.49066788569220987,-0.49066788569220987,1.0004552675634912,0.004601202064041626
-0.4905183640062205,-0.4905183640062205,0.9979686530861904,0.002958067630006085
-0.49038839692811964,-0.49038839692811964,1.0008436118258515,0.002588794413556438
-0.4902011046041025,-0.4902011046041025,0.999032923789225,0.0026673556132777282
-0.4901047988824757,-0.4901047988824757,0.9997665602125952,0.003671979728804319
-0.4899859949758138,-0.4899859949758138,0.9986117971087903,0.0030673522894978495
-0.489929504679958,-0.489929504679958,1.0008270948519984,0.0035830677885001134
-0.48984246801633163,-0.48984246801633163,0.9961290222360507,0.00261510671018601
-0.48960529688315546,-0.48960529688315546,0.999526725711226,0.0027633136692300224
-0.4894692475508691,-0.4894692475508691,1.0002795968863012,0.0038684924381395883
-0.4893481902852727,-0.4893481902852727,0.999900116942464,0.0037382248921634478
-0.4891410474165241,-0.4891410474165241,0.9990565863748945,0.0026207243724096297
-0.48900598793470634,-0.48900598793470634,1.0008118294430366,0.003652956000715013
-0.48891805569633107,-0.48891805569633107,1.0029072013236047,0.003582767901790149
-0.48882222593611,-0.48882222593611,1.0034534831772532,0.002682500298930756
-0.48868859740668996,-0.48868859740668996,0.995915362987979,0.003014798702048987
-0.48859222027863325,-0.48859222027863325,1.000634352026717,0.0038519297528530143
-0.48845916092177505,-0.48845916092177505,1.000163409639339,0.00309537858751958
-0.4883956857539033,-0.4883956857539033,1.000418749483138,0.0026290809690915056
-0.4882982705237282,-0.4882982705237282,0.9980177240894669,0.002657303374171177
-0.48818874996145495,-0.48818874996145495,1.0001907543742714,0.0031340060763897343
-0.4881200852506481,-0.4881200852506481,1.0004571855528464,0.0025802359825918943
-0.48799704384887266,-0.48799704384887266,1.000104893642607,0.0031172294052586496
-0.48781964479935597,-0.48781964479935597,1.0007774963414824,0.003921655296109952
-0.4877605531307836,-0.4877605531307836,0.9990431736944677,0.0026855468831110557
-0.4876803787110475,-0.4876803787110475,1.0057542073947763,0.004436908036039429
-0.48756865631276014,-0.48756865631276014,1.0022509198096534,0.002689542430657997
-0.4874513064814437,-0.4874513064814437,1.0025223065616549,0.0033955785540876818
-0.4873764269722415,-0.4873764269722415,1.0002921162002116,0.004392785500058047
-0.48723067169075873,-0.48723067169075873,1.0007098562724503,0.0026442896195838536
-0.4870831280998118,-0.4870831280998118,1.0072472281799676,0.003676319396370369
-0.48697081498648914,-0.48697081498648914,1.0018477344892873,0.003256080658765554
-0.48689360647558716,-0.48689360647558716,0.9968381979815518,0.004423903471902342
-0.4867498653642087,-0.4867498653642087,0.9963887388532449,0.0026020073333295523
-0.48666118197779723,-0.48666118197779723,1.0024602753392517,0.0030152454434193886
-0.4865430041347736,-0.4865430041347736,0.9998355187103126,0.0029336421980375423
-0.48641133115006596,-0.48641133115006596,0.9999893246954891,0.002564467343744322
-0.4863218739133572,-0.4863218739133572,1.0003523322597174,0.004145686401932719
-0.48625332871306454,-0.48625332871306454,1.0032777995912525,0.002650526598546522
-0.4861571170381012,-0.4861571170381012,0.9962440389340207,0.0029759576270296526
-0.48608373090160056,-0.48608373090160056,0.9985013978957575,0.0026485444331267862
-0.4858816790574565,-0.4858816790574565,0.999448007730129,0.003672953416049078
-0.4857502489124272,-0.4857502489124272,0.9987554948880369,0.002678414751491745
-0.4856723470808447,-0.4856723470808447,0.999764091201946,0.0036092067989575956
-0.4855368131256455,-0.4855368131256455,1.0043508847611629,0.0038766445651681643
-0.48542222381097416,-0.48542222381097416,0.9962791116844872,0.0026811392722758177
-0.48531972978225896,-0.48531972978225896,0.9987756914104647,0.003641202127187753
-0.4851254286119911,-0.4851254286119911,0.9996834578746115,0.0026505139645467968
-0.4850358424188016,-0.4850358424188016,1.0022986177229996,0.0036326757580026252
-0.4849325209089784,-0.4849325209089784,0.999520023460402,0.0030632764542483128
-0.4848070115885548,-0.4848070115885548,1.002624942317191,0.003002915855465246
-0.4847125164555564,-0.4847125164555564,0.9984819787791013,0.0037298692715390866
-0.48458728022083053,-0.48458728022083053,0.9982979621644257,0.0031748933781582064
-0.4844507848858484,-0.4844507848858484,1.000219888806398,0.0032210395288568817
-0.48436681870457504,-0.48436681870457504,1.0000752200592433,0.0039443582148124216
-0.48417919773505674,-0.48417919773505674,0.999287834234243,0.002725673881739116
-0.4840621520100285,-0.4840621520100285,0.9968073802505909,0.0024741411241375397
-0.4840047596363547,-0.4840047596363547,0.9977053623914051,0.002650066707496591
-0.48385992272956174,-0.48385992272956174,1.0015374446618792,0.0036706183987035316
-0.48372874681476785,-0.48372874681476785,0.9980639125756067,0.0026677463310753944
-0.48362709131920384,-0.48362709131920384,1.0008637516867882,0.0034956066441784706
-0.4835605669326014,-0.4835605669326014,1.0012135298248925,0.0038860914023454373
-0.48341859012994065,-0.48341859012994065,0.9982104777068876,0.0038777515361043575
-0.4832948817903343,-0.4832948817903343,0.9955519714797785,0.0025929407653749745
-0.48314189118195827,-0.48314189118195827,0.9998578158231968,0.0026647190505080663
-0.48304789877952314,-0.48304789877952314,0.9955523465127737,0.003562227526913958
-0.48295452978327374,-0.48295452978327374,0.9957912248313857,0.0026984753650594103
-0.48283835797556096,-0.48283835797556096,1.0001904911382096,0.0039602100003926725
-0.4827666708520155,-0.4827666708520155,1.0005345790301197,0.0026168050336300317
-0.4826490819816627,-0.4826490819816627,0.9962641049292584,0.0025871285738093925
-0.4824361114991461,-0.4824361114991461,1.0017922734229345,0.002725672759083984
-0.48232037110137754,-0.48232037110137754,1.004690653322084,0.0038615091049870034
-0.4822200674097076,-0.4822200674097076,0.9974025663433963,0.0037402986296088117
-0.482012954845959,-0.482012954845959,0.9995456237440857,0.0026185524860134644
-0.48187783019211566,-0.48187783019211566,0.998535923574952,0.003652024162876273
-0.48176407154314804,-0.48176407154314804,0.9999287187671202,0.0035949158916053396
-0.48164247724785125,-0.48164247724785125,0.9994789082015239,0.0031049722417406927
-0.4814952010679008,-0.4814952010679008,1.002983105834419,0.00299770850298964
-0.48138887924301343,-0.48138887924301343,0.9989436015251657,0.003851067107838416
-0.48129360631678536,-0.48129360631678536,0.9958320064380468,0.0027432634429085958
-0.48120887427035086,-0.48120887427035086,1.0029793731635572,0.002649094595942155
-0.4810927065798751,-0.4810927065798751,0.9991185706832496,0.002900642409302138
-0.48102816702139534,-0.48102816702139534,0.9986737732401337,0.0028990856292515884
-0.48095074445759567,-0.48095074445759567,1.0009185251913497,0.0026462781323818123
-0.48079402130993004,-0.48079402130993004,0.9927332223480063,0.003965026407727104
-0.4806581245291909,-0.4806581245291909,0.9948904725917714,0.0030654679329300267
-0.4806044201421173,-0.4806044201421173,0.9946190964366357,0.0036513011803109723
-0.4805243121305011,-0.4805243121305011,0.9996739423321657,0.0036111459450969404
-0.4803465360590053,-0.4803465360590053,1.0028464454377275,0.0031521503087858747
-0.48028539097217615,-0.48028539097217615,0.9995417650936049,0.0038698203755190494
-0.480186977247422,-0.480186977247422,1.0027099605639354,0.0035573074865610107
-0.4800235113780218,-0.4800235113780218,1.0026241775323659,0.0036709987373906607
-0.4799130248584788,-0.4799130248584788,0.9966780068644493,0.00305256549231658
-0.4798131927780105,-0.4798131927780105,0.9967974468537865,0.0029765001080784147
-0.47970593001314227,-0.47970593001314227,1.003917135346978,0.004396877418809748
-0.47959797194366727,-0.47959797194366727,1.0005234914249526,0.002659204592506655
-0.47951026746400205,-0.47951026746400205,0.9975453993536962,0.003011292594743216
-0.47937939605540125,-0.47937939605540125,0.9965824282496308,0.002519630947928764
-0.47923929272569693,-0.47923929272569693,0.9993521840074913,0.0028674666188430336
-0.47916096141348136,-0.47916096141348136,1.0012256282493515,0.004009326961103025
-0.47909293590396373,-0.47909293590396373,0.9991080130955419,0.0025952317083766307
-0.47899480178275555,-0.47899480178275555,1.000351047024148,0.00294179507579889
-0.47888787755923656,-0.47888787755923656,1.0007443700415144,0.0027234712623515284
-0.47868267411704435,-0.47868267411704435,1.0023661846026062,0.003607348967245058
-0.47860305198764763,-0.47860305198764763,1.001785823252816,0.0027821435070534088
-0.4784931622096337,-0.4784931622096337,1.0033864877719285,0.003562714627622878
-0.4783516008326387,-0.4783516008326387,1.0010550914567047,0.003894834703064138
-0.47827396181914994,-0.47827396181914994,0.9992055935071139,0.002675667991506596
-0.4781506655946487,-0.4781506655946487,0.9971989574470627,0.003911462651996293
-0.4779668224491161,-0.4779668224491161,1.0009410788077977,0.0026735650205062483
-0.47789139859792157,-0.47789139859792157,1.0004967022484244,0.0035912282174412453
-0.4777509368555911,-0.4777509368555911,0.9994221668141885,0.002911846073787464
-0.47761846887674436,-0.47761846887674436,0.9997039828091315,0.004068705277736484
-0.47752129098198565,-0.47752129098198565,1.0024894296992233,0.0030436889392504614
-0.47736572827420787,-0.47736572827420787,1.000552392564904,0.003304524560015741
-0.4772803256044426,-0.4772803256044426,1.0019416359038698,0.0030027855244530513
-0.477130636360198,-0.477130636360198,1.0016521437409707,0.0036464123311438753
-0.4769543291998161,-0.4769543291998161,1.003030196450876,0.0026685991617639085
-0.47688141082180663,-0.47688141082180663,0.9972560391191717,0.0025529879145447755
-0.47676657959755175,-0.47676657959755175,0.9952842323469826,0.002688442706523055
-0.4766075972008821,-0.4766075972008821,1.0022854361195612,0.0035812171589283694
-0.47649894142446103,-0.47649894142446103,0.9995743762344766,0.003470538002864483
-0.4764358340419676,-0.4764358340419676,1.0050333253184807,0.0035931327356762063
-0.476347709824131,-0.476347709824131,0.9975074493893169,0.003970572463234706
-0.4762410818721037,-0.4762410818721037,1.0009598344403492,0.002923834023237322
-0.4761133138488276,-0.4761133138488276,0.996090750618324,0.002822853481109807
-0.4759448141948269,-0.4759448141948269,0.9993853395023825,0.0026716737020754428
-0.47584842256169396,-0.47584842256169396,0.9989876138368805,0.0036688486127057487
-0.47574206172475897,-0.47574206172475897,1.0005091303619933,0.0030640471172679188
-0.4756731829387263,-0.4756731829387263,0.9981032613983206,0.0035772773210880453
-0.475586294172399,-0.475586294172399,0.9991907748308686,0.002616128884889999
-0.4753720150356912,-0.4753720150356912,1.0009624926481515,0.002760824180316323
-0.47522551839588234,-0.47522551839588234,1.0010921761739862,0.0029656532396460907
-0.4751174845489004,-0.4751174845489004,0.9984047247219563,0.00444015900732622
-0.4749368999536273,-0.4749368999536273,1.0019248198506858,0.0027241232885637052
-0.4748068635495201,-0.4748068635495201,0.9990311042515587,0.002690101087131744
-0.4746814571793948,-0.4746814571793948,1.0018115816974895,0.004373574135072573
-0.47456591190566544,-0.47456591190566544,0.9974771050769909,0.0026832370437596563
-0.4744161371140308,-0.4744161371140308,1.0025170574140652,0.003049817359389694
-0.4743183939156097,-0.4743183939156097,1.0002071414675209,0.0038218006066982066
-0.4742066212714235,-0.4742066212714235,0.9973812742708276,0.002991157600045186
-0.47415730608290685,-0.47415730608290685,0.9987781399888991,0.0027724825910444726
-0.47404858417389734,-0.47404858417389734,0.9980499264317968,0.0026066974530389443
-0.47394508868169394,-0.47394508868169394,1.0015260855342933,0.003057370708204089
-0.4738799182509865,-0.4738799182509865,1.0001429472591319,0.0026292751871463942
-0.47377712985121434,-0.47377712985121434,1.000162903747157,0.003085258759350681
-0.47358581840940134,-0.47358581840940134,1.0011413575069419,0.0036635285137532987
-0.47350436465826534,-0.47350436465826534,1.0030721518778447,0.0026818524176549048
-0.47341411086822516,-0.47341411086822516,0.9977291549186589,0.004439911867175317
-0.4732516609011782,-0.4732516609011782,1.0045230435415056,0.003196796297631465
-0.4731722086757145,-0.4731722086757145,0.9993622869005081,0.0038233140304319694
-0.4730647079749815,-0.4730647079749815,1.0011732957992847,0.0036810165128870476
-0.47286166882768155,-0.47286166882768155,1.0029862475240345,0.0036588254805377677
-0.47275401263214006,-0.47275401263214006,1.000871261564748,0.00296923102031967
-0.4726581531930151,-0.4726581531930151,1.0008420619864384,0.003667771411657915
-0.4725390294879162,-0.4725390294879162,0.9952529686119442,0.0036084730483568707
-0.4724468219401842,-0.4724468219401842,1.0006340727546132,0.002946869296986644
-0.47232938418792403,-0.47232938418792403,1.0028000428488313,0.002619380769091605
-0.47220699727140525,-0.47220699727140525,0.9979606744918617,0.0029235868719843677
-0.47211693299404944,-0.47211693299404944,0.9987427668512971,0.0031862177839181507
-0.47204908533462914,-0.47204908533462914,0.9996034022989886,0.004027524667335245
-0.4719837709463263,-0.4719837709463263,0.9995708082287198,0.0026716793363874307
-0.4718910860122378,-0.4718910860122378,1.0007843515802048,0.002975985129027143
-0.47182753126053284,-0.47182753126053284,0.9995149191266808,0.0026489359087762698
-0.4716628179678537,-0.4716628179678537,1.001272982838583,0.003650332038830163
