time,time,flux,flux_err
-0.4995431365611391,-0.4995431365611391,1.0000975982054634,6.299440187535354e-05
-0.4987911035380724,-0.4987911035380724,0.9999363153011754,6.216502569865247e-05
-0.49822238796332385,-0.49822238796332385,0.9999539994779664,5.6585180398234045e-05
-0.49777070981872384,-0.49777070981872384,1.0000890832018727,5.640186438309381e-05
-0.49717103917864736,-0.49717103917864736,1.0000511902114553,5.678442745737016e-05
-0.4960883656727674,-0.4960883656727674,0.9999893256084345,5.655397344561362e-05
-0.49546090184376224,-0.49546090184376224,1.0000106705700729,5.96324753785289e-05
-0.49459510043016053,-0.49459510043016053,1.0000073547442019,5.666827256334022e-05
-0.4942662231369468,-0.4942662231369468,0.999993161481191,5.6826206321805345e-05
-0.4940255746449111,-0.4940255746449111,1.0001218769688496,5.650056060119809e-05
-0.4937057801464107,-0.4937057801464107,1.0000102194389686,5.667478724918466e-05
-0.4928214895451674,-0.4928214895451674,1.0000748472643584,5.655575479898325e-05
-0.4922778512729565,-0.4922778512729565,1.0000792585344294,5.743621387144861e-05
-0.4915838704313501,-0.4915838704313501,0.9999993132289605,5.649879727350329e-05
-0.49117597813528846,-0.49117597813528846,1.0000082422618366,5.6699315753835e-05
-0.49073425051610686,-0.49073425051610686,0.9998908727508278,5.678446367652643e-05
-0.49052485860302114,-0.49052485860302114,1.0001049453849564,5.712141214836873e-05
-0.4903779384585505,-0.4903779384585505,1.0000691585223815,5.6518785595208653e-05
-0.49008632422992376,-0.49008632422992376,0.9999901928198496,5.6403522419910115e-05
-0.4896698458607716,-0.4896698458607716,0.9999240700389203,5.679068614810973e-05
-0.4893893108623161,-0.4893893108623161,1.0000260233816252,5.6770611987342754e-05
-0.4889091347802605,-0.4889091347802605,1.0000803323357688,5.670953948962295e-05
-0.4882786623064021,-0.4882786623064021,0.9999098924345604,5.724503365726339e-05
-0.4874807597021572,-0.4874807597021572,0.9999876715053476,5.6505631621280365e-05
-0.4871118762486731,-0.4871118762486731,0.9999982253545774,5.6796804436101746e-05
-0.48676278931379785,-0.48676278931379785,0.9999304655818115,5.630693778732155e-05
-0.4864718405136955,-0.4864718405136955,1.0000229082099017,5.67616116274007e-05
-0.48595251973674747,-0.48595251973674747,1.0000019180158706,5.6964074895390676e-05
-0.48508807340622295,-0.48508807340622295,1.0000095024665925,5.673204229464551e-05
-0.4846926331782015,-0.4846926331782015,1.0000341890720192,5.678965260177268e-05
-0.4839136281654646,-0.4839136281654646,1.000027316267618,5.74776203897638e-05
-0.4835636362222431,-0.4835636362222431,0.9999760822753622,5.64930478920017e-05
-0.48316100754600483,-0.48316100754600483,1.0000627654193235,5.649631059874955e-05
-0.4828296061619767,-0.4828296061619767,1.0000055974141289,5.718429574054434e-05
-0.48226556029039785,-0.48226556029039785,1.000020561465353,5.6898625629186054e-05
-0.48147322066215564,-0.48147322066215564,1.0000699582197585,5.6683414365269465e-05
-0.48085568953538316,-0.48085568953538316,0.9999925326825212,5.7509595398017064e-05
-0.4802696155369631,-0.4802696155369631,1.0000194315604012,5.6699261600722144e-05
-0.4799976403934124,-0.4799976403934124,0.9999277380864939,5.65916978095262e-05
-0.4796308527722431,-0.4796308527722431,1.0000411659838566,5.6310395501358736e-05
-0.4789007664658129,-0.4789007664658129,1.0000460218177547,5.6770645453603814e-05
-0.4781886816301267,-0.4781886816301267,1.0000694678617397,5.673371521284578e-05
-0.4775106900058745,-0.4775106900058745,1.000132919510997,6.0124923033776056e-05
-0.47671988412184874,-0.47671988412184874,1.000072725458216,5.6679254258179754e-05
-0.4763634948256367,-0.4763634948256367,1.00002880249604,5.70966742023372e-05
-0.47621319923200645,-0.47621319923200645,1.000021722862618,5.655271877540105e-05
-0.47590209782356396,-0.47590209782356396,0.9999590564083152,5.649887792563069e-05
-0.4755226647328527,-0.4755226647328527,0.9999875864777297,5.642125051602011e-05
-0.47471332255299786,-0.47471332255299786,0.9999722153676286,5.6670191390283584e-05
-0.47415499087874197,-0.47415499087874197,0.9999598107225651,5.676470335212512e-05
-0.4734188561022165,-0.4734188561022165,1.000054301471562,5.6774836513880316e-05
-0.4729605684929993,-0.4729605684929993,1.0001774259980205,5.6607458278930614e-05
-0.4725388747661782,-0.4725388747661782,0.9999656479187312,5.650119085677287e-05
-0.4723418896079238,-0.4723418896079238,0.9999990000066268,5.6405147871840985e-05
-0.4720050198615354,-0.4720050198615354,1.0000493019905317,5.688093705005213e-05
-0.4713727500216919,-0.4713727500216919,1.000031285300048,5.6811006068734e-05
-0.4708410594968882,-0.4708410594968882,0.9999247615510771,5.6626641002921244e-05
-0.4703852013910364,-0.4703852013910364,1.0000907824045238,5.6951239344135166e-05
-0.4695543658453971,-0.4695543658453971,1.0000333460514796,5.775270320252587e-05
-0.46920852753464715,-0.46920852753464715,1.0001183238177618,5.659853889810195e-05
-0.4688185186612827,-0.4688185186612827,0.9999570382675224,5.6404630883799694e-05
-0.4685718122469552,-0.4685718122469552,1.0000113556040442,5.68502171333389e-05
-0.4679449939227197,-0.4679449939227197,0.9999236103151642,5.6756374636938046e-05
-0.4670011950525804,-0.4670011950525804,1.000005772402393,5.69690656582354e-05
-0.46654822464333845,-0.46654822464333845,0.9999521838032759,5.680105104683118e-05
-0.46592420465603934,-0.46592420465603934,1.0000630518369964,5.7483194812727e-05
-0.4655332710266521,-0.4655332710266521,1.0000908530694494,5.6484961023743715e-05
-0.4650489300198387,-0.4650489300198387,0.9999947617282988,5.650321548474741e-05
-0.4644762943396927,-0.4644762943396927,1.0000163732636695,5.689146360672821e-05
-0.4634458306740271,-0.4634458306740271,0.9999763456479881,5.659943494680296e-05
-0.46245120678795504,-0.46245120678795504,1.0000708504448994,5.668502440616078e-05
-0.4621693232555117,-0.4621693232555117,0.9999273052828823,5.6400048141135286e-05
-0.46191727322075166,-0.46191727322075166,1.0000079805300652,5.668114618363728e-05
-0.4615104079923185,-0.4615104079923185,0.9999944701704564,5.64869647785612e-05
-0.4607557986957545,-0.4607557986957545,1.0000088796786295,5.870242089118511e-05
-0.45992621956247604,-0.45992621956247604,0.9999704071442185,5.64082131872927e-05
-0.4591513897452387,-0.4591513897452387,1.0000058336236433,5.708964107111209e-05
-0.4584962304492365,-0.4584962304492365,0.9999888490764846,5.650211405859017e-05
-0.4582544444812811,-0.4582544444812811,0.9999752992510302,5.739043725583226e-05
-0.45814482832502107,-0.45814482832502107,0.999991951460976,5.6513538035680725e-05
-0.45781415388119057,-0.45781415388119057,1.0000873165697808,5.64860349916923e-05
-0.45727470289129996,-0.45727470289129996,1.0000293177287414,5.6603243675510196e-05
-0.45642687561630735,-0.45642687561630735,1.0000638619351143,5.658882571157161e-05
-0.4555968106011278,-0.4555968106011278,0.9999674694505541,5.6756254861458215e-05
-0.45483591452939437,-0.45483591452939437,0.9999820962673972,5.669524119309979e-05
-0.45447292371900405,-0.45447292371900405,0.9999277144922507,5.631724258532406e-05
-0.4541371622057341,-0.4541371622057341,0.9998989192898365,5.658236215323973e-05
-0.4534537266219559,-0.4534537266219559,1.000007469580779,5.687061884500007e-05
-0.4528217372506333,-0.4528217372506333,0.9999206213691343,5.677677315999235e-05
-0.45211060355068183,-0.45211060355068183,1.000082565338276,5.69632541051709e-05
-0.45156657826228186,-0.45156657826228186,1.0000233860294532,5.738403810933248e-05
-0.4511315516778268,-0.4511315516778268,1.0000130665240115,5.6597990769421373e-05
-0.4506531679195177,-0.4506531679195177,0.9999825621108535,5.649667046083902e-05
-0.4502918407379184,-0.4502918407379184,0.9999926034528983,5.667981913287647e-05
-0.449448970839876,-0.449448970839876,1.0000559248443157,5.750763801883181e-05
-0.44890128347906283,-0.44890128347906283,0.99998357879629,5.74049747135331e-05
-0.44840699799678985,-0.44840699799678985,0.9999997666015666,5.6695608846385484e-05
-0.4477667895997001,-0.4477667895997001,1.00006333117717,5.639785882895486e-05
-0.44729213002865437,-0.44729213002865437,1.0000365693542823,5.6763132615289706e-05
-0.4467396095416916,-0.4467396095416916,0.9999743218270364,5.6700022566252045e-05
-0.4456338736265025,-0.4456338736265025,0.9999706452803576,5.916768102011571e-05
-0.44481613153839134,-0.44481613153839134,0.9999578139816709,5.669150584307823e-05
-0.4440468339023937,-0.4440468339023937,1.00002446262708,5.697458352010125e-05
-0.4438701697792567,-0.4438701697792567,0.9999812852178798,5.6424347616337605e-05
-0.44351689771865493,-0.44351689771865493,0.9999809342897962,5.649904849319759e-05
-0.44297914705603036,-0.44297914705603036,1.0000436328247746,5.6764228480256566e-05
-0.4421086205577012,-0.4421086205577012,1.0000075298037558,5.673586167540452e-05
-0.44131739640943124,-0.44131739640943124,1.0000365113654621,5.650739477763019e-05
-0.440873478751746,-0.440873478751746,0.9999718847064292,5.6775246163715454e-05
-0.4405130741892208,-0.4405130741892208,1.0000175136487623,5.660583779508628e-05
-0.44028422973351555,-0.44028422973351555,1.0000387724031774,5.735688568344242e-05
-0.44013413889697406,-0.44013413889697406,1.0000143673276471,5.652338368167749e-05
-0.43992781337874476,-0.43992781337874476,0.9999686764343136,5.649111063079909e-05
-0.4395429151612916,-0.4395429151612916,1.0000149979673671,5.657792204433132e-05
-0.43914522748309537,-0.43914522748309537,0.9999576219297357,5.6777541612613125e-05
-0.43865939502502443,-0.43865939502502443,1.0000228674910923,5.688748691016547e-05
-0.43823993798723676,-0.43823993798723676,1.0000809864305826,5.6505442778653174e-05
-0.43744256196296194,-0.43744256196296194,0.9999964579630317,5.6987394069635656e-05
-0.43686036623985275,-0.43686036623985275,0.9999845683347315,5.689546071752287e-05
-0.4365128490651841,-0.4365128490651841,1.0000228639163313,5.64981419335598e-05
-0.4362199816881912,-0.4362199816881912,0.9999145994588341,5.6663432311959e-05
-0.43565013505794925,-0.43565013505794925,1.0000702483133206,5.705110572230237e-05
-0.43474967146466953,-0.43474967146466953,0.9999396441396773,5.6661316613610965e-05
-0.43424358564298016,-0.43424358564298016,0.999980149382097,5.696561650517795e-05
-0.43363003247141024,-0.43363003247141024,1.000055862131591,5.652463844460682e-05
-0.433307081762905,-0.433307081762905,1.0000926751555306,5.640846776663033e-05
-0.4330451226596779,-0.4330451226596779,0.9999487530712095,5.658320059185426e-05
-0.4326092758165032,-0.4326092758165032,0.9999911298030992,5.676315808191073e-05
-0.4323010093117773,-0.4323010093117773,1.0000428994076642,5.7029526179634544e-05
-0.4316149770398624,-0.4316149770398624,1.0000312312608148,5.694159578021414e-05
-0.4309632936950948,-0.4309632936950948,1.00001621047599,5.658579785005614e-05
-0.4301097391042276,-0.4301097391042276,1.000065974522295,5.677972478621228e-05
-0.4297230027324986,-0.4297230027324986,0.9999691353435551,5.6492937509096167e-05
-0.4293659173468768,-0.4293659173468768,0.9999664191341584,5.639926786799444e-05
-0.4285203155639465,-0.4285203155639465,0.9999866317619723,5.642042292973322e-05
-0.4274567862332333,-0.4274567862332333,0.9999948651992361,5.982899234291669e-05
-0.4269032521937334,-0.4269032521937334,1.0000915914473931,5.7177754875665826e-05
-0.42603960050546447,-0.42603960050546447,1.0000280967044841,5.704125953613847e-05
-0.4258726715284865,-0.4258726715284865,0.9999305167265934,5.6494848602309806e-05
-0.42556358015426665,-0.42556358015426665,1.0001001656531556,5.650223071450971e-05
-0.42522959349735173,-0.42522959349735173,0.9999107908421049,5.659778035750604e-05
-0.4243539014169073,-0.4243539014169073,1.0000527465601257,5.666059788655782e-05
-0.4237919509090716,-0.4237919509090716,0.9999935636825741,5.6763253502332405e-05
-0.42301636753618366,-0.42301636753618366,1.000109104015918,5.6796719014555106e-05
-0.4225306646214449,-0.4225306646214449,0.9999703288416659,5.6581359036311646e-05
-0.42220920646286686,-0.42220920646286686,0.9999740540196657,5.7357188420171446e-05
-0.4220606193004642,-0.4220606193004642,1.000038502719187,5.640854433439212e-05
-0.4217307927887305,-0.4217307927887305,1.000047760895858,5.668163062261447e-05
-0.42120200287608894,-0.42120200287608894,1.0000346566010814,5.664990911506695e-05
-0.420772149530967,-0.420772149530967,1.0000440255956353,5.706376585562296e-05
-0.4203725921950536,-0.4203725921950536,1.0000745359786798,5.6604466861484526e-05
-0.4200919478047581,-0.4200919478047581,0.9999994144769413,5.6773623049194695e-05
-0.4193423231416091,-0.4193423231416091,0.9999691490939415,5.752017982562406e-05
-0.4189560302263999,-0.4189560302263999,0.9999774665199148,5.931678475383815e-05
-0.4186280299756618,-0.4186280299756618,1.0000644770613025,5.6318459152814956e-05
-0.4182668664798257,-0.4182668664798257,1.0000141356469203,5.666621399841584e-05
-0.4176855128425814,-0.4176855128425814,1.0000955950891737,5.682742848593141e-05
-0.41673905872303296,-0.41673905872303296,1.000018781250077,5.682638982825515e-05
-0.41619261624873616,-0.41619261624873616,1.000047579982171,5.677266880235054e-05
-0.4154978589816892,-0.4154978589816892,1.0000153294096854,5.643040184584281e-05
-0.41504166165250356,-0.41504166165250356,1.0001050443331887,5.640097564393099e-05
-0.4145640880262363,-0.4145640880262363,0.9999658700205284,5.660807515991338e-05
-0.4143588373241073,-0.4143588373241073,0.9999220706252541,5.658547060357877e-05
-0.41398554742336274,-0.41398554742336274,1.0000128808520794,5.698729725349671e-05
-0.4126704585411062,-0.4126704585411062,1.00002098844551,5.659824780830944e-05
-0.4121340233956289,-0.4121340233956289,1.0000194347013565,5.668333015325332e-05
-0.41171383434921155,-0.41171383434921155,1.0001456107704132,5.6320288160230096e-05
-0.41154041212284936,-0.41154041212284936,1.0000273181840027,5.6579819800500374e-05
-0.41107016364330773,-0.41107016364330773,1.000021164357224,5.658111691010339e-05
-0.41040044576657236,-0.41040044576657236,1.0000620428294311,5.8357722284127856e-05
-0.4098820285296824,-0.4098820285296824,1.000015414856903,5.6758497827158004e-05
-0.4091878323728452,-0.4091878323728452,1.0000932172471675,5.959071257010569e-05
-0.40824200639835906,-0.40824200639835906,0.9999866385703028,5.667654313872302e-05
-0.40797391449377757,-0.40797391449377757,0.9999455498136645,5.721873716968553e-05
-0.4078464773432643,-0.4078464773432643,1.0000059466956697,5.6744275165940784e-05
-0.40764245849786673,-0.40764245849786673,0.9999506393280182,5.6303591406128306e-05
-0.40717625566394416,-0.40717625566394416,0.9999735612381393,5.65044634548604e-05
-0.40659913105482703,-0.40659913105482703,0.9999717933744099,5.696717954943431e-05
-0.40608263205067485,-0.40608263205067485,1.0000371196020796,5.659586317999499e-05
-0.405418456919142,-0.405418456919142,1.0000943581250474,5.7341890914593e-05
-0.4047691506690171,-0.4047691506690171,0.9999341612760272,5.685356455369273e-05
-0.4043832275485329,-0.4043832275485329,0.9999908536650169,5.6591685321366734e-05
-0.40409535910876004,-0.40409535910876004,0.9998778865022631,5.6491066008938195e-05
-0.40378706871706527,-0.40378706871706527,1.0001120968992292,5.649820516542142e-05
-0.40312815203578795,-0.40312815203578795,1.0000354949963017,5.687306078980321e-05
-0.40248707358550745,-0.40248707358550745,0.9999929821777569,5.675188505485102e-05
-0.4020558624855767,-0.4020558624855767,1.0001004771571333,5.686039455037301e-05
-0.4011382607539417,-0.4011382607539417,1.0000708061760393,5.641224527251162e-05
-0.4005317931470927,-0.4005317931470927,1.0000213411879186,5.631597676531696e-05
-0.4002665639949555,-0.4002665639949555,1.000090491224339,5.677998958126056e-05
-0.40004354869233794,-0.40004354869233794,0.9999831733220355,5.668250594609063e-05
-0.39918805073102703,-0.39918805073102703,0.9998497298223811,5.707655386208224e-05
-0.39860332457028563,-0.39860332457028563,1.0000027834222824,5.6591597411868585e-05
-0.39807452720051517,-0.39807452720051517,0.9999572711515798,5.669672142462464e-05
-0.3975348470339668,-0.3975348470339668,0.9999966101599176,5.667114506638798e-05
-0.39715335900109494,-0.39715335900109494,0.9999868995886972,5.641813997680135e-05
-0.3966789436119143,-0.3966789436119143,1.0000272307290485,5.6509359705183876e-05
-0.39595619304382124,-0.39595619304382124,1.000088598360308,5.697040036985281e-05
-0.39494853052674445,-0.39494853052674445,1.0000137548390737,5.63293492358103e-05
-0.39413455237227024,-0.39413455237227024,0.9999147226205064,5.659607446144971e-05
-0.39373585835201086,-0.39373585835201086,0.9998955789582649,5.640321843867738e-05
-0.39342995121987767,-0.39342995121987767,0.9999092453073942,5.649768420292814e-05
-0.3929532512120204,-0.3929532512120204,1.00006399623555,5.685424981191567e-05
-0.39215248163382055,-0.39215248163382055,1.000044076110872,6.0027504877936394e-05
-0.39135745130624855,-0.39135745130624855,1.000029685619419,5.684002515559147e-05
-0.39038369151894586,-0.39038369151894586,0.9999781301548666,5.6865790411143565e-05
-0.38998733684275066,-0.38998733684275066,1.0000321725958385,5.659523848586031e-05
-0.389821019343799,-0.389821019343799,1.0000589156481525,5.7167244273101194e-05
-0.3896462791977683,-0.3896462791977683,0.9999408396792042,5.648123109508985e-05
-0.38935230680508537,-0.38935230680508537,0.9999538280794582,5.657901357739499e-05
-0.3888606731008622,-0.3888606731008622,0.9999990506596266,5.6701545771554e-05
-0.3881711984577123,-0.3881711984577123,0.999999854712048,5.7499127882823606e-05
-0.38768225290623376,-0.38768225290623376,1.0000477620318884,5.6800288626957646e-05
-0.3868802153039724,-0.3868802153039724,0.999959965941455,5.669722465641362e-05
-0.38624908118872553,-0.38624908118872553,1.0000087869630991,5.649912556449058e-05
-0.3859867546554597,-0.3859867546554597,0.9999308590917362,5.658711408183395e-05
-0.38560603029400226,-0.38560603029400226,1.0000088616534588,5.686776661210055e-05
-0.38463928763667354,-0.38463928763667354,1.0000137779645588,5.6813527904108786e-05
-0.38422660256110247,-0.38422660256110247,1.0000504154528502,5.6685782613748137e-05
-0.3834665617934661,-0.3834665617934661,0.9999470099023677,5.671591220986139e-05
-0.3829362398246303,-0.3829362398246303,0.9999881653597793,5.650386980565285e-05
-0.38249702632456317,-0.38249702632456317,0.9999824457639571,5.65166120506529e-05
-0.38216744572418976,-0.38216744572418976,1.0000326337432803,5.677562993745375e-05
-0.38172247087568395,-0.38172247087568395,1.000043278990985,5.686626391181802e-05
-0.3807598418687121,-0.3807598418687121,0.9999589497264534,5.770191659216883e-05
-0.38015377253104815,-0.38015377253104815,0.9999354260462333,5.6675087171013126e-05
-0.3795947441627504,-0.3795947441627504,1.0000329057498079,5.6692283232103236e-05
-0.37931663940107685,-0.37931663940107685,1.0000131371295808,5.66709274154061e-05
-0.3790223613847047,-0.3790223613847047,1.000036251401067,5.6401335569058303e-05
-0.3784187960118288,-0.3784187960118288,0.9999944483840656,5.670680520453719e-05
-0.3773314011297771,-0.3773314011297771,0.9999289153091157,5.963335950820053e-05
-0.3765581654319249,-0.3765581654319249,1.00006853224975,5.640672551316705e-05
-0.3757064222394547,-0.3757064222394547,1.0000162308412208,5.714532693742588e-05
-0.37553312661402743,-0.37553312661402743,0.9999910090155092,5.6455802786676234e-05
-0.37523977747114257,-0.37523977747114257,1.000015655552239,5.649931309562119e-05
-0.37489538267909667,-0.37489538267909667,0.9998983179214905,5.6596133043551434e-05
-0.3739654964512738,-0.3739654964512738,1.0001043746798888,5.663273666009174e-05
-0.37352414364067954,-0.37352414364067954,0.9998649700302936,5.741398102714493e-05
-0.37297185306597386,-0.37297185306597386,1.000099241219947,5.6611220587738245e-05
-0.3725366873477469,-0.3725366873477469,0.9999677144816428,5.6696676747502615e-05
-0.3720462592689728,-0.3720462592689728,1.0000464993866849,5.668280941860641e-05
-0.3718172130284074,-0.3718172130284074,0.9999400616626242,5.7123739417733566e-05
-0.3716272005971405,-0.3716272005971405,0.9999688851042505,5.6412498172243855e-05
-0.3712415485359088,-0.3712415485359088,0.9999852062165682,5.658614207069942e-05
