time,time,flux,flux_err
-0.49995334787430085,-0.49995334787430085,0.9999772403399453,0.0003150726412742142
-0.4998552833494614,-0.4998552833494614,1.0004267250432761,0.00032824658952345883
-0.49962898219625157,-0.49962898219625157,0.9998313901740793,0.000308863649162041
-0.49948174465680495,-0.49948174465680495,1.0000298662357547,0.0003226960182072415
-0.49937881758087316,-0.49937881758087316,0.9996374739563727,0.00030037034270327055
-0.49928676851050113,-0.49928676851050113,0.9997735005087417,0.00027946057680994284
-0.49913144261881826,-0.49913144261881826,0.9998444815480394,0.00030459264549283243
-0.49884509556286505,-0.49884509556286505,1.0002628784969976,0.000277271553922007
-0.498675809539418,-0.498675809539418,0.9999437143012895,0.0002911767567948198
-0.49854816260412915,-0.49854816260412915,0.999844673843237,0.00029088869429822465
-0.4984324072029267,-0.4984324072029267,0.9998168148365961,0.00029948125043026505
-0.4983412638728623,-0.4983412638728623,0.9998298048539038,0.0003158233882906919
-0.4981425084915827,-0.4981425084915827,1.0003727129453441,0.00027738878158678015
-0.49800383556284944,-0.49800383556284944,0.9998230672180022,0.0002983365343515546
-0.49791186753718647,-0.49791186753718647,0.9997758826482617,0.0002987538535205345
-0.49771700980054445,-0.49771700980054445,1.0002717643559857,0.0002893869920834198
-0.4975986072480737,-0.4975986072480737,0.9996875338519324,0.0002931309785919268
-0.4974816797119274,-0.4974816797119274,0.9999064046737323,0.000288499582905479
-0.4973658185423119,-0.4973658185423119,1.0001988690147472,0.0002908532449314468
-0.4971736699568282,-0.4971736699568282,1.0003108449623814,0.0002943134069410693
-0.4970798529830063,-0.4970798529830063,1.0004650578186158,0.0002950229597487381
-0.4970048725685047,-0.4970048725685047,1.0002688390283796,0.00029238777320751447
-0.496852074572962,-0.496852074572962,0.9997990301823672,0.0002853712943496784
-0.496640107868734,-0.496640107868734,1.0002639477625026,0.00028380160837648144
-0.4965227322711144,-0.4965227322711144,1.0002676109145314,0.0002954435764080139
-0.4964586622932984,-0.4964586622932984,0.9998778951141581,0.00030251957253713696
-0.496348387611215,-0.496348387611215,0.9998823584067843,0.00028580279349050403
-0.49622839837902577,-0.49622839837902577,0.9999463740677117,0.00029307119950145686
-0.49613691831327744,-0.49613691831327744,1.000112400523397,0.0002913720195272993
-0.4959741877755732,-0.4959741877755732,0.9995404018432786,0.0002830036016436018
-0.49580153439528657,-0.49580153439528657,0.999899605834222,0.00027936308456732756
-0.49558086549295693,-0.49558086549295693,1.000164502065397,0.00029123281511430656
-0.4954029334548977,-0.4954029334548977,0.9997015094830489,0.0002851559772638167
-0.49532649321627104,-0.49532649321627104,1.0004063719745568,0.00029738196553453827
-0.4952502433101472,-0.4952502433101472,0.9999592564142621,0.0002943598316801198
-0.4951703845486918,-0.4951703845486918,0.9997469970168936,0.0002818211695267419
-0.49500003580760676,-0.49500003580760676,0.9998497405222053,0.0003572341913608087
-0.4948767962589045,-0.4948767962589045,1.0001326371152346,0.00028833269832256013
-0.4947806641488569,-0.4947806641488569,0.999868107617141,0.00029119502773495827
-0.4947116188785003,-0.4947116188785003,0.9997544931733385,0.0002922837296409004
-0.494541232829215,-0.494541232829215,1.000086831082328,0.0003215653310891286
-0.4943906784261344,-0.4943906784261344,0.9998350205199407,0.0002907434596515216
-0.4941720660965075,-0.4941720660965075,1.000196505750058,0.0003186409779289621
-0.4940682056781952,-0.4940682056781952,1.0004968325958157,0.0002766990130697251
-0.49389382538138304,-0.49389382538138304,1.0002998677468877,0.00028681001523014167
-0.49377107129257636,-0.49377107129257636,0.9998441524316668,0.00029519500416019687
-0.4936990146044991,-0.4936990146044991,1.0004951679344827,0.0002999184094536269
-0.4935563912171347,-0.4935563912171347,1.000083183621717,0.0002861606221767754
-0.49342491229399454,-0.49342491229399454,1.000587888664906,0.00029197902274657355
-0.4933171485310595,-0.4933171485310595,0.9994182965810499,0.000292278806187587
-0.49326483727127196,-0.49326483727127196,1.0001226923745954,0.00030112571692365023
-0.49315970006937276,-0.49315970006937276,0.999730831602751,0.0003470289240353194
-0.49307271368306826,-0.49307271368306826,1.0002823090501283,0.0002754037194236357
-0.49287396372310466,-0.49287396372310466,1.0002231913523691,0.00029922647396265275
-0.4927050796308322,-0.4927050796308322,0.9997661671112745,0.0002980606411947319
-0.49263703854812774,-0.49263703854812774,1.0003163049319048,0.00027352155021403773
-0.49241195096838053,-0.49241195096838053,1.0000329666999197,0.0002769290992444278
-0.49227560786894176,-0.49227560786894176,0.9999369813163718,0.00029995033146109734
-0.4921644833229948,-0.4921644833229948,1.0001458306268929,0.00027984011802726304
-0.49194252687302653,-0.49194252687302653,0.9998766225963903,0.000290179172077211
-0.49185573452559767,-0.49185573452559767,0.9999016074440463,0.0003202197951327105
-0.49179830122157,-0.49179830122157,1.0001079118005731,0.00029110773331867963
-0.4915713532092923,-0.4915713532092923,0.9996615702431594,0.00031450576072566527
-0.49141781908692794,-0.49141781908692794,1.0001051962686618,0.00029108026985078737
-0.491311497103743,-0.491311497103743,0.9999134000843094,0.00029992561280592513
-0.4911370716275997,-0.4911370716275997,0.9998057677345107,0.0003019149377280692
-0.4909229827237141,-0.4909229827237141,0.9999557052157904,0.00029618675576825835
-0.4908553599707375,-0.4908553599707375,0.999873873773587,0.0002847338691114821
-0.4907450834449264,-0.4907450834449264,1.0001924030485305,0.00028375161083729475
-0.4905599503974372,-0.4905599503974372,0.999964362821542,0.00028578163628257956
-0.49042778960210853,-0.49042778960210853,0.9996552604472131,0.0002751738927487703
-0.4903272748619202,-0.4903272748619202,1.000470922198482,0.00029719788344298285
-0.4902246287165326,-0.4902246287165326,1.0000137806552005,0.00029758312829887285
-0.49008233971326265,-0.49008233971326265,0.9994200788984046,0.000412061373668299
-0.490001727512572,-0.490001727512572,0.9997047011029736,0.00029282148502760355
-0.489893825614854,-0.489893825614854,1.000198127785854,0.00029819863103659955
-0.4896260516667098,-0.4896260516667098,1.0000804098548333,0.00027772272355424397
-0.489411534347164,-0.489411534347164,1.000258627264119,0.0002775387772168617
-0.4892799467925215,-0.4892799467925215,1.0001063458818333,0.00028624792166725835
-0.48919749632914317,-0.48919749632914317,0.9997763470812832,0.0002899147599529524
-0.4891360291636374,-0.4891360291636374,1.0004125538200557,0.00028998722130585636
-0.4890280119041563,-0.4890280119041563,1.0002162661248621,0.0002888119253164292
-0.48889736117853316,-0.48889736117853316,0.9998440940140363,0.000280405935421825
-0.4887834774803196,-0.4887834774803196,0.9998786525132788,0.0002830501894400772
-0.4886787213283242,-0.4886787213283242,1.0000698880839078,0.0002860314342562576
-0.48858646398293787,-0.48858646398293787,1.0004046022263973,0.0002948824687682609
-0.488421718783502,-0.488421718783502,1.0000504233891385,0.00028838278601830443
-0.48820866689784453,-0.48820866689784453,1.0000748551124137,0.0002942134551323898
-0.4879755578513141,-0.4879755578513141,0.9998633714436795,0.0002992156019716599
-0.4877982250509376,-0.4877982250509376,1.0005178985139014,0.00028995554501786753
-0.4876444804343919,-0.4876444804343919,1.0001103762556256,0.0002914156700170868
-0.4875482183975691,-0.4875482183975691,1.000135866734668,0.0002874907921055308
-0.4874247565974656,-0.4874247565974656,1.0001068493131249,0.00028914454320817513
-0.4872861169424141,-0.4872861169424141,1.0004735098097404,0.0002830291725598135
-0.4871674568450544,-0.4871674568450544,1.0005263351268823,0.00030074270483028013
-0.48713542631812745,-0.48713542631812745,1.000061231502648,0.00029727655703607175
-0.48706750798883147,-0.48706750798883147,0.9998486217132623,0.00028576240251483684
-0.48695084329083327,-0.48695084329083327,1.0000048679960902,0.0003841708130622993
-0.48675657945132117,-0.48675657945132117,0.9998878419480898,0.00029723424909873346
-0.4865885675251775,-0.4865885675251775,1.000163916831541,0.0002882586701371456
-0.4864451762085082,-0.4864451762085082,1.0001033975327212,0.00027975646592222667
-0.4862426612387935,-0.4862426612387935,1.0003513608223058,0.0002852013459506903
-0.4860893488548754,-0.4860893488548754,0.9999008388279037,0.00031174806913664794
-0.48597856274718654,-0.48597856274718654,1.0003508214351498,0.0002788672136420488
-0.48578036729668383,-0.48578036729668383,1.0003275167042907,0.0002957081259125182
-0.48570572282042124,-0.48570572282042124,0.9997562872214679,0.00028782870766652267
-0.4856097849406069,-0.4856097849406069,0.999755519356112,0.0002955670008807533
-0.48541037389732083,-0.48541037389732083,1.0005112162819099,0.00029405275199399306
-0.4852533965196926,-0.4852533965196926,1.0000035941481893,0.0003208983632565818
-0.4850552106479881,-0.4850552106479881,1.0002359009517732,0.00029090967059230836
-0.48491480590528224,-0.48491480590528224,1.0002853832800684,0.00029307618665063383
-0.4847526725869102,-0.4847526725869102,0.9997632596091274,0.0003048047208380659
-0.48469985897318113,-0.48469985897318113,0.9996414475432213,0.00028638914695057336
-0.48459706194480534,-0.48459706194480534,1.0004913832062141,0.00029558037345368663
-0.48453561890564745,-0.48453561890564745,1.0003929740719082,0.00028435873555278244
-0.4844553218885267,-0.4844553218885267,1.0003045249948803,0.0002928693997862605
-0.48431094167390254,-0.48431094167390254,1.000215324572482,0.0002918962306616982
-0.4841906992412987,-0.4841906992412987,1.0002987054793127,0.00028160946769103926
-0.48411009899937196,-0.48411009899937196,1.0002317435688473,0.0002936540738322196
-0.4839805469935527,-0.4839805469935527,1.0000301335193287,0.00029228381349625507
-0.48384613287780665,-0.48384613287780665,1.0000865285448386,0.00029261838867637713
-0.48376179923143353,-0.48376179923143353,1.0006448076822312,0.00029708637400682183
-0.483440822945704,-0.483440822945704,1.000367150354183,0.00028381721284377403
-0.48331759995562606,-0.48331759995562606,0.9997327238407359,0.0002853082923325068
-0.48320198269721004,-0.48320198269721004,1.0001826828293736,0.00028796982694007046
-0.4831191440593102,-0.4831191440593102,1.0001480175101762,0.00029515538442838514
-0.4830301900634367,-0.4830301900634367,1.000208645324838,0.0002842982816974477
-0.4829179456086422,-0.4829179456086422,0.9995830438536398,0.000291596397157206
-0.4827843185245001,-0.4827843185245001,1.0001845258202808,0.00028977521963781855
-0.4827086938923458,-0.4827086938923458,1.000187598286773,0.00027980456732822317
-0.4826243221585173,-0.4826243221585173,0.9999560256796002,0.0002880805166445648
-0.48249517611984627,-0.48249517611984627,1.0000752181580084,0.00030288591627467394
-0.4822100556339137,-0.4822100556339137,1.0001254370891486,0.00030392398517978096
-0.48193026671142436,-0.48193026671142436,0.9996957405704313,0.0002932060008412934
-0.48170345370381257,-0.48170345370381257,1.0001379390626395,0.000284763887721888
-0.48150934244549715,-0.48150934244549715,1.0003359382219508,0.00029642383246439687
-0.4813557132067217,-0.4813557132067217,0.9998764420353112,0.00029111374432750216
-0.4812323523721716,-0.4812323523721716,1.0002263377765424,0.00028328303618860046
-0.4811312767196796,-0.4811312767196796,1.0003193422924321,0.0002888745417149695
-0.481040459995711,-0.481040459995711,1.0000546648819866,0.0002896421399652736
-0.4809698140146793,-0.4809698140146793,1.0000210158571958,0.00029675578654373997
-0.4809205391225987,-0.4809205391225987,1.0001351193236432,0.00029766455910218366
-0.4808115279338381,-0.4808115279338381,0.9999624106744992,0.0003291608188908853
-0.4807385297921428,-0.4807385297921428,1.0004621387937658,0.0003091982941887157
-0.48054606808582323,-0.48054606808582323,0.9999820179437485,0.00030734712983612923
-0.4803461892042833,-0.4803461892042833,0.9995086435149114,0.00028336390300513574
-0.4802134249890514,-0.4802134249890514,1.000442736764412,0.0002797091334356841
-0.48000526143441674,-0.48000526143441674,0.9998700394378244,0.0002786987794092021
-0.4799041484999179,-0.4799041484999179,1.0001918372637004,0.00032849284696266477
-0.47976456204341955,-0.47976456204341955,1.0001827448910428,0.000284947542867747
-0.4796171170739399,-0.4796171170739399,0.9999473330784652,0.000289942766195807
-0.47944836854148887,-0.47944836854148887,1.0006534823132414,0.0003004739334720969
-0.47925930981800774,-0.47925930981800774,0.9999347500755478,0.00030086161210877494
-0.479147588165506,-0.479147588165506,0.9999528910188417,0.00029555018355140764
-0.47898052349773934,-0.47898052349773934,1.000111657257923,0.0003674975154075816
-0.4788610429968685,-0.4788610429968685,0.9999050026759175,0.0002908668107981332
-0.47874497268130656,-0.47874497268130656,1.0001442451300822,0.00029383520039040495
-0.4785965386137832,-0.4785965386137832,1.000296179986409,0.0003047912432636268
-0.47848209360454347,-0.47848209360454347,0.9999941403036561,0.00029281387172305036
-0.4783366772993759,-0.4783366772993759,0.9999481943365296,0.00030359663900880523
-0.478168427352648,-0.478168427352648,0.9998757184647848,0.0002923424767699438
-0.4780653150461148,-0.4780653150461148,0.9998147183552593,0.0002824882490338691
-0.4779832910629921,-0.4779832910629921,0.9996821931506107,0.0002999157899325267
-0.47787771815710584,-0.47787771815710584,1.0002922317729328,0.0002952403746755526
-0.47767559042113134,-0.47767559042113134,0.9996527958548895,0.0002973596229382051
-0.4774976252214401,-0.4774976252214401,1.000077252964793,0.00028169416677976445
-0.47721620440061085,-0.47721620440061085,0.9999845869619517,0.00028128864180832944
-0.4770758054975886,-0.4770758054975886,1.0000279688692053,0.0002866334946650911
-0.4769924135573092,-0.4769924135573092,1.0001039894897275,0.00030405348136845853
-0.47694451564893825,-0.47694451564893825,0.9997517443117859,0.00028563363342093
-0.476855616793182,-0.476855616793182,0.9998520396753585,0.00028994397373135924
-0.4767404677455488,-0.4767404677455488,0.9999723160366603,0.0002784848816434597
-0.4766088557946205,-0.4766088557946205,0.9997829945997315,0.0002921289276745087
-0.4765188683923043,-0.4765188683923043,1.0001892690613363,0.00029898588371678376
-0.4764424609929847,-0.4764424609929847,0.9999277545549929,0.0002863420683701123
-0.47631769559156967,-0.47631769559156967,0.9998941698704062,0.0002882285433109391
-0.4760594548868539,-0.4760594548868539,1.0000028532887737,0.00029811943458053704
-0.47587758765075705,-0.47587758765075705,0.9999749581145153,0.0002928212548896665
-0.4756315033802821,-0.4756315033802821,0.999972870410485,0.0002973465987481707
-0.47548788937419884,-0.47548788937419884,0.9998789231929862,0.00027769808034569163
-0.47538935836128077,-0.47538935836128077,0.9999165025868251,0.00039153696268885664
-0.4753122481575701,-0.4753122481575701,1.0000664471985956,0.0002919673561185826
-0.4751560264965519,-0.4751560264965519,0.9999831993807723,0.00029992614686563223
-0.4750352214468876,-0.4750352214468876,0.999903238004612,0.00029527576574270287
-0.47496524579328253,-0.47496524579328253,0.9999805327920871,0.00028266725969711105
-0.47486352086052647,-0.47486352086052647,0.9997589097203408,0.0002904450525490119
-0.4747975088874227,-0.4747975088874227,0.9997242862872987,0.00029321213904203174
-0.4746959070362209,-0.4746959070362209,0.9998860926010386,0.00030217035947705895
-0.4745751607551938,-0.4745751607551938,0.9998439213278889,0.00029698724015903585
-0.47450325473982957,-0.47450325473982957,1.0001672364431686,0.0002989225321134352
-0.4742898998396413,-0.4742898998396413,1.0000999644266393,0.0002892726154621756
-0.4741084261062497,-0.4741084261062497,0.9998807941503605,0.0002887093890618337
-0.4739450573542854,-0.4739450573542854,1.000302501277801,0.0002759440604044991
-0.4737780736999412,-0.4737780736999412,0.9998874736658655,0.0003083791993380947
-0.47363728846394226,-0.47363728846394226,0.9998299075497885,0.0002730007122018278
-0.4735027087132039,-0.4735027087132039,1.0002496668136058,0.0002993311475102629
-0.47333083736230036,-0.47333083736230036,1.0002037459088773,0.00028948125228753067
-0.47317746689077467,-0.47317746689077467,0.9998122745132104,0.00028807971383189995
-0.4730607634948683,-0.4730607634948683,1.00015011846074,0.00030132016219012753
-0.4729371165856719,-0.4729371165856719,0.9999021429205961,0.0002967116984101681
-0.4727154586551478,-0.4727154586551478,0.9998709998263899,0.0002970419582782451
-0.4726007485907758,-0.4726007485907758,1.0000072942282725,0.0002869230582515629
-0.4725293949530169,-0.4725293949530169,1.0000673457789722,0.0003016369915642776
-0.4723563416002435,-0.4723563416002435,0.9999602124046474,0.0002932820507268918
-0.4722224707467831,-0.4722224707467831,0.9997766294970708,0.00029491148752412374
-0.4720877360428858,-0.4720877360428858,0.9998317048260894,0.00029998052553092345
-0.4719618051793077,-0.4719618051793077,0.9997797364570559,0.0002922364696509361
-0.47185043309364116,-0.47185043309364116,0.9999732227085574,0.00029751391861078613
-0.47178283963366996,-0.47178283963366996,1.0001087644823217,0.00029716109703709553
-0.4716926702938508,-0.4716926702938508,0.9999308048925732,0.0002941776246456946
-0.4716129889304284,-0.4716129889304284,0.999978098597578,0.0002985407794039193
-0.47144871414711814,-0.47144871414711814,0.9998467836692884,0.0002891466046598329
-0.4712475555243145,-0.4712475555243145,0.999584914430163,0.0002803893155957045
-0.4710380337259267,-0.4710380337259267,0.9999208510348282,0.00037895927310951976
-0.47093163753379486,-0.47093163753379486,0.9995546977327685,0.00028336128496491634
-0.47083806863811334,-0.47083806863811334,1.0002193692467567,0.0002983936109036098
-0.4707847036777821,-0.4707847036777821,0.9997805345114641,0.00029535529474873423
-0.47072176197179944,-0.47072176197179944,0.99977099327667,0.0002813227566451681
-0.47053642493774533,-0.47053642493774533,0.9996842723864073,0.00028032678942036806
-0.4703868399461498,-0.4703868399461498,1.0002299649695106,0.00029225685839620694
-0.470289869185217,-0.470289869185217,1.000047733851088,0.00028886926621505383
-0.4701785130288044,-0.4701785130288044,1.00016877377242,0.00029030459025112756
-0.4700512600255024,-0.4700512600255024,1.0001530881580443,0.00027614234652166916
-0.4698451091033348,-0.4698451091033348,0.9993697689148504,0.00030262020268345685
-0.4696883714386786,-0.4696883714386786,0.9998775648459727,0.0003731021106360757
-0.46952099114569135,-0.46952099114569135,1.000118201800115,0.00028721665389483256
-0.4693432965206739,-0.4693432965206739,1.0003220172432488,0.000276825065499344
-0.4692460390935594,-0.4692460390935594,1.0003617194631533,0.0003019877989449614
-0.46913795964646854,-0.46913795964646854,1.0001595084697517,0.00028977194652234615
-0.46896428942054624,-0.46896428942054624,1.000191089558189,0.0002868650594975401
-0.46884603196158425,-0.46884603196158425,0.9999567010323063,0.00028694650138354617
-0.4687698474233912,-0.4687698474233912,1.0001649418338112,0.0002985955652214672
-0.4686546700191684,-0.4686546700191684,1.000458098299383,0.00029140991949169786
-0.468545911549154,-0.468545911549154,1.0001612144610494,0.00029400200590401417
-0.4684224203934718,-0.4684224203934718,1.0000587182748306,0.0002906077044298229
-0.46819345577532656,-0.46819345577532656,1.0002049765305756,0.0002891593774678535
-0.46804159620951397,-0.46804159620951397,1.0004099760737972,0.0003045957419626591
-0.4679003473815101,-0.4679003473815101,0.9997956418902525,0.00028331831905779257
-0.46777981578270555,-0.46777981578270555,0.999796493855525,0.0002849265878062948
-0.4676442549760395,-0.4676442549760395,0.9999262821807775,0.00029629289228796105
-0.4674806889292086,-0.4674806889292086,0.9998182979168554,0.0002673108133438808
-0.4673506385668588,-0.4673506385668588,0.9998623702997588,0.00030368201137682016
-0.4672444529889617,-0.4672444529889617,1.0003127808199461,0.0002967115599909059
-0.46706077370399723,-0.46706077370399723,1.0002468307060597,0.0002821699135084006
