time,time,flux,flux_err
-0.4998887984256726,-0.4998887984256726,1.0000661223126206,0.0001072054727199489
-0.49970614625241677,-0.49970614625241677,1.0001402942038509,0.0001059616175769327
-0.4994543988483201,-0.4994543988483201,0.9999215382626818,9.575916795139783e-05
-0.4993582349190547,-0.4993582349190547,1.000048885009266,9.714448782750321e-05
-0.4993086620415852,-0.4993086620415852,0.9999609270751317,9.699175434055868e-05
-0.4992694172746269,-0.4992694172746269,0.999915758221784,9.60222454599021e-05
-0.4991766671966616,-0.4991766671966616,0.9999257142507558,0.00010044514372548822
-0.49904948984403746,-0.49904948984403746,0.9998312329673595,0.00010252282169877875
-0.49889868751342875,-0.49889868751342875,1.0000194965199602,9.911475883126703e-05
-0.4986008134659642,-0.4986008134659642,1.0000670659493855,9.748666413919227e-05
-0.4983962970083667,-0.4983962970083667,1.0000237381029362,9.83589604325312e-05
-0.49829878739183187,-0.49829878739183187,0.9999741508399985,9.495250621076231e-05
-0.49815266412115305,-0.49815266412115305,1.0001890059160894,9.441439683627087e-05
-0.4980527484509366,-0.4980527484509366,1.000054196606119,9.896698941219504e-05
-0.49787514525378357,-0.49787514525378357,1.000182280243063,9.724532113960335e-05
-0.49770528752669635,-0.49770528752669635,0.9999020196222338,9.670266783141512e-05
-0.4976703757467476,-0.4976703757467476,1.0001860460930945,0.00010059864269318657
-0.49759272206065364,-0.49759272206065364,1.0001621529307592,9.486944548639707e-05
-0.4975095617388433,-0.4975095617388433,1.000071972008578,0.0001001767750413122
-0.4973955380708503,-0.4973955380708503,1.0001403079003226,0.00010067374491636328
-0.4973271158629359,-0.4973271158629359,1.0000749384933798,9.65007941729757e-05
-0.49720293926438897,-0.49720293926438897,0.9998680741028115,9.539346740854062e-05
-0.4970422896374657,-0.4970422896374657,1.000128681920673,9.8535539950561e-05
-0.4968133983122243,-0.4968133983122243,0.9999343050670728,9.735077038740161e-05
-0.4966501989601966,-0.4966501989601966,0.9998149029586791,9.581415710843646e-05
-0.4964942401948065,-0.4964942401948065,0.9998707368081187,9.497663464009012e-05
-0.49634369942286866,-0.49634369942286866,1.0000541291374299,9.762106290490819e-05
-0.49612021171342346,-0.49612021171342346,1.0000705028749137,9.623338372420441e-05
-0.4959996586079797,-0.4959996586079797,0.9999488566682683,9.879874446030582e-05
-0.4958539676179498,-0.4958539676179498,1.0001892945567594,9.83800097682519e-05
-0.4957382608892658,-0.4957382608892658,0.9999069380065551,9.975634290896327e-05
-0.4956698333629902,-0.4956698333629902,1.000142129800955,9.712773437081613e-05
-0.4955194883805234,-0.4955194883805234,1.000061986073407,9.582748117327789e-05
-0.49539894357003506,-0.49539894357003506,1.0001792620082726,9.824925850456068e-05
-0.4952638614551688,-0.4952638614551688,1.0000628001272904,9.695967449637621e-05
-0.49513969129802715,-0.49513969129802715,1.0000579635002649,9.526536084013501e-05
-0.4949965455543861,-0.4949965455543861,1.0000695682144363,9.547432481474045e-05
-0.49490383487973305,-0.49490383487973305,0.9999007901315684,9.650160263941579e-05
-0.4948202145198593,-0.4948202145198593,1.000153360474624,9.73946766441304e-05
-0.4947332202216785,-0.4947332202216785,1.0002140578642407,9.577589777097163e-05
-0.49460339113575175,-0.49460339113575175,1.00009451352854,9.875912116504768e-05
-0.4944088288379135,-0.4944088288379135,0.999910183550955,9.538615833825387e-05
-0.4942847048037947,-0.4942847048037947,1.0003350862381855,0.00010031104705851423
-0.49421781820601607,-0.49421781820601607,1.0002832374668746,9.937652315473698e-05
-0.49409422776734574,-0.49409422776734574,1.0000410241818583,9.817952801225609e-05
-0.494014476216762,-0.494014476216762,1.0002007003663238,9.669702466035075e-05
-0.49391551006556256,-0.49391551006556256,0.9999279923769817,9.61656690271299e-05
-0.4938240186362236,-0.4938240186362236,1.000036092820618,9.74480771990076e-05
-0.4937068740648101,-0.4937068740648101,1.0000897605357748,9.662604879974537e-05
-0.49355226366715216,-0.49355226366715216,1.0000157780699008,9.789747018080861e-05
-0.49331353656780264,-0.49331353656780264,0.9998761347900518,9.489153918361399e-05
-0.4932349170805537,-0.4932349170805537,1.0001331200961707,9.624932763076545e-05
-0.49315584642899923,-0.49315584642899923,1.0001999189572124,9.733310548678859e-05
-0.4930547044496052,-0.4930547044496052,1.0000233406058365,9.747294085997969e-05
-0.4929420289125119,-0.4929420289125119,1.0002090336705751,9.583755379018676e-05
-0.49274190512624044,-0.49274190512624044,0.9999010370567716,9.682878000196135e-05
-0.4925770168822055,-0.4925770168822055,1.000011306852188,9.960268850099999e-05
-0.49251314154716963,-0.49251314154716963,1.0000617627584278,9.619676519439447e-05
-0.49241835296452335,-0.49241835296452335,1.0000974659708235,9.811001886390082e-05
-0.49231986079648776,-0.49231986079648776,1.0001564285925817,9.926237430784614e-05
-0.49217977591906675,-0.49217977591906675,1.000132672109504,9.750496389104957e-05
-0.492122730410847,-0.492122730410847,0.9999994121271678,9.387270834798817e-05
-0.49198991997873237,-0.49198991997873237,1.0002103659697297,9.648866333882305e-05
-0.4919036822982889,-0.4919036822982889,1.0001112663964826,9.858893624080256e-05
-0.4917452087131096,-0.4917452087131096,0.9997418810370245,9.6465739853427e-05
-0.49149909924381063,-0.49149909924381063,1.0000040687870482,9.785916540703986e-05
-0.4912949442270474,-0.4912949442270474,0.999865168911465,9.804651403761558e-05
-0.491163012105244,-0.491163012105244,1.0001561244265968,9.766933902776891e-05
-0.4909138774011808,-0.4909138774011808,1.0001322016702834,9.919954941015157e-05
-0.49085176235930705,-0.49085176235930705,1.000071968011081,9.73492821339731e-05
-0.49080113442687434,-0.49080113442687434,1.0000026475727999,9.87223103133629e-05
-0.49068712560474526,-0.49068712560474526,1.000260354120479,9.861189917323147e-05
-0.49051529973912694,-0.49051529973912694,0.9999615523500406,9.67992358719862e-05
-0.4904311401482119,-0.4904311401482119,0.9999968167447143,9.77026917341229e-05
-0.4903256318782951,-0.4903256318782951,1.0001866052410209,9.771420701900233e-05
-0.4902287578726828,-0.4902287578726828,1.0000651850279512,9.733463257465227e-05
-0.49009841131119175,-0.49009841131119175,1.0001717370973062,9.54232915093554e-05
-0.4899710131681786,-0.4899710131681786,0.9999014813805663,9.899633488156138e-05
-0.48987271539081123,-0.48987271539081123,1.0001006242270718,9.930370116811808e-05
-0.4897995007184363,-0.4897995007184363,1.0000726616283486,9.756611641228386e-05
-0.4897241076669161,-0.4897241076669161,0.999997917043894,9.731020720730241e-05
-0.4896202738480497,-0.4896202738480497,1.000096801168608,9.891868971041894e-05
-0.4893951755595481,-0.4893951755595481,1.000089752670468,9.887946399838386e-05
-0.4892642540311499,-0.4892642540311499,1.0001232343344584,9.266665669476019e-05
-0.4891693175006367,-0.4891693175006367,1.0000870996637308,9.877668029221182e-05
-0.48911600101637304,-0.48911600101637304,1.0000438526900508,9.596377670047655e-05
-0.48902716653647077,-0.48902716653647077,1.00003439381046,9.602783732030507e-05
-0.488925680720422,-0.488925680720422,0.9999802064184042,9.279915761163006e-05
-0.48883078948638287,-0.48883078948638287,0.9999243364802031,9.928214276279437e-05
-0.48873548203227984,-0.48873548203227984,0.9999768146876296,9.810502715260727e-05
-0.4886631314999249,-0.4886631314999249,1.0000589097627455,9.775065012914378e-05
-0.4885855496981094,-0.4885855496981094,1.0002074715366627,9.533073729765362e-05
-0.48844580616787425,-0.48844580616787425,1.0002070475159333,9.764456936935237e-05
-0.48831463005335535,-0.48831463005335535,1.000057257580285,9.618273169572286e-05
-0.48824278497741036,-0.48824278497741036,1.000324188911685,0.00010157449630671669
-0.4881781281404983,-0.4881781281404983,0.999802451349443,9.512161258749786e-05
-0.4880998967240885,-0.4880998967240885,1.0003420460992056,9.995037516706434e-05
-0.4879990734272724,-0.4879990734272724,1.000350872946285,9.650239072874755e-05
-0.48785281430828037,-0.48785281430828037,0.9999802158772454,0.00010272775105967128
-0.48755827466084156,-0.48755827466084156,1.0001525038949204,9.586996381870266e-05
-0.48743405664099554,-0.48743405664099554,0.9999175601745091,9.663314534437646e-05
-0.48729981959950236,-0.48729981959950236,1.0001787028648255,9.630669463166571e-05
-0.48717829904744575,-0.48717829904744575,0.9999925409391635,9.788600841090795e-05
-0.4869928593685472,-0.4869928593685472,1.0000276079898667,9.469349842119841e-05
-0.4868878197241429,-0.4868878197241429,0.9999504334294251,9.750243469345312e-05
-0.48668062754404673,-0.48668062754404673,0.9999973581826435,9.67180270808957e-05
-0.4865671020172158,-0.4865671020172158,1.000305549824152,9.912267460155126e-05
-0.486485795682529,-0.486485795682529,1.0000079327506188,9.769993748615034e-05
-0.486411380169011,-0.486411380169011,1.000403077914701,9.7731813764346e-05
-0.4863115516393009,-0.4863115516393009,1.0000752060944513,0.00010161438715338763
-0.4861644868113217,-0.4861644868113217,0.9999595304390073,9.575239164675749e-05
-0.4860005691072729,-0.4860005691072729,0.999983711731567,9.901486219604915e-05
-0.48579327485058454,-0.48579327485058454,1.0001244916713214,9.513363428937893e-05
-0.485623711820881,-0.485623711820881,1.0001426885258842,9.94867001731748e-05
-0.4854784779687179,-0.4854784779687179,1.0001093657614404,9.448570782985114e-05
-0.48528349091684503,-0.48528349091684503,0.9999355433185919,9.879351141408598e-05
-0.4850712171024497,-0.4850712171024497,0.9999357773095323,9.615347217602025e-05
-0.4849292167386011,-0.4849292167386011,0.9999930988820873,9.910552768304039e-05
-0.4848672090909531,-0.4848672090909531,0.9999982518437068,9.757313535095857e-05
-0.48477772717233164,-0.48477772717233164,0.9998744322176794,9.714634442542483e-05
-0.4846852033668256,-0.4846852033668256,0.9999707507244567,0.00010025038719633364
-0.4845993854618428,-0.4845993854618428,1.0001780529392508,9.934802776416659e-05
-0.48455248190439304,-0.48455248190439304,0.9999386779305871,9.839188025158923e-05
-0.4844358421876677,-0.4844358421876677,0.9999949588539812,9.607777323676526e-05
-0.4842668741803209,-0.4842668741803209,1.0001599973507527,9.79842448710644e-05
-0.48410599444323454,-0.48410599444323454,1.0001890190304625,9.734003384403817e-05
-0.48398183919198345,-0.48398183919198345,0.9998154031595796,9.537474220416961e-05
-0.48387234774636456,-0.48387234774636456,1.0003472004033476,9.595970528576459e-05
-0.48371417664093314,-0.48371417664093314,0.9997673421681782,9.663836004118745e-05
-0.4835523014258797,-0.4835523014258797,1.0000418800453426,9.654427126222471e-05
-0.48335488964839896,-0.48335488964839896,1.0000980486241542,9.781672369195379e-05
-0.48323320140007126,-0.48323320140007126,1.0001913195057015,9.972026155475901e-05
-0.48310910879263247,-0.48310910879263247,1.0000513417778492,9.693760248730057e-05
-0.48302191333132216,-0.48302191333132216,1.000217790032162,9.800304603163283e-05
-0.4829519712828187,-0.4829519712828187,1.0001587442538304,9.997395271633758e-05
-0.4829098573332885,-0.4829098573332885,1.0001040409930195,9.853373054862565e-05
-0.4827751232100127,-0.4827751232100127,0.9999760054396726,9.677336908396673e-05
-0.4826186038681044,-0.4826186038681044,0.9998854317550603,9.806968629905354e-05
-0.4825217697460175,-0.4825217697460175,1.0000149203566386,9.576641726110649e-05
-0.4824059935373953,-0.4824059935373953,1.0001271728677366,9.614886427583555e-05
-0.4821957445270527,-0.4821957445270527,1.0001647915880618,9.653573927978216e-05
-0.4820938361706794,-0.4820938361706794,1.0002374564293457,9.750816619403008e-05
-0.48200419088680063,-0.48200419088680063,1.0000777990539809,9.792791700878885e-05
-0.4818951815846958,-0.4818951815846958,0.9999989801961788,9.826275240278432e-05
-0.48171460301418845,-0.48171460301418845,1.000007736050999,9.626540956872148e-05
-0.48159685851096584,-0.48159685851096584,1.0000530594052326,9.913564671088643e-05
-0.4815076837508968,-0.4815076837508968,0.9999428925509726,0.00010082780313345657
-0.4814270011320332,-0.4814270011320332,1.0003757570650895,0.0001003550120302664
-0.48133314158149004,-0.48133314158149004,0.999981931676964,9.688915616446925e-05
-0.4812557184573961,-0.4812557184573961,1.000257762777376,9.914934857801846e-05
-0.48111729609954634,-0.48111729609954634,0.9999747644456056,9.856019304987606e-05
-0.4810238140718866,-0.4810238140718866,1.0000406081022926,9.556067481957435e-05
-0.4808765393132489,-0.4808765393132489,1.000407468264622,9.588976951990956e-05
-0.4807827727134281,-0.4807827727134281,1.0000102693025756,9.823491135895202e-05
-0.4806589756542962,-0.4806589756542962,0.999954154745622,9.552235447206002e-05
-0.48050179273523097,-0.48050179273523097,0.9999279719835192,9.573249178653855e-05
-0.48040390623791607,-0.48040390623791607,0.9999589101038554,9.73655878420897e-05
-0.4802912375107553,-0.4802912375107553,0.9998717959324154,9.727385728074746e-05
-0.4801298937789397,-0.4801298937789397,0.9997100890250573,9.377712601584386e-05
-0.4799544931618584,-0.4799544931618584,0.9998479909159181,9.708478437204363e-05
-0.4798017312223237,-0.4798017312223237,1.0000006105730748,9.999087588951367e-05
-0.4797410298611794,-0.4797410298611794,0.9999617324813712,9.780256826610794e-05
-0.47965774544754824,-0.47965774544754824,1.0001623828613855,9.831821146448513e-05
-0.47956545066190304,-0.47956545066190304,0.9998503627093036,9.584428512237948e-05
-0.47940365414251573,-0.47940365414251573,1.00003856429999,9.776805494837387e-05
-0.47932282696128825,-0.47932282696128825,0.999900469033172,9.524450185661215e-05
-0.4791929810442525,-0.4791929810442525,0.9999918047201554,9.941695319335381e-05
-0.47902651564108967,-0.47902651564108967,0.9998480550782578,9.850871545757814e-05
-0.47878519316655,-0.47878519316655,1.0002444565795732,9.785056232865678e-05
-0.4786302760156104,-0.4786302760156104,0.9999497526347506,9.990820111211e-05
-0.4784499591492931,-0.4784499591492931,1.0000540751688156,9.880613155059121e-05
-0.4782744500302215,-0.4782744500302215,1.000191852333654,9.796616025618059e-05
-0.47809968478322845,-0.47809968478322845,0.9997640845142607,9.700714326367869e-05
-0.4780579543308704,-0.4780579543308704,1.0001263344169242,9.957117726562136e-05
-0.47793695357577237,-0.47793695357577237,0.999967251366191,9.711968240192857e-05
-0.4778060708042176,-0.4778060708042176,1.0001273722426072,9.535233649208487e-05
-0.477683222565247,-0.477683222565247,0.9999016398072873,9.739506549121198e-05
-0.4776124534579139,-0.4776124534579139,1.0001995353660118,9.846635563215277e-05
-0.47751127619776523,-0.47751127619776523,1.0003237863151422,9.650532206792135e-05
-0.47738017064366434,-0.47738017064366434,1.0000571591844438,9.432342353074152e-05
-0.4772962024817389,-0.4772962024817389,1.000023827282031,9.575538518666779e-05
-0.4771629474955262,-0.4771629474955262,0.9999524709555638,9.747479324365483e-05
-0.4770760549487022,-0.4770760549487022,0.9999419158460532,9.884501257029098e-05
-0.4769573194211262,-0.4769573194211262,1.0000503764712534,9.709358130468497e-05
-0.47680660505502603,-0.47680660505502603,1.0000066942476393,9.839804534295585e-05
-0.47662998515770594,-0.47662998515770594,1.0001461888869252,9.823135608687658e-05
-0.47642681108882245,-0.47642681108882245,1.0000652115303876,9.622872100114689e-05
-0.47635462279249624,-0.47635462279249624,0.9997445127218769,9.714140775349768e-05
-0.4762410283656209,-0.4762410283656209,0.99995069410684,9.671319502283827e-05
-0.4761593349685427,-0.4761593349685427,1.0000138620630479,9.410364772915261e-05
-0.47603755715099394,-0.47603755715099394,1.0000505017772798,9.979931352216268e-05
-0.4759443971943256,-0.4759443971943256,0.9998170732456737,9.939680609944104e-05
-0.4758555854099541,-0.4758555854099541,1.0002708004013243,9.803598933029e-05
-0.47579062410986805,-0.47579062410986805,0.999931251921641,9.670592990990738e-05
-0.4756569162156666,-0.4756569162156666,0.9999986506063895,9.649451767954631e-05
-0.47557463232515146,-0.47557463232515146,1.0001068584698038,9.558594005602568e-05
-0.4754848934728216,-0.4754848934728216,1.00023085215389,0.00010183043102909582
-0.47543874240691364,-0.47543874240691364,1.00004310731037,9.516066719237858e-05
-0.4753363371582964,-0.4753363371582964,1.0001842563198973,9.682699903880828e-05
-0.47523506600446125,-0.47523506600446125,0.9998593922017379,9.979330611991036e-05
-0.47511158964152855,-0.47511158964152855,0.9999267492944929,9.932775306118698e-05
-0.4748748568894371,-0.4748748568894371,0.9998781232924074,9.946767373554498e-05
-0.474652391500058,-0.474652391500058,0.9997226540697618,9.569466548655518e-05
-0.47449935228505635,-0.47449935228505635,1.0000218495276831,9.716152120751454e-05
-0.47437380814262725,-0.47437380814262725,0.9999811498491473,0.0001051357393233889
-0.4741907631745562,-0.4741907631745562,0.9999497297412108,9.624464489186522e-05
-0.4739674697215378,-0.4739674697215378,1.0000763207653918,9.846716058572273e-05
-0.47387362225526886,-0.47387362225526886,0.9998866952022405,9.675318858746194e-05
-0.47381392267234335,-0.47381392267234335,0.9999341254429982,9.850551869871186e-05
-0.47371952340145074,-0.47371952340145074,0.9999970775923208,9.648679929921198e-05
-0.47360254185005035,-0.47360254185005035,1.0000786009308775,0.00010247909524037534
-0.4734831329438748,-0.4734831329438748,1.0000905564015636,9.935773076777388e-05
-0.47334443065301457,-0.47334443065301457,1.0000077357086472,9.669969056651917e-05
-0.47323203039086364,-0.47323203039086364,1.0002114769540882,9.842719345148057e-05
-0.4730435525307257,-0.4730435525307257,0.9998471835092836,9.626452174170394e-05
-0.47291761663291254,-0.47291761663291254,0.9999289883851052,9.665369467578147e-05
-0.4728056800660852,-0.4728056800660852,1.0000711383597127,9.828675167540538e-05
-0.4726611026770115,-0.4726611026770115,0.9998715696142562,9.352561490840418e-05
-0.4724958667971805,-0.4724958667971805,1.0001855489778986,9.852010451183357e-05
-0.47225901678029913,-0.47225901678029913,1.000016244068322,9.686335925503914e-05
-0.47214679258395337,-0.47214679258395337,1.0000083067365952,9.985797873601277e-05
-0.4720476457456243,-0.4720476457456243,1.0000530537938432,9.612295410545313e-05
-0.4719603155812365,-0.4719603155812365,1.0001350246676093,9.678145228624456e-05
-0.47187022952348345,-0.47187022952348345,0.9999284511818523,9.871993230338662e-05
-0.4718209797847521,-0.4718209797847521,1.0000584809764206,9.823929320236766e-05
-0.4717738080347772,-0.4717738080347772,1.0000586122465092,9.740639997442317e-05
-0.47168729026961953,-0.47168729026961953,0.9999850418456114,9.59252697047469e-05
-0.471572453261615,-0.471572453261615,0.99981504722624,9.443639467759353e-05
-0.4714288977826072,-0.4714288977826072,0.9998762461517818,9.830026812297982e-05
-0.47130943837837547,-0.47130943837837547,1.000111199153701,9.732610590024239e-05
-0.4712374957300199,-0.4712374957300199,1.0000388254256198,9.42909478393278e-05
-0.4711109443778696,-0.4711109443778696,1.0002977882477533,9.56744171164245e-05
-0.4709779553260887,-0.4709779553260887,0.9999323345283443,9.559669111116572e-05
-0.47088802434846,-0.47088802434846,1.0002009248137331,9.787473811084693e-05
-0.470764012282234,-0.470764012282234,1.0001083093596228,9.577272588388458e-05
-0.47056856195376895,-0.47056856195376895,1.0000939322071218,9.782870655835476e-05
-0.47043088125828947,-0.47043088125828947,1.0001505070587828,9.88225960680544e-05
-0.47030655430753543,-0.47030655430753543,0.999921765592999,9.97027216265716e-05
-0.47023931445837663,-0.47023931445837663,1.0001406368382997,9.913841599211133e-05
-0.4701652190487948,-0.4701652190487948,1.0000908962225428,9.926304022738031e-05
-0.47008462811718343,-0.47008462811718343,0.9998923712329649,9.483655452601044e-05
-0.46997851392043233,-0.46997851392043233,0.9998208043506158,9.76624550871442e-05
-0.4698419870754151,-0.4698419870754151,1.0001307107724269,9.611149112413507e-05
-0.46972418713885417,-0.46972418713885417,1.0000178319574418,9.811328578127636e-05
-0.4695305537297827,-0.4695305537297827,1.0000354165653154,9.577901833850277e-05
