time,time,flux,flux_err
-0.4989445900858603,-0.4989445900858603,0.9999975922409515,5.920943404647419e-05
-0.4969157268703081,-0.4969157268703081,1.0000035215826555,5.924821971447904e-05
-0.4951060078572482,-0.4951060078572482,0.9999504589113855,5.4019307563917855e-05
-0.49372837606206305,-0.49372837606206305,0.9999607996843631,5.410392144852795e-05
-0.4919626149930991,-0.4919626149930991,0.9999790100714032,5.405641695731655e-05
-0.49056803668208887,-0.49056803668208887,0.9999996798293301,5.407934977475111e-05
-0.48856580625724744,-0.48856580625724744,0.9999563887896057,5.406232762568832e-05
-0.48700084109514136,-0.48700084109514136,0.9998792195837339,5.407042964845982e-05
-0.48545522933345636,-0.48545522933345636,0.9998653395715736,5.402154383961367e-05
-0.483845288932207,-0.483845288932207,0.9999868668913507,5.407874215019571e-05
-0.4819984785957786,-0.4819984785957786,0.999994990301559,5.404760884967177e-05
-0.48085968099549065,-0.48085968099549065,1.0000324471611033,5.408754515547264e-05
-0.47882561843071014,-0.47882561843071014,1.0001316498474269,5.410011838580842e-05
-0.4775935864636267,-0.4775935864636267,0.9999381494607172,5.4044232878742155e-05
-0.47588513928858445,-0.47588513928858445,0.9999182605358905,5.403021059784867e-05
-0.4743384571876959,-0.4743384571876959,0.9999891997026407,5.4071773120210495e-05
-0.47272939813847187,-0.47272939813847187,0.999922084772016,5.4035221365130585e-05
-0.47122146268520737,-0.47122146268520737,0.9999474917553008,5.405718684760263e-05
-0.46931694330778556,-0.46931694330778556,1.0000017619405372,5.405769076079118e-05
-0.4681630204351677,-0.4681630204351677,1.0000361306596064,5.4107376904711355e-05
-0.4662903289463429,-0.4662903289463429,1.0000078081531254,5.413757798816654e-05
-0.46523635432022276,-0.46523635432022276,0.99997828548998,5.406338379694627e-05
-0.46357878291382804,-0.46357878291382804,1.0000488378320513,5.401502600278295e-05
-0.4621508142045059,-0.4621508142045059,1.0000193578045222,5.4055720510514285e-05
-0.4603764596053225,-0.4603764596053225,1.000002099461,5.404210586694152e-05
-0.45876008408013147,-0.45876008408013147,0.9998740797297648,5.403699423057292e-05
-0.45676714356595766,-0.45676714356595766,1.0000359156174974,5.4062245399926805e-05
-0.45521515552172787,-0.45521515552172787,0.9999700804080369,5.414574078652975e-05
-0.4536669627588708,-0.4536669627588708,0.999988530866653,5.405085049012728e-05
-0.45213778997349435,-0.45213778997349435,0.9999594831865553,5.403950816227789e-05
-0.45069791731002623,-0.45069791731002623,1.0000542683041531,5.4049610936696236e-05
-0.4491240078059491,-0.4491240078059491,1.0000213375349458,5.4032914895706456e-05
-0.4475450930716761,-0.4475450930716761,0.9998976760776215,5.4127409421256194e-05
-0.44597120656617334,-0.44597120656617334,0.9999508373372032,5.401067376914362e-05
-0.44426989478015455,-0.44426989478015455,0.9999436972970253,5.409865156968093e-05
-0.442666433974955,-0.442666433974955,0.9999842559148128,5.408555146148424e-05
-0.44131002253634505,-0.44131002253634505,0.9999468302464883,5.404662899707836e-05
-0.4399326762992132,-0.4399326762992132,1.000004025792763,5.405166519806057e-05
-0.4385915957354882,-0.4385915957354882,1.0000326292666073,5.404784738373312e-05
-0.4371508150798036,-0.4371508150798036,1.0000331489839938,5.4063076454329366e-05
-0.4358456809881318,-0.4358456809881318,0.9999840492748937,5.408510512869481e-05
-0.43430217375280333,-0.43430217375280333,0.9999052087285791,5.406979285518834e-05
-0.43243221844459184,-0.43243221844459184,0.9999465816754425,5.402592231736312e-05
-0.43117969499289754,-0.43117969499289754,0.9999649426304991,5.406269330387221e-05
-0.4292184309735603,-0.4292184309735603,0.999941779127529,5.408848226573029e-05
-0.42817417319311063,-0.42817417319311063,0.9999288435687946,5.40202334869643e-05
-0.4265193376115349,-0.4265193376115349,0.9999287099165605,5.4052096440214894e-05
-0.4250931795519136,-0.4250931795519136,0.9999919495980338,5.4068713623691076e-05
-0.4237874015234411,-0.4237874015234411,0.9998984380497806,5.4059811816484376e-05
-0.42225238582250313,-0.42225238582250313,1.0000829599725745,5.407993832692812e-05
-0.4204420683461649,-0.4204420683461649,1.0000090010532663,5.4034579104068055e-05
-0.41910230182111263,-0.41910230182111263,0.9998835264471356,5.4064615787069965e-05
-0.4171945863177825,-0.4171945863177825,0.9998338097733924,5.404442750720356e-05
-0.4161161406955216,-0.4161161406955216,1.00000315716856,5.407388774033567e-05
-0.4146504766693397,-0.4146504766693397,1.0000042288401185,5.402108023732178e-05
-0.41329981399976534,-0.41329981399976534,0.9999755575956055,5.411703182845956e-05
-0.4119816895559779,-0.4119816895559779,0.9999196706338509,5.402202863594856e-05
-0.4104599806814804,-0.4104599806814804,1.0000042741278006,5.4095881601045716e-05
-0.40904787409090204,-0.40904787409090204,0.9999074145635187,5.4036179583367636e-05
-0.4073370756676013,-0.4073370756676013,0.9999531280920989,5.4058034859652616e-05
-0.4060688043267874,-0.4060688043267874,0.9998651392244564,5.404622906835751e-05
-0.40434635846177114,-0.40434635846177114,1.0000410893193032,5.4044376623227e-05
-0.4031574320935761,-0.4031574320935761,0.9999445811184803,5.405812392623797e-05
-0.40145395134022693,-0.40145395134022693,0.9999399894856748,5.407809111232639e-05
-0.40007898498151917,-0.40007898498151917,1.0000025133021624,5.406035284607687e-05
-0.3984056049215724,-0.3984056049215724,0.9999163646022444,5.407757046541584e-05
-0.39698282971003207,-0.39698282971003207,1.000072293299561,5.4042449053221455e-05
-0.3952039259238518,-0.3952039259238518,0.9999048775078891,5.40715570521156e-05
-0.3937147267155524,-0.3937147267155524,0.9998827001623777,5.404932672104625e-05
-0.3920342528501351,-0.3920342528501351,0.9999342308979979,5.402802202484994e-05
-0.39110648201749426,-0.39110648201749426,1.0000447335053395,5.4059927351230636e-05
-0.38936850832469644,-0.38936850832469644,0.9999508831373065,5.409556517849008e-05
-0.3881973825176829,-0.3881973825176829,0.9999746039164767,5.4049296553929624e-05
-0.38643689696182265,-0.38643689696182265,0.9999520395517034,5.4079229096081835e-05
-0.38486793377669526,-0.38486793377669526,0.9999409515392376,5.4066131356286525e-05
-0.38324486540295766,-0.38324486540295766,1.0000338090736278,5.404567994748235e-05
-0.3817486458472558,-0.3817486458472558,0.9999723735582731,5.4060791314364255e-05
-0.3798350916127674,-0.3798350916127674,0.9999715194161833,5.405804481248065e-05
-0.37874909579913946,-0.37874909579913946,0.9999044532847734,5.40564262539386e-05
-0.37700563072939985,-0.37700563072939985,0.9999792359371465,5.409635982040114e-05
-0.3757580410332594,-0.3757580410332594,0.9998684725532685,5.404264905500746e-05
-0.3736880689757527,-0.3736880689757527,1.0000363613017134,5.407547052839525e-05
-0.3722728942717367,-0.3722728942717367,0.9998717884141879,5.403431614012642e-05
-0.3704877506934281,-0.3704877506934281,0.9999484769217231,5.4068308150497914e-05
-0.3690070609372924,-0.3690070609372924,0.9999825221919563,5.405296555504117e-05
-0.36729748885991287,-0.36729748885991287,0.9999308908203461,5.406975864389465e-05
-0.3659254070407769,-0.3659254070407769,1.0000142723058683,5.408813314038747e-05
-0.3641938981447311,-0.3641938981447311,1.0000012499789537,5.40525872078067e-05
-0.36265285944828063,-0.36265285944828063,1.0000041069676389,5.4047741379999864e-05
-0.3610147925581259,-0.3610147925581259,1.0000206212160303,5.408097450018048e-05
-0.3596367702819407,-0.3596367702819407,1.0000722906033843,5.403888471096069e-05
-0.3578291628997249,-0.3578291628997249,0.9999126457428329,5.40836301907148e-05
-0.35621550358700915,-0.35621550358700915,0.9999268584343823,5.401096054691368e-05
-0.35481798382388663,-0.35481798382388663,0.9998525758194863,5.410168661800355e-05
-0.3530639240583696,-0.3530639240583696,1.0000489562857697,5.405913961704753e-05
-0.35166216340585377,-0.35166216340585377,1.000079231393775,5.407573948237742e-05
-0.34988034766283815,-0.34988034766283815,1.0000522915691705,5.401886626902861e-05
-0.34862799654656557,-0.34862799654656557,0.9999508673768643,5.408520066621879e-05
-0.34728436394725576,-0.34728436394725576,0.9999455564631621,5.4031962698193615e-05
-0.34546786493519904,-0.34546786493519904,0.9999742499595434,5.408056290527901e-05
-0.34379500077338887,-0.34379500077338887,0.9999453673104706,5.4007184581337465e-05
-0.34224858070010666,-0.34224858070010666,0.9999848183459017,5.410675452883382e-05
-0.3403225511043274,-0.3403225511043274,0.9998990587352174,5.4114773520951316e-05
-0.3393015293375356,-0.3393015293375356,0.9999196307041318,5.4072358209488554e-05
-0.3375315849414619,-0.3375315849414619,0.9998611502831821,5.401072250592892e-05
-0.3362423651182326,-0.3362423651182326,0.9999657092135085,5.4087492100877014e-05
-0.3345712839232874,-0.3345712839232874,0.9999806880634422,5.3996286036535857e-05
-0.33278689524013316,-0.33278689524013316,0.9999483376174656,5.4077037941235905e-05
-0.33095619797531983,-0.33095619797531983,1.000036252668549,5.40385342431897e-05
-0.32963449508315534,-0.32963449508315534,0.9999974570542906,5.4071971990158924e-05
-0.3277066663446021,-0.3277066663446021,0.9998800107191522,5.411233380885231e-05
-0.3266468255766085,-0.3266468255766085,0.999972776175356,5.404688683659235e-05
-0.32501641570124773,-0.32501641570124773,0.9999143994809424,5.403007415383776e-05
-0.3238794240511197,-0.3238794240511197,0.9999505824469717,5.4088109437384774e-05
-0.3222728800319601,-0.3222728800319601,0.9999559873465869,5.407829376357057e-05
-0.32074565526054355,-0.32074565526054355,1.0000763128167416,5.4083307014161486e-05
-0.31899554726624046,-0.31899554726624046,0.9999020410991906,5.399445939038947e-05
-0.3175190512163681,-0.3175190512163681,0.9999008484464638,5.4100835398661265e-05
-0.3157183157200052,-0.3157183157200052,0.9999118004707437,5.4055235374993445e-05
-0.31458065763363263,-0.31458065763363263,0.9999942515863036,5.407507427647783e-05
-0.3128345533485117,-0.3128345533485117,0.9998892674128677,5.4008139747134046e-05
-0.31151660958712457,-0.31151660958712457,1.0000470670795523,5.408754532745719e-05
-0.31013923127247833,-0.31013923127247833,0.9999008471789346,5.402642049562689e-05
-0.3086380572982307,-0.3086380572982307,0.9999121219572569,5.411584244648214e-05
-0.3070772497841972,-0.3070772497841972,0.9999477850652303,5.4015415607865624e-05
-0.3053600483246555,-0.3053600483246555,0.9998710790444962,5.40935589318335e-05
-0.3037714032827353,-0.3037714032827353,0.9998347093523547,5.4062415806278615e-05
-0.30240862240098065,-0.30240862240098065,0.9998993405705535,5.4046178918691797e-05
-0.30088839486707003,-0.30088839486707003,0.9999042803768212,5.404414309094106e-05
-0.2994415153443697,-0.2994415153443697,0.9999847952514106,5.4046779647885325e-05
-0.2980317470479349,-0.2980317470479349,0.9999557898352218,5.403628360961775e-05
-0.2965787641085626,-0.2965787641085626,0.9998911002332911,5.409551477784688e-05
-0.2951488978520501,-0.2951488978520501,0.9998899536560943,5.4044711510701105e-05
-0.2931497307778045,-0.2931497307778045,1.000078728071014,5.4063171339008235e-05
-0.2918787556620373,-0.2918787556620373,1.0000229620036296,5.405175263316608e-05
-0.2901561095444777,-0.2901561095444777,0.999872462626527,5.404709538243999e-05
-0.28896861210960195,-0.28896861210960195,0.9999434300288783,5.4055165157908735e-05
-0.28726969715935413,-0.28726969715935413,0.9999629148349584,5.4080027384131404e-05
-0.2858914666554483,-0.2858914666554483,0.9998862410934759,5.405590040276642e-05
-0.2845900871689082,-0.2845900871689082,0.9999798857395239,5.4062313790363964e-05
-0.28303995591995773,-0.28303995591995773,0.9999669136677258,5.407048467403191e-05
-0.2814081400312716,-0.2814081400312716,0.9999049335534588,5.402204643908899e-05
-0.28019830564662696,-0.28019830564662696,0.9999513205697363,5.4079590089454556e-05
-0.27832287658093263,-0.27832287658093263,1.0000041542623368,5.4055490712698554e-05
-0.2775003591581481,-0.2775003591581481,0.9999833851103315,5.407266619884613e-05
-0.27575778725658895,-0.27575778725658895,1.0000364227314842,5.4021275916325164e-05
-0.27438576083441146,-0.27438576083441146,0.9999047674773142,5.411091066376072e-05
-0.27287832866422834,-0.27287832866422834,0.9998788497082041,5.406718241561919e-05
-0.2713027832978696,-0.2713027832978696,0.9999798387755684,5.407973539862935e-05
-0.26975822182939735,-0.26975822182939735,0.999947250107366,5.399981428749987e-05
-0.2681362882634858,-0.2681362882634858,0.9998960757689852,5.411078883918725e-05
-0.26632727706310105,-0.26632727706310105,0.999947446844962,5.4014581781338276e-05
-0.26528024815488604,-0.26528024815488604,0.9999941041967386,5.407382466303879e-05
-0.2638317196091521,-0.2638317196091521,1.0000676103940958,5.4044915707187614e-05
-0.26236422118163316,-0.26236422118163316,0.9999996954283246,5.405753057110135e-05
-0.26093757514536264,-0.26093757514536264,1.000071935143192,5.409953839601576e-05
-0.25919198500632773,-0.25919198500632773,1.0000225751849718,5.408381870413713e-05
-0.2577979318499274,-0.2577979318499274,0.9999720704571512,5.403523051649428e-05
-0.2560069418534113,-0.2560069418534113,0.9998752338167751,5.4084920004598145e-05
-0.2543683737923857,-0.2543683737923857,0.999877211737096,5.403245213015142e-05
-0.2530001420615008,-0.2530001420615008,1.0000068099278452,5.4084590783642506e-05
-0.25147983733331786,-0.25147983733331786,0.9999892373895097,5.404111116543555e-05
-0.25000665881307216,-0.25000665881307216,0.9999240553200923,5.4054257103764725e-05
-0.2482618896792701,-0.2482618896792701,0.9998758352670581,5.409554062046323e-05
-0.2465821274636255,-0.2465821274636255,0.9998875970604129,5.407339466177108e-05
-0.24506570953890333,-0.24506570953890333,0.9999480327863892,5.399214453460296e-05
-0.2434062730775622,-0.2434062730775622,1.0000210914372734,5.4111551297443756e-05
-0.241632652599219,-0.241632652599219,0.9999854286674699,5.401076335260879e-05
-0.24043298841279465,-0.24043298841279465,0.9999127918087567,5.410482439446822e-05
-0.23840955068008043,-0.23840955068008043,0.9999072493462468,5.4067834549879394e-05
-0.2371677529947192,-0.2371677529947192,0.9998009806133702,5.404147449781921e-05
-0.23544248225953196,-0.23544248225953196,0.999898854324735,5.404818021851605e-05
-0.233911109053588,-0.233911109053588,0.9999678715143064,5.407162639507302e-05
-0.23236758298880886,-0.23236758298880886,0.9999648483481023,5.40258065493486e-05
-0.23075515841483138,-0.23075515841483138,0.9998957296181518,5.407801607084144e-05
-0.22891025728604292,-0.22891025728604292,0.9998304277185129,5.404363072459878e-05
-0.22776925621219563,-0.22776925621219563,1.0000172949311152,5.40885945282476e-05
-0.22573541733654565,-0.22573541733654565,0.9999761293277235,5.407712319289293e-05
-0.22450459873653017,-0.22450459873653017,0.9999107063510777,5.4059951764389596e-05
-0.22284136012967792,-0.22284136012967792,1.0000894127806919,5.401772741073327e-05
-0.22155226641116316,-0.22155226641116316,0.9999105922107618,5.4068971450964896e-05
-0.22001708789975966,-0.22001708789975966,0.9999821031302417,5.4025706333939477e-05
-0.21839472528081388,-0.21839472528081388,0.9999757607142893,5.408087118936266e-05
-0.21676505198847734,-0.21676505198847734,0.9999729130918528,5.403713193846109e-05
-0.21540763681987302,-0.21540763681987302,0.9999356861016977,5.408654148250793e-05
-0.2134667585218267,-0.2134667585218267,0.9999864893285186,5.4149747945430674e-05
-0.21245742519313354,-0.21245742519313354,1.000024526289388,5.40506084685786e-05
-0.21073335259206943,-0.21073335259206943,1.0000167064657284,5.404642494297768e-05
-0.20941075382215785,-0.20941075382215785,0.9999391727447902,5.4044507468537786e-05
-0.20766672823738191,-0.20766672823738191,0.999981135785944,5.402453432141648e-05
-0.20593034999037627,-0.20593034999037627,0.9999890652024229,5.406775664688829e-05
-0.2040498745329387,-0.2040498745329387,0.9999212530903655,5.402991378651525e-05
-0.20280647759500425,-0.20280647759500425,0.9999588394528087,5.4067573760756675e-05
-0.20084356673396542,-0.20084356673396542,0.9999337646675827,5.41193978204444e-05
-0.19978944514150498,-0.19978944514150498,0.9998543631397586,5.406112467814427e-05
-0.19823460357802106,-0.19823460357802106,0.999982272828962,5.400525711640692e-05
-0.19705484424048336,-0.19705484424048336,0.9999538236899855,5.4079397539945145e-05
-0.19544592679158085,-0.19544592679158085,0.999911714550818,5.4140023358368543e-05
-0.19420053314534017,-0.19420053314534017,1.0000428402058015,5.408257748577602e-05
-0.19245218434152775,-0.19245218434152775,1.0000255956427535,5.3996425072636435e-05
-0.1909734729320917,-0.1909734729320917,0.999919266303998,5.4101158895353556e-05
-0.189174811601697,-0.189174811601697,0.9999772048774748,5.405248172787629e-05
-0.18803562139219138,-0.18803562139219138,0.999998430193197,5.40780393440953e-05
-0.18629101121550776,-0.18629101121550776,1.0000163613720758,5.401371517871367e-05
-0.18497126549700624,-0.18497126549700624,1.000032466452796,5.408726428216629e-05
-0.18359537891301442,-0.18359537891301442,0.9999978745177278,5.402783401179205e-05
-0.18209284219046823,-0.18209284219046823,0.9999283900180304,5.41163913774632e-05
-0.18053348770408775,-0.18053348770408775,1.0000104048863767,5.40135655978319e-05
-0.1788145192549564,-0.1788145192549564,0.9999202587422138,5.4100220539230684e-05
-0.1772275217306742,-0.1772275217306742,0.999961647181175,5.4062698367199565e-05
-0.17586403385430457,-0.17586403385430457,0.9998586555135562,5.404403378620887e-05
-0.17434433478265418,-0.17434433478265418,0.9999049015881187,5.4045515503980555e-05
-0.17289703913920676,-0.17289703913920676,0.9999729910716895,5.4041827462114364e-05
-0.17148749486077577,-0.17148749486077577,1.0001179719519948,5.403856767135332e-05
-0.1700338734764955,-0.1700338734764955,0.9998947210060016,5.409366557454048e-05
-0.16860447765211575,-0.16860447765211575,1.0000971713846212,5.404644635949587e-05
-0.16660506042753695,-0.16660506042753695,1.0000117111247384,5.406099554141478e-05
-0.16533446987086792,-0.16533446987086792,0.9999599028024626,5.404508575260046e-05
-0.16361185395726352,-0.16361185395726352,0.9999072121492405,5.404788975309629e-05
-0.16242415016167797,-0.16242415016167797,0.9999246006874678,5.405383465715798e-05
-0.16072458421549526,-0.16072458421549526,0.9998599763954067,5.407335268878902e-05
-0.15934681972066755,-0.15934681972066755,0.9999706268823273,5.405805409593917e-05
-0.15804565746148,-0.15804565746148,1.000066630145246,5.406269452412644e-05
-0.15649513962198397,-0.15649513962198397,1.0000551705037783,5.407162824736453e-05
-0.1548642340450897,-0.1548642340450897,0.9999414340658891,5.402484371775537e-05
-0.1536531726756948,-0.1536531726756948,1.0000549262604566,5.408786711857236e-05
-0.15177869702529279,-0.15177869702529279,1.00002816586278,5.405102052838132e-05
-0.15095537450833946,-0.15095537450833946,0.9998316742439354,5.406948930135151e-05
-0.14921416773358942,-0.14921416773358942,0.9999813887854831,5.4021012270817395e-05
-0.14783976541584706,-0.14783976541584706,1.000070044506535,5.4117515838888853e-05
-0.14633369225339266,-0.14633369225339266,0.9999252073895402,5.406296110917448e-05
-0.14475772669757134,-0.14475772669757134,1.0000108970314145,5.408361871062899e-05
-0.14321492135422886,-0.14321492135422886,0.999885163702751,5.3994483166942496e-05
-0.1415906465081207,-0.1415906465081207,0.9999496735766927,5.411286052297978e-05
-0.13978384523579734,-0.13978384523579734,0.9999494167400265,5.4011162744356445e-05
-0.1387351443692751,-0.1387351443692751,0.9999768746731246,5.407166193926833e-05
-0.137287725033093,-0.137287725033093,0.999904380893146,5.403942622242996e-05
-0.13581951994565317,-0.13581951994565317,0.9999259385232874,5.4053069142167176e-05
-0.13439237598868203,-0.13439237598868203,1.0000351687755478,5.409974329490739e-05
-0.13264682487933896,-0.13264682487933896,1.0000112087523059,5.4081127178759155e-05
-0.1312538381665945,-0.1312538381665945,0.9999746748929794,5.40316793907682e-05
-0.1294617433741223,-0.1294617433741223,1.0001092385315082,5.409057339252983e-05
-0.12782456894710775,-0.12782456894710775,0.999953465254721,5.4035819600956555e-05
