time,time,flux,flux_err
-0.49845103649931843,-0.49845103649931843,1.000060840291037,0.00014614516633925566
-0.49556683967239223,-0.49556683967239223,0.9998517646583176,0.0001523995371753069
-0.4945870057248006,-0.4945870057248006,0.9998656278059892,0.00015204604515891518
-0.49331461854890224,-0.49331461854890224,0.9999905033566504,0.0001425030540710099
-0.4925114351659431,-0.4925114351659431,1.000181659406587,0.00012898930857566131
-0.4917865247334703,-0.4917865247334703,1.0000248090026687,0.0001356450106952231
-0.49110174794477646,-0.49110174794477646,1.0000140912980706,0.00012912044798185247
-0.4902182197649381,-0.4902182197649381,1.0001478331306914,0.00013734916920557397
-0.4894834342761897,-0.4894834342761897,1.0000994341801175,0.00012346605631404273
-0.48883641275024275,-0.48883641275024275,1.000024842396471,0.0001359731816602486
-0.4882581295853015,-0.4882581295853015,0.9999943153221489,0.0001359669999383937
-0.48768105350463886,-0.48768105350463886,0.9999872873381254,0.00013614924508673009
-0.48713500087469586,-0.48713500087469586,0.9999941236072486,0.0001367784904827763
-0.4866617459701956,-0.4866617459701956,0.9998157154869205,0.0001358448162241425
-0.4861769285591436,-0.4861769285591436,1.0000073474268922,0.00013633053799684563
-0.4856724822195247,-0.4856724822195247,0.9999603415780758,0.0001360834540076433
-0.48522840945079226,-0.48522840945079226,1.000146592665804,0.00013015221359999874
-0.484890956208983,-0.484890956208983,0.9999499545856576,0.0001361081509713339
-0.4844764278197545,-0.4844764278197545,0.9999309698874654,0.00014305360935739123
-0.48408917170454513,-0.48408917170454513,0.9998063881374059,0.00012989718683210756
-0.4836512927431613,-0.4836512927431613,1.000012480470959,0.00012989653005897987
-0.4832366788905347,-0.4832366788905347,1.00012938411029,0.00013670770964866805
-0.4828034574500634,-0.4828034574500634,1.0001665688452344,0.0001360307309990556
-0.4822960422243341,-0.4822960422243341,1.0000482882085917,0.00012988659111181505
-0.4816761801732355,-0.4816761801732355,1.000016379194395,0.00013664215547973892
-0.4811799708782928,-0.4811799708782928,1.0001101010323905,0.0001369066393210585
-0.480546817650611,-0.480546817650611,1.0001850541780002,0.00013668219349757666
-0.4799480509973364,-0.4799480509973364,1.000050783431671,0.0001427663294897668
-0.4791496337580611,-0.4791496337580611,0.99987787030375,0.00013612552026954122
-0.47845413891918726,-0.47845413891918726,0.9999431952286344,0.00014296620085638812
-0.47776117429020815,-0.47776117429020815,0.9999959994623191,0.00014406051782498688
-0.47674537303682885,-0.47674537303682885,1.000213578411134,0.00014004273058502788
-0.4759063189019798,-0.4759063189019798,1.0000139729183484,0.00014425754571265566
-0.47545661362819375,-0.47545661362819375,1.0000842097329083,0.00013722009998092707
-0.4749603542732075,-0.4749603542732075,1.0003266633592407,0.00015009409300890584
-0.4745824293393525,-0.4745824293393525,1.0001354259620556,0.00014391961065725103
-0.47396820332360223,-0.47396820332360223,1.0001353612755615,0.000150880058705078
-0.4734655764186755,-0.4734655764186755,1.0000336320183447,0.00013619806897593174
-0.47310350908810506,-0.47310350908810506,1.000181744390877,0.00014993697616542747
-0.4726047673088033,-0.4726047673088033,1.0000564693639054,0.00014392970588733778
-0.4719993165170308,-0.4719993165170308,0.9999776782350083,0.000143468940135723
-0.4709848729107762,-0.4709848729107762,1.0000475194308265,0.0001365106966487574
-0.46980505591927796,-0.46980505591927796,1.0001164244836516,0.00013684709022778596
-0.4688375673387782,-0.4688375673387782,0.9999224924974041,0.00013689791466311112
-0.46752873072691725,-0.46752873072691725,0.9999762780969634,0.00014369541384807186
-0.466018904025259,-0.466018904025259,1.000046735572694,0.0001495694345039769
-0.4649215930199716,-0.4649215930199716,0.9998750588609451,0.00015008682911006892
-0.4636095923618996,-0.4636095923618996,1.0001753925714738,0.0001499880617808074
-0.4623411956446944,-0.4623411956446944,1.0001636825458877,0.00015549108433755802
-0.46138409212289844,-0.46138409212289844,1.0000406349724371,0.00014296234140854575
-0.4601453039504122,-0.4601453039504122,0.9998496828087564,0.00015204824994939802
-0.4591837197833229,-0.4591837197833229,0.9999521853686735,0.00014514765785968793
-0.45818440366711,-0.45818440366711,1.0000846645114216,0.000137533097562782
-0.45762477631215004,-0.45762477631215004,0.9999702967910086,0.0001292972429760837
-0.4570259515181533,-0.4570259515181533,0.9998026574483271,0.00014361555165149858
-0.45647721323621226,-0.45647721323621226,1.0000067905283836,0.000137603643656716
-0.45580557541106825,-0.45580557541106825,1.000047833677174,0.00014360598716724087
-0.45522669245983705,-0.45522669245983705,1.0001536120546275,0.00013661484885378394
-0.4546867228418705,-0.4546867228418705,1.000112265759234,0.00014335653052611599
-0.4541339606264955,-0.4541339606264955,1.0000214366950682,0.0001435682488321733
-0.45367916044051526,-0.45367916044051526,1.0000144613776982,0.00014307522786295802
-0.4532122028816957,-0.4532122028816957,0.9999167748763746,0.00014265671504970997
-0.4525778588329558,-0.4525778588329558,0.999973274997998,0.0001435865647216149
-0.4520139486034168,-0.4520139486034168,1.0000575742831619,0.00014352150622534536
-0.4515206712138024,-0.4515206712138024,0.9999421604100791,0.0001439292001907714
-0.45110207711113615,-0.45110207711113615,0.9999380637482425,0.00013651586082196913
-0.4506019473585184,-0.4506019473585184,0.9998826988205302,0.0001429253738698067
-0.45016933474107645,-0.45016933474107645,0.9998426650655144,0.00012146151044910574
-0.4499442122032633,-0.4499442122032633,1.0000394265052701,0.00014276734295133053
-0.44949505692347885,-0.44949505692347885,0.9998399942898354,0.00013656826324340824
-0.4490714902232867,-0.4490714902232867,1.0000150071597382,0.00013700471179407708
-0.44873148405022223,-0.44873148405022223,0.9997546777045926,0.00014875478198013472
-0.44836101320252053,-0.44836101320252053,1.0001005515199477,0.00014378143522117117
-0.4480487300243112,-0.4480487300243112,0.9997663727672554,0.00012957303077482994
-0.4476507540559396,-0.4476507540559396,0.9999244861339859,0.00014903578852065654
-0.44733006302558354,-0.44733006302558354,0.9999899213631602,0.00013724162370749222
-0.4467469613853609,-0.4467469613853609,0.9999910556741266,0.00014408012906258046
-0.44614101313782156,-0.44614101313782156,1.000212901025816,0.00013827092486778264
-0.4457617745589232,-0.4457617745589232,0.9996833835914563,0.00014947531936440546
-0.44534122607146853,-0.44534122607146853,1.0000612037018208,0.00014373118266161118
-0.4447443818004103,-0.4447443818004103,1.000066678137268,0.00014397966822829862
-0.44436051922966724,-0.44436051922966724,0.999923917944203,0.00014980585844174844
-0.4438309058503364,-0.4438309058503364,1.000007579084349,0.00015082315837754444
-0.4433289181717555,-0.4433289181717555,1.0000524754037508,0.0001497931858383841
-0.44299109082930954,-0.44299109082930954,1.0002394431459842,0.0001377845003484298
-0.4425230061984621,-0.4425230061984621,1.0001124377668664,0.00015018925732376845
-0.4419413884024834,-0.4419413884024834,1.0000113073541095,0.0001500343238163007
-0.44136299318633976,-0.44136299318633976,0.9997902243271211,0.00015032652579270294
-0.44077403663250153,-0.44077403663250153,0.9999763131714966,0.0001497333827055696
-0.4400482997705694,-0.4400482997705694,0.9998889860091845,0.00014359718164895835
-0.43932962353428595,-0.43932962353428595,0.9998540288977738,0.00014357833767379496
-0.438718115031952,-0.438718115031952,0.9998827868862389,0.00014336347731780868
-0.4379486931793508,-0.4379486931793508,0.9997143553488801,0.00014372137885243654
-0.43733744633209426,-0.43733744633209426,1.0000689229957498,0.00013637632197349532
-0.43673960648739013,-0.43673960648739013,1.0001254112709002,0.00014284089293578118
-0.43622917154280005,-0.43622917154280005,1.00015571688281,0.00013612324357168697
-0.43549296538403726,-0.43549296538403726,0.9998258194443469,0.00013698622135759113
-0.4347500591291464,-0.4347500591291464,0.9998965697222287,0.00013651977529305405
-0.434192356710264,-0.434192356710264,1.0001163096510468,0.0001364638339072899
-0.4336815683054738,-0.4336815683054738,0.999968897585392,0.00014322386751546137
-0.43312235889170553,-0.43312235889170553,0.9998440476411407,0.00013598040307395855
-0.4324079140642425,-0.4324079140642425,1.0000494850764383,0.0001430479884411802
-0.43154013490566284,-0.43154013490566284,1.0000125314464845,0.00012891363645628942
-0.43031518867064733,-0.43031518867064733,0.9999386394635709,0.0001349422910140862
-0.42584613041981356,-0.42584613041981356,1.0001081788274213,0.00014176347260304146
-0.42403877707984067,-0.42403877707984067,1.000117446721725,0.00014234740693010333
-0.4227702886419138,-0.4227702886419138,1.000330781814353,0.0001354930803454904
-0.42164414133294487,-0.42164414133294487,0.9999812876767333,0.00014257058091715413
-0.42097439161880174,-0.42097439161880174,1.0001271272982617,0.00012834166361559007
-0.4202921687217895,-0.4202921687217895,0.999856003703021,0.000128809634840165
-0.4195148623854038,-0.4195148623854038,1.000180780189286,0.00013704299337479576
-0.4186597760708537,-0.4186597760708537,0.9999239827443193,0.0001306056401068278
-0.4180196706292918,-0.4180196706292918,1.0000702711471117,0.0001296267381358112
-0.41736785146640615,-0.41736785146640615,0.9997499237739937,0.00013619352364125674
-0.4168147735108505,-0.4168147735108505,0.9999998957810933,0.00013646679134478757
-0.4162275253474945,-0.4162275253474945,1.000007684891337,0.00013688294483728248
-0.41574950509093467,-0.41574950509093467,1.0001598680477184,0.00013590083298652353
-0.4152116625671624,-0.4152116625671624,0.9998867260270881,0.0001358704304215954
-0.4146741933232988,-0.4146741933232988,0.9999956992258621,0.0001290310012660592
-0.4142081718266127,-0.4142081718266127,0.9999838140070538,0.0001362943474859524
-0.41367854373092994,-0.41367854373092994,1.0001121831290265,0.0001361915245215072
-0.4132456718230969,-0.4132456718230969,0.999967622455889,0.0001429367039074571
-0.41284638823563,-0.41284638823563,0.9997222546645184,0.000129938469999263
-0.41249865682621023,-0.41249865682621023,1.0001471350393079,0.0001366770140528919
-0.412062527530361,-0.412062527530361,0.9996916514081097,0.00013573930940803517
-0.41163457977963847,-0.41163457977963847,0.9999475204134086,0.00013697658456440472
-0.4111866902458132,-0.4111866902458132,0.9999444185172086,0.00012962564737387577
-0.41066566857480213,-0.41066566857480213,1.0001048653398148,0.00012952976262543286
-0.4100158083601855,-0.4100158083601855,0.9998303839704853,0.00012969553185828976
-0.4093058257552912,-0.4093058257552912,0.999642399307754,0.00013663082566953749
-0.4087475431340863,-0.4087475431340863,0.9998198956174857,0.00013618764460968856
-0.40816557556099725,-0.40816557556099725,0.9999210715700991,0.0001427702964637899
-0.4073347363169887,-0.4073347363169887,0.9998216267231488,0.00014281135627312562
-0.40653085961967006,-0.40653085961967006,1.0001403686047579,0.00014381873245953786
-0.40568183668510754,-0.40568183668510754,0.9999913434880071,0.0001396255366056048
-0.40466827174968784,-0.40466827174968784,0.99993251765666,0.00013948030212685293
-0.4040423175421893,-0.4040423175421893,0.9999764664411179,0.00014364964023695935
-0.4035871674961527,-0.4035871674961527,0.9999962060348195,0.0001434352734715764
-0.4032037939570728,-0.4032037939570728,0.9999109593414414,0.0001439519029775598
-0.4026035248170956,-0.4026035248170956,1.0002406684701945,0.00015066308322070246
-0.40212239313696047,-0.40212239313696047,0.9998796236594224,0.0001442184643127261
-0.40145743456232597,-0.40145743456232597,1.0000538544816167,0.000137695068105615
-0.40086062137561385,-0.40086062137561385,1.0002954146089362,0.00013649802726321418
-0.39982526336825686,-0.39982526336825686,0.9998425208708877,0.00013713675895501626
-0.3985201976262033,-0.3985201976262033,0.9999846931815902,0.00014421384275264796
-0.397429426452436,-0.397429426452436,0.9999020827693336,0.00012929651154475723
-0.39640919247904094,-0.39640919247904094,1.0001034832507494,0.00014327249357960547
-0.3953058999963105,-0.3953058999963105,1.0000714513604474,0.0001496424398352075
-0.39376810221147024,-0.39376810221147024,0.9999468682397128,0.00015601673732647394
-0.3927139113671728,-0.3927139113671728,0.9999774641888575,0.00015571397519663127
-0.3917267973854905,-0.3917267973854905,1.0000554142384785,0.00014302254937098783
-0.39055486049619503,-0.39055486049619503,1.0001780385981374,0.00015538075892806259
-0.389560538691876,-0.389560538691876,0.9999492410650127,0.00014426229217615679
-0.3887871325947344,-0.3887871325947344,0.9998114398327822,0.00014567842130800335
-0.3875605156761594,-0.3875605156761594,0.9999281174565258,0.00014413532045397
-0.38680891181138577,-0.38680891181138577,1.0001613242670286,0.00014478680626541976
-0.3861394423802267,-0.3861394423802267,1.0000632943359895,0.0001364994617560912
-0.38554294917703374,-0.38554294917703374,1.00006577230212,0.00013710180430211882
-0.38491223658638773,-0.38491223658638773,0.9998913233101397,0.00013691588515885256
-0.3843171188636916,-0.3843171188636916,0.9999609476868722,0.00013693140790153473
-0.38371594355703564,-0.38371594355703564,0.9998865808764673,0.00013653131930228395
-0.3831236503494438,-0.3831236503494438,0.9998853602504779,0.00014334524830411638
-0.3825624648437952,-0.3825624648437952,1.0000518217673073,0.0001431338655017569
-0.382037739099178,-0.382037739099178,1.000051955985612,0.00014314671224429634
-0.3815609495533863,-0.3815609495533863,1.0000110968416334,0.0001431006473769837
-0.3810588262393139,-0.3810588262393139,0.999895304210766,0.00013731353040269173
-0.3805689906454063,-0.3805689906454063,1.0002367202161784,0.00014344529987639742
-0.3800069515069481,-0.3800069515069481,1.0000560660424567,0.00014326304812565242
-0.379551231363439,-0.379551231363439,1.0002620513507654,0.00013637376829266112
-0.3791997202177299,-0.3791997202177299,0.9997482799655621,0.00012965040336851153
-0.3788108945795102,-0.3788108945795102,0.9999990666432668,0.00014307080130968419
-0.37840333557833217,-0.37840333557833217,1.0001571476332525,0.00012169735833041315
-0.3780438514848356,-0.3780438514848356,0.9999845347287607,0.00014347569921005775
-0.37765846436377615,-0.37765846436377615,0.9999434424233101,0.00014930831121655002
-0.3771871516146348,-0.3771871516146348,1.000105022413868,0.000137236781818145
-0.37686778146598954,-0.37686778146598954,1.000016861090344,0.0001432400089620084
-0.376496740989387,-0.376496740989387,1.0003416154460893,0.00014935283242685802
-0.37619719247450123,-0.37619719247450123,1.0001240620802978,0.0001299817907395055
-0.375715800737089,-0.375715800737089,0.9998309280067282,0.00013722903838118261
-0.37517163546872323,-0.37517163546872323,0.9999604997314668,0.00015043484141678457
-0.37459121244755805,-0.37459121244755805,0.9999737053954494,0.0001501736862616364
-0.37421078959450826,-0.37421078959450826,1.0001711463003955,0.00013756881872691753
-0.3737945514265448,-0.3737945514265448,0.9999392672499263,0.0001437646483746597
-0.37327883027755887,-0.37327883027755887,1.0000607062041476,0.00014373789150393693
-0.3727361477474915,-0.3727361477474915,1.0005244876645611,0.0001552846506886805
-0.3722803809985635,-0.3722803809985635,0.9999215382855133,0.00015076894320629688
-0.37186781049676937,-0.37186781049676937,1.00004987397991,0.00013787019084562785
-0.37148018322186543,-0.37148018322186543,1.0002179034387548,0.00015083501143110372
-0.37101637720916186,-0.37101637720916186,1.0000462393582734,0.00014368961009438992
-0.370485936946352,-0.370485936946352,0.9996838548986741,0.00015005397362632942
-0.36990408295969246,-0.36990408295969246,0.999801229784611,0.00015003986936805615
-0.3692825829552021,-0.3692825829552021,0.9997845595561984,0.00014351988417256762
-0.3685513545482536,-0.3685513545482536,1.0000096080004093,0.00015039218330841503
-0.36786406405590244,-0.36786406405590244,0.9996366835246381,0.00014349821133432026
-0.3673614082726999,-0.3673614082726999,1.000166885052328,0.00013618155941122825
-0.36685838770208645,-0.36685838770208645,0.9998899762764332,0.00014979606549273876
-0.36622118461236824,-0.36622118461236824,1.000013007306075,0.00012852142092740782
-0.36558152071374933,-0.36558152071374933,1.0000885556462544,0.00014358687789648632
-0.36494835089833944,-0.36494835089833944,0.9999302310146299,0.00013569645392376
-0.36438625903829236,-0.36438625903829236,1.0000649341594468,0.00013785139514171723
-0.3636981397590716,-0.3636981397590716,1.0000406554067844,0.000142970982215972
-0.3629629935938283,-0.3629629935938283,0.9998467733958618,0.00013645015519679903
-0.36240513198572444,-0.36240513198572444,0.9999142005047016,0.0001363326650582653
-0.3618196693569189,-0.3618196693569189,1.0000551016589283,0.00014283475394672544
-0.361063108878443,-0.361063108878443,1.0001982873682826,0.00014314768715555535
-0.36030305635067633,-0.36030305635067633,1.0000073542836883,0.00012887284433089097
-0.35936925524001706,-0.35936925524001706,1.000060079316296,0.00013453001942109787
-0.35756246234668654,-0.35756246234668654,0.9998470278588037,0.00013543705800729054
-0.3535217814685893,-0.3535217814685893,1.0001040570197701,0.00014181078624954016
-0.35201774012821263,-0.35201774012821263,1.000002522877353,0.0001356673977571296
-0.3507358592498349,-0.3507358592498349,1.000125184927836,0.00013601713528182925
-0.3498667383377324,-0.3498667383377324,0.9998538841518292,0.00013509378110890458
-0.34905351819470526,-0.34905351819470526,1.000057305394861,0.00012889769631122672
-0.3482770934671862,-0.3482770934671862,1.000054729519143,0.00013695861038474352
-0.3474651385491597,-0.3474651385491597,0.9998940815524359,0.00012920851836538072
-0.3468931720650289,-0.3468931720650289,0.9999622423151479,0.00013059797054463992
-0.34624625548458426,-0.34624625548458426,1.000279381936372,0.00012954540280938655
-0.34569426893431227,-0.34569426893431227,1.0000726365374348,0.0001362323843635369
-0.34522848692868136,-0.34522848692868136,1.0001041156861377,0.0001356289709205794
-0.3446782008788432,-0.3446782008788432,0.9998882433835993,0.00012948893881013679
-0.34424705810961315,-0.34424705810961315,1.0003324221739103,0.00014259827138417324
-0.34374995699181454,-0.34374995699181454,0.9998686419720467,0.00013579053798376978
-0.34326767239108447,-0.34326767239108447,0.9998617675022021,0.0001362147105956548
-0.34273826093558457,-0.34273826093558457,1.000156748419745,0.0001362944020221471
-0.34232037778710944,-0.34232037778710944,0.9998838870271933,0.00012284321047086491
-0.3419600543245906,-0.3419600543245906,0.9998645930334369,0.0001427247286731994
-0.34152956801408435,-0.34152956801408435,1.000046227532228,0.00013635497589299891
-0.3411681744182715,-0.3411681744182715,0.9999953366665777,0.00012995470100281558
-0.3407339057419449,-0.3407339057419449,0.9998717244077058,0.00013645134421179212
-0.3403236714482773,-0.3403236714482773,1.0000760126760393,0.0001360534240478632
-0.3398418829325237,-0.3398418829325237,0.9998007622282239,0.00012959889839018337
-0.3392908284789883,-0.3392908284789883,0.999924367358874,0.00012985584834404726
-0.3386649010295514,-0.3386649010295514,0.9997951246814262,0.00013662726951290137
-0.33824232406332155,-0.33824232406332155,0.9999603350238301,0.00014282092726227135
-0.33774151145771614,-0.33774151145771614,0.999987492098626,0.00013672504051678063
-0.3372918022214435,-0.3372918022214435,0.9999435773584837,0.00013622344557355
-0.33663564782036703,-0.33663564782036703,0.9998806210324238,0.00014260670874371135
-0.33596931245556333,-0.33596931245556333,0.9999263659040333,0.00014585756847188255
-0.33543945235287537,-0.33543945235287537,0.9998797072079657,0.00014951601145553778
-0.3346429532422917,-0.3346429532422917,0.9998463409576178,0.00014588964265170845
-0.3336710557952756,-0.3336710557952756,1.0003533751120304,0.00013076766942625768
-0.3328723537051701,-0.3328723537051701,0.999937994582852,0.00015132482889474165
-0.33235997485753616,-0.33235997485753616,1.0000168177946382,0.00013622315720358114
