time,time,flux,flux_err
-0.49954069823288594,-0.49954069823288594,0.9999478277046258,6.574704652712055e-05
-0.49858585338079137,-0.49858585338079137,0.9998647620569174,6.656184053513863e-05
-0.4978133137716213,-0.4978133137716213,1.0000718544455038,6.59553071211227e-05
-0.4973703360526997,-0.4973703360526997,0.9999776611715937,6.597461624851847e-05
-0.4965574182977434,-0.4965574182977434,1.0000884368317071,6.650366334348489e-05
-0.49576697145748766,-0.49576697145748766,1.0000374287382099,6.60709369014093e-05
-0.49532815387210577,-0.49532815387210577,1.0000241948655377,6.558729087698417e-05
-0.4945478026071214,-0.4945478026071214,0.9999709444923358,6.640564874417338e-05
-0.4935724563947588,-0.4935724563947588,1.0002079408959337,6.572502926012058e-05
-0.4929938778790529,-0.4929938778790529,1.0000838528795184,6.568796456127982e-05
-0.49185034789989,-0.49185034789989,0.9998963059481621,6.575561643761293e-05
-0.49097073717348394,-0.49097073717348394,0.9998855452060035,6.597772276867344e-05
-0.4898233299420099,-0.4898233299420099,1.000012262187528,6.560253443124598e-05
-0.4891132612574438,-0.4891132612574438,0.9999288399538052,6.612994332119425e-05
-0.48814443717201356,-0.48814443717201356,0.9999827687198781,6.645886040153693e-05
-0.48738983775401723,-0.48738983775401723,1.000060957213758,6.582411613834059e-05
-0.48675025999182253,-0.48675025999182253,0.99997183668386,6.633449712525899e-05
-0.4860414877002768,-0.4860414877002768,0.9999932293594143,6.61864555557104e-05
-0.48544538852365804,-0.48544538852365804,0.9999419297476544,6.631217297404458e-05
-0.4849677924416028,-0.4849677924416028,1.0001019612876436,6.565940060844773e-05
-0.4840419045351155,-0.4840419045351155,1.0000449014670658,6.58610766837789e-05
-0.4830949805909768,-0.4830949805909768,0.9999913325533955,6.564261820648765e-05
-0.4824081224491238,-0.4824081224491238,1.0000706123334155,6.601340806450872e-05
-0.4813093295437284,-0.4813093295437284,0.9999844894067806,6.563367579996094e-05
-0.4807681564729137,-0.4807681564729137,1.0000996911609246,6.614070282457114e-05
-0.4798934508304228,-0.4798934508304228,0.9998669323143211,6.656528960575782e-05
-0.4791796850280662,-0.4791796850280662,1.0002232403146674,6.566887260480692e-05
-0.47877654969197464,-0.47877654969197464,1.000036421365658,6.617323436121242e-05
-0.47803335161224825,-0.47803335161224825,0.9999333860901558,6.681251267890272e-05
-0.47718310221971477,-0.47718310221971477,0.9999975450376178,6.634218151182052e-05
-0.4767088010616135,-0.4767088010616135,1.0000877028183348,6.548633212411717e-05
-0.47605095887629434,-0.47605095887629434,0.9999304652863744,6.631936026914203e-05
-0.4750053121155361,-0.4750053121155361,1.0001043166952246,6.601313692216095e-05
-0.47437008878696363,-0.47437008878696363,0.9999060566429788,6.569453812150516e-05
-0.4733667034415703,-0.4733667034415703,0.9999607940352014,6.563516572703313e-05
-0.4723985765536781,-0.4723985765536781,1.000035379848765,6.606531474580921e-05
-0.4711548776685959,-0.4711548776685959,0.9999330606670446,6.575991526833496e-05
-0.47050264672070624,-0.47050264672070624,0.9999088507866885,6.619949057290407e-05
-0.4696987822804658,-0.4696987822804658,0.9999575017503087,6.611174309838292e-05
-0.4688808653852902,-0.4688808653852902,0.9999553572123387,6.608338979436994e-05
-0.4683621017029509,-0.4683621017029509,1.0001174517542766,6.596757873083633e-05
-0.4676704680241528,-0.4676704680241528,1.0000615827403194,6.637972520342494e-05
-0.46686587600852364,-0.46686587600852364,1.0000770525787874,6.613832846418327e-05
-0.4662437692248204,-0.4662437692248204,1.0000551546964283,6.56624896631214e-05
-0.4653754793187545,-0.4653754793187545,1.0001199951653816,6.572357302734458e-05
-0.46450623871714924,-0.46450623871714924,1.00003913740048,6.593112028563337e-05
-0.4638768928023637,-0.4638768928023637,1.0000553532625185,6.572720906456648e-05
-0.4627370068075834,-0.4627370068075834,0.999992996586515,6.561198029764382e-05
-0.4621665440405195,-0.4621665440405195,0.999987077464233,6.63136252497888e-05
-0.4613400215319416,-0.4613400215319416,0.9999033809410957,6.612196978280088e-05
-0.46045859506775744,-0.46045859506775744,0.9999857105413914,6.56655676426718e-05
-0.4600572258386819,-0.4600572258386819,0.9999417127080751,6.617675657851534e-05
-0.4592140251530509,-0.4592140251530509,1.000118624619376,6.643081013133989e-05
-0.4584484642102325,-0.4584484642102325,1.000071964575614,6.650157701945655e-05
-0.4579832415372948,-0.4579832415372948,0.9998631954873302,6.547492303614325e-05
-0.4573320813658938,-0.4573320813658938,0.9999746187592905,6.629502793158146e-05
-0.4562866154949006,-0.4562866154949006,0.9999011852892595,6.600755861623718e-05
-0.45565203905061935,-0.45565203905061935,1.0001671723826735,6.566889939308123e-05
-0.45488419450775835,-0.45488419450775835,0.9999736235498187,6.670286007004936e-05
-0.4538288664596621,-0.4538288664596621,0.9998969551236708,6.571805221290393e-05
-0.4528768497933925,-0.4528768497933925,0.9998972949529008,6.770686271262994e-05
-0.45198407157731707,-0.45198407157731707,0.9997821620346773,6.58945767114184e-05
-0.4515561447093205,-0.4515561447093205,1.0000488088484922,6.610186906963843e-05
-0.4506323099769361,-0.4506323099769361,1.000065559599284,6.638813339294803e-05
-0.4499582155200187,-0.4499582155200187,1.0000999791132925,6.584643329526942e-05
-0.4494018832352594,-0.4494018832352594,0.9999881178007646,6.608632248487721e-05
-0.4486464633489959,-0.4486464633489959,0.9998925378608667,6.655876521543866e-05
-0.4478498566786584,-0.4478498566786584,1.000045552651067,6.571885845475583e-05
-0.4472946076995868,-0.4472946076995868,1.0001666558473952,6.571377607611102e-05
-0.44640233887475916,-0.44640233887475916,0.9999540471446149,6.591611403940633e-05
-0.4456546394241741,-0.4456546394241741,1.0000196991101258,6.577354548762138e-05
-0.44496370524357187,-0.44496370524357187,1.0000717218430262,6.581670042118819e-05
-0.44387148051537223,-0.44387148051537223,0.9999718983097271,6.559886858102067e-05
-0.44327415080333593,-0.44327415080333593,0.9999767680409258,6.620330550164005e-05
-0.4421007174751139,-0.4421007174751139,1.000055014278762,6.606324368683648e-05
-0.4414859166201495,-0.4414859166201495,1.0001996189325653,6.587065630596657e-05
-0.44109719743355524,-0.44109719743355524,1.0002056571057862,6.59630362321918e-05
-0.4402264437143458,-0.4402264437143458,0.9999786727490589,6.655540829011073e-05
-0.439557719075674,-0.439557719075674,0.9999610330402946,6.590366321134613e-05
-0.439043564270105,-0.439043564270105,1.0000094312899648,6.572589263400637e-05
-0.4379718834992673,-0.4379718834992673,0.9999484055701762,6.620485502068945e-05
-0.43720186165664926,-0.43720186165664926,1.0000293836862766,6.571116792361911e-05
-0.4367086892052612,-0.4367086892052612,1.0001785454102636,6.724536751002316e-05
-0.4356972683191998,-0.4356972683191998,0.9999566965474042,6.575965992808248e-05
-0.43479870605515314,-0.43479870605515314,0.9999377753480587,6.600776422724276e-05
-0.43372581627918405,-0.43372581627918405,0.9998574682117759,6.671655691038866e-05
-0.4332051362485799,-0.4332051362485799,1.0000064130031194,6.620463830663521e-05
-0.43263252326287327,-0.43263252326287327,0.9999162224682191,6.602942080821205e-05
-0.4316114304245275,-0.4316114304245275,0.9999526329616572,6.633179885358188e-05
-0.4311004156006675,-0.4311004156006675,1.000166726443966,6.574543453092969e-05
-0.4305396333358658,-0.4305396333358658,0.9998569353093348,6.616862424928826e-05
-0.4297584959946107,-0.4297584959946107,0.9999961850721568,6.657790983928735e-05
-0.42901775138816445,-0.42901775138816445,1.000170995448062,6.546395762936579e-05
-0.4284778323453793,-0.4284778323453793,0.9999319366927146,6.578349053330945e-05
-0.42745117554877654,-0.42745117554877654,1.0002439120475852,6.583934539702107e-05
-0.42683131084777415,-0.42683131084777415,1.0001242802257893,6.573523380136051e-05
-0.4261650970118353,-0.4261650970118353,1.0000686290464633,6.617089585471013e-05
-0.4251211058057379,-0.4251211058057379,0.9999053926744488,6.584203594808282e-05
-0.42456040477700296,-0.42456040477700296,1.0000213118063086,6.62178712859368e-05
-0.4234891434054589,-0.4234891434054589,0.9998517548097621,6.622214834818232e-05
-0.42284325348446145,-0.42284325348446145,0.9998758877875524,6.602555063548948e-05
-0.4221478900188231,-0.4221478900188231,1.00005787532926,6.641801930702031e-05
-0.42132509534058044,-0.42132509534058044,1.000002915239987,6.628758104411472e-05
-0.4207502811856102,-0.4207502811856102,0.9998967967272996,6.559417568209848e-05
-0.42025779102332306,-0.42025779102332306,0.9999975634890429,6.610533704972441e-05
-0.4192011046085099,-0.4192011046085099,1.000134960453143,6.600019302436605e-05
-0.4183338832670415,-0.4183338832670415,0.9998685090131014,6.592952040049213e-05
-0.4176419290037302,-0.4176419290037302,0.9998880505513086,6.779879875582441e-05
-0.4166944517848606,-0.4166944517848606,0.9999741257935426,6.603645222581557e-05
-0.41587579833285415,-0.41587579833285415,0.9998800510624539,6.597555673435125e-05
-0.4148783776363416,-0.4148783776363416,0.9999579864266999,6.635612500618436e-05
-0.4144101247911749,-0.4144101247911749,0.9999736958006148,6.622373521327784e-05
-0.41372060553330814,-0.41372060553330814,1.0000643735234198,6.617006786250442e-05
-0.4127369249465119,-0.4127369249465119,1.0000421434990705,6.632865062425535e-05
-0.4122876502042345,-0.4122876502042345,0.9999631070900825,6.550379183561537e-05
-0.4117574692165363,-0.4117574692165363,0.9999837336203115,6.629308226259425e-05
-0.41104617438759306,-0.41104617438759306,1.0001025979066989,6.678757517800617e-05
-0.41030278624020866,-0.41030278624020866,0.9999914362247976,6.554073276265752e-05
-0.4098337562631059,-0.4098337562631059,0.9999490967996125,6.562888694256753e-05
-0.4087299784805509,-0.4087299784805509,1.0000523648417592,6.581332181363793e-05
-0.4079671434497868,-0.4079671434497868,0.9998574619836005,6.60363245374869e-05
-0.4070880454863072,-0.4070880454863072,1.0000071323795643,6.561341604453258e-05
-0.4061541772294731,-0.4061541772294731,0.9999875623473228,6.627147314832404e-05
-0.405437816183985,-0.405437816183985,1.000045280824988,6.608002209890694e-05
-0.4044413406169042,-0.4044413406169042,0.9999271102487957,6.607237653068445e-05
-0.40393973926693433,-0.40393973926693433,1.0001220624852305,6.598787952508945e-05
-0.40306222005965536,-0.40306222005965536,1.0000150647364563,6.661880647469141e-05
-0.4024088995516649,-0.4024088995516649,1.0001125696667363,6.641075565536212e-05
-0.40192201191093774,-0.40192201191093774,0.9999915671547193,6.558012533639086e-05
-0.4014372949473909,-0.4014372949473909,1.0001270735456682,6.601776330774296e-05
-0.4002070955830277,-0.4002070955830277,0.9999661943143741,6.60357504556511e-05
-0.3994540076724661,-0.3994540076724661,1.0001332113267958,6.582752656753489e-05
-0.398724537720409,-0.398724537720409,1.0001478254181944,6.850375974034372e-05
-0.3976687097645481,-0.3976687097645481,0.9998222950376119,6.574510501581278e-05
-0.3967137590305356,-0.3967137590305356,0.9999716315416286,6.654997279132734e-05
-0.39594187752445575,-0.39594187752445575,1.0001360893377167,6.595968992285093e-05
-0.39549782473768574,-0.39549782473768574,1.0000682457359595,6.597065493732255e-05
-0.3946857775292301,-0.3946857775292301,0.999924320493726,6.649538981083914e-05
-0.39389571610081475,-0.39389571610081475,1.0000116646812218,6.607128152454941e-05
-0.3934556596323091,-0.3934556596323091,1.0000277485752087,6.558956377641638e-05
-0.3926752012564975,-0.3926752012564975,0.9999711226719841,6.640724209732117e-05
-0.3917008407654066,-0.3917008407654066,0.9999606496348802,6.572007655120471e-05
-0.3911217966451659,-0.3911217966451659,1.0001525028225264,6.569124030014741e-05
-0.3899785621775663,-0.3899785621775663,0.9999774897663706,6.5762724984822e-05
-0.38909832367717173,-0.38909832367717173,1.0000426570626657,6.59823338684216e-05
-0.3879511794460996,-0.3879511794460996,1.0000486662036776,6.560595702642705e-05
-0.38724141091370257,-0.38724141091370257,0.9999681174523843,6.612609738036118e-05
-0.38627262002992213,-0.38627262002992213,0.9999446184135478,6.646085103313616e-05
-0.3855182454848546,-0.3855182454848546,1.0000644995878119,6.582993869819035e-05
-0.3848777474449889,-0.3848777474449889,0.9999947737766638,6.63360169004748e-05
-0.3841698748001363,-0.3841698748001363,0.9999979176594358,6.619226706990465e-05
-0.38357426664515515,-0.38357426664515515,1.0000280479687187,6.632783443431055e-05
-0.38309538522807995,-0.38309538522807995,0.9999178586552787,6.56600491821608e-05
-0.38216877473532807,-0.38216877473532807,0.9998103588679023,6.585858136785087e-05
-0.3812228069989942,-0.3812228069989942,1.000018534959076,6.564041405574398e-05
-0.3805360424448736,-0.3805360424448736,1.0000310721613739,6.601535237239328e-05
-0.37943743028663446,-0.37943743028663446,0.9999556957754198,6.562953105250144e-05
-0.3788965199419181,-0.3788965199419181,0.999914567454752,6.613759078359657e-05
-0.37802174284443024,-0.37802174284443024,0.9999951680722903,6.655585172724935e-05
-0.37730757072931737,-0.37730757072931737,0.9998778439338126,6.56543805605982e-05
-0.376904612731596,-0.376904612731596,0.9999842798662248,6.617876159629009e-05
-0.3760609224031214,-0.3760609224031214,1.000112624799765,6.642682479276356e-05
-0.3751832332767663,-0.3751832332767663,1.0000723957418332,6.608000010300418e-05
-0.3747307694138726,-0.3747307694138726,0.9998352409324113,6.556950222064555e-05
-0.37394924567997806,-0.37394924567997806,0.9999549397182299,6.63961006425202e-05
-0.3729847489557869,-0.3729847489557869,1.0000781424177927,6.573026616071793e-05
-0.37239636881131444,-0.37239636881131444,0.9999309814065107,6.650686477002385e-05
-0.37149468272982633,-0.37149468272982633,1.0000238614397026,6.564046445683183e-05
-0.3705265572098142,-0.3705265572098142,1.0000259950453685,6.60636365601737e-05
-0.36928286788534026,-0.36928286788534026,1.0000561435327082,6.576056285009107e-05
-0.3686306628973398,-0.3686306628973398,1.0000452095878885,6.62080044844568e-05
-0.36782690338295654,-0.36782690338295654,0.9999993730427409,6.61106244913233e-05
-0.36700927284327917,-0.36700927284327917,0.9999839187652716,6.60793226724164e-05
-0.36648960459351654,-0.36648960459351654,1.0000528206985884,6.595743844246498e-05
-0.36568336346026625,-0.36568336346026625,0.9999246861656632,6.629431942968027e-05
-0.3649943383876234,-0.3649943383876234,0.999938945435726,6.612632701952069e-05
-0.3643713723969995,-0.3643713723969995,0.9999339843368776,6.566013868508405e-05
-0.36350312388676687,-0.36350312388676687,0.9999515984190847,6.571817610157329e-05
-0.36263380554737523,-0.36263380554737523,0.999859361519124,6.59271308533917e-05
-0.3620618954613747,-0.3620618954613747,0.9999388415322146,6.593753957865884e-05
-0.36111284184007675,-0.36111284184007675,1.0000105108440576,6.563495161539433e-05
-0.3603810905296996,-0.3603810905296996,0.9998553730760685,6.599502531937176e-05
-0.3597126746797585,-0.3597126746797585,0.9998457401772487,6.624134770496473e-05
-0.3585864915672573,-0.3585864915672573,0.9999357807759732,6.56709113339656e-05
-0.3581852993986104,-0.3581852993986104,1.0000181456646442,6.617884082893556e-05
-0.35734215281408976,-0.35734215281408976,0.9998767000442786,6.6429860622427e-05
-0.3564708738216723,-0.3564708738216723,0.9998438122804361,6.606882145578732e-05
-0.3560059818009904,-0.3560059818009904,1.0000039127621383,6.556227243203095e-05
-0.3552527664243826,-0.3552527664243826,0.9999505277494801,6.631393987867748e-05
-0.3544147527187306,-0.3544147527187306,0.9999307844262267,6.600969282567867e-05
-0.35378024007295605,-0.35378024007295605,0.9999873213304344,6.566371732398599e-05
-0.35301220262117566,-0.35301220262117566,1.000086424004862,6.674492040238736e-05
-0.35207021224705387,-0.35207021224705387,1.0000723662636017,6.592562570201994e-05
-0.35123766071847057,-0.35123766071847057,1.0002077835307355,6.760638692361521e-05
-0.3502228177254437,-0.3502228177254437,1.0000353208622648,6.577019873995145e-05
-0.3498010255265399,-0.3498010255265399,0.999975963621004,6.594768392104299e-05
-0.34897780272222007,-0.34897780272222007,1.0000232682626766,6.65277612369743e-05
-0.34816261267187654,-0.34816261267187654,1.0001143805368709,6.606003205639789e-05
-0.3476584593001462,-0.3476584593001462,1.0000367509696688,6.581211685321341e-05
-0.3469265598578204,-0.3469265598578204,0.999893422315082,6.655641149111723e-05
-0.3461374910228187,-0.3461374910228187,1.0000306510094121,6.601170489374697e-05
-0.34553183245661784,-0.34553183245661784,1.0000530226049158,6.549789340579284e-05
-0.3448016552902118,-0.3448016552902118,0.9999603746458963,6.628774955248423e-05
-0.344058543612482,-0.344058543612482,0.9999859880262244,6.570645466789213e-05
-0.34339863614659405,-0.34339863614659405,0.9999536544643544,6.597290382559707e-05
-0.3423962043634674,-0.3423962043634674,1.0000326109306328,6.562536192215286e-05
-0.3416658112037112,-0.3416658112037112,0.99984484381204,6.597122282297057e-05
-0.3407160308823222,-0.3407160308823222,0.9999990002511048,6.616853766326358e-05
-0.339794902815629,-0.339794902815629,0.999988697987461,6.580174402474403e-05
-0.33932564168790125,-0.33932564168790125,0.9999686375402248,6.609495651051246e-05
-0.3385758716896817,-0.3385758716896817,0.9999807020020753,6.657402969449635e-05
-0.33775863568807835,-0.33775863568807835,0.9999369678644172,6.607607874295336e-05
-0.33728129815426655,-0.33728129815426655,0.9999263701197123,6.555032324721314e-05
-0.336349205870647,-0.336349205870647,0.9998552725435456,6.626784001889157e-05
-0.3354276910846238,-0.3354276910846238,1.0000351762637716,6.557524499707757e-05
-0.334836569440813,-0.334836569440813,0.9999442447376385,6.729539295164162e-05
-0.3338255155205843,-0.3338255155205843,1.0000011525757517,6.57591303822622e-05
-0.33292631906442693,-0.33292631906442693,1.0000401851239062,6.601343076344272e-05
-0.3318537876482878,-0.3318537876482878,0.9999662627086747,6.66799302659173e-05
-0.33133365778412555,-0.33133365778412555,1.0000314913264312,6.621574910191295e-05
-0.33075997519044903,-0.33075997519044903,0.9999589243769401,6.603013721047584e-05
-0.329740074374422,-0.329740074374422,0.9999372760803104,6.633182134168337e-05
-0.32922853998097706,-0.32922853998097706,0.9998945341111041,6.573442570660806e-05
-0.3286674555092759,-0.3286674555092759,0.9997675708132985,6.615789100846868e-05
-0.3278872594884888,-0.3278872594884888,0.9999700044685301,6.659681836104139e-05
-0.32714535988488935,-0.32714535988488935,1.0000078189566772,6.546156124036926e-05
-0.3264874433174555,-0.3264874433174555,0.9998462469375502,6.586890275520388e-05
-0.32545003577906756,-0.32545003577906756,1.0002084848276436,6.566025302541582e-05
-0.3248155446213786,-0.3248155446213786,1.0001258738622107,6.602384676630508e-05
-0.3239394520431233,-0.3239394520431233,0.9998805802189082,6.562010695412915e-05
-0.32306251614645587,-0.32306251614645587,0.9999675736609053,6.589921498642477e-05
-0.3226890358819219,-0.3226890358819219,0.9999689963650912,6.621458902144226e-05
-0.3216169763749349,-0.3216169763749349,1.0000671740966922,6.623110287233483e-05
-0.32097181095305133,-0.32097181095305133,0.9999238237892335,6.602589202113968e-05
-0.3202758221712429,-0.3202758221712429,1.0000063989101273,6.64077515260601e-05
-0.3194532997789793,-0.3194532997789793,1.0000094712198835,6.6286600881076e-05
-0.3188783014600631,-0.3188783014600631,1.00001121077884,6.559786180423494e-05
-0.31838559065508887,-0.31838559065508887,1.0000450603185618,6.609916080990465e-05
-0.3173287377023371,-0.3173287377023371,0.9999859617370326,6.600031275374191e-05
-0.3164621360694582,-0.3164621360694582,0.9998625735893114,6.593540451443948e-05
-0.315770047101978,-0.315770047101978,1.0001358556139803,6.787497473253836e-05
-0.31482201246763,-0.31482201246763,1.0000844636101678,6.604250260800146e-05
-0.31400394224911,-0.31400394224911,0.9999100001802155,6.598059829197593e-05
-0.31300625090516404,-0.31300625090516404,1.0002584425594891,6.633975457588553e-05
-0.3125383564234653,-0.3125383564234653,0.9999144600280563,6.612572903005206e-05
