time,time,flux,flux_err
-0.4984207682330937,-0.4984207682330937,1.0001828856130954,0.0046416223696272695
-0.4967262208756438,-0.4967262208756438,1.0036286182456007,0.004704698495422221
-0.4951101399041363,-0.4951101399041363,0.998884664504169,0.004482338640918875
-0.49378519134625093,-0.49378519134625093,0.9955573216000323,0.00425173126226936
-0.4928601936182531,-0.4928601936182531,1.0005528634226917,0.004327242988062913
-0.4919132608760265,-0.4919132608760265,0.999267925313226,0.004402641508047161
-0.4914215560696903,-0.4914215560696903,0.9998080071621989,0.00422127153939324
-0.49017550898206536,-0.49017550898206536,1.000453966336257,0.004169406124911323
-0.48806059445705613,-0.48806059445705613,0.9987340901703601,0.004239894682275546
-0.4860467826256354,-0.4860467826256354,0.9939901440747594,0.004653832776986339
-0.48508534523134583,-0.48508534523134583,1.001171395777598,0.004533193070061876
-0.4835878217374557,-0.4835878217374557,0.9997559468104195,0.004463626533984248
-0.4817233889101772,-0.4817233889101772,1.0078993029039927,0.004347722930492595
-0.4803087895394128,-0.4803087895394128,0.9994800601357593,0.004367599307828958
-0.4791485099849524,-0.4791485099849524,1.0004419761653913,0.004235790722546722
-0.4777441222635389,-0.4777441222635389,0.9969667708938156,0.004216511429753636
-0.47655789985728914,-0.47655789985728914,1.0052591627783323,0.0043571258736503585
-0.47448814351737384,-0.47448814351737384,1.0006228225614677,0.004247793509424658
-0.4726466737090959,-0.4726466737090959,0.9964717787638697,0.0042240514853825965
-0.47078448785978255,-0.47078448785978255,0.9950166266334488,0.0043886824924969595
-0.4693314129210194,-0.4693314129210194,0.9967831688006875,0.0042770116328139035
-0.46726777252697504,-0.46726777252697504,1.0008712237271844,0.004316522006702834
-0.46607755376535354,-0.46607755376535354,0.9999497965920968,0.004390817605683128
-0.46492583990475395,-0.46492583990475395,1.0043764146013776,0.004121790918057026
-0.4638680151198059,-0.4638680151198059,1.001359307035648,0.0044262624375484925
-0.4629076541037648,-0.4629076541037648,0.9970295028007407,0.004067406110078197
-0.4611799348771456,-0.4611799348771456,0.9969014746353377,0.004389284633393119
-0.4588142866261478,-0.4588142866261478,0.9977568644258714,0.004627680454771633
-0.45797914190698064,-0.45797914190698064,0.9998603783841604,0.004452058284142669
-0.4562820493527397,-0.4562820493527397,0.9988834041642802,0.004422488288355497
-0.4545304832216061,-0.4545304832216061,0.9996250257327478,0.004389672231708249
-0.45312128609220964,-0.45312128609220964,1.0087856020652997,0.0043694670414886365
-0.45187969645121484,-0.45187969645121484,1.0017878978143921,0.0041704022810171056
-0.4508309825083415,-0.4508309825083415,1.0050360737962738,0.0043188416743240015
-0.44981382594705793,-0.44981382594705793,1.0102896734518327,0.004414184621160933
-0.44885575159350993,-0.44885575159350993,0.9974493895580251,0.0044467724386360475
-0.4478597766523308,-0.4478597766523308,1.002269391570136,0.004167851171147229
-0.4466388890301459,-0.4466388890301459,1.000429329515974,0.004306323636852846
-0.4448719551626709,-0.4448719551626709,0.9971506247827271,0.004085466946444569
-0.4432634193566628,-0.4432634193566628,0.9983672072120825,0.004576587280785862
-0.4423844721750356,-0.4423844721750356,0.9994973621894365,0.004262611932930481
-0.4404483861726476,-0.4404483861726476,1.0053287573183365,0.004399769115971309
-0.43931273326961673,-0.43931273326961673,0.998091629683957,0.0043511098496086835
-0.43828116654331095,-0.43828116654331095,0.9986915307507379,0.004300502998244426
-0.4370471623522462,-0.4370471623522462,1.0023316834034248,0.00426483330485153
-0.4361628738348372,-0.4361628738348372,0.9987865952109086,0.004173340082023107
-0.43488323093406506,-0.43488323093406506,1.002766663144961,0.00444824319317724
-0.43398168094354334,-0.43398168094354334,1.0053292549308277,0.004268434613005698
-0.4319808041807846,-0.4319808041807846,0.999120827828764,0.004528751732417905
-0.43069220664547175,-0.43069220664547175,1.0037075519463197,0.00419741768254988
-0.42815507055274793,-0.42815507055274793,1.0069600425032674,0.0042338374231458776
-0.42680674009825453,-0.42680674009825453,1.0004004325942142,0.004371931468984051
-0.42525554506573826,-0.42525554506573826,0.9984032662514594,0.004413445507514231
-0.4239061004613177,-0.4239061004613177,1.001980447915445,0.004216282053423526
-0.4229727974132402,-0.4229727974132402,1.00445441433028,0.004431236142416834
-0.42216789161466295,-0.42216789161466295,0.9995963035752838,0.004555089597967998
-0.4214149025043298,-0.4214149025043298,1.0060515895836182,0.004193121107484915
-0.42039211981391417,-0.42039211981391417,0.9962599298732628,0.004168889585518538
-0.4190111157622596,-0.4190111157622596,1.0001334226582537,0.004401366974904236
-0.41709253439548777,-0.41709253439548777,0.9996383212322169,0.004208751982521881
-0.4157532377023017,-0.4157532377023017,1.0061723239228137,0.0046989665463989605
-0.4147372980012733,-0.4147372980012733,1.0088788563024316,0.004856568558453641
-0.41270229890651533,-0.41270229890651533,0.9993893126857113,0.004374117018378826
-0.41129928212831146,-0.41129928212831146,1.0016602153181329,0.004312272380874478
-0.41004144340477067,-0.41004144340477067,1.0015958741647586,0.004362554142225963
-0.40910177974510586,-0.40910177974510586,1.0033964069726555,0.004234291624995326
-0.40751163223030745,-0.40751163223030745,0.9960396039379799,0.004298458836943677
-0.4062494377583789,-0.4062494377583789,1.0004819458368395,0.004108495192976856
-0.4042749181659019,-0.4042749181659019,0.9990698008421944,0.004195360116688716
-0.4025679111946374,-0.4025679111946374,1.0042087246960587,0.004220721291746879
-0.40035206793472755,-0.40035206793472755,1.004805195497584,0.004377438732023094
-0.3989985905063804,-0.3989985905063804,1.00258489298277,0.00429811683516313
-0.3975119087001076,-0.3975119087001076,1.0016181657822842,0.004282974962408466
-0.39633249192338554,-0.39633249192338554,1.002884617329057,0.004443191749224594
-0.395389555755537,-0.395389555755537,0.9972248992006323,0.0043541157589293
-0.3944132008960878,-0.3944132008960878,1.0023916996499087,0.004174174690306836
-0.3935683080642775,-0.3935683080642775,0.9994200091038874,0.004328600028193013
-0.39170783226145434,-0.39170783226145434,1.0048574527946788,0.004104278382838332
-0.39003938915993785,-0.39003938915993785,1.0077542755412872,0.004213673382375025
-0.38859054695712986,-0.38859054695712986,0.9942592758421813,0.004822508246871906
-0.3877595114412543,-0.3877595114412543,0.9963009027560279,0.004526668729459395
-0.386401609571476,-0.386401609571476,1.0038178380714222,0.004469291967500348
-0.3848297385222395,-0.3848297385222395,0.9992252311186833,0.004395665866224125
-0.3832827341022494,-0.3832827341022494,1.001569487037674,0.004272199482044142
-0.38205516424714003,-0.38205516424714003,1.0018046915797147,0.004296250309047388
-0.38084556096218874,-0.38084556096218874,1.0000583686739914,0.004252167951024157
-0.37953916526385,-0.37953916526385,0.9989264996912081,0.00428945495532677
-0.37798369532756626,-0.37798369532756626,1.004079574332478,0.004290903265747561
-0.3763038888464507,-0.3763038888464507,1.0023955773321476,0.004152906738539195
-0.37375583208922764,-0.37375583208922764,0.9990132726007239,0.004242052989901655
-0.3724294114719669,-0.3724294114719669,1.0045454972271792,0.00437586091653206
-0.3703539348607592,-0.3703539348607592,0.9983442157444842,0.0044138478332087375
-0.3690210368411499,-0.3690210368411499,1.0009832348314172,0.004492450898398435
-0.3678900979030004,-0.3678900979030004,0.9998330646675218,0.004089957089719076
-0.36689632560592145,-0.36689632560592145,1.0003073475822974,0.004239490851509816
-0.3659028915462841,-0.3659028915462841,0.9981835492834575,0.0041765631152658805
-0.3643320221424801,-0.3643320221424801,1.0031717027030715,0.004329168410378253
-0.3618915455881506,-0.3618915455881506,1.0010576258981039,0.004523010331574349
-0.3607389346594573,-0.3607389346594573,1.0026149231277544,0.004459665497439128
-0.35900070098941794,-0.35900070098941794,1.0007354271643543,0.004423161651205652
-0.3572497696906794,-0.3572497696906794,1.0064885361192175,0.004389769486285636
-0.35584003322946955,-0.35584003322946955,0.9975572793528131,0.004368567847742878
-0.3545984994256287,-0.3545984994256287,0.999572972115808,0.00416940447900631
-0.3535501820908394,-0.3535501820908394,1.002626497052289,0.0043161577237185375
-0.352532311896357,-0.352532311896357,0.9976819996338195,0.004416847027177129
-0.35157446168232126,-0.35157446168232126,0.999380066367691,0.00444731167459351
-0.3505785965862742,-0.3505785965862742,0.9979672312921194,0.004168255119097535
-0.34965653396211566,-0.34965653396211566,0.996318635877748,0.00425824187625177
-0.34796947653012467,-0.34796947653012467,0.9953706548754477,0.004244597808899236
-0.34624415996513563,-0.34624415996513563,0.9960819477396703,0.004388404798740397
-0.3451037677798013,-0.3451037677798013,1.0026146953302209,0.004262477919754802
-0.34316707016623693,-0.34316707016623693,1.001101669541581,0.0044020743089697185
-0.3419591393096198,-0.3419591393096198,1.0041386141707984,0.004473469938478541
-0.3406502089826972,-0.3406502089826972,1.003746641696183,0.004109187205856778
-0.3395954910760338,-0.3395954910760338,0.9979240626244217,0.004247707070768085
-0.3387144372776675,-0.3387144372776675,0.9969729490258425,0.004168538683743186
-0.33735184403922175,-0.33735184403922175,1.0061369210389024,0.004672993736816894
-0.33641748440277297,-0.33641748440277297,1.0045131666974065,0.0040966384729577724
-0.3344293235131772,-0.3344293235131772,0.9943985256258004,0.004541935662710888
-0.3337341337726684,-0.3337341337726684,0.9964198697337586,0.004422627844382384
-0.3314019080768048,-0.3314019080768048,0.9979152320239919,0.004351079969802612
-0.32983288981195075,-0.32983288981195075,1.0038547990566649,0.004265934460111821
-0.32826975789721474,-0.32826975789721474,0.9977851052252605,0.004452405813913916
-0.3268495956690458,-0.3268495956690458,0.9980935623655895,0.004293667123903698
-0.32586113195939104,-0.32586113195939104,1.0000190423325488,0.004428235369865186
-0.3250700411161233,-0.3250700411161233,1.0007660002836978,0.0044799724619314215
-0.3242467143725662,-0.3242467143725662,0.9950379580978252,0.004260410596403657
-0.3233904207299929,-0.3233904207299929,0.999232126032625,0.004176931912578105
-0.32197798933048033,-0.32197798933048033,1.0035046121679025,0.004380558776947205
-0.320272281767393,-0.320272281767393,1.00081532961271,0.004092276523261445
-0.31859878006289366,-0.31859878006289366,0.9996210028237271,0.00465009356445993
-0.31722832894447495,-0.31722832894447495,0.9980066089967046,0.00445013732899873
-0.31511948322950045,-0.31511948322950045,1.0026305007414886,0.004401583735425237
-0.31374743687701995,-0.31374743687701995,0.9988234275481863,0.00425783195730641
-0.3126364108538837,-0.3126364108538837,1.0024926882687106,0.004295588864643712
-0.31152604432572845,-0.31152604432572845,0.9983441304379037,0.004173982676924607
-0.30996011017487035,-0.30996011017487035,1.0043773215378187,0.004303784412159798
-0.3083281649371202,-0.3083281649371202,0.9973986549066909,0.004247437858744351
-0.30677447828129517,-0.30677447828129517,0.9970925851355581,0.0044861630007285965
-0.3046696683682967,-0.3046696683682967,0.9988046777827266,0.004230238011795897
-0.30286415061054867,-0.30286415061054867,1.0133632159196952,0.004362141940684927
-0.3014652173304057,-0.3014652173304057,1.001968686138289,0.004396037037569885
-0.3001561153527291,-0.3001561153527291,1.000021858310819,0.004173597908320374
-0.299078962229396,-0.299078962229396,1.0022460254486731,0.004417452609734188
-0.2982979702144803,-0.2982979702144803,1.0018656591249648,0.004320882038067608
-0.29728173375187905,-0.29728173375187905,1.000291458627741,0.0043557279221505315
-0.2962870126706548,-0.2962870126706548,1.0013096431122057,0.004327794842552097
-0.29442729329457507,-0.29442729329457507,0.9974777889729911,0.004106704389292222
-0.2921635117265396,-0.2921635117265396,1.002870637237587,0.0046394921523757885
-0.2909225216550112,-0.2909225216550112,0.9993346572128097,0.0043436861035624896
-0.2899924917932367,-0.2899924917932367,0.999251424968052,0.0047066691448437725
-0.2882270324509591,-0.2882270324509591,1.0014057373600276,0.004386788801724594
-0.28662212816561805,-0.28662212816561805,1.0001716505826264,0.00432053241005197
-0.2854402387063601,-0.2854402387063601,1.0006163092693598,0.004344172304628331
-0.2845866286566888,-0.2845866286566888,1.0002992901613343,0.0042386205111778095
-0.28318360688936084,-0.28318360688936084,0.9991601875429279,0.0042160669225405345
-0.28199563209636835,-0.28199563209636835,1.0002895906926308,0.004355616701857237
-0.27992574398522263,-0.27992574398522263,1.0029167886766337,0.00425223364868913
-0.2782389889405749,-0.2782389889405749,1.00125348079954,0.004179566184235002
-0.27647578784162763,-0.27647578784162763,1.0065090930705503,0.004246642626956317
-0.27514827158956906,-0.27514827158956906,0.9951061769556351,0.004379982935580928
-0.27307262459216874,-0.27307262459216874,0.9995000237973187,0.004412666213918064
-0.2717397231819632,-0.2717397231819632,0.9970038656588152,0.00449130644593446
-0.2706093935106765,-0.2706093935106765,1.0026978615869113,0.004091554324874745
-0.2696150529125589,-0.2696150529125589,1.0001221144632209,0.004236649604779338
-0.2686217391419632,-0.2686217391419632,0.9998204711539909,0.004174743068458232
-0.26705131722555964,-0.26705131722555964,1.0035006237159263,0.0043285228038358586
-0.26503952326020225,-0.26503952326020225,0.9990714468352241,0.004572702479321655
-0.2636471046091174,-0.2636471046091174,0.9993089135181579,0.004332511490843028
-0.2620285400087596,-0.2620285400087596,0.9984946730122877,0.004486452922186812
-0.2603567771038797,-0.2603567771038797,0.9974156531338515,0.0044391898159714
-0.25881307759264016,-0.25881307759264016,1.0022707703717346,0.004276120599988174
-0.25750522022353833,-0.25750522022353833,1.0007614180963855,0.004226389798513782
-0.2563685877750686,-0.2563685877750686,1.002359889038439,0.004251878797592364
-0.2552507999287627,-0.2552507999287627,0.9960684087778672,0.0044184579407244625
-0.2542931715026498,-0.2542931715026498,1.001785929362726,0.004448714845810393
-0.2532974173023831,-0.2532974173023831,0.9940351134145289,0.004169541177047766
-0.2520773724783794,-0.2520773724783794,1.0022712649448888,0.004308101832805566
-0.2502094310868415,-0.2502094310868415,0.9959402471090308,0.004194136536101232
-0.24868671824224292,-0.24868671824224292,1.002012345602626,0.004380313182440223
-0.24713456778699766,-0.24713456778699766,1.0007085830852354,0.00443426010018305
-0.24527638416038827,-0.24527638416038827,0.9968907252869708,0.004310684714946197
-0.2442665367219888,-0.2442665367219888,1.0030798340480231,0.004201828636046147
-0.24284030424969388,-0.24284030424969388,1.0025278116130838,0.004379351334022172
-0.2419481628727226,-0.2419481628727226,1.0022130170199577,0.004189444349553335
-0.24113133031496545,-0.24113133031496545,0.9992417194965038,0.0040662632501406205
-0.23961855323796044,-0.23961855323796044,0.9963567524440723,0.004329230552690259
-0.23796980104743853,-0.23796980104743853,1.0030956520579983,0.004218155321403819
-0.23683283570644562,-0.23683283570644562,1.002417518271785,0.004645636574016469
-0.2358087696513394,-0.2358087696513394,0.9993373865219505,0.004361417390075489
-0.23333617554308148,-0.23333617554308148,0.9992677212431478,0.004447649378407609
-0.23188969703405746,-0.23188969703405746,1.0027342873326088,0.004097816039101989
-0.23045750329984002,-0.23045750329984002,1.0000703999777305,0.004438661719149115
-0.229285196580895,-0.229285196580895,1.003942385804976,0.004163320660530228
-0.22840228157583625,-0.22840228157583625,0.9964148303442091,0.0044411229871403075
-0.22760517583810724,-0.22760517583810724,1.0020905822534947,0.004550036754567769
-0.22685235633252887,-0.22685235633252887,0.9945305306741432,0.004193062008483795
-0.22582981629966525,-0.22582981629966525,1.0021955512416922,0.0041682024643215024
-0.22451295872306218,-0.22451295872306218,0.9993291712945851,0.004337469593982335
-0.22296767993466346,-0.22296767993466346,1.003855960136373,0.004094607217398806
-0.22131788727856475,-0.22131788727856475,1.0041076772009494,0.0046399005009528
-0.21994707503617975,-0.21994707503617975,1.0015780800581702,0.004443994944567914
-0.21783891451414092,-0.21783891451414092,1.0056345914584106,0.004398194659860815
-0.21617967763741036,-0.21617967763741036,0.9988611305027957,0.00412490598675937
-0.21514415789642954,-0.21514415789642954,1.003697679112404,0.004368131114598465
-0.21401990232188836,-0.21401990232188836,1.000887396529204,0.0040639585582124965
-0.21254813469786313,-0.21254813469786313,1.000273021414938,0.00452183550033256
-0.21104774442937924,-0.21104774442937924,1.0055107168185498,0.0042455142518836395
-0.2094929219543701,-0.2094929219543701,1.0109204253697204,0.004481045260215838
-0.20796259750641183,-0.20796259750641183,1.0073097507429354,0.004422866667518097
-0.20579053859983104,-0.20579053859983104,0.9982116821708793,0.004373501039508762
-0.2044362577762513,-0.2044362577762513,1.004137617655575,0.004293717190374481
-0.20295021679921774,-0.20295021679921774,1.0020798632881407,0.004271194701889211
-0.20164060352835805,-0.20164060352835805,1.0076151094720216,0.0045389738425175245
-0.20082736913973348,-0.20082736913973348,1.0023210682600534,0.004353686052070246
-0.19981410699474508,-0.19981410699474508,0.9971110316665124,0.004277531855825205
-0.1986980031753774,-0.1986980031753774,1.001970546284303,0.00416973732668564
-0.19665310046984813,-0.19665310046984813,0.9999697168118337,0.004176821334211716
-0.19456590487388895,-0.19456590487388895,1.0064293175712922,0.004641167012640528
-0.19364177055613255,-0.19364177055613255,0.9976882578723021,0.004341555774023004
-0.19271092868439155,-0.19271092868439155,0.9968733256259151,0.004707856968285009
-0.1909465044409444,-0.1909465044409444,1.0051056121372177,0.004389260604564994
-0.1893410182907246,-0.1893410182907246,1.000030490806717,0.0043055348167769306
-0.18807840968729578,-0.18807840968729578,0.9971602917287024,0.0043079044945729126
-0.1870565435856406,-0.1870565435856406,1.0013176484064688,0.004171969258292385
-0.18563194341404596,-0.18563194341404596,0.999949466329418,0.004222404937854249
-0.18426844875211829,-0.18426844875211829,1.0067631282953509,0.0043834977711904
-0.18243422429513884,-0.18243422429513884,0.9979530179278674,0.004229471196441672
-0.18054458498590975,-0.18054458498590975,1.0043207186607892,0.004257011548238978
-0.17894488050224028,-0.17894488050224028,1.0015741035754593,0.004471213728661778
-0.1774880934674002,-0.1774880934674002,0.9990233314301433,0.0042788726782240815
-0.17575870106957153,-0.17575870106957153,0.9986197538802438,0.004307846240918803
-0.17445841030057635,-0.17445841030057635,0.9988951794814861,0.004492675746012308
-0.17332869041783852,-0.17332869041783852,0.9974179578392006,0.004087709233676311
-0.17239049259515013,-0.17239049259515013,1.0018196027395851,0.004241306639851629
-0.17134058881929376,-0.17134058881929376,0.9991777940178025,0.0041719736770841455
-0.17008439275086856,-0.17008439275086856,0.9999162211018758,0.00447182630639976
-0.16783594648441066,-0.16783594648441066,0.9984655023829386,0.004563023097419775
-0.16636635950781056,-0.16636635950781056,0.998565562918871,0.004330748226885325
-0.16487784598866712,-0.16487784598866712,0.9981436270599634,0.004460856693899591
-0.16345038895960898,-0.16345038895960898,0.9977069187162755,0.004501485220273394
-0.16179871109925442,-0.16179871109925442,0.9991709027129916,0.004099945010787306
-0.16043803100546938,-0.16043803100546938,1.0028623529373233,0.004393703118916008
-0.1594201573272585,-0.1594201573272585,1.000149517924541,0.004115820413389959
-0.1580958450322214,-0.1580958450322214,1.0019741565734552,0.0045127655391806265
-0.15721548144938424,-0.15721548144938424,1.0024300959237915,0.004338489466819562
-0.1561993991083,-0.1561993991083,1.0001230969362147,0.004218110583279605
