time,time,flux,flux_err
-0.49993750100475154,-0.49993750100475154,1.0001436001770847,0.00024492911050036636
-0.49980050805752396,-0.49980050805752396,0.9999025032786314,0.00025842600616504636
-0.4997263474200736,-0.4997263474200736,1.0002725412706925,0.0002578147700691614
-0.4996442914474756,-0.4996442914474756,1.0000786129045605,0.00021806289098486153
-0.4994932015237282,-0.4994932015237282,0.9998078801506436,0.0002589984836772382
-0.4993966372174327,-0.4993966372174327,1.0001667146973436,0.00023328505260705707
-0.49927930726116754,-0.49927930726116754,1.0000807227803974,0.00022799234519531205
-0.4991828632642864,-0.4991828632642864,1.0001759436795665,0.0002653846843075577
-0.49909488787379813,-0.49909488787379813,0.9998218896284845,0.00024081156162527882
-0.4989911074153497,-0.4989911074153497,0.9998908186987314,0.00023662994303114403
-0.49886354435002433,-0.49886354435002433,0.9999869272974997,0.00022576260347436793
-0.49876744498033077,-0.49876744498033077,0.9997173119799367,0.00023663222066267866
-0.4985332653959631,-0.4985332653959631,0.9999438139140187,0.0002721792233255611
-0.4983297409489751,-0.4983297409489751,0.9998966206262688,0.00028403567196881834
-0.49825170389667617,-0.49825170389667617,0.9999589600611415,0.00025279298637476285
-0.4982039605922182,-0.4982039605922182,1.0001350280079724,0.0002278767232572239
-0.4981233671453083,-0.4981233671453083,1.0001763217632322,0.00024274936005097428
-0.4980333956351387,-0.4980333956351387,0.9999963647747603,0.0002220597681533577
-0.49789618803188207,-0.49789618803188207,1.000143875603424,0.0002648565099528761
-0.49782729457801905,-0.49782729457801905,1.0000961228280025,0.00022391683046691602
-0.49773118601733585,-0.49773118601733585,1.0002269745407395,0.0002619458333878695
-0.4976463227067143,-0.4976463227067143,0.9999954165101441,0.00029043424113239867
-0.4974855649517849,-0.4974855649517849,1.0002660611018837,0.00023445496878984591
-0.4973458019681857,-0.4973458019681857,0.9997075457042989,0.0002241903374566031
-0.4972213705899776,-0.4972213705899776,1.0001960885515842,0.0002834133176526177
-0.49710203193390046,-0.49710203193390046,0.9998717880165187,0.00022954221042500002
-0.49702421980036887,-0.49702421980036887,0.9997596223573867,0.00022459890073819826
-0.4969323358338443,-0.4969323358338443,0.9996317347475074,0.00022796999894982988
-0.49680729555693687,-0.49680729555693687,0.9998120125874268,0.00023343251041466618
-0.4965458542035776,-0.4965458542035776,0.9998355992215302,0.00026159879415971584
-0.4964192562183598,-0.4964192562183598,1.000254222073606,0.00023687704535667976
-0.4963800455152523,-0.4963800455152523,1.00016399354798,0.00022931440258876275
-0.49628845947008815,-0.49628845947008815,0.9996773257630579,0.00024520682990996365
-0.4961593565865769,-0.4961593565865769,0.9998521149093497,0.00024588770877315396
-0.4960463310286286,-0.4960463310286286,1.000069042409453,0.00021790837099000326
-0.49586140211467866,-0.49586140211467866,1.0000930411050353,0.00022938379431667802
-0.49574484643380856,-0.49574484643380856,0.9997422915925241,0.000305706805538403
-0.49559155504830416,-0.49559155504830416,1.0003114123292938,0.0002326010845761766
-0.4954657041860628,-0.4954657041860628,1.0001335759314365,0.00025031369251762457
-0.495389335071377,-0.495389335071377,1.0000476860791654,0.0002454955403896403
-0.49527875884086825,-0.49527875884086825,0.9996052493531573,0.00026436892606013826
-0.4952247327979421,-0.4952247327979421,0.9995886974160992,0.00023544539717466374
-0.4950912516520475,-0.4950912516520475,1.0001851335757497,0.00023480014377328255
-0.49485502467578046,-0.49485502467578046,0.9996572760390954,0.00022071706530211224
-0.4947114465016057,-0.4947114465016057,1.0000835360608291,0.00024293525521556667
-0.49463067780452546,-0.49463067780452546,0.9999745502075996,0.00025959253749556087
-0.49451049843046346,-0.49451049843046346,1.0000006798679473,0.00025924196748730035
-0.49441776882158595,-0.49441776882158595,0.9997033843873065,0.0002594386461118238
-0.49430363102728736,-0.49430363102728736,0.9998447965501194,0.00024725729133837744
-0.49418452495883686,-0.49418452495883686,1.000099874082393,0.0002148633306334199
-0.49404080407402945,-0.49404080407402945,0.9998755263768413,0.0002704420477747593
-0.4939011574577307,-0.4939011574577307,1.0001095128843782,0.0002677655699891279
-0.4938161879923427,-0.4938161879923427,1.0000580430287145,0.00022004028333536145
-0.4937121111885062,-0.4937121111885062,1.0000076339170039,0.000266730729600593
-0.49356733773020095,-0.49356733773020095,0.9999918631649027,0.0002978616210980956
-0.4934454209243995,-0.4934454209243995,0.9996797399444668,0.0002629238567885037
-0.4932806571101537,-0.4932806571101537,1.00020873253362,0.000253534822453163
-0.49315445746906333,-0.49315445746906333,1.0000517079709357,0.00022386104095787726
-0.4930103951104684,-0.4930103951104684,0.9995497529710468,0.00027032632712463607
-0.49291472111217444,-0.49291472111217444,0.9996309089397201,0.00023603710845693636
-0.4928156786772888,-0.4928156786772888,0.9999221559989717,0.00021755908286063053
-0.4927264952915721,-0.4927264952915721,1.0000570295295397,0.0002689586986567296
-0.4926295797093189,-0.4926295797093189,0.9998488158577524,0.000221614750142389
-0.4925174886840978,-0.4925174886840978,1.0000961321117905,0.00024308944089935602
-0.4924539712490514,-0.4924539712490514,1.0004976081288581,0.0002306483744018986
-0.4923000049457187,-0.4923000049457187,1.000335614395436,0.00023587650508386272
-0.49216027111397126,-0.49216027111397126,0.9994818182354732,0.0002442880263994449
-0.4919300691632088,-0.4919300691632088,1.0000104565297432,0.0002849796622660254
-0.4918250971415546,-0.4918250971415546,1.000208299148489,0.00022897033341061785
-0.4917653947675717,-0.4917653947675717,0.9997673160516471,0.0002686101801411724
-0.4916686757671414,-0.4916686757671414,1.0000663947481643,0.00026374085841202673
-0.49154712495801506,-0.49154712495801506,1.0005327601367937,0.0002890611944902595
-0.49143627471203216,-0.49143627471203216,1.0000910686729774,0.00022609518803861964
-0.4913567011608393,-0.4913567011608393,1.0001098435148812,0.0002204963541358984
-0.491292441218684,-0.491292441218684,1.000096856698862,0.00026343265552404853
-0.4911408513813512,-0.4911408513813512,1.00010896117278,0.00025546065709659214
-0.4910419125444605,-0.4910419125444605,0.9997944406263171,0.00023538688051694565
-0.49097504258534175,-0.49097504258534175,1.0002009529265559,0.0002153895725872937
-0.4908389016680303,-0.4908389016680303,1.0001918806222352,0.00022168437549289734
-0.49072811652877135,-0.49072811652877135,0.9999081601584937,0.00026175088734524236
-0.4906282840645872,-0.4906282840645872,0.9997923580514625,0.0002279230546413836
-0.49054702190478566,-0.49054702190478566,1.0000340928199634,0.00024397533649067423
-0.4904071667624521,-0.4904071667624521,0.999837311426688,0.0002560292836026563
-0.4902559623296838,-0.4902559623296838,0.9998925270350408,0.00022798567940731951
-0.4901497504484723,-0.4901497504484723,0.999674193359113,0.00023288533558746385
-0.49008479705371427,-0.49008479705371427,0.9997239922921521,0.00023312729910275658
-0.48998357222008054,-0.48998357222008054,1.0000422667516253,0.0002674693355537221
-0.48987817405723033,-0.48987817405723033,1.000269542856901,0.0002272061894215483
-0.489776765962597,-0.489776765962597,1.0001587957775713,0.0002844628398206571
-0.48972431217698614,-0.48972431217698614,0.9999620584106461,0.00025024706591100126
-0.4895461124295252,-0.4895461124295252,1.000016342923776,0.00024052049847937533
-0.4893989583259099,-0.4893989583259099,1.0002412383377441,0.0002577124519312649
-0.489332294560154,-0.489332294560154,1.0000641781252746,0.00022923478433178545
-0.4892092421927373,-0.4892092421927373,0.9998589078493045,0.00023573669129308845
-0.48915120752644725,-0.48915120752644725,1.0000708467038217,0.0002587486800314738
-0.48902616910636426,-0.48902616910636426,1.0001639157725193,0.00023094722536045123
-0.4889002055802848,-0.4889002055802848,1.0002328114652201,0.0002189538306948134
-0.48881815308268417,-0.48881815308268417,0.9998878053488868,0.00026403216780060244
-0.4887498278723797,-0.4887498278723797,1.0003223711951896,0.00023102094480044157
-0.4886292311741272,-0.4886292311741272,1.0001473735441242,0.0002519201102832103
-0.4885240764007904,-0.4885240764007904,0.9998160252357421,0.0002326077016463542
-0.48841158778523097,-0.48841158778523097,1.0001070585706193,0.00027432978816112883
-0.48825239535508447,-0.48825239535508447,0.999698397753753,0.0002378878899757732
-0.48810288602107904,-0.48810288602107904,1.0001061438792225,0.000247917734435321
-0.48797404835058844,-0.48797404835058844,0.9997649858013261,0.00024787360480904303
-0.4878615290799644,-0.4878615290799644,0.999984479737712,0.00025221972628757753
-0.48772958225454205,-0.48772958225454205,1.000002162008941,0.0002754378529110209
-0.48758306797099066,-0.48758306797099066,1.0000608555038037,0.00022846406924265797
-0.48746786733245245,-0.48746786733245245,1.0002141868000727,0.00023223200839909644
-0.4873989561267081,-0.4873989561267081,1.0000779640092978,0.0002270533831998485
-0.48730200858553874,-0.48730200858553874,0.9998438009290445,0.0002398395161227034
-0.48716477394191315,-0.48716477394191315,0.9998295547368367,0.00026538605296219664
-0.487066439211776,-0.487066439211776,0.9997923075053876,0.00022731466618604578
-0.4869742334965849,-0.4869742334965849,0.9999313513550983,0.00021375076238842444
-0.48681966582225866,-0.48681966582225866,0.9997279246670754,0.00027016172423835873
-0.48663987249456114,-0.48663987249456114,1.000153958151886,0.0002262118156470244
-0.48653978652873775,-0.48653978652873775,1.000076589245766,0.000237766717185442
-0.4864314663849655,-0.4864314663849655,1.0003401522586732,0.0002678841169089614
-0.486249640409369,-0.486249640409369,1.0002318149586913,0.00024975828425275576
-0.4860949114416144,-0.4860949114416144,0.999838985394593,0.0002176797545033526
-0.48586877790658034,-0.48586877790658034,1.000310688905311,0.00026138023994679694
-0.48579522810905473,-0.48579522810905473,1.000057422899422,0.0002584977628150579
-0.48569297615758844,-0.48569297615758844,0.9999966670580326,0.0002527171235725615
-0.48557249302684796,-0.48557249302684796,1.0001854276466455,0.00022863996489566894
-0.48548197705240453,-0.48548197705240453,0.9996842679625638,0.00024027706241164953
-0.48538312383170706,-0.48538312383170706,1.0001717199592264,0.0002316628784448835
-0.485278042324353,-0.485278042324353,0.9998299706607477,0.00026079761401432246
-0.48515096782793987,-0.48515096782793987,0.9997721103804912,0.00021620796503647616
-0.48503781877516305,-0.48503781877516305,0.9999048806995965,0.0002747344839099888
-0.48491609886987136,-0.48491609886987136,0.9998594466343459,0.00025910312671139463
-0.48478515277820405,-0.48478515277820405,1.0001986057388677,0.0002509350792006675
-0.4846679091919214,-0.4846679091919214,0.9998950305882289,0.00023890000907945456
-0.4845855651015881,-0.4845855651015881,1.000227654402025,0.0002118344056008116
-0.48447364564053713,-0.48447364564053713,0.9998801173016517,0.00023516814640939062
-0.4843389839530573,-0.4843389839530573,1.000059130263607,0.00023786247585374652
-0.4842253839145997,-0.4842253839145997,1.0003177771484042,0.00022837741491500796
-0.4840736335943802,-0.4840736335943802,1.0000215145504838,0.00023516629828945111
-0.48395278180832974,-0.48395278180832974,1.00027585850719,0.0002835368442970305
-0.48388471534854033,-0.48388471534854033,0.9999598367091448,0.0002549506799252311
-0.4837530014687218,-0.4837530014687218,1.000245439258058,0.00022926653402374368
-0.4836627568569384,-0.4836627568569384,0.999899656218361,0.00021977126108380538
-0.48350411573046587,-0.48350411573046587,1.0002135593267885,0.00022592999053716597
-0.4833647869876586,-0.4833647869876586,1.000254444262739,0.0002569868310572218
-0.48326403953396946,-0.48326403953396946,1.000291702568918,0.0002429077823928441
-0.4831562802908593,-0.4831562802908593,1.0001903083565467,0.0002514290707633932
-0.4829527573878295,-0.4829527573878295,1.0000202503290676,0.00023891316847180201
-0.4828678795442102,-0.4828678795442102,1.0003390873738862,0.00022266502470217925
-0.48279726738110185,-0.48279726738110185,0.9998885654840677,0.00024367391381391012
-0.48271379300567785,-0.48271379300567785,0.9997393716315688,0.00024188875097473387
-0.482636366134102,-0.482636366134102,0.9996050872359099,0.00022887617281921657
-0.48256558698631125,-0.48256558698631125,0.9999519550341031,0.00023012152730991645
-0.4824964083803934,-0.4824964083803934,0.9996685820842739,0.00023122118536643904
-0.48233028807881057,-0.48233028807881057,1.0000255427259466,0.00025386358732183603
-0.48213268972031076,-0.48213268972031076,1.0001522570890962,0.000265160444404833
-0.4820190754777286,-0.4820190754777286,0.9999859979520626,0.00025728411434759534
-0.48195043794548836,-0.48195043794548836,0.9999277930590369,0.00029671218600897914
-0.48180777675297576,-0.48180777675297576,0.999680191342988,0.00023880527364751624
-0.48167834117921304,-0.48167834117921304,1.0002460606122638,0.0002623858523365757
-0.481495769241883,-0.481495769241883,0.9998249968272519,0.0002636104236289251
-0.4813903459944413,-0.4813903459944413,1.000015141274656,0.00022729753840014275
-0.4812953769476735,-0.4812953769476735,0.9999767120397962,0.00025529275566234976
-0.481146506141522,-0.481146506141522,1.0004224475529588,0.00024496397981680186
-0.4810218272337806,-0.4810218272337806,1.0003251746020898,0.0002204363573934308
-0.4809356097088312,-0.4809356097088312,0.9998950858262526,0.0002458445042579899
-0.48085388679028257,-0.48085388679028257,0.9998589798187046,0.00024470792970067814
-0.4807256252170191,-0.4807256252170191,0.9996854482408788,0.00024985945298529723
-0.48062750951212363,-0.48062750951212363,0.9995679557433664,0.0002283063279808365
-0.4805703646066831,-0.4805703646066831,0.9999614264271439,0.0002273984880103953
-0.4804111915174872,-0.4804111915174872,0.9999607342622363,0.0002529852581232981
-0.48030623668601036,-0.48030623668601036,1.000030038673064,0.0002588095077188077
-0.4801607428322313,-0.4801607428322313,0.9998590117384161,0.00025656535447445743
-0.480041841934144,-0.480041841934144,0.9997463047928392,0.00028621092117474343
-0.4799673195026116,-0.4799673195026116,1.0002114371506017,0.0002498170420900742
-0.4798723777392297,-0.4798723777392297,1.0000691644918656,0.00023771945016553522
-0.47973839286569275,-0.47973839286569275,1.000215958441452,0.0002603681522142713
-0.4796661860862514,-0.4796661860862514,0.9999550080901825,0.00021958446345481247
-0.479578177590156,-0.479578177590156,0.9998559394124189,0.0002530943088243679
-0.4794717709024553,-0.4794717709024553,1.0001096795926574,0.00025350014779028493
-0.4793652370775817,-0.4793652370775817,1.0001453174309056,0.0002544956330998643
-0.47928757476765893,-0.47928757476765893,1.0000436087335196,0.00023250171615069138
-0.4791981018614024,-0.4791981018614024,1.000353162502306,0.00022609124238232733
-0.4790805070850183,-0.4790805070850183,0.9998329241859635,0.000268692637074967
-0.4789993339290959,-0.4789993339290959,0.9999904453816206,0.0002499212786377026
-0.4788740972668165,-0.4788740972668165,1.00001382027198,0.00023118115257869014
-0.4787215465446934,-0.4787215465446934,0.9998736811049673,0.00023094685925097112
-0.47866180918354073,-0.47866180918354073,1.000002690350329,0.00023142780425961648
-0.4785704502108274,-0.4785704502108274,1.0002303126498928,0.0002287181324714525
-0.4784205719945021,-0.4784205719945021,1.0000978008590233,0.00024902904919237874
-0.4782673673791578,-0.4782673673791578,0.9999366590855236,0.00024256681366157697
-0.47814873227471255,-0.47814873227471255,1.0003710477947674,0.00023546377883371192
-0.4780751613463508,-0.4780751613463508,1.0003433560483619,0.00022874404136446672
-0.47801829926029316,-0.47801829926029316,1.0001878296400948,0.0002659815843775563
-0.47797505633352555,-0.47797505633352555,1.000095488363922,0.00023578968896867972
-0.4778254120668862,-0.4778254120668862,0.9998085345897707,0.0002624714357335345
-0.47773321860586293,-0.47773321860586293,0.9999432685210674,0.00022226278399988374
-0.47760863838775547,-0.47760863838775547,1.0002240902683517,0.00025402817268163185
-0.47745527990336994,-0.47745527990336994,0.9997045126498797,0.0002544595646041598
-0.47729206956719283,-0.47729206956719283,0.9999181736919676,0.00024071021041321682
-0.4770870420659776,-0.4770870420659776,1.0001109995748991,0.00028168196396100964
-0.47701532721403056,-0.47701532721403056,0.9997771427744928,0.00022722042727399807
-0.4769641262217192,-0.4769641262217192,1.0000398171561116,0.00022439099310289065
-0.47686555055406643,-0.47686555055406643,0.9998565230884667,0.00022741412984495055
-0.4767451305204304,-0.4767451305204304,0.9997643568722683,0.00022964844121744487
-0.4765260366926668,-0.4765260366926668,0.9999662521242062,0.00023076817502339845
-0.47637183258193544,-0.47637183258193544,0.9998281333794387,0.00025713635817475324
-0.4763143331700121,-0.4763143331700121,0.999955306841178,0.00022133745569524293
-0.476229087729007,-0.476229087729007,0.9999574287063429,0.00025182171198880445
-0.4760857481844141,-0.4760857481844141,1.0000835326100403,0.0002501728994090247
-0.4759401804083609,-0.4759401804083609,0.999751046948701,0.00022605212781169888
-0.4757929264422273,-0.4757929264422273,0.9994413219917846,0.0002367244417312302
-0.4756208817809238,-0.4756208817809238,0.999950580431834,0.00027113587031200414
-0.47554709533869755,-0.47554709533869755,1.0003365903134032,0.00028103116626229446
-0.4754215654917061,-0.4754215654917061,0.9999658156860768,0.0002327621098095809
-0.47535839881165887,-0.47535839881165887,1.0003010189212707,0.0002692675818715631
-0.47527571040118344,-0.47527571040118344,1.00004609831959,0.00023331621829598848
-0.47514025352720635,-0.47514025352720635,0.9999193640041437,0.00027364775286106257
-0.4749978596548317,-0.4749978596548317,1.0001745151117207,0.00024262882039064056
-0.474882434362371,-0.474882434362371,0.9998311135136977,0.00025368323730792856
-0.4746787901996868,-0.4746787901996868,1.000342713720645,0.00021340311163141088
-0.4745896079999511,-0.4745896079999511,0.9999990497429548,0.00023776216736930058
-0.47450097444670974,-0.47450097444670974,0.9999426376477899,0.0002549616787166848
-0.4744019133300753,-0.4744019133300753,1.0000716561899559,0.00029027365617466535
-0.4743128315967624,-0.4743128315967624,0.9998925498683485,0.00025894315160864245
-0.47423864431621043,-0.47423864431621043,0.9999716900803637,0.00025691199794329616
-0.47416420559893596,-0.47416420559893596,0.9998874930514441,0.00023653402684539263
-0.4741247492856928,-0.4741247492856928,0.9997463173640085,0.00022965250443036968
-0.4739837939225254,-0.4739837939225254,1.0000819123130282,0.0002267231937243141
-0.47384000429447043,-0.47384000429447043,1.0000191527725797,0.0002433601732317298
-0.4737398451397894,-0.4737398451397894,0.9998654897371256,0.0002466025641001241
-0.4736063875330728,-0.4736063875330728,1.0002216741328502,0.0002613966536245241
-0.4734410425007809,-0.4734410425007809,1.0003623549510536,0.00028981993638943016
-0.4733559025262366,-0.4733559025262366,0.9999497492989718,0.0002718829584802161
-0.4732344638454379,-0.4732344638454379,0.9998931027010654,0.0002814796919878296
-0.47310099356982394,-0.47310099356982394,0.999948193334373,0.0002285979320499943
-0.47298932435805907,-0.47298932435805907,0.9998133146425678,0.00026712222548099494
-0.4728729404800106,-0.4728729404800106,0.9999392181476233,0.0002543470638757099
-0.4727322604449,-0.4727322604449,0.9996052777630469,0.00023562531924914589
-0.4726077564773732,-0.4726077564773732,1.0002120109742028,0.0002656076389575836
-0.4725149717793101,-0.4725149717793101,0.9998678795613843,0.0002118798431413773
-0.47239979152218436,-0.47239979152218436,0.9999988476786044,0.00023561230924328547
-0.4723418435736676,-0.4723418435736676,0.9998339297997246,0.00021686110134950414
-0.4722415278214612,-0.4722415278214612,1.0001441140845453,0.0002785926086508297
-0.47215936442516976,-0.47215936442516976,1.0003065310838877,0.0002209924518444355
