time,time,flux,flux_err
-0.4999311052403452,-0.4999311052403452,1.0000528273310838,0.00023922354508356774
-0.49979094851005357,-0.49979094851005357,1.0001741426052233,0.00023224727094813937
-0.49968647878752864,-0.49968647878752864,0.99980886775586,0.0002560336305251781
-0.4995255309671241,-0.4995255309671241,0.9996749877813725,0.00023292547094902333
-0.4993895424006041,-0.4993895424006041,1.0004429409811986,0.00021509733303621013
-0.499364033958409,-0.499364033958409,0.9999581000652235,0.0002113443551619982
-0.4992556622601114,-0.4992556622601114,0.9998104526429479,0.00021322841696716765
-0.49912061183713374,-0.49912061183713374,1.0001330025679418,0.0002187357003418762
-0.4990500646526925,-0.4990500646526925,1.000062643202536,0.00020963997008703546
-0.49901701595226766,-0.49901701595226766,0.9999354797976293,0.00021722251559687646
-0.4989308663120028,-0.4989308663120028,0.9996617942260346,0.00020970504383831245
-0.4987996137526352,-0.4987996137526352,1.0003214356647483,0.00021450187926730924
-0.49864042009285187,-0.49864042009285187,0.9998370071834406,0.000218530780455422
-0.4985091889480827,-0.4985091889480827,0.9998349748404589,0.00021491568528031373
-0.4983903318527155,-0.4983903318527155,1.0002667647754446,0.00021970569393797392
-0.49824531234335157,-0.49824531234335157,0.9999446442974218,0.00019985722174813768
-0.4980824911413947,-0.4980824911413947,1.000178833549894,0.00022580752300387332
-0.497890322713647,-0.497890322713647,0.9997990534743909,0.0002212173857685798
-0.4977591863804264,-0.4977591863804264,1.0000146152032277,0.00022718146448240202
-0.49752011104428673,-0.49752011104428673,1.0002809160885295,0.00021633753689425487
-0.4974421446095221,-0.4974421446095221,0.9997825786781963,0.00022305898400421645
-0.4973913552821614,-0.4973913552821614,1.0000987319137367,0.00020837116580208886
-0.49732164772576654,-0.49732164772576654,0.9999537391789687,0.00021441169834616582
-0.49725984839897136,-0.49725984839897136,1.000009943906061,0.00023797742577454762
-0.4971220776584232,-0.4971220776584232,0.9999024771423027,0.00021342698818154434
-0.4970278920343844,-0.4970278920343844,1.0001365416773351,0.00021934912656856263
-0.49692090739845296,-0.49692090739845296,1.0002875710378625,0.00020951446261153404
-0.49684967786597556,-0.49684967786597556,1.0001469639695697,0.00021245112420326492
-0.4967109982622787,-0.4967109982622787,1.000063523261033,0.00023078276668300952
-0.49661793888080863,-0.49661793888080863,0.9998972814189827,0.00022140231112591094
-0.49647746577102225,-0.49647746577102225,1.0001650611227713,0.0002084661816125313
-0.49638039770943576,-0.49638039770943576,0.9999966616016277,0.00021325291515316195
-0.49629250905127265,-0.49629250905127265,1.0002186962291748,0.00021402235924189078
-0.49620420405699406,-0.49620420405699406,0.9999128488089479,0.0002051485329419699
-0.4960545416251989,-0.4960545416251989,0.9998461622427793,0.00020674323692275524
-0.49575952423911074,-0.49575952423911074,0.9999734999857403,0.00021639155964626655
-0.4955595795036061,-0.4955595795036061,0.9998604824435763,0.0002103070794056297
-0.4954541609360604,-0.4954541609360604,1.0000537612795566,0.0002170915594322584
-0.4953718814329477,-0.4953718814329477,0.9997947741578528,0.00021309400496515528
-0.4951954343763646,-0.4951954343763646,1.000419986475018,0.0002148360850407254
-0.4951202324940823,-0.4951202324940823,1.0000892625599085,0.0002164721069738044
-0.4950170742202317,-0.4950170742202317,1.0001834730671604,0.00020779903658586533
-0.49489063381042797,-0.49489063381042797,0.9999438196270226,0.00022272691382849765
-0.49482443679880816,-0.49482443679880816,1.0000801902860883,0.00022425941082198272
-0.4947609947354067,-0.4947609947354067,0.9997763255014543,0.00021493791962066714
-0.4946520845114719,-0.4946520845114719,0.9999790037164938,0.000213010362936968
-0.4945452646963531,-0.4945452646963531,1.000196647121848,0.0002054602647902613
-0.49439426643075424,-0.49439426643075424,0.9998661666478454,0.00025612931897870333
-0.49425572677864693,-0.49425572677864693,0.9999787797798121,0.0002181693359700003
-0.49411744849930983,-0.49411744849930983,0.9997788492442325,0.0002177995631132695
-0.49394593852630353,-0.49394593852630353,1.0001170488740596,0.0002123785619517901
-0.49387816262315026,-0.49387816262315026,0.9999620208736293,0.00021000806053870168
-0.49374218652374113,-0.49374218652374113,0.9996787666257531,0.00021179821471279645
-0.4936391015042318,-0.4936391015042318,1.0002602881950053,0.0002064224997299898
-0.49351630205346736,-0.49351630205346736,1.000174767182558,0.0002147594112708181
-0.4933724515401991,-0.4933724515401991,0.9998153089296833,0.0002186798313505281
-0.4932222767965868,-0.4932222767965868,0.9999151159214736,0.000212407712110125
-0.49313824545533863,-0.49313824545533863,1.0001601838497833,0.00022119452591560896
-0.4930034193734173,-0.4930034193734173,0.999887623038483,0.00020582275584557654
-0.4929235769755905,-0.4929235769755905,0.9999978149180194,0.00021422606624838412
-0.4928446331206942,-0.4928446331206942,0.9999760387924781,0.00022865393474982596
-0.4926570943411207,-0.4926570943411207,0.9999903980781694,0.0002210896115270882
-0.4924346076964866,-0.4924346076964866,0.9997885774265827,0.00021276317380783386
-0.49235954181058333,-0.49235954181058333,0.9998217527058259,0.00022809180253077066
-0.492308550621965,-0.492308550621965,1.0001201788611305,0.00021496650666701355
-0.4922665482910816,-0.4922665482910816,1.0000627185127027,0.0002209718903422941
-0.49215543386817445,-0.49215543386817445,0.9998663197218594,0.00022270306736289883
-0.492091009975411,-0.492091009975411,1.0001087433733098,0.00021318811844955304
-0.4920523562846938,-0.4920523562846938,0.9999335501937464,0.0002106768732917078
-0.4919272226281464,-0.4919272226281464,1.0002592628414855,0.00022014307376255044
-0.49184642980399074,-0.49184642980399074,1.0002430449842568,0.00020746550343157818
-0.49177953175094447,-0.49177953175094447,0.9998504803392327,0.0002157566931510685
-0.49169531944789924,-0.49169531944789924,1.0001422123918362,0.0002314151162503619
-0.49160753712349103,-0.49160753712349103,0.9996811861407661,0.00021553268104968125
-0.49151977990113666,-0.49151977990113666,1.0002677944630194,0.00021112444544689636
-0.491314894327661,-0.491314894327661,0.9999219980821776,0.00022108936128409725
-0.49108882024884226,-0.49108882024884226,0.9998128325648399,0.00021753015177629272
-0.490952552788076,-0.490952552788076,0.9999920512281779,0.00020749211548715257
-0.49085889059642795,-0.49085889059642795,0.9999330692559643,0.00020766194738855112
-0.490762620876194,-0.490762620876194,0.9999230929000985,0.0002253255034542322
-0.4906094311416382,-0.4906094311416382,0.9998159936723787,0.00021194388050010292
-0.4904428125184495,-0.4904428125184495,1.0001427153054836,0.0002109716827138418
-0.49036146212602033,-0.49036146212602033,0.9997742732063136,0.00021579596898979245
-0.4902520176779944,-0.4902520176779944,1.00010866499341,0.00020487153982626593
-0.49015670077642426,-0.49015670077642426,0.9999606306439667,0.00022323377234166343
-0.49006643841275943,-0.49006643841275943,1.0001022042880932,0.00022467434717798117
-0.4899699456989765,-0.4899699456989765,1.000247715807261,0.00023385382705207164
-0.48991196587739977,-0.48991196587739977,0.9998752628240368,0.00020768414440240976
-0.489800072950311,-0.489800072950311,0.9999320991760628,0.00020678462055029708
-0.4896771771251224,-0.4896771771251224,0.9999776820878553,0.00021604198723712163
-0.4895840501791099,-0.4895840501791099,1.0000497733273688,0.0001999809169699684
-0.48949667589913587,-0.48949667589913587,1.0000331161177534,0.00022038873203737548
-0.4893385057250271,-0.4893385057250271,1.00011008195835,0.00021348282999498314
-0.48920657502603715,-0.48920657502603715,1.000271958041905,0.000205922895446068
-0.4891323630028637,-0.4891323630028637,0.9996395740459268,0.00021111361611276603
-0.48902958664111795,-0.48902958664111795,0.9997351377423367,0.00020134580979036523
-0.4889098370884312,-0.4889098370884312,1.0002109685350973,0.00021113189127506139
-0.4888277271122206,-0.4888277271122206,0.9996586784507195,0.00020955331811628642
-0.4887027513148496,-0.4887027513148496,1.0001305640891187,0.00020030943598274526
-0.48856762638897633,-0.48856762638897633,0.999726884414556,0.0002107629380676797
-0.48844414834165945,-0.48844414834165945,0.9998729683701446,0.00021743567258423454
-0.4882986369688297,-0.4882986369688297,1.0000155858954778,0.0002069696227011381
-0.4881013611186063,-0.4881013611186063,1.000147491221289,0.00021410189109321301
-0.48796137800090944,-0.48796137800090944,0.9999568781517452,0.00021178004556269788
-0.48786650922847913,-0.48786650922847913,0.9998583451872074,0.00021450136751178755
-0.48779380771738945,-0.48779380771738945,0.9998901553539209,0.000226469759818576
-0.4876805091451388,-0.4876805091451388,1.0000156696585454,0.00021644594101319006
-0.48753563074278644,-0.48753563074278644,0.9998754909402626,0.00023298269422319826
-0.48742481571098323,-0.48742481571098323,0.9998841326290198,0.00021092474894438595
-0.48730639518180396,-0.48730639518180396,1.0000119899842446,0.00021322046095057444
-0.48714581124077083,-0.48714581124077083,0.9997102778267442,0.00021798280209782447
-0.4869555162527831,-0.4869555162527831,1.0002021522269295,0.00021626616030255796
-0.48684460843214766,-0.48684460843214766,1.00002414317828,0.00020812600421610226
-0.48676530362572523,-0.48676530362572523,1.0006341017605012,0.0002123387471455894
-0.48668025716324337,-0.48668025716324337,1.000138583628492,0.00021776378301992472
-0.4865947752230568,-0.4865947752230568,1.000006624563914,0.00021029224361661408
-0.4864758527168306,-0.4864758527168306,0.9998882532506762,0.00021271670022876945
-0.4863213763892418,-0.4863213763892418,0.9998679514634047,0.0002129281789587525
-0.4861472220305586,-0.4861472220305586,1.0003845300497427,0.00023135194772442376
-0.4860681131656747,-0.4860681131656747,0.9998253729050836,0.00021450486332511733
-0.485922844716697,-0.485922844716697,1.0002350630643857,0.0002084350319219921
-0.4856955834606197,-0.4856955834606197,0.999914286948027,0.00021039179519919183
-0.48552043787785804,-0.48552043787785804,1.0001899795918876,0.00022506740478556143
-0.4853069317759946,-0.4853069317759946,1.0000688235016606,0.00021632549322747542
-0.4851709555776324,-0.4851709555776324,1.0000018955022074,0.00021857210551074545
-0.4851244200981455,-0.4851244200981455,1.0000027615416474,0.00022185152497067074
-0.4850953115266748,-0.4850953115266748,0.9999825365050257,0.00021923016341444108
-0.48504146016202865,-0.48504146016202865,1.0000184079268943,0.0002172706293869306
-0.4849617460655281,-0.4849617460655281,0.9995807085066115,0.00022674091940698914
-0.4848197312763659,-0.4848197312763659,1.0002360295281956,0.00020575798415766253
-0.48473506355949214,-0.48473506355949214,1.0003046738712016,0.00021909177518253834
-0.4846677138557425,-0.4846677138557425,1.0001386645617456,0.00024144706254716812
-0.48451931899471673,-0.48451931899471673,1.000023202620267,0.00021180809466283954
-0.484401242347667,-0.484401242347667,1.0007835408192858,0.0002862334655651084
-0.48427008459111676,-0.48427008459111676,0.9999202456518743,0.00021554779279571424
-0.4841765030083479,-0.4841765030083479,1.0001226363842364,0.0002069445827878996
-0.4841170892614173,-0.4841170892614173,0.9999761297802344,0.00021206585461875713
-0.4839953883754788,-0.4839953883754788,0.9995731526015417,0.00020746709283800602
-0.48383680142287633,-0.48383680142287633,0.9998229253550545,0.00021927801963847167
-0.4836118273058673,-0.4836118273058673,1.0000639406881713,0.0002251872492108922
-0.4833830814313842,-0.4833830814313842,1.0001419435037366,0.00021935755506519145
-0.48326491355837786,-0.48326491355837786,0.999948004380039,0.00021045495403892024
-0.4831755210587289,-0.4831755210587289,1.0000218155435312,0.0002222712082709228
-0.48307554883358533,-0.48307554883358533,0.9998892852620495,0.00020668886052289986
-0.48297359585994853,-0.48297359585994853,1.0000729628160836,0.0002224861740923264
-0.48285328631754965,-0.48285328631754965,0.9999768226718517,0.00019901593437084437
-0.4827351162733976,-0.4827351162733976,0.9998444870039371,0.0002276672734872906
-0.48267395077855324,-0.48267395077855324,1.000023820263522,0.00022009752148813852
-0.48262664637877606,-0.48262664637877606,0.999754599295397,0.0002061455378163747
-0.48254761087300724,-0.48254761087300724,0.9999766721260063,0.00021172271418066444
-0.48248887032677884,-0.48248887032677884,1.000181517655541,0.00020421994575122818
-0.4824263930117013,-0.4824263930117013,1.0000693219975705,0.0002045123314955695
-0.4823207002540585,-0.4823207002540585,0.9995434971788377,0.00021157599162876102
-0.4822463915334083,-0.4822463915334083,1.0002636991242642,0.00021071997159836448
-0.48214535230072214,-0.48214535230072214,1.0001829463564023,0.00021704184927374845
-0.4819839746836806,-0.4819839746836806,0.9999089583416477,0.00021572229247228668
-0.4818644567101728,-0.4818644567101728,1.000020630885636,0.00021665214968592662
-0.48173803190584297,-0.48173803190584297,1.0000868073036,0.00020225083780736784
-0.4815812119748443,-0.4815812119748443,0.999738938652361,0.00020287919590583912
-0.4814724405267043,-0.4814724405267043,1.0000457349471559,0.0002218343603170811
-0.4813395678647794,-0.4813395678647794,0.9999264582069133,0.00020953407056141263
-0.48124548069026785,-0.48124548069026785,0.9996490084491596,0.0002109691112175148
-0.4811148640088504,-0.4811148640088504,1.0001868043815567,0.00021451471476117363
-0.48096041252429134,-0.48096041252429134,1.0000135358709055,0.0002081816255735458
-0.4808094836276723,-0.4808094836276723,0.9999764266082778,0.0002129955147133537
-0.4807037944410695,-0.4807037944410695,1.0001382612348262,0.0002161890303780352
-0.4805983890837524,-0.4805983890837524,0.9998908522972313,0.0002138085016948032
-0.480477646185318,-0.480477646185318,1.000135737607704,0.0002207798081879049
-0.48036727474827784,-0.48036727474827784,0.999885578839135,0.00020898416362967993
-0.48023801390663723,-0.48023801390663723,1.00025402841364,0.000235410580427702
-0.480115420409129,-0.480115420409129,0.9999120315156974,0.00022763897133087387
-0.4799676677765092,-0.4799676677765092,1.0001131748192873,0.00020220072713463428
-0.47993143169151153,-0.47993143169151153,0.9998171400478194,0.00021674015176132268
-0.4798699245380703,-0.4798699245380703,1.0002520854509864,0.00021469981823854324
-0.4797352665482322,-0.4797352665482322,0.9999186045577076,0.00021961857547732254
-0.47963745503802785,-0.47963745503802785,0.9997391333225123,0.00021686344680396587
-0.47957492524874396,-0.47957492524874396,0.9997661141084017,0.00020877954110552644
-0.4795031348010525,-0.4795031348010525,1.000018271331103,0.00022159031606818632
-0.47939732070371976,-0.47939732070371976,0.9999056645605322,0.000202040089002989
-0.4793368710874347,-0.4793368710874347,0.99998299185345,0.00020880512995391038
-0.4791479473700747,-0.4791479473700747,0.9999539295139395,0.000231914852244012
-0.478996265900787,-0.478996265900787,1.0000745982649244,0.00021772255995672723
-0.4789082887873519,-0.4789082887873519,0.9999860969860181,0.00020814643767328657
-0.47877468981023413,-0.47877468981023413,1.0001569165226312,0.00020172296721664027
-0.47864916459366214,-0.47864916459366214,1.000038906487069,0.00020943067448969056
-0.4784814509563148,-0.4784814509563148,0.9999617672026018,0.00022170829996993841
-0.47834424979228063,-0.47834424979228063,0.9999798098105487,0.00021681699496626868
-0.47819470014947,-0.47819470014947,0.9997324931607299,0.00020797040454044574
-0.4780580411723349,-0.4780580411723349,1.000409411568333,0.0002152601935085696
-0.47798367565264926,-0.47798367565264926,1.0000941518492215,0.00021913427930653315
-0.47792872416321186,-0.47792872416321186,1.0000070220604251,0.00021481182556199987
-0.47782284937857183,-0.47782284937857183,1.0001615212240673,0.00022503381788671148
-0.47772788046277126,-0.47772788046277126,1.0001677749366433,0.00022057597350469792
-0.4776265001972206,-0.4776265001972206,1.000045534942894,0.00021180988136486304
-0.4775361297011841,-0.4775361297011841,1.000190393560624,0.0002167715456994524
-0.477448212125455,-0.477448212125455,1.0000767267395112,0.0002127642627825556
-0.4773031116521452,-0.4773031116521452,1.0004311129526857,0.00020309356769161198
-0.4772059455834096,-0.4772059455834096,1.0001706080738426,0.00023444254381943877
-0.47707947678864004,-0.47707947678864004,1.0000025103736143,0.0002156469402749305
-0.476915364668821,-0.476915364668821,1.0001778298305404,0.00021438194512269534
-0.47683209814713334,-0.47683209814713334,0.9998909889426268,0.00021526153687233683
-0.4767123470606748,-0.4767123470606748,0.999905745792223,0.00020918438989874738
-0.4765328200213844,-0.4765328200213844,1.0000116055347656,0.0002120244427782024
-0.4762664935726207,-0.4762664935726207,0.9997780524252334,0.0002148110805747612
-0.4761022863414837,-0.4761022863414837,0.9999830563175081,0.0002102197163668629
-0.476015517002088,-0.476015517002088,0.9999251894211468,0.00021495273756007584
-0.4758388512855163,-0.4758388512855163,0.9998912111998373,0.00021385756049529413
-0.47566712186962834,-0.47566712186962834,0.9996531265423263,0.00021641020262192385
-0.4755865782353794,-0.4755865782353794,1.0001777899456759,0.00021576062505327935
-0.4754600872169249,-0.4754600872169249,1.000224797938345,0.00021492945886148932
-0.4753740707994439,-0.4753740707994439,1.000162554898894,0.0002236020689347288
-0.4753337807254866,-0.4753337807254866,1.0001233082966583,0.00022036885896762438
-0.4752026827598456,-0.4752026827598456,0.99974369984143,0.00021050196069737843
-0.47508565748576076,-0.47508565748576076,0.9999411763307666,0.0002139524476390273
-0.4749612367770169,-0.4749612367770169,1.0000690682774802,0.000208045587907885
-0.4747925840376411,-0.4747925840376411,0.9999212066719823,0.0002528471917977079
-0.4746293144242372,-0.4746293144242372,1.0002058700800573,0.00021582325772598484
-0.47447913689829874,-0.47447913689829874,1.0001835111055726,0.00021379388756483718
-0.47441011504270136,-0.47441011504270136,1.0000566193408522,0.0002043794773688524
-0.47427957713953217,-0.47427957713953217,1.000039665076662,0.00021194041796580905
-0.4741924779227702,-0.4741924779227702,1.00018156627138,0.00020238347113383143
-0.4741208084305981,-0.4741208084305981,1.000048889763129,0.0002148838362661964
-0.47395384111150635,-0.47395384111150635,1.0000528530569028,0.00021496350378139638
-0.4738164613081608,-0.4738164613081608,0.9998132924106209,0.00022598175070323302
-0.4737270545854699,-0.4737270545854699,0.9996789144611299,0.00021105592357351381
-0.4736220814287663,-0.4736220814287663,1.0001285129384407,0.00022138791980307938
-0.4734869368723594,-0.4734869368723594,0.9998361220310373,0.00021106172430922928
-0.4734505535539938,-0.4734505535539938,1.0002619701058084,0.00022104357185305078
-0.4732521694561001,-0.4732521694561001,1.0003281360290288,0.00022270637294443868
-0.47302037268527786,-0.47302037268527786,1.0003185284397387,0.00022249779060646503
-0.47294486391183455,-0.47294486391183455,0.9997979776052324,0.00021863767575199246
-0.47287629695492794,-0.47287629695492794,0.9999953772458852,0.00022495928940632093
-0.47282200324116275,-0.47282200324116275,1.0000336198143551,0.0002205272052109881
-0.4727623729297193,-0.4727623729297193,0.9998002272255133,0.00021663322323483788
-0.4726953350385884,-0.4726953350385884,0.9998155443391734,0.00022366468447569858
-0.4726485138962744,-0.4726485138962744,0.9998724054205249,0.00022056349846386213
-0.47259747215139214,-0.47259747215139214,0.9998872992700353,0.00020213043157431293
-0.47247103495756165,-0.47247103495756165,0.9999769999201839,0.0002079396838182083
-0.4723987868899712,-0.4723987868899712,0.9997338289495363,0.0002121757774657035
-0.4723071025306126,-0.4723071025306126,0.9997518041730531,0.00020806811162270124
-0.47223043339326976,-0.47223043339326976,1.0002528287301868,0.00023046305389688867
-0.47212078056763856,-0.47212078056763856,1.0000215424789927,0.00020675927874936733
-0.4720504236960551,-0.4720504236960551,1.0001992496363783,0.00020847677939659924
