time,time,flux,flux_err
-0.49982951952551957,-0.49982951952551957,0.9995915145053881,0.0012756743727252307
-0.4996434578782403,-0.4996434578782403,0.9970998811004727,0.0013912724886452619
-0.4994326457557084,-0.4994326457557084,0.9995972017129705,0.001359844632179692
-0.4992304644122972,-0.4992304644122972,1.001173594926476,0.0014671472818337595
-0.49907044550491264,-0.49907044550491264,1.0023060221423064,0.0014093129851671794
-0.4989096016273834,-0.4989096016273834,1.0006570559594272,0.0013087002117749041
-0.49868585478325256,-0.49868585478325256,0.9988837006607664,0.0019410878127911451
-0.49850732825143496,-0.49850732825143496,1.0002995240722412,0.0019531568793782258
-0.4983610351315292,-0.4983610351315292,0.9995486414395012,0.0016055679871613215
-0.49818155745160764,-0.49818155745160764,0.9991180891930267,0.0019688247776613902
-0.49803102301302715,-0.49803102301302715,1.0006100699058753,0.0016686778976126068
-0.49789330817366134,-0.49789330817366134,1.0013161465654554,0.0012494313307310516
-0.49773617545797605,-0.49773617545797605,0.9980644276383238,0.0011517108555911598
-0.4976382225147972,-0.4976382225147972,1.0011163937221084,0.0011442260870661463
-0.4975378473624005,-0.4975378473624005,0.9999123683893909,0.001606462887011014
-0.49742169759992977,-0.49742169759992977,0.9994684677894895,0.0011614267511133882
-0.49727640633791453,-0.49727640633791453,1.0003811157562414,0.0013378015567837797
-0.49712647971173285,-0.49712647971173285,1.0003101923873141,0.0013634340261668512
-0.49700480870669705,-0.49700480870669705,0.9997068200803856,0.0012675189825675569
-0.4968814547151851,-0.4968814547151851,1.0004698584104317,0.0013626940244520736
-0.49674965350786804,-0.49674965350786804,0.9980861468912361,0.0012630648379730078
-0.4966202425312076,-0.4966202425312076,1.0004159550131928,0.0012979312635422204
-0.49648733497233477,-0.49648733497233477,1.0016069830399108,0.0012187344823379694
-0.4963418602470483,-0.4963418602470483,0.9998468362253901,0.0017958367155668075
-0.4961979706837155,-0.4961979706837155,1.0005156903846513,0.001690421061048337
-0.4960846971262072,-0.4960846971262072,0.9996023070675513,0.0017337213295726098
-0.4959517818380846,-0.4959517818380846,0.9995807732597088,0.0017263329146738923
-0.495848865260632,-0.495848865260632,0.9998522314459908,0.0013013427799574442
-0.4957281018301728,-0.4957281018301728,1.000038152016543,0.0017493531427199716
-0.49559706527579694,-0.49559706527579694,0.9984691221245653,0.0017933256160048271
-0.4954966099001467,-0.4954966099001467,0.9991032354886311,0.0016876910070431552
-0.4954009395907633,-0.4954009395907633,1.0000212315720565,0.0011156968096407386
-0.4953168457155698,-0.4953168457155698,1.0014287319980058,0.001711742718475388
-0.49522672587263517,-0.49522672587263517,1.0013668768911401,0.0019685560119968018
-0.4951573051592277,-0.4951573051592277,0.9998707808932339,0.001249170163774926
-0.49505532422408577,-0.49505532422408577,0.9992004755243358,0.0016824019397290737
-0.4949707413034048,-0.4949707413034048,1.00122453463911,0.0012602091657630493
-0.49488857336691583,-0.49488857336691583,1.0015684628526615,0.0018149074169944376
-0.494740252263,-0.494740252263,0.9997665287312689,0.0019254694711737807
-0.4945411474633147,-0.4945411474633147,1.0006392480721507,0.0011817663243266561
-0.4943674187925353,-0.4943674187925353,1.0009369573238716,0.0011390348955075949
-0.49421449418805424,-0.49421449418805424,1.0003944229799298,0.0011390583747858398
-0.49403255611396163,-0.49403255611396163,1.0001402618538646,0.0012626416441286089
-0.4936066519083397,-0.4936066519083397,0.9981247556982386,0.0010872085488572345
-0.49310839083918834,-0.49310839083918834,0.9995269312867325,0.001990396605282604
-0.4928550265780359,-0.4928550265780359,0.9976538658457619,0.002179563402007265
-0.4925814862654079,-0.4925814862654079,0.9997577163132598,0.0013714317773515234
-0.4924455082284112,-0.4924455082284112,1.0000476726618845,0.0013614868350475097
-0.49230871161053075,-0.49230871161053075,0.9977398966977814,0.0023774542191863017
-0.4919995168595051,-0.4919995168595051,1.0030128216877894,0.0029181314870707843
-0.49161443551420236,-0.49161443551420236,0.9999688709266051,0.001033688840476346
-0.4911897265003063,-0.4911897265003063,0.999989043154665,0.0009643351191799584
-0.49091491958024563,-0.49091491958024563,0.9984479541600519,0.0016554414495210039
-0.4907777766311483,-0.4907777766311483,0.9982348770816578,0.0016051804209609867
-0.490648707303626,-0.490648707303626,1.0001392952846055,0.0018615755415463033
-0.4904266771001858,-0.4904266771001858,1.0002244621918397,0.001492944128117959
-0.4902996799668472,-0.4902996799668472,1.0010786448593023,0.0016246617579442652
-0.49014325322787045,-0.49014325322787045,1.0008431814915428,0.0016674232864878232
-0.4899905565107474,-0.4899905565107474,0.9992234031394356,0.0016168320053185868
-0.48988294414593836,-0.48988294414593836,0.999988787914193,0.0015452098431792387
-0.4898081370345608,-0.4898081370345608,0.9995842174853568,0.001110104575239418
-0.4897342002259393,-0.4897342002259393,1.0008895499984702,0.0016400738135026523
-0.4896515030566661,-0.4896515030566661,0.9981517935930393,0.0015005802977514178
-0.4895424568123417,-0.4895424568123417,1.0000356492551281,0.0016000606746179146
-0.4894569610187318,-0.4894569610187318,0.9996841535338472,0.001206533952572336
-0.4893366930526099,-0.4893366930526099,0.9994735195987084,0.001586335679550142
-0.4892030026829161,-0.4892030026829161,1.000106948044083,0.0015898565716099297
-0.4890694494599302,-0.4890694494599302,1.0018361013166768,0.0016892187296215955
-0.4889584154581826,-0.4889584154581826,0.9988755760714534,0.0016856569430057458
-0.4888885782936995,-0.4888885782936995,1.0009310296247027,0.0012751385294586758
-0.488820367558219,-0.488820367558219,1.001179339594761,0.0016677122462390407
-0.48875815734209027,-0.48875815734209027,0.9997244156508522,0.0013425921194797684
-0.48867420890092034,-0.48867420890092034,0.998806087725777,0.0015869553692648346
-0.48861504979649906,-0.48861504979649906,0.999854744950634,0.0013390186063647622
-0.4885240172610793,-0.4885240172610793,1.000726104204181,0.0017478295062159119
-0.48842739274550695,-0.48842739274550695,0.9991039791669145,0.0016681759437744345
-0.48834398114995564,-0.48834398114995564,1.0013186431850265,0.0013894557074092518
-0.48822762941999825,-0.48822762941999825,1.0009741503351368,0.0017618639497492777
-0.4880627438091324,-0.4880627438091324,1.001483174750064,0.0013916804308326688
-0.48792615475977075,-0.48792615475977075,0.9990213338647124,0.001444233666746121
-0.4877919928920164,-0.4877919928920164,0.9997570448650339,0.0013093188650553276
-0.4876664844494371,-0.4876664844494371,0.9997539251762472,0.001321564074026682
-0.4875542037123523,-0.4875542037123523,1.0004716253745527,0.0013334879376937223
-0.4874476130615221,-0.4874476130615221,1.00135965486426,0.0014889401216186496
-0.487344358003611,-0.487344358003611,1.0000211740608431,0.0012485088749220085
-0.4872575128661992,-0.4872575128661992,1.0020709324831307,0.0013654767427389064
-0.4871308734385821,-0.4871308734385821,1.0013054577766396,0.0013760036543541897
-0.4870349763026752,-0.4870349763026752,1.0010660597281835,0.001355970317728643
-0.4869306936307112,-0.4869306936307112,0.9993208910721403,0.0012402083424173003
-0.4868194896123896,-0.4868194896123896,1.0003382732058776,0.001302288501740421
-0.48674430669998403,-0.48674430669998403,1.0008286907244295,0.0010874810329202533
-0.486647430373705,-0.486647430373705,0.9996088705053499,0.0010937332008570167
-0.4865145265532192,-0.4865145265532192,1.0012059196438663,0.001183912941947468
-0.48638755023130215,-0.48638755023130215,1.0002634812667621,0.0012677661004669952
-0.4862536373235343,-0.4862536373235343,1.000321819042461,0.0012298090032231903
-0.4861393645769567,-0.4861393645769567,1.0001242059860354,0.0012296917782105765
-0.4860097324941307,-0.4860097324941307,0.9996266919717005,0.0012283431735282218
-0.4858444816069095,-0.4858444816069095,1.0012961613572036,0.0011814146659409595
-0.48572252512749403,-0.48572252512749403,1.0005886841495588,0.0011416552784423973
-0.4855970308490214,-0.4855970308490214,1.0012157807110118,0.001133942181190175
-0.4854245082999114,-0.4854245082999114,0.9998780384121275,0.0011781557402687933
-0.48527284600640996,-0.48527284600640996,0.9998530164674602,0.0012041496950894728
-0.48506688786801533,-0.48506688786801533,1.0007131566534992,0.0013475552915639551
-0.48493630681623473,-0.48493630681623473,1.0007207290023366,0.0011321892520668934
-0.48473446942080045,-0.48473446942080045,0.9991012942686716,0.0013655329389800758
-0.48437432471255304,-0.48437432471255304,0.9999741690329713,0.0011629840152609437
-0.48413746341248043,-0.48413746341248043,1.0015691396391744,0.0021140874903792465
-0.4839648170651344,-0.4839648170651344,1.0000242495810165,0.0019118289746594154
-0.4837873898461112,-0.4837873898461112,1.0004927447885354,0.0020913434854628486
-0.48360278699183257,-0.48360278699183257,1.0002267282516804,0.0018232505550988792
-0.48345465717138725,-0.48345465717138725,0.999984332662226,0.0016860841896257476
-0.4833566733788757,-0.4833566733788757,0.9996401053251185,0.001665298474788764
-0.48324652590381445,-0.48324652590381445,0.9997855717345241,0.0012313834093400533
-0.48315864433825484,-0.48315864433825484,1.000979005062695,0.0016330387308473554
-0.4830547777586617,-0.4830547777586617,1.00076531076502,0.001661057346613522
-0.48296926987823097,-0.48296926987823097,0.9994479789977595,0.0012309642092695758
-0.48291011559558683,-0.48291011559558683,1.0009570018644662,0.0016670930422773406
-0.4828407350410998,-0.4828407350410998,0.9998744745200228,0.0011498031896109988
-0.48278867875123976,-0.48278867875123976,1.0003751756726829,0.0016778795163417807
-0.48272671089071084,-0.48272671089071084,0.9996499028736349,0.0012569875074062186
-0.4826564346818486,-0.4826564346818486,1.0010319330238338,0.001608397075690489
-0.48257154574312155,-0.48257154574312155,1.0023473267548852,0.0012984701424335302
-0.48250326947527356,-0.48250326947527356,0.9989472888976927,0.00164895058417985
-0.4824116498195508,-0.4824116498195508,1.000974593334426,0.0013402023584861344
-0.48233528204727916,-0.48233528204727916,0.9991022871499649,0.001696520329383251
-0.4822685282510065,-0.4822685282510065,1.000104325726057,0.0016295982722214716
-0.4821850003630971,-0.4821850003630971,0.9995416328662021,0.0012337932465225476
-0.48212660018980386,-0.48212660018980386,0.9998847083387211,0.001630734446044992
-0.4820467562734848,-0.4820467562734848,0.9988095357928468,0.0011151241667026691
-0.4819653747268603,-0.4819653747268603,0.9994803674901638,0.0015789352526806646
-0.4818425879057031,-0.4818425879057031,0.9998536096248879,0.001933305280921982
-0.4816992769636272,-0.4816992769636272,1.0003036741912712,0.0016168264616223404
-0.4815512126740941,-0.4815512126740941,1.000554444500429,0.0016520221611269475
-0.4813687938985822,-0.4813687938985822,0.9990119554473319,0.001253176308448399
-0.4812686420016689,-0.4812686420016689,1.0015994464230595,0.0011566258313651825
-0.481175825833634,-0.481175825833634,0.9995074810620943,0.001213733663337438
-0.481057132317801,-0.481057132317801,1.0005738863016271,0.0012358864922266473
-0.48093922418920554,-0.48093922418920554,1.001079659656791,0.0013058952952953316
-0.48085394118897967,-0.48085394118897967,0.999280704859985,0.0011783427450464618
-0.48078945717497845,-0.48078945717497845,1.000542754133189,0.0017300759739186523
-0.48070307915331795,-0.48070307915331795,1.0001398673605113,0.0016496639568766174
-0.48063479794072916,-0.48063479794072916,1.0007608727815813,0.00139212478220332
-0.4805412461362721,-0.4805412461362721,1.0006755845628592,0.0015112408451373703
-0.48041205760018785,-0.48041205760018785,1.0000808755900013,0.001295440284540627
-0.4802623144518293,-0.4802623144518293,1.0001895279472575,0.0015339784155696244
-0.48012466750005844,-0.48012466750005844,0.9993661378068396,0.002327143213723186
-0.48003513607254716,-0.48003513607254716,0.9993535321830997,0.001575454537206535
-0.47994036812597185,-0.47994036812597185,0.9968945762161532,0.0020417310524509756
-0.47980310585408004,-0.47980310585408004,1.0001837784746033,0.0014622790253193373
-0.47969934473512693,-0.47969934473512693,1.000081883832848,0.0014564743843092794
-0.47957091302159827,-0.47957091302159827,0.9995964107739219,0.001369265405153953
-0.4794911075718119,-0.4794911075718119,0.9998491961568323,0.0014553838710397503
-0.47935337695962515,-0.47935337695962515,1.0010108470864352,0.0014455911014103174
-0.47923344368173276,-0.47923344368173276,1.0011842782262899,0.0015507270368807983
-0.47910803967824905,-0.47910803967824905,1.001433270883534,0.001360290141253907
-0.4790250280588225,-0.4790250280588225,0.9989183868603021,0.001363528521505068
-0.47894263547786975,-0.47894263547786975,1.0010157206454386,0.0013231687608091071
-0.47882087614852936,-0.47882087614852936,1.0014289566556427,0.0015460396220207673
-0.47867609402892414,-0.47867609402892414,1.0013297428462735,0.0015207947267415144
-0.4785003144679649,-0.4785003144679649,0.99989304426612,0.0013393428866236307
-0.47815937438281253,-0.47815937438281253,1.0005042515401634,0.0012868281238940236
-0.4776746186253149,-0.4776746186253149,1.001369799080773,0.0010409182063705344
-0.47746587626606923,-0.47746587626606923,1.000730663233505,0.0011921779248825338
-0.47729185719945233,-0.47729185719945233,0.9993364789943506,0.0015133776366126571
-0.4771350267452362,-0.4771350267452362,0.9990174039666323,0.0015093201268138279
-0.47696189220732776,-0.47696189220732776,1.000194648266215,0.0011002454922941127
-0.47671324335533427,-0.47671324335533427,0.999760875778386,0.0016805744281921356
-0.47648871657365816,-0.47648871657365816,1.0006834278080305,0.0016831693544812544
-0.47627539870736657,-0.47627539870736657,1.000630669872613,0.0016699776945747293
-0.47612184584650097,-0.47612184584650097,0.999607085279141,0.0015961335643010957
-0.47600175611587475,-0.47600175611587475,0.9973368875881933,0.0016788114809343294
-0.47585170323436615,-0.47585170323436615,0.9999800569194482,0.0017001801291303676
-0.4757672754676605,-0.4757672754676605,0.9981568266753985,0.0012713814242906092
-0.4756339419800497,-0.4756339419800497,0.9982414091751673,0.001748756109211937
-0.4755175028767553,-0.4755175028767553,0.9988029598012073,0.0017204268870366231
-0.4754459899901121,-0.4754459899901121,0.9995739268708647,0.0016913057564678692
-0.4753639734990429,-0.4753639734990429,1.0013837103100578,0.0014364298863567405
-0.4752942451988929,-0.4752942451988929,0.99997132303146,0.001667533071063907
-0.47523249756195585,-0.47523249756195585,1.0003936227876067,0.001289223261401483
-0.4751633759435208,-0.4751633759435208,1.0015668389536068,0.001723292313546561
-0.47509426568794877,-0.47509426568794877,1.000183301945008,0.0013563890810303664
-0.47501230407942785,-0.47501230407942785,0.9990846351941298,0.0017040407918039115
-0.4749127651004528,-0.4749127651004528,1.0008708645775073,0.0016217804678374185
-0.4748309490983956,-0.4748309490983956,0.9993507810889065,0.0016971158667082279
-0.4747455267919577,-0.4747455267919577,1.0025994127194466,0.0013291996513678712
-0.4746462460439943,-0.4746462460439943,0.9997010407943673,0.0017001182710406938
-0.4745340269277222,-0.4745340269277222,0.9988622801423703,0.0012840720953948442
-0.47440901731533813,-0.47440901731533813,0.9976859743399082,0.0014154620281295078
-0.4742975757624663,-0.4742975757624663,0.999726945821189,0.00129676234140182
-0.4741608113479742,-0.4741608113479742,1.0008326897407611,0.0013741135802773608
-0.47406007097160907,-0.47406007097160907,0.9992034142211297,0.0016687844862338
-0.4739634954865323,-0.4739634954865323,0.9998282579462904,0.0013545963653148895
-0.4738847698878089,-0.4738847698878089,1.0001985608589037,0.0017053773451929544
-0.4738075669702084,-0.4738075669702084,1.000857563834338,0.0012208622053688943
-0.4737214713190042,-0.4737214713190042,0.9984070674286164,0.0013671879710218928
-0.4736522241197235,-0.4736522241197235,1.0005807218988927,0.0013808256804925952
-0.4735748647006403,-0.4735748647006403,1.0011598315718566,0.0011514342185250247
-0.47348823599677414,-0.47348823599677414,0.9995214349592905,0.0012236991549412382
-0.47340832159097773,-0.47340832159097773,1.0006187147242158,0.0012182827263468512
-0.4733290391013725,-0.4733290391013725,0.9997577962849693,0.0011941515629715926
-0.4732593614149664,-0.4732593614149664,1.000563811641054,0.001296534480622548
-0.47317278794871526,-0.47317278794871526,1.0004551619722377,0.0012281829151019464
-0.4730914935593319,-0.4730914935593319,1.0003836360359415,0.0012139992099560134
-0.47302059134090085,-0.47302059134090085,1.00070862281511,0.0012645738389276862
-0.4729494032719231,-0.4729494032719231,0.9991238162326956,0.0011931094177944353
-0.47284114800058885,-0.47284114800058885,1.0006821531580106,0.0013373541812204607
-0.47273443124067854,-0.47273443124067854,0.9994218145080371,0.0013250990528272445
-0.47264073148107855,-0.47264073148107855,0.999545001191264,0.0012144124550306614
-0.47256807343073887,-0.47256807343073887,1.0012725227177697,0.0012531056065828972
-0.47243580449940054,-0.47243580449940054,0.99990825658892,0.0012563039390864157
-0.47229999303308434,-0.47229999303308434,1.0016966428656062,0.0012222136256673636
-0.47215702513422003,-0.47215702513422003,0.9994695142882666,0.0012957054685090836
-0.4720264008370577,-0.4720264008370577,0.9994046096093687,0.0012307681117222752
-0.4719382922674413,-0.4719382922674413,0.999501678942629,0.0011666055337334687
-0.4718444376041589,-0.4718444376041589,1.0000572225875353,0.0012279687516275211
-0.4717378472625569,-0.4717378472625569,0.9984988386481802,0.0012809857505936954
-0.4715988849144196,-0.4715988849144196,0.9992798436242183,0.0017435183965981062
-0.47149431308644124,-0.47149431308644124,0.9994362968272454,0.0016403579653194455
-0.4713652525955695,-0.4713652525955695,0.9992878348277332,0.0016736788337408312
-0.4712518881700817,-0.4712518881700817,1.0002288968537565,0.0010789687697893827
-0.47119271011979436,-0.47119271011979436,0.9996483176241695,0.001571333662925631
-0.47111965890508145,-0.47111965890508145,0.9991285200686242,0.0011769882196628221
-0.4710270719275286,-0.4710270719275286,0.9999628073736687,0.0016902225547051996
-0.47091478416623433,-0.47091478416623433,1.001605498885424,0.0016398068983730836
-0.4707844023607322,-0.4707844023607322,1.0008734563930266,0.0016052408637830917
-0.4706120422619279,-0.4706120422619279,0.9996750414438473,0.0017217895852420328
-0.47047738007386214,-0.47047738007386214,1.0008616435720559,0.0015640471390957421
-0.4703632113589265,-0.4703632113589265,0.999537503864444,0.001286686455039116
-0.47016621606817355,-0.47016621606817355,0.999536169783594,0.0013980800062555307
-0.4699513539701002,-0.4699513539701002,0.9997257533626897,0.0013901435952840026
-0.4698279783318867,-0.4698279783318867,1.0021220402293467,0.0011923861394558604
-0.46969030465843387,-0.46969030465843387,1.0013544142302808,0.001211379381864055
-0.46952909821266076,-0.46952909821266076,0.9996900443467946,0.0012994153406303186
-0.4693776295360294,-0.4693776295360294,1.0015948415001996,0.0013629577353511508
-0.4692252166685648,-0.4692252166685648,1.0005695927455442,0.001208491306293685
-0.46907539701714995,-0.46907539701714995,0.9999009473915598,0.001239257590026507
-0.4689777443978528,-0.4689777443978528,0.9998637593786235,0.001157016138897314
-0.4688523695265758,-0.4688523695265758,1.0005695552463,0.0013183328660249856
-0.4687248994458059,-0.4687248994458059,0.9999109141486203,0.0013153592904096925
-0.4685983312774624,-0.4685983312774624,1.0007495798357526,0.001136513492686003
-0.4685046621692891,-0.4685046621692891,1.0003179591433198,0.0012211090576339737
-0.46839012484269915,-0.46839012484269915,0.9994907144682065,0.0012080424340487625
-0.46829948354425144,-0.46829948354425144,1.0015230885512183,0.0012124241454906856
-0.4681845445295039,-0.4681845445295039,0.9991458445249346,0.001292834926762665
-0.4680638698177063,-0.4680638698177063,1.0011101414820718,0.0011246187643237278
