time,time,flux,flux_err
-0.49990581425906083,-0.49990581425906083,1.0002662339039177,0.0006987702128620973
-0.49979197638761735,-0.49979197638761735,1.0007183214789592,0.0006909633605270504
-0.4996555000652734,-0.4996555000652734,1.0004254131395365,0.000662195030747691
-0.49952822950823855,-0.49952822950823855,0.9997093974092358,0.000694298705680107
-0.4994163703166123,-0.4994163703166123,1.0001255989756581,0.0006013246655475811
-0.4993285352451494,-0.4993285352451494,1.0007295836080439,0.0006074055914952993
-0.4991206934711954,-0.4991206934711954,1.0001725233607222,0.0006345559963521613
-0.4989688025423675,-0.4989688025423675,1.0002629588402765,0.0006203712701689718
-0.49881619387015236,-0.49881619387015236,1.000211169411728,0.000602249412269708
-0.49869557546044235,-0.49869557546044235,1.0000071895471658,0.0006342054726792733
-0.4985439699354174,-0.4985439699354174,1.0003970580427954,0.0005680300087693502
-0.49832917618041395,-0.49832917618041395,1.0003684884812083,0.0005896221808709813
-0.4981368940694665,-0.4981368940694665,0.9995934524632869,0.0005666244212494571
-0.4979978407158342,-0.4979978407158342,0.9997602935164982,0.0006261906217199713
-0.4978984509507427,-0.4978984509507427,1.0000526969117849,0.0006093165209364536
-0.49777423156192524,-0.49777423156192524,0.9995398046969021,0.0006412485929593092
-0.4976580360700609,-0.4976580360700609,1.0000080759427763,0.0006408154205310426
-0.4975620209093904,-0.4975620209093904,0.9992550260512962,0.0005880529544712773
-0.49746972623106556,-0.49746972623106556,0.9998686091659359,0.0006113113459542735
-0.4973280805941613,-0.4973280805941613,1.000627623343291,0.0006209236271102371
-0.4971756541577633,-0.4971756541577633,1.0005412568778795,0.0006430237128205413
-0.49705363220273285,-0.49705363220273285,0.9999204013940413,0.0006206920098163678
-0.4969314171423321,-0.4969314171423321,0.9993018683091626,0.0005855233673041516
-0.4968192129395902,-0.4968192129395902,0.9995485380826189,0.000624542492228994
-0.4966565837385133,-0.4966565837385133,1.0007456035564037,0.0007260803093864578
-0.4965197732162778,-0.4965197732162778,0.9998361293832462,0.0005578130841607132
-0.4962722632037185,-0.4962722632037185,1.0002213841054897,0.0005998186918147684
-0.4961127580900211,-0.4961127580900211,1.0001076171023677,0.0006287564961502071
-0.49599781583456204,-0.49599781583456204,1.0000355392496654,0.0006084008818857609
-0.4958461923502909,-0.4958461923502909,1.000117305086544,0.0006547758246512885
-0.4957036393432645,-0.4957036393432645,0.9998424774855692,0.0006400914535395248
-0.4955897568797809,-0.4955897568797809,1.0001575131203093,0.0006010436085645422
-0.4954829249327304,-0.4954829249327304,1.0010342614494774,0.0007573630209153612
-0.4953252677223645,-0.4953252677223645,1.0002991416992848,0.0006647305806726086
-0.49519526507938283,-0.49519526507938283,0.9997257037448927,0.0005626525823769679
-0.4951175458045327,-0.4951175458045327,0.9996719837551906,0.0006343072993611144
-0.4949716367511428,-0.4949716367511428,1.0004533586588682,0.0006445440958032197
-0.49485343729902526,-0.49485343729902526,0.9989374931812364,0.0006363227082655002
-0.4946970738230448,-0.4946970738230448,1.000354171509122,0.0006888602258157184
-0.49454006900341485,-0.49454006900341485,1.0002715695420594,0.0005979857721738706
-0.49432132393849315,-0.49432132393849315,0.9998813359967954,0.0005996553172297745
-0.49413761963878644,-0.49413761963878644,0.9998575816305324,0.0006194716114671615
-0.49404621300200235,-0.49404621300200235,0.9995378698122538,0.0006081021539968231
-0.49391923208531807,-0.49391923208531807,0.9995782574400931,0.0006343775353239978
-0.49378638317939477,-0.49378638317939477,1.0002219185913508,0.0006401623046478573
-0.493672123842407,-0.493672123842407,0.9997609749644454,0.0005899067977715915
-0.4935779300329159,-0.4935779300329159,1.000054182410484,0.0006182161897232699
-0.49345365566405236,-0.49345365566405236,0.9999420753498874,0.0006414218023036843
-0.493304400688794,-0.493304400688794,0.9996905957012713,0.0006297016463883743
-0.49322232964550494,-0.49322232964550494,1.000076969390213,0.0006145432215149817
-0.4931012824221398,-0.4931012824221398,1.0004923426149483,0.0005550363861492928
-0.492986056744121,-0.492986056744121,0.9995856342758435,0.000625409979462218
-0.49277689140144504,-0.49277689140144504,1.0004434739607897,0.0005677983133976969
-0.492524969796068,-0.492524969796068,1.0002535796221266,0.0005893677166096592
-0.4922852692907327,-0.4922852692907327,0.9989229501347147,0.0006500334744216527
-0.4921612234975328,-0.4921612234975328,0.9994604112635621,0.0005889846520911789
-0.49205655369660234,-0.49205655369660234,0.9992375974868587,0.0006178873599899727
-0.49191936548158993,-0.49191936548158993,1.0001874708046086,0.0006621875531257643
-0.49180634704316617,-0.49180634704316617,0.9995906633017253,0.0006107556762172734
-0.49170814018580133,-0.49170814018580133,0.9996451861316121,0.0005957497365003581
-0.49156964247158613,-0.49156964247158613,1.0002819591006593,0.0006361681858502164
-0.49138631734458615,-0.49138631734458615,0.9997967329525782,0.0006435280252705298
-0.4913060614198912,-0.4913060614198912,1.000110065904858,0.000600076937656011
-0.4911459008239035,-0.4911459008239035,0.9999069115944051,0.0005818658982664987
-0.4910382774352911,-0.4910382774352911,1.000082955691207,0.0005981510452483104
-0.49085457828841755,-0.49085457828841755,0.999715947488934,0.0005679509949446656
-0.49060739381238816,-0.49060739381238816,0.9999211460901336,0.0005892301268367329
-0.490370646759402,-0.490370646759402,0.9998745226075654,0.0006495229488617065
-0.4902416995544627,-0.4902416995544627,0.9999692567070039,0.0005892387250117637
-0.49016009121696696,-0.49016009121696696,1.000291924617559,0.0006179289650857494
-0.4900641245534644,-0.4900641245534644,1.0001298732528878,0.0006162818095033052
-0.48995327501761493,-0.48995327501761493,0.9993221560115799,0.0006217457487191653
-0.48987795092252784,-0.48987795092252784,0.9994538288953987,0.0006191352307715334
-0.4897964336698351,-0.4897964336698351,0.9991138856640374,0.0006114808551908837
-0.48966152884531766,-0.48966152884531766,1.000415289795003,0.0006175791406356128
-0.48956505277310497,-0.48956505277310497,0.9990241462688768,0.0006334267199262377
-0.489436795583606,-0.489436795583606,1.0006169646495906,0.0006333342245071276
-0.4893356762499025,-0.4893356762499025,1.0000635904828499,0.0005473447994669968
-0.4891789308778243,-0.4891789308778243,0.9991791446253903,0.0006355662722314487
-0.48898416905576597,-0.48898416905576597,0.9997305099907189,0.0005662178067500578
-0.48878884381774695,-0.48878884381774695,1.0010886976073763,0.0006120165038288555
-0.48860247228876685,-0.48860247228876685,1.000347050391527,0.0005991554428051193
-0.488418386138801,-0.488418386138801,0.9994998918760271,0.000649506469643423
-0.4882804904373188,-0.4882804904373188,0.9989342649733924,0.00058429302522129
-0.4881971069298743,-0.4881971069298743,1.000883194928337,0.000613926468209222
-0.4880880902906938,-0.4880880902906938,1.000215656857866,0.0006406728261994692
-0.4879762793410919,-0.4879762793410919,1.0006459883186298,0.0006335389530521278
-0.48791078804642896,-0.48791078804642896,0.9999663936138822,0.0005709932170357789
-0.48781504383077845,-0.48781504383077845,0.999492398072125,0.0006244703290652754
-0.4876793268187612,-0.4876793268187612,0.9992664247524173,0.0006693488610125583
-0.48751100387016777,-0.48751100387016777,0.9997533018865739,0.0006241159791740847
-0.4873750330938492,-0.4873750330938492,1.0003471811538838,0.0005516351111464973
-0.48724833452142774,-0.48724833452142774,1.0003358225649286,0.0006253450599114953
-0.48701000681030565,-0.48701000681030565,1.0006742045027326,0.000567927778235895
-0.48681421997462165,-0.48681421997462165,1.0007346463964182,0.0006133910149417126
-0.4866271434810187,-0.4866271434810187,0.999499708985805,0.0006119688662670156
-0.4864599345142778,-0.4864599345142778,1.00070050567806,0.0005933898130314421
-0.48633578172375563,-0.48633578172375563,1.000059376658202,0.000606670577845724
-0.48624272045926775,-0.48624272045926775,0.9998942342131967,0.0006119355146749065
-0.4861176624064683,-0.4861176624064683,0.9998848410559728,0.0006449724764952265
-0.48602143693860855,-0.48602143693860855,0.9994145604545286,0.000617025094641962
-0.48594030613821815,-0.48594030613821815,0.9999722135576856,0.0006170344713019142
-0.48579209692034053,-0.48579209692034053,1.000315527133609,0.0006622996534441127
-0.48559308456460715,-0.48559308456460715,0.999502245097472,0.0006238497905601434
-0.48548458882942214,-0.48548458882942214,0.999586883605945,0.000572838801103959
-0.4853418583777966,-0.4853418583777966,0.9992749933001897,0.0006359928702134634
-0.4852476197142096,-0.4852476197142096,1.0005488415129757,0.0006738279297336922
-0.4850545547240472,-0.4850545547240472,1.0002951823166017,0.0005726662533438005
-0.48485476366477087,-0.48485476366477087,1.0000014045247763,0.0005891727420283341
-0.4846969184218324,-0.4846969184218324,0.9999901767975737,0.0005830204591498766
-0.4845045084330195,-0.4845045084330195,1.0001885007411808,0.0006086223522008552
-0.4843847999560239,-0.4843847999560239,1.0008207291984075,0.0006206271424818006
-0.48427289507890237,-0.48427289507890237,1.000195588688501,0.0006192410502430182
-0.48416115660365905,-0.48416115660365905,0.9998935419574831,0.0006326361765006928
-0.48407378392730604,-0.48407378392730604,1.0006256860466562,0.0006206972947269072
-0.48397608038430917,-0.48397608038430917,1.0002234432025805,0.000586802577697819
-0.4837909776979359,-0.4837909776979359,0.9996502081657249,0.0006918490729939601
-0.48359259959179324,-0.48359259959179324,1.0001731793820396,0.000629232212300465
-0.48340645990683695,-0.48340645990683695,0.9993302085276049,0.0006106003690040243
-0.4832143729829113,-0.4832143729829113,0.9996362572324134,0.0005966538016434071
-0.48309492264525034,-0.48309492264525034,1.0002338936103017,0.0005804883190155699
-0.48289330056431934,-0.48289330056431934,1.0003082681410154,0.0005992505584799932
-0.4827655632107053,-0.4827655632107053,0.9999342663527854,0.0005831170432489719
-0.4825978854583809,-0.4825978854583809,1.00051621807078,0.0005944906321727402
-0.48248389104992384,-0.48248389104992384,1.0001488359030275,0.0006127621149975346
-0.48241894421953474,-0.48241894421953474,1.0007903421144635,0.0006166223211370329
-0.4823132527009875,-0.4823132527009875,1.0001741781365987,0.0006203473831454839
-0.4822214924475702,-0.4822214924475702,1.0001750979905153,0.0006524563738679168
-0.48214078917735603,-0.48214078917735603,1.0001393597773722,0.0005978301219817481
-0.482042914613703,-0.482042914613703,1.0002889125623637,0.0006090164616198702
-0.48187658324241056,-0.48187658324241056,1.00014579487577,0.0006989644920934054
-0.481676930069807,-0.481676930069807,1.0006751770468354,0.0006292029746609028
-0.4814877718774369,-0.4814877718774369,1.0001067063988809,0.0006265754428651833
-0.48131304317867035,-0.48131304317867035,0.999705368957922,0.0005763735937109521
-0.48115168123476904,-0.48115168123476904,0.9998370858702555,0.0006150032517401633
-0.4809038778214017,-0.4809038778214017,0.999592028687965,0.0005679163339697926
-0.48075006892249805,-0.48075006892249805,0.9998087647407443,0.00062621723535592
-0.4806020377756795,-0.4806020377756795,1.0001339898499577,0.0006116379576468647
-0.48052778799174123,-0.48052778799174123,0.9987004216704246,0.000602660508798189
-0.4804394902959757,-0.4804394902959757,1.0004786523191194,0.0006187701972829177
-0.4803199099507765,-0.4803199099507765,0.9994247298336166,0.0006329948879760341
-0.48020336166227934,-0.48020336166227934,1.0000555238694329,0.0006122263347992289
-0.480003349710023,-0.480003349710023,0.9996278739684034,0.0007052587298854724
-0.47981055436030146,-0.47981055436030146,1.0004151620679036,0.0006249548064222165
-0.47962396021976017,-0.47962396021976017,1.0010587641434938,0.0009311438790187291
-0.47944332605256934,-0.47944332605256934,1.000244424836165,0.0005974468853159339
-0.47930583128982107,-0.47930583128982107,1.0001368414013718,0.0005515732646560127
-0.47912183082298726,-0.47912183082298726,0.9996101402066921,0.0005882929853666594
-0.4789397299828124,-0.4789397299828124,1.0004680430169473,0.0006055897676483943
-0.4787617450238031,-0.4787617450238031,0.9995634897439626,0.0005932246257081672
-0.478632336451119,-0.478632336451119,0.9999786045413719,0.0006068760915970508
-0.478568021114188,-0.478568021114188,1.0002720146312527,0.0006001837305356103
-0.47845905073918404,-0.47845905073918404,0.9999648212783674,0.0006108002561468523
-0.4783175688389747,-0.4783175688389747,0.9998955762683422,0.0006328052060168719
-0.47814437573615576,-0.47814437573615576,0.9997084057334433,0.0006981612051128034
-0.4779850672261091,-0.4779850672261091,1.0001645785366877,0.0006227322331615993
-0.47778215111611644,-0.47778215111611644,1.000291681531529,0.0008420062807444409
-0.4775311539473478,-0.4775311539473478,0.9991559608358713,0.0006048113475895774
-0.47736217613637566,-0.47736217613637566,1.0000944468554833,0.000567943627422834
-0.4771039955136075,-0.4771039955136075,0.9997209199617423,0.000599014493999981
-0.47691583929918124,-0.47691583929918124,1.0000668333668423,0.0005941179382242833
-0.4767263947447645,-0.4767263947447645,1.0008245402215894,0.0006295118552020924
-0.47662963692855553,-0.47662963692855553,0.999812542338266,0.0006218877061552072
-0.47653427522745917,-0.47653427522745917,0.9995884660956911,0.0006253766506098673
-0.47643019146926235,-0.47643019146926235,1.000240058435413,0.0006245045147881482
-0.47628533107053955,-0.47628533107053955,1.0007191758480707,0.00068306446019768
-0.4761375501817383,-0.4761375501817383,0.9994062293587485,0.0006381166340704497
-0.4759908995649312,-0.4759908995649312,1.0006477512447014,0.0006244240981118808
-0.4757834305484721,-0.4757834305484721,0.9997967698448761,0.0008136933399082915
-0.4756110518865171,-0.4756110518865171,0.9996333023792952,0.0005971304225145142
-0.47547259098428185,-0.47547259098428185,1.000076335495421,0.0005338911355943774
-0.47529030524892735,-0.47529030524892735,0.9997430281127404,0.0006052332370201469
-0.47509117179579335,-0.47509117179579335,1.0001173933454082,0.0005963960615109708
-0.47490319103744694,-0.47490319103744694,1.0004780796533688,0.0006155945775778085
-0.4747786976025964,-0.4747786976025964,1.000641367571474,0.0006197524570963682
-0.4746609795933182,-0.4746609795933182,1.000638237983698,0.0005978329062672174
-0.4744753870210843,-0.4744753870210843,1.0002070237539813,0.0006317186074520809
-0.47431581375494714,-0.47431581375494714,1.0003515559002685,0.0007183710377771338
-0.4741659135746886,-0.4741659135746886,1.000682041531175,0.0006455140973901387
-0.47405668697319925,-0.47405668697319925,1.0000380580159405,0.0007256709465684923
-0.47386223035500735,-0.47386223035500735,0.9996904166063809,0.0006215650696481328
-0.4736318627394212,-0.4736318627394212,0.9996882872135915,0.000562783794026253
-0.4734839340497274,-0.4734839340497274,1.00096123337739,0.0005745916103010128
-0.4733123501959199,-0.4733123501959199,0.9998145170337155,0.0006355916189365701
-0.473199802129966,-0.473199802129966,0.9998419982623187,0.0005514039641841375
-0.4730596562512801,-0.4730596562512801,0.9997562582273858,0.0006091439591730289
-0.4728927557829593,-0.4728927557829593,0.9996877217382034,0.0006065168396502102
-0.4727924135979265,-0.4727924135979265,1.0005408353318033,0.0006232747129074995
-0.4726043176473468,-0.4726043176473468,0.9998538411307656,0.0006452895124229662
-0.47244072579051133,-0.47244072579051133,0.9994726471681815,0.0007033765875501313
-0.4723432353770477,-0.4723432353770477,0.9997551016635688,0.0006557689042647012
-0.4722152526228456,-0.4722152526228456,1.0005211105950482,0.0006279896595665108
-0.472085411867738,-0.472085411867738,0.999955290173635,0.0006626644668108405
-0.47190486165636686,-0.47190486165636686,1.0003692597372507,0.0006353819322491042
-0.47171112482828903,-0.47171112482828903,1.0003003981910967,0.0005651073511520616
-0.4715939726767829,-0.4715939726767829,1.0002029106389425,0.0010044735013081752
-0.471416025776125,-0.471416025776125,0.9993326408602407,0.0006256131672157577
-0.47127461124182446,-0.47127461124182446,1.0003199963207907,0.000551463437945595
-0.47114401090075264,-0.47114401090075264,1.0002500806830936,0.0006088905718241972
-0.4709758635450271,-0.4709758635450271,1.0009035941634,0.0006061287353353994
-0.47090074305742746,-0.47090074305742746,1.000598416128042,0.0007091623729529545
-0.47076647670328386,-0.47076647670328386,1.0002487072070652,0.0006075189598189195
-0.47058424626884515,-0.47058424626884515,1.0000273265040955,0.000608532919378105
-0.47048765170402473,-0.47048765170402473,0.9999279888945942,0.000614571838527826
-0.4703291207893926,-0.4703291207893926,1.00038875550957,0.0006458761594913519
-0.47022886607883263,-0.47022886607883263,0.9995573690942571,0.0006505777720896337
-0.47007405428230414,-0.47007405428230414,0.9998111885651447,0.000598424946541588
-0.46991880854038753,-0.46991880854038753,1.0001854343452714,0.0006041969453200967
-0.4697451100619219,-0.4697451100619219,1.0006102616322035,0.0009447681927036058
-0.4696711296572175,-0.4696711296572175,0.9998844130103007,0.0010298448043710461
-0.469553943820938,-0.469553943820938,0.9999597001214031,0.0006034575792126433
-0.46942354309358053,-0.46942354309358053,1.0003039645216116,0.0005690275550844453
-0.46930680964505883,-0.46930680964505883,0.9995558801006027,0.0005960869919648604
-0.46914975548061194,-0.46914975548061194,0.9992577075328439,0.0006043687142463841
-0.4690071079909103,-0.4690071079909103,0.9999905163858822,0.0006037743616154118
-0.4688962205567805,-0.4688962205567805,1.0002216340424073,0.000620262615363533
-0.4686875725725258,-0.4686875725725258,0.9999064175723849,0.0006317144424879326
-0.4685674775784719,-0.4685674775784719,0.9996963719049644,0.0006149713789562324
-0.46839033107607975,-0.46839033107607975,1.0004432184274168,0.0006788438902555913
-0.4681757080536045,-0.4681757080536045,0.9989842909084701,0.00063290290262844
-0.4679239513876382,-0.4679239513876382,0.9995274244533672,0.0005812660321220472
-0.4677940491877962,-0.4677940491877962,0.9994044231170177,0.0011913050746284156
-0.46770788932408325,-0.46770788932408325,1.0001137816488843,0.000587787657746423
-0.46756074436270867,-0.46756074436270867,1.0004739226349675,0.0006053192068551375
-0.4674385154437914,-0.4674385154437914,1.0003068463479146,0.0005751078856609396
-0.4673314742052753,-0.4673314742052753,1.0001190524135297,0.000566128793443251
-0.46714357633682085,-0.46714357633682085,0.9996157780908653,0.0006228466739763577
-0.467000114077382,-0.467000114077382,1.0006277456460404,0.0006406500650154655
-0.46678655529467505,-0.46678655529467505,0.9997547693998493,0.0006415612421576979
-0.4666544895866537,-0.4666544895866537,1.0005744474747804,0.000613094227664163
-0.4665085759523208,-0.4665085759523208,1.000456644136106,0.0006525779080183998
-0.4663143221718201,-0.4663143221718201,0.9995974262955262,0.001216655993915803
-0.4661038360434759,-0.4661038360434759,1.0000255195224343,0.000626960264507674
-0.4659380178716674,-0.4659380178716674,0.9994623193265243,0.000577313285602602
-0.4658731965973857,-0.4658731965973857,1.0004894544854466,0.0008106095697873687
-0.4657802919871756,-0.4657802919871756,1.0002596593710722,0.0006066489926272669
-0.46567109640163834,-0.46567109640163834,1.0004294195916157,0.0006255654964920496
-0.4655373303066881,-0.4655373303066881,1.0001746804846163,0.0005793090982599489
-0.4654269788923557,-0.4654269788923557,1.0003395473962577,0.000589479203403789
-0.4652748558946769,-0.4652748558946769,0.9997763312300492,0.0006042092682511315
-0.46511942428332986,-0.46511942428332986,1.0001669315624553,0.0006373698153366925
-0.46489325541842846,-0.46489325541842846,1.000140548539512,0.0006198197092699852
-0.4647336409369018,-0.4647336409369018,0.9999744849437073,0.0006134867767155776
-0.46457964460205403,-0.46457964460205403,1.000071082513716,0.0006158835236680295
-0.4643680686029256,-0.4643680686029256,0.9989557020634094,0.001148618320636792
