time,time,flux,flux_err
-0.4991763247059377,-0.4991763247059377,0.9997031674027571,0.00046370665704757323
-0.4964876044038344,-0.4964876044038344,0.9997576105122796,0.00045376878664661456
-0.4946486666540295,-0.4946486666540295,1.0001144466354954,0.0004717491193354041
-0.4933237670717062,-0.4933237670717062,0.9999921262426896,0.00043212727130913936
-0.49217745484347686,-0.49217745484347686,1.0003728480786858,0.0004137756909744746
-0.4900450417517277,-0.4900450417517277,1.000779158891977,0.00041348782165986296
-0.4887524606361694,-0.4887524606361694,1.00037508544978,0.0004156808381574734
-0.48755781853978986,-0.48755781853978986,0.9996994452296075,0.0004418478956886293
-0.48653476410108853,-0.48653476410108853,0.9999695171554785,0.0004146687102507378
-0.484467570403649,-0.484467570403649,1.0002088625597714,0.00041346270553746755
-0.48303430824016685,-0.48303430824016685,0.9998501130261618,0.00041674564359415816
-0.48123378550590135,-0.48123378550590135,1.0002086540303927,0.0004263510637384383
-0.47977173748076896,-0.47977173748076896,0.9998524023908469,0.000415943560599084
-0.4781385408554343,-0.4781385408554343,1.0002124595495185,0.00041619178996922984
-0.47733820057401316,-0.47733820057401316,1.0001383175665703,0.0004194526755497232
-0.4752656968710653,-0.4752656968710653,0.9994268711497367,0.0004140067638125011
-0.47367546399109417,-0.47367546399109417,1.0006433350112343,0.00041339605674119726
-0.4720689002540894,-0.4720689002540894,1.000667875223281,0.0004376634423244135
-0.4705630910262698,-0.4705630910262698,0.99999299697077,0.000419284134629395
-0.4681115969477105,-0.4681115969477105,1.0005031971393166,0.00041408073736481677
-0.466722008666693,-0.466722008666693,1.0005867719841006,0.0004296153301180443
-0.46580366852431326,-0.46580366852431326,1.0005075748508476,0.0004190766365336193
-0.46445288657778294,-0.46445288657778294,1.0003903549331965,0.0004223360377417306
-0.4618842994925217,-0.4618842994925217,1.0002849156201143,0.0004133412425019401
-0.46057121551712044,-0.46057121551712044,0.9999519641756157,0.0004362377277226964
-0.4593345311404846,-0.4593345311404846,0.9993699450301193,0.00043525942657209776
-0.45830131642869676,-0.45830131642869676,1.0001321819553195,0.0004136918128858936
-0.45623828311800024,-0.45623828311800024,0.9999580688121755,0.0004132597042020913
-0.4545132886982174,-0.4545132886982174,1.0003911115793938,0.00041615674550742347
-0.4530882236918842,-0.4530882236918842,0.9998194485601045,0.00042565634899681827
-0.4516141907864949,-0.4516141907864949,1.0004689865885688,0.00041563678223748143
-0.4499296632282494,-0.4499296632282494,1.0006156374922528,0.0004133634548001847
-0.4484850680011732,-0.4484850680011732,0.9999154438812466,0.00041687196107997957
-0.4463036334971548,-0.4463036334971548,0.9998192422190482,0.00041353399817270633
-0.4444985559486668,-0.4444985559486668,0.9998860619669492,0.00041574703523669404
-0.44322487303361413,-0.44322487303361413,0.9996774403453454,0.0004215615455817323
-0.44111630341139973,-0.44111630341139973,0.9998970611301399,0.0004134536785774045
-0.43983554914811973,-0.43983554914811973,0.9998502946519924,0.00041406072041405204
-0.4381115048185166,-0.4381115048185166,1.00022747573555,0.0004373524680830912
-0.43720219210154027,-0.43720219210154027,1.0007395112296185,0.0004232858594254693
-0.4352522588087595,-0.4352522588087595,1.0000923135054722,0.0004146390582815647
-0.4333035815798212,-0.4333035815798212,1.0000610353193387,0.00043073106707136973
-0.43216255348161214,-0.43216255348161214,1.0004119527806181,0.00041490092304819447
-0.4311654354125494,-0.4311654354125494,0.9997248251843388,0.0004295642812535337
-0.42919295080719166,-0.42919295080719166,0.9995435677089073,0.0004137049528754342
-0.427098920399294,-0.427098920399294,1.0001666797960542,0.00043673477164639835
-0.425886960238131,-0.425886960238131,0.9993541270644872,0.0004243882507386232
-0.4247146167886967,-0.4247146167886967,0.9994337097633312,0.0004301802380234588
-0.42333254046316143,-0.42333254046316143,0.9999671645962962,0.00041374625865371855
-0.42132945231787744,-0.42132945231787744,0.9995232215468087,0.00041365262511477204
-0.4196607900354138,-0.4196607900354138,1.0005475383653155,0.0004286138780606226
-0.41807831355836245,-0.41807831355836245,1.0003966440671177,0.00041463093832187824
-0.416631584255083,-0.416631584255083,1.0001896831530497,0.0004153448681654009
-0.41535562927820135,-0.41535562927820135,1.000333462562844,0.00041637840696613046
-0.41409961024983205,-0.41409961024983205,0.9995316251353714,0.0004172244540655559
-0.4120949877637031,-0.4120949877637031,0.9997065953843766,0.00041367480434981445
-0.41028663087490713,-0.41028663087490713,1.0000535102638872,0.0004158207276206305
-0.4090243834798457,-0.4090243834798457,0.9997246978358119,0.0004219220986806932
-0.40685955415829084,-0.40685955415829084,0.9997767913293755,0.00041412627234089486
-0.40537975190454745,-0.40537975190454745,0.9997697864584353,0.00041332318535982574
-0.404034478450194,-0.404034478450194,0.9997262140998397,0.00041546594446320513
-0.40318686452810654,-0.40318686452810654,1.000557128984667,0.0004246933665260617
-0.4015776005835505,-0.4015776005835505,1.0001465670275036,0.00041402967842280643
-0.3993941895190801,-0.3993941895190801,1.000441566209429,0.00041438055604744615
-0.39795006053318505,-0.39795006053318505,0.9996933909888732,0.0004335707163499132
-0.39674413637039835,-0.39674413637039835,0.9999551660153554,0.00043182666686833357
-0.3951722664081899,-0.3951722664081899,0.9998168283115472,0.00041368686012774585
-0.3931663421011763,-0.3931663421011763,1.0006844007815623,0.00041365582087045784
-0.3921253310021712,-0.3921253310021712,0.9996107478580244,0.00041563792203863653
-0.39097848289602555,-0.39097848289602555,0.9995471811790655,0.0004414498146159719
-0.3899552732866141,-0.3899552732866141,1.0004116870714344,0.00041467351817173117
-0.3878885541605996,-0.3878885541605996,0.999589057718676,0.0004131984859191612
-0.3864542059061932,-0.3864542059061932,0.9993693458050672,0.0004167055145402777
-0.3846551165996061,-0.3846551165996061,1.0007056018779044,0.000426336719150205
-0.382865293649229,-0.382865293649229,0.9998330786150096,0.0004157590142039783
-0.38136281130064165,-0.38136281130064165,1.0000871776234599,0.000416346667137644
-0.3801887755893404,-0.3801887755893404,0.9998870365098966,0.00041815163095834765
-0.3783203684964974,-0.3783203684964974,1.000276208679795,0.00041409420799065345
-0.3767104397600633,-0.3767104397600633,0.9996826520011458,0.0004334953313703719
-0.37526013984679596,-0.37526013984679596,1.000404131906723,0.0004172324862012757
-0.37345679217760336,-0.37345679217760336,1.0001620753511613,0.000418957344722489
-0.37122875926070265,-0.37122875926070265,0.9994158688102097,0.0004141678791701373
-0.36982756393699673,-0.36982756393699673,1.0000405608601979,0.00041594868209705394
-0.36898450180015063,-0.36898450180015063,1.0000740596699997,0.0004268412950421685
-0.3673715942881245,-0.3673715942881245,0.9998814586078483,0.0004141817260080915
-0.36500402534729803,-0.36500402534729803,1.0002792623923809,0.00041373472227679764
-0.36374675278930224,-0.36374675278930224,0.9999096769041899,0.00043573968111266105
-0.3625404698032071,-0.3625404698032071,0.9996382849140575,0.0004349540816211424
-0.3613939592403767,-0.3613939592403767,0.9998407962100287,0.00041357114630014664
-0.3592570379354584,-0.3592570379354584,1.0000383898789176,0.0004135292020827022
-0.35763992512147524,-0.35763992512147524,1.0002038049268989,0.00042737060128318367
-0.3562413542706054,-0.3562413542706054,0.999893150707447,0.0004142459545181814
-0.3546611617603048,-0.3546611617603048,0.9994940881488248,0.00041528212536276157
-0.3530820979918644,-0.3530820979918644,0.9995183859434412,0.00041367849732248534
-0.35160624877607916,-0.35160624877607916,0.9999709402321676,0.0004314496927876065
-0.34972450689820106,-0.34972450689820106,1.0001513913863331,0.00041355645763980754
-0.3479197557127918,-0.3479197557127918,0.9997816039875189,0.00041566529189062307
-0.34664492608062575,-0.34664492608062575,1.0000132956423347,0.0004214220785456698
-0.34448288153143947,-0.34448288153143947,0.9995302140084228,0.0004140949932606621
-0.34288155963949973,-0.34288155963949973,0.9996632027547371,0.0004132506790950334
-0.34142590311166715,-0.34142590311166715,1.0003283114687247,0.00043693196062483434
-0.3403893662842165,-0.3403893662842165,1.000095148512452,0.0004233270840999722
-0.3381663976208074,-0.3381663976208074,0.9996971066604561,0.00041466458849944034
-0.33643584639285107,-0.33643584639285107,0.9998068931850168,0.00043181799743407113
-0.335394479430397,-0.335394479430397,1.000462144765704,0.00041334675504491167
-0.3343549547513248,-0.3343549547513248,0.9993618990328507,0.00042937288243112884
-0.33227831725380386,-0.33227831725380386,0.9998795310805934,0.00041372165388078673
-0.3305197847352247,-0.3305197847352247,0.999845821314272,0.0004365781799215801
-0.3293072762200609,-0.3293072762200609,0.9999400202844214,0.00042421552859795813
-0.3281351352969068,-0.3281351352969068,1.0003193952553384,0.0004298173763578549
-0.32675287432066397,-0.32675287432066397,0.9996912194268198,0.0004135778918848221
-0.32475023950828474,-0.32475023950828474,1.0002620555699058,0.00041373348425233675
-0.32308097235072636,-0.32308097235072636,0.9998199909644679,0.0004283513609481521
-0.3214994565852976,-0.3214994565852976,1.0003196130591552,0.00041455569613839247
-0.3200522856524913,-0.3200522856524913,1.000152896273801,0.00041534920432380286
-0.3187761284047156,-0.3187761284047156,0.9994240053452218,0.00041619737293260487
-0.3175199125056679,-0.3175199125056679,1.0004190281641239,0.00041737135180082343
-0.3155158443303662,-0.3155158443303662,1.000234366029438,0.0004136729884610277
-0.3137078171661415,-0.3137078171661415,1.0004733256587492,0.0004159824414256601
-0.3124444295339345,-0.3124444295339345,1.0003157508273952,0.00042202842061503994
-0.31027985174805506,-0.31027985174805506,1.000186579167622,0.0004142838360844454
-0.30880100766589746,-0.30880100766589746,0.9999014668115993,0.00041336887694826043
-0.30745517699979247,-0.30745517699979247,1.000268883460633,0.00041548737878781375
-0.30660710564770854,-0.30660710564770854,0.999958929701282,0.00042433525288409596
-0.3049982071715931,-0.3049982071715931,1.0002274608238615,0.00041408917733865025
-0.3028148647979833,-0.3028148647979833,1.000448841491974,0.00041455449229139095
-0.3013703969787457,-0.3013703969787457,1.0002135949762594,0.00043339694417706906
-0.3001645067073696,-0.3001645067073696,0.9999731835584935,0.0004314580790292369
-0.29840820788303973,-0.29840820788303973,0.9998362980250912,0.0004136066959523257
-0.2963156803562015,-0.2963156803562015,0.9990410510230173,0.0004132570976545454
-0.2951041557753342,-0.2951041557753342,0.9996318828663426,0.0004257454675400536
-0.29404163334984335,-0.29404163334984335,0.9998562661994924,0.0004321891960304445
-0.2925538185394544,-0.2925538185394544,0.9995268949711326,0.00041354887539707424
-0.2907071622714284,-0.2907071622714284,1.0001226434794739,0.00041354169295553114
-0.28923101801192386,-0.28923101801192386,0.9993987344990976,0.0004292917834798057
-0.2873542192908644,-0.2873542192908644,0.9994504692617149,0.0004137053377651608
-0.2858453195920447,-0.2858453195920447,0.9999384467597132,0.00041555167140559806
-0.2845711894413398,-0.2845711894413398,0.9992433875702105,0.0004161930570347051
-0.28331693945874575,-0.28331693945874575,0.9997884441858593,0.00041778927392914066
-0.2814059818614624,-0.2814059818614624,1.000067309690991,0.0004139001007420159
-0.279600880885846,-0.279600880885846,0.9996977851773113,0.000433733738887254
-0.2784325298416661,-0.2784325298416661,0.9999789400309277,0.0004175009567529362
-0.2763410799117992,-0.2763410799117992,1.00032454548804,0.00041931621430317523
-0.2743389084287628,-0.2743389084287628,1.0005463368161407,0.00041459073570607793
-0.27307751168918915,-0.27307751168918915,0.9993051033603166,0.00041480773634000064
-0.2722118246281752,-0.2722118246281752,0.9993644819931898,0.00042688586827448004
-0.2702394545689458,-0.2702394545689458,0.9999974990058764,0.00041349908248251014
-0.2681493670832424,-0.2681493670832424,1.0003005199093427,0.0004337745252316376
-0.2669308289572655,-0.2669308289572655,1.0000390918451099,0.00042300158726541403
-0.26576088580623036,-0.26576088580623036,0.9996969937865053,0.0004269430479393956
-0.26437661254240086,-0.26437661254240086,1.0001060024715724,0.0004136488482496739
-0.2623790102574276,-0.2623790102574276,0.9995579730606646,0.0004135977267913823
-0.2607030337487231,-0.2607030337487231,0.9991652953273954,0.0004271270258607501
-0.2594540083380707,-0.2594540083380707,1.0007146960007207,0.0004144781395051791
-0.2576800862698292,-0.2576800862698292,0.9994120356171095,0.0004151333208407486
-0.2562596849667898,-0.2562596849667898,0.9998183990195206,0.00041367186933040313
-0.2546774794420344,-0.2546774794420344,0.9990311699258987,0.0004310474736253094
-0.25275200006581144,-0.25275200006581144,1.0007798872566334,0.0004159712026900771
-0.25105036890527116,-0.25105036890527116,1.0002540990501756,0.00041343414139201253
-0.24970199621238862,-0.24970199621238862,0.9992192322365996,0.00042143772803380456
-0.24753465259564109,-0.24753465259564109,1.0002308571313294,0.0004140587104930633
-0.24593185901030665,-0.24593185901030665,0.999592159634726,0.00041291993440782616
-0.2447059211335727,-0.2447059211335727,0.999724023655572,0.0004402005077474893
-0.24349042980466037,-0.24349042980466037,0.9998708818075063,0.00041925488669968604
-0.2411928998073563,-0.2411928998073563,1.0000249777069126,0.00041439845702581217
-0.23950539442521404,-0.23950539442521404,0.9997936797253303,0.00043160779542239817
-0.23867046783852858,-0.23867046783852858,1.0001595477224323,0.0004195171712054918
-0.23746554332319647,-0.23746554332319647,0.9998417615745219,0.00042335343298080167
-0.23528583241131856,-0.23528583241131856,1.0002228647534366,0.00041346457572472234
-0.23368717562698293,-0.23368717562698293,0.9998007009914488,0.00043816947649102787
-0.2324052790980204,-0.2324052790980204,1.0003299642548455,0.00042232759693336803
-0.23143616864690558,-0.23143616864690558,0.9998953726112031,0.00042957285745589744
-0.22968595676356926,-0.22968595676356926,1.0001529621678034,0.00041377553628392315
-0.22790164672915125,-0.22790164672915125,0.9994051326459527,0.0004162126616580401
-0.22611131367812048,-0.22611131367812048,0.999967123541388,0.0004267724606035198
-0.22461290039209417,-0.22461290039209417,1.000442808273888,0.00041376151980005343
-0.22318649653534522,-0.22318649653534522,1.0001264328194142,0.00041499134048353804
-0.2219986874748429,-0.2219986874748429,0.9997931154459743,0.0004164270177749379
-0.22059365422392146,-0.22059365422392146,0.9997730737982218,0.00041702912905385297
-0.21854099565316573,-0.21854099565316573,0.9996424560491158,0.0004162500653389271
-0.21684118616540218,-0.21684118616540218,1.0004183609694486,0.00041344594803933353
-0.2155018170000403,-0.2155018170000403,0.9988375388023087,0.0004217753094378445
-0.21332845880533569,-0.21332845880533569,1.0001481760328315,0.00041422414349823693
-0.21179159622115548,-0.21179159622115548,0.9998894294403428,0.00041436144964315336
-0.21050890885817353,-0.21050890885817353,0.99993579655772,0.0004176471557196322
-0.2092887662467547,-0.2092887662467547,0.9997064660306858,0.0004203722230515821
-0.20698598482413216,-0.20698598482413216,1.0002907650740545,0.0004142751665767639
-0.20526567331544357,-0.20526567331544357,0.9993811030455271,0.00043338543751389127
-0.20400025293347426,-0.20400025293347426,0.9998610866923936,0.0004307097425021348
-0.2030528162656992,-0.2030528162656992,0.9997336971534884,0.0004152134953402444
-0.2007582954262034,-0.2007582954262034,0.9997853832160866,0.000413492192041594
-0.1992424113006564,-0.1992424113006564,0.9997937071177256,0.00041545052743639885
-0.19799734867774532,-0.19799734867774532,1.0004296991148973,0.0004236413554166656
-0.19714066533197183,-0.19714066533197183,1.000226523231804,0.00043223809110089104
-0.19504437735013197,-0.19504437735013197,1.000376834571541,0.0004133755411278667
-0.19365836798897362,-0.19365836798897362,0.9993819898555026,0.00041659180922986065
-0.19209779042794253,-0.19209779042794253,1.0001755025287344,0.00042637420730797594
-0.19044385067536496,-0.19044385067536496,1.0002372068593273,0.0004135750128833241
-0.1892660108875134,-0.1892660108875134,0.9999824618979956,0.00041563292980418735
-0.18799167846591444,-0.18799167846591444,0.9996748600822775,0.0004162552624000852
-0.18673723212923504,-0.18673723212923504,1.000328457283484,0.00041780381683121206
-0.18482693609403214,-0.18482693609403214,0.9990148777958916,0.0004135874597506477
-0.18302132898461423,-0.18302132898461423,0.9990450693778193,0.0004334953196977116
-0.18185317502866383,-0.18185317502866383,1.0001764046965969,0.00041737850143548215
-0.17976081670858549,-0.17976081670858549,0.999325151313592,0.00041932776892617305
-0.17775961920488043,-0.17775961920488043,1.00057790189974,0.00041459546793820156
-0.17649825946136843,-0.17649825946136843,0.9996948480014941,0.0004148734009827004
-0.1756323623128992,-0.1756323623128992,1.0002882882822615,0.00042680646038598997
-0.17366000628098846,-0.17366000628098846,1.000195588226295,0.00041352577115295175
-0.17157024644693591,-0.17157024644693591,0.9995779524608412,0.00043350672765123403
-0.170351157636469,-0.170351157636469,1.000045659653963,0.0004228908389236636
-0.1691814131278079,-0.1691814131278079,1.0002544208951458,0.000426812766544529
-0.16779696012745263,-0.16779696012745263,0.9998601162939916,0.0004136056378517755
-0.16579981739778304,-0.16579981739778304,0.9998924830226054,0.0004136869379962318
-0.16412322616452002,-0.16412322616452002,0.9993810422748499,0.0004269602523889874
-0.1628752599172003,-0.1628752599172003,0.9999414025999342,0.00041446462636247574
-0.16110080294965884,-0.16110080294965884,0.9994698788997262,0.0004150448041036982
-0.1596802317588299,-0.1596802317588299,1.0000421040629042,0.0004137211616371618
-0.15809764569785328,-0.15809764569785328,0.9998808063000098,0.00043082842518307003
-0.156173108384246,-0.156173108384246,0.9995282936294606,0.0004157776312288198
-0.15447129619133193,-0.15447129619133193,0.9993415762297211,0.0004133894739648306
-0.15312201895721955,-0.15312201895721955,1.000609908150429,0.0004213726565223656
-0.15095528150632162,-0.15095528150632162,0.9998925360313311,0.0004140278847537144
-0.1493410590235726,-0.1493410590235726,0.9998604549232105,0.0004358205718061548
-0.14789589968058864,-0.14789589968058864,1.0002622734528384,0.0004173609381792293
-0.14653583940234965,-0.14653583940234965,0.999916521053869,0.0004193399393609678
-0.14445862991851754,-0.14445862991851754,0.9997633361483919,0.00041388063909609537
-0.14292586345763994,-0.14292586345763994,1.0002581889962598,0.0004313895179666284
-0.14209133398981066,-0.14209133398981066,1.0003813875212346,0.0004192691474155804
-0.1408856893714983,-0.1408856893714983,0.999952110112656,0.00042312230562782546
-0.1387066954994225,-0.1387066954994225,0.9999588222135444,0.0004133561421702286
-0.13710739757443663,-0.13710739757443663,0.9992611080751217,0.0004378183268874534
-0.1358257290055917,-0.1358257290055917,1.0003983483823677,0.0004223366208456115
-0.1348567830042157,-0.1348567830042157,0.999784930884774,0.0004292663380840062
-0.13310636729511316,-0.13310636729511316,1.00024772348049,0.00041363420271553806
-0.13132213316712296,-0.13132213316712296,0.9997813920183602,0.0004161417211195759
-0.12953186120648752,-0.12953186120648752,0.999361619846777,0.0004264503782100193
-0.12803377380259917,-0.12803377380259917,0.9997263342861767,0.00041359845035850395
-0.12660772816379903,-0.12660772816379903,1.0000089378893617,0.0004150190730648728
-0.12541895552931237,-0.12541895552931237,1.0003557794885478,0.0004165029828141151
-0.12401369436556706,-0.12401369436556706,0.9996919963742219,0.0004169016191450897
-0.12196208945970284,-0.12196208945970284,0.9994398551430546,0.000416014222215971
-0.12026209791074507,-0.12026209791074507,0.9993002284540191,0.0004132999330673775
