time,time,flux,flux_err
-0.49875856724756884,-0.49875856724756884,1.0000458693002818,0.0001235673365220563
-0.497150715222233,-0.497150715222233,0.9999025921167976,0.00012344028691118643
-0.4960109733197896,-0.4960109733197896,1.0003644007762535,0.00012642832514867262
-0.49456141360278705,-0.49456141360278705,1.0000462115566726,0.00012352856625918145
-0.49284509987410274,-0.49284509987410274,1.000054790060944,0.00012292116999327638
-0.49180201068738827,-0.49180201068738827,0.999814970739193,0.0001231242382965246
-0.4904806112317601,-0.4904806112317601,1.0001482498136238,0.0001236631874820403
-0.4888682469900232,-0.4888682469900232,0.9997846830485928,0.0001231411755910543
-0.4882820447041013,-0.4882820447041013,1.0001524126990966,0.00012343042220144004
-0.4878059751594265,-0.4878059751594265,1.0000905366035058,0.00012302750973440556
-0.48664384990624965,-0.48664384990624965,0.9997815399124406,0.00012341672568713498
-0.48535411131597356,-0.48535411131597356,1.0000815623868289,0.0001233915790977832
-0.4841950666799676,-0.4841950666799676,0.9998903788517488,0.00012344206670933497
-0.4830328286749136,-0.4830328286749136,1.0000605336449613,0.00012435165211987072
-0.48064312515489294,-0.48064312515489294,0.9999518658373763,0.00012295356287675093
-0.47964259016007416,-0.47964259016007416,0.9999250421738065,0.00012323966238236676
-0.4783959404318011,-0.4783959404318011,1.0002046808854086,0.0001233918790182231
-0.47651281362923326,-0.47651281362923326,0.9999652339653107,0.0001234952810965135
-0.4755876932998945,-0.4755876932998945,0.9998019919307941,0.00012322331446267643
-0.47383368771479584,-0.47383368771479584,0.9999178269506601,0.00012316226932296945
-0.4718863069327199,-0.4718863069327199,1.000210809110775,0.00012349517496611112
-0.47083764554772645,-0.47083764554772645,0.999984974334731,0.00012360343765942632
-0.469596526263922,-0.469596526263922,0.9999378006100889,0.00012316283041602315
-0.46698447605667753,-0.46698447605667753,1.0000431198314241,0.0001236961607479594
-0.4658168634356116,-0.4658168634356116,1.0001484596081525,0.00012303447683736538
-0.4636848735186504,-0.4636848735186504,1.0001008576318295,0.00012338035037349365
-0.46255055124420325,-0.46255055124420325,1.000030800630585,0.0001229220364836521
-0.46198785658853014,-0.46198785658853014,0.999910254266023,0.00012301951514939174
-0.46060153575890583,-0.46060153575890583,1.000032437417713,0.0001233371342227719
-0.458348945355101,-0.458348945355101,0.9999336542525746,0.00012344184770035253
-0.4579155621962855,-0.4579155621962855,0.999953349331899,0.0001231036334884859
-0.4567481442078133,-0.4567481442078133,1.0000698877102265,0.00012341011466038103
-0.45497539477000826,-0.45497539477000826,0.9999366598660941,0.00012336958338379073
-0.45403070594184103,-0.45403070594184103,0.9999914251725416,0.00012317240156477563
-0.45289657168395936,-0.45289657168395936,0.9999341879873059,0.00012453258615171916
-0.45082279431881034,-0.45082279431881034,1.000013889397033,0.0001236281885072229
-0.44977759579196575,-0.44977759579196575,0.9999411898126602,0.00012320048493729292
-0.44821342416107657,-0.44821342416107657,1.0000249417250158,0.00012334370436414697
-0.446274399109825,-0.446274399109825,1.0001406060039817,0.00012352495160866458
-0.4454195526319381,-0.4454195526319381,0.9998990091887652,0.00012321470917358055
-0.44324616986632465,-0.44324616986632465,1.000014877227374,0.0001230692373274825
-0.44188085907226193,-0.44188085907226193,1.0000516823975583,0.000123436351893843
-0.44070859435523746,-0.44070859435523746,1.0000279155063057,0.0001237063359507029
-0.43999963989190294,-0.43999963989190294,0.9999521514087967,0.00012293932346585701
-0.43861867932791937,-0.43861867932791937,0.9998205180381307,0.00012353612507343942
-0.4365625891674426,-0.4365625891674426,1.0000119490993655,0.00012342336312390275
-0.4352266181907908,-0.4352266181907908,1.0003628794544759,0.00012322142172247174
-0.4337317870900733,-0.4337317870900733,1.0000410446586978,0.00012341140504236673
-0.43272272538451945,-0.43272272538451945,0.9999349929990599,0.00012312108595262367
-0.43187197183287934,-0.43187197183287934,1.0000040865284927,0.0001230694165116754
-0.42977055925657626,-0.42977055925657626,0.9999464315250526,0.0001230964766553959
-0.4283091928933572,-0.4283091928933572,0.9999662919306903,0.00012315620057014643
-0.4278810895346396,-0.4278810895346396,1.0000525018191895,0.00012328122805095324
-0.4265810237004189,-0.4265810237004189,0.999724474026768,0.0001237806469116949
-0.4248781253591005,-0.4248781253591005,0.9997156734630461,0.00012353437827273742
-0.42383235281085946,-0.42383235281085946,1.0000468379654541,0.00012324832334676322
-0.42298554182852965,-0.42298554182852965,1.000028393419385,0.00012537952386180233
-0.42170988482612304,-0.42170988482612304,0.9999947049856948,0.00012328052835869534
-0.4200410105266201,-0.4200410105266201,0.999838655293329,0.00012314388047215586
-0.4189989597100066,-0.4189989597100066,1.0001126663502462,0.00012338561987351048
-0.41609608696890066,-0.41609608696890066,0.999797352085744,0.00012343389173899297
-0.41525840333342784,-0.41525840333342784,1.0002400983722477,0.00012331669220679595
-0.4140191142781987,-0.4140191142781987,0.9999983123132983,0.00012322520814695174
-0.41244688312581274,-0.41244688312581274,1.0003973218235758,0.00012339177997093884
-0.41110554383776615,-0.41110554383776615,1.0001255140582386,0.0001236650609757087
-0.4104950267377717,-0.4104950267377717,1.0000596924002358,0.00012371187449865522
-0.40924375155445886,-0.40924375155445886,0.9999456945200297,0.00012297529423709115
-0.40739871181722265,-0.40739871181722265,0.9999148497460805,0.00012332404135422502
-0.4066865219094325,-0.4066865219094325,0.9999314383620357,0.00012316188232925276
-0.4049127190039144,-0.4049127190039144,1.000070969500607,0.00012361472633888156
-0.40301928156331995,-0.40301928156331995,0.9998362511533487,0.00012331297816229288
-0.4019405189108511,-0.4019405189108511,1.0000185446006085,0.00012310729831201676
-0.40040491917170584,-0.40040491917170584,1.0000088561637777,0.0001232475221873391
-0.3991117311939888,-0.3991117311939888,1.0001967857811072,0.0001232716893518778
-0.39809486060548804,-0.39809486060548804,0.9999248996339695,0.000123555409887173
-0.3972835247419425,-0.3972835247419425,1.00018928698656,0.00012327863412997005
-0.39538398132426666,-0.39538398132426666,0.9999593993441293,0.00012363790102540195
-0.39343669156442046,-0.39343669156442046,1.000221009702202,0.0001266755182233905
-0.3923424380576762,-0.3923424380576762,0.999974465179436,0.0001233779519538032
-0.3902602428715909,-0.3902602428715909,0.9998666833606082,0.00012310366495165266
-0.3892191887833178,-0.3892191887833178,1.0000034010096646,0.00012300818348162657
-0.38767111125926024,-0.38767111125926024,1.0000628085402206,0.0001234182901147454
-0.3863638061426172,-0.3863638061426172,1.0002427343644513,0.00012365201556647994
-0.3853749960100686,-0.3853749960100686,0.9998172247329542,0.0001234174218568941
-0.38495723548185196,-0.38495723548185196,1.0001734209797335,0.0001229488601025264
-0.38395372822415086,-0.38395372822415086,0.9998542738677682,0.00012341608989701748
-0.38241069440700814,-0.38241069440700814,0.9999508554771511,0.00012328351884013705
-0.38117751481840967,-0.38117751481840967,1.0000769988076121,0.00012346365876576766
-0.3800157957826741,-0.3800157957826741,0.9999869111573533,0.00012446120590200345
-0.37762600664573254,-0.37762600664573254,0.9999487964537884,0.00012296192317374347
-0.3766850705440447,-0.3766850705440447,1.0000550446774992,0.00012331856414227069
-0.3753980108675023,-0.3753980108675023,1.000000176155544,0.0001234865937849397
-0.3738151423094678,-0.3738151423094678,0.9999062578978879,0.00012333615594760868
-0.37288030355703083,-0.37288030355703083,0.9997556848593012,0.00012340809032595143
-0.3715986051291111,-0.3715986051291111,1.000046030567297,0.0001227872727925644
-0.3690889647368749,-0.3690889647368749,1.0000782857409625,0.0001235471392954001
-0.3679658330169332,-0.3679658330169332,1.0000879383256536,0.00012348148196186397
-0.36706991703176756,-0.36706991703176756,1.0001581963047241,0.00012320499341184632
-0.36415850006233086,-0.36415850006233086,0.9997582253838271,0.0001235740295788184
-0.3629650299022614,-0.3629650299022614,0.999823079466642,0.00012307638463800584
-0.3617980175840785,-0.3617980175840785,0.9997080754941303,0.00012347735246118167
-0.36020844772065175,-0.36020844772065175,0.9998724520553093,0.00012317661530997058
-0.35947296185477173,-0.35947296185477173,1.0000434475819553,0.0001230385102534574
-0.3588176278775791,-0.3588176278775791,0.9999298886762228,0.0001231525973023546
-0.35663919006183276,-0.35663919006183276,0.9999161030347634,0.00012344183129512395
-0.3552389618787856,-0.3552389618787856,1.0000075854203263,0.00012345672615145
-0.3548690078452637,-0.3548690078452637,0.9999798243382667,0.0001230694365557683
-0.3540035952210019,-0.3540035952210019,1.000048692282746,0.0001232749298148963
-0.352084181176906,-0.352084181176906,1.0002276242357622,0.00012350066354775092
-0.35063118490215855,-0.35063118490215855,1.0000422876803507,0.00012459034811732758
-0.34922838987840804,-0.34922838987840804,0.999900599102937,0.00012353180042729968
-0.3472828013065737,-0.3472828013065737,1.0001078593920085,0.00012335105306293643
-0.3463547220271721,-0.3463547220271721,1.0000516062685954,0.00012327764340441672
-0.3440740339901822,-0.3440740339901822,0.9999254016815453,0.00012344392133713873
-0.3425993815049878,-0.3425993815049878,1.0000356640716048,0.0001233685354042364
-0.3407575215504039,-0.3407575215504039,1.000159339095808,0.00012278989539407168
-0.3390301052699215,-0.3390301052699215,0.9999228514044514,0.0001235475040409274
-0.3376921214163303,-0.3376921214163303,1.0000493784547002,0.0001235020837034611
-0.3370261432690313,-0.3370261432690313,0.9998983908410978,0.00012297507504773587
-0.33532205770607104,-0.33532205770607104,1.0002800195373658,0.0001236775392583998
-0.3339189331571106,-0.3339189331571106,0.9999086292045927,0.0001231801130468111
-0.3320300162893545,-0.3320300162893545,1.0000607831360273,0.0001231467247416195
-0.33045887752450653,-0.33045887752450653,0.9999694323625752,0.00012352153376160205
-0.3296300267567858,-0.3296300267567858,0.9998807500115159,0.0001230464639416082
-0.32857122900531976,-0.32857122900531976,0.9998990536713551,0.00012301281913209633
-0.32634268597321353,-0.32634268597321353,0.9998417626462668,0.00012333350240630674
-0.3252537766005844,-0.3252537766005844,0.999939486202328,0.0001232003984997228
-0.3248639481505961,-0.3248639481505961,0.9997814923625346,0.00012326455067291324
-0.32356354945732163,-0.32356354945732163,1.0001362200333273,0.00012378003690833005
-0.32154434559633954,-0.32154434559633954,1.0000081447110163,0.00012327763676384657
-0.32077908109495185,-0.32077908109495185,0.9998851025464885,0.00012354158493034625
-0.31996837447877624,-0.31996837447877624,0.9999435441588875,0.00012554977457715136
-0.3185980153371929,-0.3185980153371929,1.0000501848347128,0.00012317729665647483
-0.3170193089346867,-0.3170193089346867,1.0000580294878414,0.00012305892696038153
-0.3163602702690696,-0.3163602702690696,1.0002642686568657,0.00012321063191753835
-0.3150670715731394,-0.3150670715731394,1.0001099942821188,0.00012334395606393236
-0.3127392824593699,-0.3127392824593699,1.0000265211511514,0.00012342441819272824
-0.3122175337339286,-0.3122175337339286,1.0000127242165462,0.00012325256068481747
-0.3110014594887616,-0.3110014594887616,0.9998452858993309,0.00012322305604303555
-0.30942961792825374,-0.30942961792825374,1.0000740432991992,0.0001233752432351259
-0.3080438608318218,-0.3080438608318218,1.0002205895414928,0.00012374183525049116
-0.30738291159359504,-0.30738291159359504,0.999915658883908,0.00012360127775256762
-0.3059484446464921,-0.3059484446464921,1.0000859361622856,0.00012319056668459754
-0.3039237730852619,-0.3039237730852619,0.9999642256390674,0.00012317668808212097
-0.3028999458198086,-0.3028999458198086,1.000205252859398,0.00012328472958725957
-0.30086102624918565,-0.30086102624918565,1.0000509353771956,0.00012381026894860877
-0.29938684578155517,-0.29938684578155517,0.9998750600908112,0.00012311876640182647
-0.2977101875527296,-0.2977101875527296,1.0000415259418536,0.00012322618600724332
-0.2957707569694321,-0.2957707569694321,0.9999535519729573,0.00012327047911830748
-0.29497224232763986,-0.29497224232763986,0.999899939788342,0.00012357488454094737
-0.29386546224195625,-0.29386546224195625,1.0000228069920276,0.00012319505999769544
-0.29214675119219463,-0.29214675119219463,1.00005377158711,0.0001234768842933071
-0.2903929196720128,-0.2903929196720128,0.9997827671498707,0.00012642518218760089
-0.28926879922801163,-0.28926879922801163,1.000116611088684,0.00012352015536460747
-0.28724295585270737,-0.28724295585270737,0.9998675077260334,0.00012310077364420917
-0.2862026813148987,-0.2862026813148987,0.9999413940987019,0.00012299507342062032
-0.2848130111327919,-0.2848130111327919,0.9998932183419764,0.0001234514732655697
-0.2832020857691532,-0.2832020857691532,0.9998557398442056,0.00012343877857207125
-0.2822471518309612,-0.2822471518309612,1.0000564069261153,0.0001234194725767624
-0.28172569873422615,-0.28172569873422615,1.0000331074763413,0.00012315140630514575
-0.2806077746870869,-0.2806077746870869,0.9999748550441346,0.00012342726771103835
-0.2792708452609077,-0.2792708452609077,0.9998119555041691,0.00012354958639573905
-0.2784403983379889,-0.2784403983379889,0.9999643094749168,0.00012370524864628048
-0.27719628103732247,-0.27719628103732247,1.0000474962944117,0.00012436991220768354
-0.27523457940042134,-0.27523457940042134,0.9999966490477437,0.00012343592045417352
-0.27390897067161857,-0.27390897067161857,1.0000901223198302,0.00012319471083393585
-0.2728612449405773,-0.2728612449405773,1.0000343221395327,0.00012334304591825232
-0.27126668469281867,-0.27126668469281867,1.0000721352278017,0.0001233770625591307
-0.2697511887279688,-0.2697511887279688,1.0001441293318487,0.00012338086291473058
-0.2682100377474853,-0.2682100377474853,1.0001970521639536,0.00012285828788831534
-0.26607135749873123,-0.26607135749873123,0.9999503499755698,0.0001235564814154133
-0.26487216500463545,-0.26487216500463545,0.9999884252442091,0.00012358595442213947
-0.2643833570626157,-0.2643833570626157,1.0001243072979051,0.00012313924980720736
-0.26205539350266915,-0.26205539350266915,1.0000765781683367,0.0001231689100511752
-0.2607488953435677,-0.2607488953435677,1.000271293244107,0.00012327121247619085
-0.25974494069014326,-0.25974494069014326,0.9999939609786018,0.0001229878544267741
-0.25802353028266223,-0.25802353028266223,1.0000664109022828,0.00012343630089593755
-0.2570060916717921,-0.2570060916717921,1.0001731578410369,0.00012345658453668238
-0.25633126559114316,-0.25633126559114316,0.9997411140462817,0.00012308951472466448
-0.25529986988476594,-0.25529986988476594,1.0000686757419608,0.0001228613621132748
-0.2529714898970269,-0.2529714898970269,0.9999806905887597,0.0001235492156878043
-0.2522216781399038,-0.2522216781399038,1.0001051928160853,0.0001234647850611521
-0.25182006074610397,-0.25182006074610397,1.0000575777790686,0.0001230700979267932
-0.2503511617469485,-0.2503511617469485,1.0000636325053094,0.00012337886128758931
-0.24838766509565174,-0.24838766509565174,0.9997751620061628,0.0001236633259248098
-0.24713771133101545,-0.24713771133101545,0.9998677295931422,0.00012474358225190622
-0.24574734491689015,-0.24574734491689015,1.0002673394777117,0.00012343791521354363
-0.2440877906716196,-0.2440877906716196,0.9997707927002727,0.0001233653651897229
-0.24322822801914298,-0.24322822801914298,0.999954962159501,0.00012303148868314572
-0.241341833621118,-0.241341833621118,0.9998536801845377,0.00012347734633683932
-0.23974922981215058,-0.23974922981215058,1.0002069370369333,0.00012365201780551875
-0.2385139299374714,-0.2385139299374714,0.9997849338191254,0.00012276838271249737
-0.2363550430702162,-0.2363550430702162,0.9999615438946388,0.00012345534329935034
-0.23477524868576438,-0.23477524868576438,0.9999024432321129,0.00012356642885955182
-0.23418700175898266,-0.23418700175898266,1.0000575668279947,0.0001229443867572141
-0.23241769211526844,-0.23241769211526844,0.9999774845367962,0.00012338552549291584
-0.2304672604383086,-0.2304672604383086,0.9998306070466084,0.00012318091696862071
-0.2287881269956415,-0.2287881269956415,0.9998650633714533,0.00012338553468507144
-0.22756514701031846,-0.22756514701031846,1.000069502629838,0.00012335081276856983
-0.22710391005020938,-0.22710391005020938,0.9997896184365054,0.00012330062516718727
-0.22616533703985625,-0.22616533703985625,0.9997524526135031,0.00012310021242014323
-0.2243656346698117,-0.2243656346698117,0.9999497165271081,0.00012289400401205834
-0.22227863154039368,-0.22227863154039368,0.9999032399569291,0.00012325075170730262
-0.22184680786594982,-0.22184680786594982,0.9999291380366391,0.0001232712009544651
-0.22056068316451274,-0.22056068316451274,0.9996401336351071,0.00012364330647902081
-0.2188932712888345,-0.2188932712888345,0.9997792291114121,0.00012347810460974038
-0.21779894832652644,-0.21779894832652644,0.9998954892634628,0.00012323863167444362
-0.21695120878721355,-0.21695120878721355,0.9998416317002878,0.0001257255421568472
-0.21575186778281932,-0.21575186778281932,1.0001030479567012,0.00012333099214054805
-0.21408808485066402,-0.21408808485066402,0.9998184834814084,0.00012321884267170192
-0.21337599538528593,-0.21337599538528593,0.9998851443285787,0.00012316414444637664
-0.21142809569573728,-0.21142809569573728,1.0001477109420467,0.00012307902474747778
-0.20959180404170183,-0.20959180404170183,1.0001024616577632,0.00012365132429051383
-0.20913797284883912,-0.20913797284883912,0.9997937681261713,0.00012321583925860278
-0.2080422974875546,-0.2080422974875546,1.0000937944932073,0.00012316517537615037
-0.2066042007121723,-0.2066042007121723,0.9999062461109759,0.00012342773214708838
-0.20566042147984262,-0.20566042147984262,0.9997553381293468,0.00012358567336344002
-0.20471285267922212,-0.20471285267922212,1.0000203235218825,0.00012385830277431015
-0.20403263477201108,-0.20403263477201108,0.9999177931596149,0.00012326487858086837
-0.2015727821548353,-0.2015727821548353,0.9999828051375973,0.00012323158687627442
-0.20071652325786998,-0.20071652325786998,1.0000523686278,0.00012305454468311682
-0.19902764186190325,-0.19902764186190325,1.0000529677645056,0.00012336443172823378
-0.1965951501930249,-0.1965951501930249,0.9999540979040369,0.00012323012159831003
-0.19531524638005066,-0.19531524638005066,0.9999289761267679,0.00012305601729150454
-0.19300863369790022,-0.19300863369790022,1.000221614314719,0.00012353047565241815
-0.1920410106649797,-0.1920410106649797,0.9998480922658425,0.00012356791216834527
-0.19083446949371136,-0.19083446949371136,0.9999750540034447,0.00012373776170659397
-0.1888240174826933,-0.1888240174826933,1.0001459671492618,0.00012343394221859036
-0.1870475538664323,-0.1870475538664323,1.0002109153133245,0.0001232389906115132
-0.18502061159961158,-0.18502061159961158,1.0000125700421798,0.0001235066751016904
-0.1835423989141418,-0.1835423989141418,0.9999969881806109,0.0001230266023063502
-0.1827379673952237,-0.1827379673952237,1.000052129517194,0.00012313659773715595
-0.1813695247634314,-0.1813695247634314,0.9998398313964953,0.00012365208722585097
-0.17981022728636162,-0.17981022728636162,1.000125997814998,0.00012349237368806286
-0.17916231747658456,-0.17916231747658456,0.9999171037591307,0.00012310955966587697
-0.1785097312866128,-0.1785097312866128,0.999977434513287,0.0001233317759256626
-0.17727040408644826,-0.17727040408644826,1.0000576219221515,0.0001233013024605599
-0.17585758645946042,-0.17585758645946042,0.9998323876947459,0.00012342927901415264
-0.17466553358535747,-0.17466553358535747,0.9999686723617847,0.00012455389533027713
-0.17326837232976686,-0.17326837232976686,1.0001250283654133,0.0001235923584713752
-0.17106167811652995,-0.17106167811652995,1.000052615114932,0.0001232512323248937
-0.17005295202543494,-0.17005295202543494,1.0001427314723004,0.00012338537487115842
