time,time,flux,flux_err
-0.4994573582146889,-0.4994573582146889,1.0002774462467892,0.0002951653181424848
-0.49856215253348635,-0.49856215253348635,1.0004275342892066,0.0003067482470647703
-0.4974260243943718,-0.4974260243943718,0.9998244545397131,0.0002579769181010734
-0.49656661306653405,-0.49656661306653405,0.9996844816818017,0.0002552089586465826
-0.49584303550109327,-0.49584303550109327,0.9999880559480703,0.00026341735738204133
-0.4949406966356037,-0.4949406966356037,0.9998920793654202,0.00025531122433041073
-0.49464314173019375,-0.49464314173019375,0.9996873980587393,0.00024970814306287835
-0.4938330363256682,-0.4938330363256682,1.0000894893221546,0.0002595935542031631
-0.49302200427264325,-0.49302200427264325,0.9996091132607651,0.0002552039907028732
-0.49219705363138927,-0.49219705363138927,1.0000930825502536,0.0002608647676458424
-0.490956513027777,-0.490956513027777,0.999877382671615,0.0002580041812116335
-0.48986107177843224,-0.48986107177843224,1.0007242813086699,0.00041653977347138926
-0.4891096851362818,-0.4891096851362818,1.0002036912976084,0.00025810795229308774
-0.488518209191534,-0.488518209191534,0.9994546751864073,0.0002552329524190549
-0.4876976406962058,-0.4876976406962058,0.9997277549702671,0.00026121521217731004
-0.48675849138817284,-0.48675849138817284,0.999662129489996,0.0002528664348823513
-0.4864361892228771,-0.4864361892228771,1.000171440048962,0.000255434026485651
-0.48532932851339866,-0.48532932851339866,0.9996902724697151,0.00026076144328528606
-0.4845214327859139,-0.4845214327859139,1.0000150234150418,0.00025524855886738154
-0.4839220658646809,-0.4839220658646809,0.9996408887031645,0.0002580291611129574
-0.4829465594237263,-0.4829465594237263,1.0004694209927856,0.0002580127826723638
-0.48162092854363436,-0.48162092854363436,0.9993992234031603,0.00025247513932379203
-0.4805124033362517,-0.4805124033362517,0.9999203542699713,0.0002527738113210584
-0.4797889715355268,-0.4797889715355268,1.0002379363872336,0.00025813912430301846
-0.4790082384024572,-0.4790082384024572,1.0001426941866487,0.0002588261889324692
-0.47852334681374487,-0.47852334681374487,1.0000528000843598,0.000252553269603893
-0.47798442706443894,-0.47798442706443894,0.9998620291662303,0.0002704916677407955
-0.47729701878452035,-0.47729701878452035,0.9995249392172483,0.0002691941630161806
-0.47659323633124584,-0.47659323633124584,0.9999644063215698,0.000255282305572176
-0.4756555772735737,-0.4756555772735737,0.9999567629566363,0.000255370978629449
-0.474404995540317,-0.474404995540317,1.0003954223014708,0.00025807219017684766
-0.47319045253934744,-0.47319045253934744,0.9999830895905244,0.0002744913014859537
-0.47236559474295065,-0.47236559474295065,1.0002003534326966,0.00024976963965130854
-0.4717937526278547,-0.4717937526278547,0.9998467860766039,0.00025807187426640863
-0.47054577292983596,-0.47054577292983596,0.9998778130676202,0.00025397943641236224
-0.4698513646471838,-0.4698513646471838,1.00019565394476,0.0002598436650311787
-0.4687229015857156,-0.4687229015857156,1.0005908895075817,0.00025818488822078464
-0.4679269963038678,-0.4679269963038678,1.0000712101836657,0.00039836036899615736
-0.4670275675394805,-0.4670275675394805,1.0003177524586082,0.0002689015550930082
-0.4660549530042772,-0.4660549530042772,1.0000898515214254,0.0002579984855786099
-0.46496184578973043,-0.46496184578973043,1.0003271322045473,0.000263565623664423
-0.4643494969848689,-0.4643494969848689,1.0004277407751403,0.0002527349523997151
-0.4638775015657302,-0.4638775015657302,1.0003937801512417,0.0002554590031456219
-0.46263896402197136,-0.46263896402197136,1.0005845764740102,0.00025724837432631703
-0.4619241096545011,-0.4619241096545011,0.9998064496170043,0.0002785547010274312
-0.46122692270619153,-0.46122692270619153,1.0000022684777359,0.0002580145493465435
-0.46035801085126876,-0.46035801085126876,0.9995955325029453,0.0003710506991820562
-0.4590714802223374,-0.4590714802223374,0.9996858098259718,0.000255417955208045
-0.45816211387355,-0.45816211387355,1.0000427151175677,0.0002526643324205041
-0.45743103495842663,-0.45743103495842663,0.9996035659304848,0.00025802819434094095
-0.45625443151911893,-0.45625443151911893,0.9998581068720134,0.0002498674200873721
-0.4555761221483408,-0.4555761221483408,1.0000207662012386,0.000260801823237144
-0.4544962019470404,-0.4544962019470404,0.9998543006446878,0.0002649996773519057
-0.4538608849616139,-0.4538608849616139,0.9998355441830526,0.00025799964094108793
-0.4531748010354931,-0.4531748010354931,0.999690911074668,0.0003505736831867496
-0.4524274378971313,-0.4524274378971313,0.9999467217764636,0.0002742021991136819
-0.45196014362882125,-0.45196014362882125,0.9999981777055644,0.0002582003235407727
-0.45097680725812095,-0.45097680725812095,0.99980407751202,0.0002579971756663829
-0.4500089759243565,-0.4500089759243565,1.0000892270403212,0.0002497650636100235
-0.44883303019814774,-0.44883303019814774,1.0001990776022824,0.0002553592269337409
-0.44804898833317564,-0.44804898833317564,1.0003135971965058,0.0002556977906611877
-0.447421926725292,-0.447421926725292,1.00050909105312,0.00026166033304988215
-0.4465005282705533,-0.4465005282705533,1.0000129699966611,0.0002810883547881756
-0.44560953537256864,-0.44560953537256864,0.9999514878103506,0.0003303315232342642
-0.44483617449150187,-0.44483617449150187,1.0005184002106322,0.00025802607610088597
-0.44389057749831407,-0.44389057749831407,1.0005256468518795,0.0002581109083496395
-0.44274925964382417,-0.44274925964382417,0.9997362670493652,0.000263317397919361
-0.44207791663538953,-0.44207791663538953,1.0000261616720532,0.0002553655999252538
-0.441723439938869,-0.441723439938869,0.9998862632936394,0.00025542619731945397
-0.44058178830782707,-0.44058178830782707,1.000308297265001,0.0002610786847377747
-0.44001780193248125,-0.44001780193248125,1.0003495534895852,0.0002569093490548682
-0.4391153089974978,-0.4391153089974978,1.000483312000645,0.0002683045961025287
-0.43773003613932815,-0.43773003613932815,1.000278806275682,0.00025533583436297984
-0.43695655173687553,-0.43695655173687553,1.0000026010876337,0.00026752159044537743
-0.43581196197774263,-0.43581196197774263,0.9998625814108367,0.00025289257964231565
-0.434787470399533,-0.434787470399533,0.9999931689896758,0.00025551719963117593
-0.43383704742373086,-0.43383704742373086,0.9998521324632744,0.0002497628526027172
-0.43323885781428545,-0.43323885781428545,1.000479810220591,0.00026053287504837426
-0.4322455950969015,-0.4322455950969015,0.999948850660308,0.0002648722971332584
-0.4316646999410295,-0.4316646999410295,1.0002767996031816,0.00025521039532634964
-0.43074666095017167,-0.43074666095017167,1.0000747382025863,0.00025806942615200955
-0.42993626350726116,-0.42993626350726116,1.0002233907069131,0.00027142709478793426
-0.42913598453087615,-0.42913598453087615,1.0001383874083298,0.0002552977967080984
-0.42798219225296635,-0.42798219225296635,0.9994186398008029,0.0002524787677073515
-0.42732915859378406,-0.42732915859378406,0.9997648741069437,0.00025254064390606924
-0.42624785705120305,-0.42624785705120305,0.999587192622724,0.0002591690753139796
-0.42569561880882245,-0.42569561880882245,1.0000317091242785,0.000255262571073217
-0.4251740620999044,-0.4251740620999044,0.9999850691684344,0.0002614434319058642
-0.4241466131159541,-0.4241466131159541,0.9998157460969868,0.00027118274068539374
-0.4233580669799267,-0.4233580669799267,1.000091269765429,0.0003082694184221722
-0.42222109033391464,-0.42222109033391464,1.0001306926524847,0.000257974132967254
-0.4213626560020202,-0.4213626560020202,1.0001475694062503,0.0002552337076620237
-0.4207473301936261,-0.4207473301936261,1.0000947793021502,0.0002633222582000387
-0.41982133133096794,-0.41982133133096794,1.000050537874036,0.00025813497976535086
-0.41948097413478536,-0.41948097413478536,1.0003306318041847,0.00024972693440238525
-0.41876075662694345,-0.41876075662694345,0.999498181728136,0.0002597036879949733
-0.4178278067916835,-0.4178278067916835,0.9999843255250562,0.00025534468638520016
-0.4168776291244285,-0.4168776291244285,1.0001591460282968,0.0002553228151179767
-0.41559798061935,-0.41559798061935,0.9999442637691753,0.00025789214956975016
-0.4146571788583969,-0.4146571788583969,0.9995523394951371,0.0004163739288512686
-0.41388795054590444,-0.41388795054590444,1.0002215724061452,0.0002552743959285457
-0.4132770473934215,-0.4132770473934215,1.000256344939008,0.0002553583399387032
-0.412492545938585,-0.412492545938585,0.999948095994616,0.00025827826080822216
-0.4115541127765027,-0.4115541127765027,0.9999008971967479,0.00025589588120708946
-0.4111277637224703,-0.4111277637224703,1.000109544080188,0.00025824402612587694
-0.4098962140131334,-0.4098962140131334,0.9999099603537488,0.0002580896854961993
-0.4091804369320016,-0.4091804369320016,0.9999406998500083,0.00025796032596714033
-0.40853514163136423,-0.40853514163136423,0.9999551964814712,0.0002580172948388549
-0.4076917959315324,-0.4076917959315324,1.000026939113812,0.0002664803955686988
-0.40682432550165687,-0.40682432550165687,1.0000900135224016,0.0002525047458231992
-0.4053448345381184,-0.4053448345381184,1.0005121468560205,0.00025279920642896426
-0.40478924768322033,-0.40478924768322033,1.0001306509562469,0.00025536353322735283
-0.4037348045458202,-0.4037348045458202,0.9997086924183038,0.0002560777979690703
-0.40313252499363444,-0.40313252499363444,1.000018037645427,0.000252504717251859
-0.40241984517742824,-0.40241984517742824,0.9998474195592314,0.0002611989346830937
-0.4015656756640965,-0.4015656756640965,1.0002914294925696,0.00026960395313174295
-0.4008537399491615,-0.4008537399491615,1.0002812946821602,0.00025544034810209615
-0.39969416351741527,-0.39969416351741527,0.9997405642581901,0.000257977174053024
-0.3985963683346199,-0.3985963683346199,0.9997807908466123,0.00025800851140125126
-0.3973261634284427,-0.3973261634284427,1.0001746976963066,0.0002553750247102144
-0.3969377411704045,-0.3969377411704045,1.0003375593280155,0.00025254606006083616
-0.39574200032911905,-0.39574200032911905,0.9999911311982352,0.00025825353731474094
-0.3951491686031659,-0.3951491686031659,0.9997938195827469,0.0002566569013354572
-0.3943699691692018,-0.3943699691692018,1.0000166580063459,0.0002625963543465064
-0.393468555142681,-0.393468555142681,0.999777648715493,0.000265079151382618
-0.3927230556782888,-0.3927230556782888,1.0007332334647832,0.00040028105007021316
-0.39151459119639187,-0.39151459119639187,1.000128279214697,0.00025797061610069894
-0.3905810948424914,-0.3905810948424914,1.0003871416587669,0.0002607836307940278
-0.3894087530170509,-0.3894087530170509,1.0007359775503157,0.00025841529514795427
-0.38899014177841307,-0.38899014177841307,1.0000235238538737,0.00025259044948581827
-0.3878813052713667,-0.3878813052713667,1.0005783001952635,0.0002601161408740406
-0.3869629842312861,-0.3869629842312861,1.0001355745313674,0.00027416405766284696
-0.38633367188303963,-0.38633367188303963,1.0003744702311324,0.0002664467079908937
-0.3857391913777974,-0.3857391913777974,0.9997602551756344,0.0002745130415896279
-0.3851173002996802,-0.3851173002996802,0.9992263137848857,0.00037330897097664987
-0.3838664122202317,-0.3838664122202317,0.9998302691722547,0.000255455646315867
-0.3829582849986764,-0.3829582849986764,1.0007093489673935,0.0002527107169614767
-0.38212083723265095,-0.38212083723265095,0.9998897295952165,0.00025551309292933075
-0.3809683151765057,-0.3809683151765057,0.9998834086151227,0.000249704895834308
-0.3803054295505717,-0.3803054295505717,1.0001667234457714,0.00026347466488347784
-0.3792912568907923,-0.3792912568907923,1.0000690466826954,0.000265282515213563
-0.37878675120373373,-0.37878675120373373,0.9999389553849053,0.00025812090692227375
-0.37804075117528557,-0.37804075117528557,1.0002664141400792,0.00026760163239201073
-0.3772222132640309,-0.3772222132640309,1.000151293163238,0.0002742017818667938
-0.3767555878770509,-0.3767555878770509,1.000163013991178,0.0002581983965646354
-0.3756863346585305,-0.3756863346585305,0.9999883459729085,0.00034578335803003726
-0.3748056323714991,-0.3748056323714991,1.0000012307964998,0.0002497585998386242
-0.37362893476019965,-0.37362893476019965,0.9996654095533133,0.00025533961975174487
-0.37285059087625994,-0.37285059087625994,1.0002040408000856,0.00025573724427088804
-0.37230995347235873,-0.37230995347235873,1.000387059984201,0.00026433105543619294
-0.3712731363186322,-0.3712731363186322,0.9997467774963857,0.0002526342917137604
-0.3703788143353449,-0.3703788143353449,1.000279796192201,0.00032973737581560236
-0.3695603538737487,-0.3695603538737487,1.0000241561294982,0.00026076800839720804
-0.3684020312357461,-0.3684020312357461,1.0001631174840835,0.00025799882719108197
-0.36735229975311084,-0.36735229975311084,0.9999497858500546,0.0002633993715232774
-0.36679380800414946,-0.36679380800414946,0.9997559670995153,0.0002525945955411503
-0.36632838087680286,-0.36632838087680286,0.9998427361022584,0.00025543641652340935
-0.3652112333827972,-0.3652112333827972,1.000014300888993,0.000261157251201336
-0.36455644572124585,-0.36455644572124585,1.0001908464393687,0.0002704828959418629
-0.36329158093249136,-0.36329158093249136,1.0007312966127588,0.00025259037636532635
-0.36223210231510167,-0.36223210231510167,1.0000336047930793,0.0002725831360300136
-0.3610427428237017,-0.3610427428237017,1.0000823427198853,0.0002527895789314448
-0.3601486625953839,-0.3601486625953839,0.9996615127086355,0.0002526415732603274
-0.3588572650362039,-0.3588572650362039,0.999897030672235,0.0002528220796519098
-0.35847347366106985,-0.35847347366106985,1.0003818350753158,0.0002526123788030888
-0.35753637047018855,-0.35753637047018855,1.0002032578095779,0.0002630505915059741
-0.35672728854988234,-0.35672728854988234,0.9999256951166643,0.00025696526968023973
-0.35598807528767795,-0.35598807528767795,0.9999423199591998,0.0002580066025765977
-0.354929469329727,-0.354929469329727,1.0000530150740343,0.0002607062001492113
-0.3543435204457637,-0.3543435204457637,1.0002266052958668,0.0002688160984758244
-0.35334702614418345,-0.35334702614418345,1.0001867351934106,0.00025798462114852357
-0.35244917371383055,-0.35244917371383055,1.0001859881107686,0.000249767112056472
-0.3516999444258545,-0.3516999444258545,0.999981033514946,0.00025804011353340155
-0.3507722613558144,-0.3507722613558144,1.0004991807027146,0.00025660197786417306
-0.3503761253279663,-0.3503761253279663,0.9996842183522429,0.0002552847261014104
-0.3496139841608965,-0.3496139841608965,1.0001789832868109,0.0002613735691186781
-0.3485188573598862,-0.3485188573598862,1.0004438326409768,0.00031302548955183785
-0.3476222595865693,-0.3476222595865693,0.9998999727179434,0.00025531537437570464
-0.34627535145918953,-0.34627535145918953,1.0001683553441318,0.00026075600438634834
-0.3459108435887174,-0.3459108435887174,0.9998621438356405,0.00025806782213053586
-0.3450247585096804,-0.3450247585096804,0.9998053707859096,0.0002633182114729756
-0.3444419435647433,-0.3444419435647433,0.9999040696776328,0.0002525386094467535
-0.3440592906943493,-0.3440592906943493,0.9996478408332361,0.0002525464143989591
-0.3431911827992735,-0.3431911827992735,0.9999060626375474,0.0002600938726460198
-0.3423511920853343,-0.3423511920853343,0.9998294696132032,0.00025500890233072753
-0.34136014169089324,-0.34136014169089324,1.0002609004725493,0.0002638213263785962
-0.34018001634722167,-0.34018001634722167,1.0004055089192347,0.00041585741898410647
-0.339037876173461,-0.339037876173461,1.0000403638474995,0.000255326960658699
-0.33847203380464636,-0.33847203380464636,1.0003390507375298,0.0002552670651994234
-0.33794187208513904,-0.33794187208513904,1.0004302880768985,0.00025803852034714844
-0.3368560111408442,-0.3368560111408442,0.9997817378752956,0.0002587125974656309
-0.33619043376784247,-0.33619043376784247,0.9997853218296715,0.00024984422844112847
-0.3354638395117945,-0.3354638395117945,1.000123634513384,0.0002609817895906011
-0.3343756870399375,-0.3343756870399375,1.0003802679852811,0.000255347373578365
-0.33370181830941875,-0.33370181830941875,1.0000140139316493,0.00026070409802975044
-0.3329148592842103,-0.3329148592842103,0.9996687031522564,0.0002706275071120302
-0.3320245265367703,-0.3320245265367703,0.9999800323049728,0.00028241456953799645
-0.33071579921124794,-0.33071579921124794,1.0002001740521869,0.00025259539815068505
-0.3297845294269791,-0.3297845294269791,1.0001807396843734,0.00025261748082118735
-0.32877115644769217,-0.32877115644769217,0.9996734650858741,0.0002616151600240106
-0.3281348229971627,-0.3281348229971627,1.0001113467709892,0.0002524530501606718
-0.3277459841450764,-0.3277459841450764,1.0006567335101932,0.00033069521079901723
-0.32703201800613896,-0.32703201800613896,0.9999707707011101,0.00026399350573177397
-0.32624076137581143,-0.32624076137581143,1.0000245597316322,0.00026742963431669803
-0.325363834822565,-0.325363834822565,0.9995257601364204,0.00025534825265729024
-0.3239962869625742,-0.3239962869625742,0.9999843924201788,0.00025794357536430346
-0.3227000700284407,-0.3227000700284407,0.9999401774896948,0.000260804153997999
-0.3219177841467172,-0.3219177841467172,0.9997157447048519,0.0002496959405887478
-0.3212250704531471,-0.3212250704531471,1.0000545434603345,0.00025807336078895713
-0.3203433084159769,-0.3203433084159769,0.9999849718953705,0.0002582363316039317
-0.31994550230811003,-0.31994550230811003,0.9997879536622436,0.000256727500111527
-0.31900464131103945,-0.31900464131103945,1.0000837832303369,0.0002696498476821895
-0.3181469290400855,-0.3181469290400855,1.0001543555516008,0.00025825673169964684
-0.3175191157613881,-0.3175191157613881,0.999921274272759,0.0004021527164044317
-0.31631001688874677,-0.31631001688874677,1.0003334231284144,0.0002579779197361291
-0.31537582129458314,-0.31537582129458314,1.0001573556745638,0.0002607967127212673
-0.31420422167248035,-0.31420422167248035,1.0001294480167346,0.00025837979458762556
-0.3137865419517766,-0.3137865419517766,1.000549026984149,0.00025264545941336165
-0.31293971019440503,-0.31293971019440503,1.0000631612003685,0.0002608800610073036
-0.3119956866878056,-0.3119956866878056,0.9997759729770024,0.00025169821440558683
-0.3113142582562432,-0.3113142582562432,0.9999532750327603,0.0002775364200864265
-0.3104691529482807,-0.3104691529482807,1.000177605542944,0.0002746512119747047
-0.30978061408277424,-0.30978061408277424,0.9995048100933468,0.0003754354555108233
-0.30834752825139733,-0.30834752825139733,0.9996627600623686,0.0002555134153856333
-0.30769710657878024,-0.30769710657878024,1.0004252400255127,0.0002497717576022199
-0.30661072180300836,-0.30661072180300836,0.9999441243745189,0.0002555240842632296
-0.30564323112739655,-0.30564323112739655,1.000063530069688,0.00025257189720444685
-0.3046607271022367,-0.3046607271022367,0.9998271742917997,0.00026346261164698713
-0.30387203502032206,-0.30387203502032206,0.9999869821811153,0.0002602958978933783
-0.3032654592858307,-0.3032654592858307,1.0000958259675092,0.00026075999131848406
-0.3024434320210275,-0.3024434320210275,1.0003906477402649,0.0002833261934886487
-0.30177824919846896,-0.30177824919846896,1.0001032543378197,0.0002608393671544748
-0.30080377731865154,-0.30080377731865154,0.9999847677908663,0.0002553012706394057
-0.2996022905317659,-0.2996022905317659,1.000278030317293,0.00024976765735702
-0.29870884610172654,-0.29870884610172654,0.9997220100305197,0.00025802702099155043
-0.29771193281812885,-0.29771193281812885,0.9998997417549397,0.0002557562737304712
-0.29727501358574954,-0.29727501358574954,1.0002542514451602,0.00026166497152756683
-0.29619990908176985,-0.29619990908176985,0.9997421208626427,0.00026662714185221495
-0.2954105488381174,-0.2954105488381174,0.9994503599614439,0.0003207676879937127
-0.2946178161513672,-0.2946178161513672,0.9997841152941547,0.0002704002589223207
-0.29348128536948936,-0.29348128536948936,1.000157781940683,0.0002580684286597249
-0.2922246412592358,-0.2922246412592358,1.0003020006570826,0.0002634650338572303
-0.2915901109463448,-0.2915901109463448,1.0006942862965154,0.000252646865931729
