time,time,flux,flux_err
-0.4998563190568272,-0.4998563190568272,0.8445678395850407,7.009351803854809e-05
-0.49973344629927396,-0.49973344629927396,0.9133464342177926,6.962196344499086e-05
-0.4996303168539195,-0.4996303168539195,0.9542501813311008,7.11618125097294e-05
-0.49946606863782106,-0.49946606863782106,0.9334873212600859,6.709490484984087e-05
-0.4993432280543857,-0.4993432280543857,0.9375619006681045,6.507530280956861e-05
-0.49923209664834756,-0.49923209664834756,0.9162700731032885,6.664797790460292e-05
-0.49912476835165764,-0.49912476835165764,0.9804130347361145,6.709370972310447e-05
-0.49904726302011115,-0.49904726302011115,0.9191335356847311,6.37582999363139e-05
-0.4989344245922439,-0.4989344245922439,0.8727471050763175,6.290975646581306e-05
-0.49880432607983494,-0.49880432607983494,0.9235813469115992,6.396728548824255e-05
-0.49865051536680766,-0.49865051536680766,0.8645501142078181,6.284880281492411e-05
-0.49848320427586257,-0.49848320427586257,0.9279131847981154,6.543234871959036e-05
-0.49831596058320426,-0.49831596058320426,0.9488429805705738,6.421911210853437e-05
-0.4982135859203936,-0.4982135859203936,0.8909136923084043,6.359555406295328e-05
-0.49798822494835804,-0.49798822494835804,0.8666943830667581,6.074513198119063e-05
-0.4978336732831849,-0.4978336732831849,0.918840800684346,6.335699321040882e-05
-0.4977378061154013,-0.4977378061154013,0.901043894718814,6.25506823663736e-05
-0.49759609438970076,-0.49759609438970076,0.946097932364599,6.413982904438401e-05
-0.4974871850633008,-0.4974871850633008,0.9579719430938269,6.304730708910151e-05
-0.4972964438303734,-0.4972964438303734,0.9346567945873856,6.286763805539746e-05
-0.4971371576383262,-0.4971371576383262,0.9112678526412814,6.585817583953323e-05
-0.4969805509865637,-0.4969805509865637,0.9899602021215136,6.774273283716625e-05
-0.49685632549694675,-0.49685632549694675,0.9708018100318758,6.670613084052684e-05
-0.49671051719356,-0.49671051719356,0.9020407624158684,6.45463873278871e-05
-0.49659243086734933,-0.49659243086734933,0.9474544617347893,6.414845928762453e-05
-0.49644535204888596,-0.49644535204888596,0.8693459392685853,6.301757128186996e-05
-0.49630440691375954,-0.49630440691375954,0.8147460477313608,6.383260050915258e-05
-0.4962040258894831,-0.4962040258894831,0.9967790182499536,6.433437250599752e-05
-0.49612250538134506,-0.49612250538134506,0.8151485551186513,6.312385129744082e-05
-0.4960345397278161,-0.4960345397278161,0.8713439030003789,6.582052855182342e-05
-0.4959406069690431,-0.4959406069690431,0.8727922057399301,6.351818868834995e-05
-0.4958331779719174,-0.4958331779719174,0.8895108913391135,6.512986388216487e-05
-0.4956498395975359,-0.4956498395975359,0.8373864019044038,6.654855675580409e-05
-0.49549772002269493,-0.49549772002269493,0.880637450077481,6.45718861675842e-05
-0.4953859762736556,-0.4953859762736556,0.933373558694889,6.41614588202293e-05
-0.4951997962655696,-0.4951997962655696,1.0000701887931247,6.519534158769387e-05
-0.49508084051203693,-0.49508084051203693,0.8759066794294025,6.307816578896445e-05
-0.4948558272836635,-0.4948558272836635,0.903860834065509,6.35832442794662e-05
-0.494632821419782,-0.494632821419782,1.0022728694388547,6.624511938511804e-05
-0.49449689645161926,-0.49449689645161926,0.9481097091151804,6.530517317029753e-05
-0.49438512234933113,-0.49438512234933113,0.8760717198538639,6.112875909232154e-05
-0.49422431845700887,-0.49422431845700887,0.9942122302377963,6.348902176630434e-05
-0.4940826070238472,-0.4940826070238472,0.8551216643046675,6.39055053897033e-05
-0.49397037506228114,-0.49397037506228114,0.9849251272003681,6.919550918743271e-05
-0.49383705801410543,-0.49383705801410543,0.9732023196897313,6.678683256567593e-05
-0.4936595010990459,-0.4936595010990459,1.0000318917534328,6.403656037560084e-05
-0.4934456022308041,-0.4934456022308041,0.8487480395877368,6.515439676837398e-05
-0.49322585005916153,-0.49322585005916153,0.8269352012464084,6.431910843325797e-05
-0.49310808837940384,-0.49310808837940384,0.9477714592571314,6.443992768757735e-05
-0.49303086083245945,-0.49303086083245945,0.9686212463262447,6.48579558096272e-05
-0.4929070635967946,-0.4929070635967946,0.916609769339666,6.501943840068972e-05
-0.4927636062791862,-0.4927636062791862,0.9800336358868883,6.647471801893451e-05
-0.49265820707219066,-0.49265820707219066,0.9522793101794591,6.552148826717117e-05
-0.4925458729586808,-0.4925458729586808,0.9062239905851655,6.719391481999317e-05
-0.4924625325015313,-0.4924625325015313,0.9868396139189851,6.805021136254071e-05
-0.49238128024881006,-0.49238128024881006,0.911296419433454,6.326330695185244e-05
-0.49227672052952587,-0.49227672052952587,0.8456523305957979,6.227391139115585e-05
-0.49214675189364243,-0.49214675189364243,0.9203097087827855,6.349808340765246e-05
-0.4920170254433742,-0.4920170254433742,0.8915248918292022,6.276295739060217e-05
-0.4918761139111211,-0.4918761139111211,0.9929546785726033,6.468384080285318e-05
-0.4917077412191702,-0.4917077412191702,0.9314391945507273,6.58215189890646e-05
-0.49161573463729835,-0.49161573463729835,0.9397422838746919,6.504050128105063e-05
-0.49142221466177033,-0.49142221466177033,0.8955572130811081,6.198434288049823e-05
-0.49121618803319506,-0.49121618803319506,0.9948653072006757,6.448672200771253e-05
-0.491094577622016,-0.491094577622016,0.8552462749808465,6.242729393238528e-05
-0.4909503187011978,-0.4909503187011978,0.9600044322347658,6.437943125624251e-05
-0.49084143390050483,-0.49084143390050483,0.9661479947709349,6.310548744219713e-05
-0.4906506610055203,-0.4906506610055203,0.9425654156229492,6.314954376706622e-05
-0.49052293153276877,-0.49052293153276877,0.939511425532667,6.680252467762909e-05
-0.4903795053955946,-0.4903795053955946,0.9679890615784659,6.808942932492066e-05
-0.49021720071536945,-0.49021720071536945,0.9831531494956266,6.704130557739154e-05
-0.4900646837043496,-0.4900646837043496,0.9179795648409825,6.50867456645752e-05
-0.48994660257494616,-0.48994660257494616,0.9541102680200788,6.419081084453665e-05
-0.4898117453325085,-0.4898117453325085,0.872857373599952,6.292743105398872e-05
-0.4896774344972073,-0.4896774344972073,0.8016052609250608,6.35491963784077e-05
-0.489573932701569,-0.489573932701569,0.9732864270162821,6.480797540751316e-05
-0.4894945163754983,-0.4894945163754983,0.8538658748972809,6.266344100020867e-05
-0.48941135167274297,-0.48941135167274297,0.9050228503796041,6.667022018974094e-05
-0.489332225411772,-0.489332225411772,0.8555752435911155,6.486159082118316e-05
-0.4892543518004004,-0.4892543518004004,0.9091599333201629,6.282786545435311e-05
-0.4891254986666354,-0.4891254986666354,0.9345391675007283,6.685331411068887e-05
-0.488925377687201,-0.488925377687201,0.8761145839867565,6.633801801854457e-05
-0.4888139594218501,-0.4888139594218501,0.9658907222195434,6.502091219763294e-05
-0.48862806104821177,-0.48862806104821177,0.9505130467849969,6.676962230475738e-05
-0.48847631477378856,-0.48847631477378856,1.0000045134448012,6.279312438632812e-05
-0.4883768092938226,-0.4883768092938226,0.8713015114651034,6.49677150765307e-05
-0.4880790035611426,-0.4880790035611426,0.9485025024305511,6.402729148262757e-05
-0.48791153807924276,-0.48791153807924276,0.9593054433126558,6.600475559973171e-05
-0.487789671022847,-0.487789671022847,0.8867357166929098,6.1082498667629e-05
-0.4876543772249079,-0.4876543772249079,1.0012270316699066,6.429741801380925e-05
-0.4875357902255473,-0.4875357902255473,0.9298909409820085,6.22455294160619e-05
-0.4873728798760567,-0.4873728798760567,0.9454290158306581,6.557192341198247e-05
-0.4872426875886049,-0.4872426875886049,0.978940428170592,7.062384849704986e-05
-0.48706839673518515,-0.48706839673518515,0.9999288942473774,6.350324644664521e-05
-0.48687294841724904,-0.48687294841724904,0.8704605447553571,6.762328484228927e-05
-0.4866111747848663,-0.4866111747848663,0.8460428313762869,6.423241416577387e-05
-0.486480438672379,-0.486480438672379,0.9546123674281375,6.506284779838778e-05
-0.4863850688486309,-0.4863850688486309,0.9767143483113092,6.511955727925487e-05
-0.48626405350901225,-0.48626405350901225,0.9267463694972831,6.534115832225718e-05
-0.4861178923126772,-0.4861178923126772,0.9930500743155608,6.669598248493049e-05
-0.48601246280663873,-0.48601246280663873,0.9739783896633988,6.622937187055625e-05
-0.4859000340318744,-0.4859000340318744,0.9125128889208168,6.758424449507335e-05
-0.48581678813347934,-0.48581678813347934,0.9934355296199696,6.783286014982959e-05
-0.48573550582477765,-0.48573550582477765,0.9254927669835427,6.373780787901883e-05
-0.4856419619812641,-0.4856419619812641,0.9165423281430123,6.29168730371349e-05
-0.48551286547549355,-0.48551286547549355,0.9556959816226493,6.463138194312472e-05
-0.48535900807919463,-0.48535900807919463,0.8973661032264755,6.340231999204253e-05
-0.4851771376673241,-0.4851771376673241,0.9586910591137994,6.698655982099095e-05
-0.4850375378277022,-0.4850375378277022,1.008270344380096,6.480403926726411e-05
-0.48495072917694415,-0.48495072917694415,0.8955331379535867,6.444470486950719e-05
-0.48472295287001543,-0.48472295287001543,0.9643563915660363,6.281824775675446e-05
-0.48454213053541934,-0.48454213053541934,0.9494632760196356,6.440220254101327e-05
-0.48441770934377926,-0.48441770934377926,0.9304470984495297,6.372232199058823e-05
-0.4842880004811832,-0.4842880004811832,0.9803922431814394,6.476948707804888e-05
-0.48415410504599093,-0.48415410504599093,0.9658951240849344,6.25957262079589e-05
-0.4839872530078992,-0.4839872530078992,0.9328600051809384,6.399104180796745e-05
-0.4838601331112386,-0.4838601331112386,0.9767090409941245,6.679646028803004e-05
-0.48373373217987137,-0.48373373217987137,0.9872377169634291,6.863576422987063e-05
-0.48357144157298537,-0.48357144157298537,0.9896709213413782,6.70493184853241e-05
-0.48344949829606776,-0.48344949829606776,0.9534647209591889,6.534424172775259e-05
-0.4833189917191703,-0.4833189917191703,0.9827806824263252,6.449338580030889e-05
-0.4831950073462849,-0.4831950073462849,0.9221911145014724,6.495321034996485e-05
-0.48303163872433286,-0.48303163872433286,0.8220463395705361,6.425874856544914e-05
-0.48292816782145565,-0.48292816782145565,0.9852949593061358,6.501496984958432e-05
-0.48284876832258306,-0.48284876832258306,0.8689277794318381,6.318697743467328e-05
-0.48276290934272764,-0.48276290934272764,0.9058157407040426,6.792129766698351e-05
-0.48266549684003623,-0.48266549684003623,0.9025443174623284,6.516056896860127e-05
-0.4825514695453421,-0.4825514695453421,1.0007768725642563,6.692401305741146e-05
-0.48236618409487164,-0.48236618409487164,0.805213506239528,6.263981048489423e-05
-0.48223652423462227,-0.48223652423462227,0.9642760427869377,6.726178275285856e-05
-0.4821375452748725,-0.4821375452748725,0.9775939590104974,6.44394857287666e-05
-0.4819443066178792,-0.4819443066178792,0.9693977666762663,6.656570738647765e-05
-0.4818140120956741,-0.4818140120956741,0.9439087063831352,6.437316021091576e-05
-0.4816260563218748,-0.4816260563218748,0.9552591216234964,6.526069860765695e-05
-0.4813603855048768,-0.4813603855048768,0.9626064636855285,6.351779993122705e-05
-0.48123114904419706,-0.48123114904419706,0.9655318529110257,6.503795904362454e-05
-0.48112125583143095,-0.48112125583143095,0.9011230340253029,6.214259101594997e-05
-0.4809630510127135,-0.4809630510127135,1.0077096767980076,6.392367438857991e-05
-0.48082333473421385,-0.48082333473421385,0.9368173448053106,6.269252224034873e-05
-0.4807074540507529,-0.4807074540507529,0.9598361919461389,6.622084207062838e-05
-0.4805691643690352,-0.4805691643690352,0.9961445764663084,7.083571958959856e-05
-0.4803678780141126,-0.4803678780141126,0.9998377985578142,6.403946977926718e-05
-0.48013792312126496,-0.48013792312126496,0.8268260017548515,6.454440870048178e-05
-0.4799110369036953,-0.4799110369036953,0.9353993665453061,6.641003203125381e-05
-0.4798066262397242,-0.4798066262397242,0.960034829319083,6.460307668500082e-05
-0.479725497087793,-0.479725497087793,0.9842695480170335,6.733883047854926e-05
-0.4795879952428095,-0.4795879952428095,0.938076835345311,6.761998949800314e-05
-0.4794638258859777,-0.4794638258859777,1.005223350070044,6.703727703386494e-05
-0.47935563939890924,-0.47935563939890924,0.9923261379830315,6.82182519575671e-05
-0.4792340956481894,-0.4792340956481894,0.9242759720366923,6.627508262997845e-05
-0.4791549048116394,-0.4791549048116394,0.9969253243108648,6.760920370652059e-05
-0.47906407517557453,-0.47906407517557453,0.9408568981209792,6.435708454258361e-05
-0.4789671818925399,-0.4789671818925399,0.8907902098807245,6.381398893422556e-05
-0.4787854077458178,-0.4787854077458178,0.9833958403556704,6.510197249836194e-05
-0.47865928638220795,-0.47865928638220795,0.9532856902359171,6.434587750420199e-05
-0.47845711046425093,-0.47845711046425093,0.9576128006030687,6.607692100505522e-05
-0.47834117258471454,-0.47834117258471454,0.9646572092541383,6.440481929455557e-05
-0.47819217250103063,-0.47819217250103063,0.8909241947718382,6.299834453453565e-05
-0.47801501655158063,-0.47801501655158063,0.9739668048358882,6.296727427389988e-05
-0.47788029832436224,-0.47788029832436224,0.9285466705025993,6.48352058466319e-05
-0.47773703964498965,-0.47773703964498965,0.9868297870498914,6.507550419072087e-05
-0.4776314638561871,-0.4776314638561871,0.9829022747534226,6.375425226809613e-05
-0.4775083286278914,-0.4775083286278914,0.9742182642493556,6.288007262443923e-05
-0.47734147010164635,-0.47734147010164635,0.9488239177631416,6.452423145601623e-05
-0.4772143550592318,-0.4772143550592318,0.9879756098323684,6.73142192091274e-05
-0.4770879589775177,-0.4770879589775177,0.9956218192299897,6.850514234727855e-05
-0.4769149591689256,-0.4769149591689256,0.9950701583414098,6.452191197642751e-05
-0.47677301673620603,-0.47677301673620603,0.9492544450317337,6.608538930008959e-05
-0.47665494597140423,-0.47665494597140423,0.9659608481389368,6.430242715088385e-05
-0.4765079700528531,-0.4765079700528531,0.9390834388982661,6.531231320166763e-05
-0.47637390449299344,-0.47637390449299344,0.8928114618216545,6.576830505757706e-05
-0.4762824029413878,-0.4762824029413878,0.9951861517518521,6.514377123654726e-05
-0.4762030202964979,-0.4762030202964979,0.8853954395938108,6.373817695392312e-05
-0.47611709770676497,-0.47611709770676497,0.9359481943765517,6.88636877576266e-05
-0.47601969069464756,-0.47601969069464756,0.9186647335642082,6.566552063892985e-05
-0.4759057567578111,-0.4759057567578111,1.0113881250339236,6.699952190311061e-05
-0.4757182171874774,-0.4757182171874774,0.8897062851416393,6.536843451437527e-05
-0.4755691484514045,-0.4755691484514045,0.9670879813299512,6.677549027051186e-05
-0.4754619983482371,-0.4754619983482371,0.9872974691117158,6.631648533174298e-05
-0.47526244869095535,-0.47526244869095535,1.0000539152952506,6.518469558558973e-05
-0.4751435835471966,-0.4751435835471966,0.9250158571738124,6.468801432436868e-05
-0.4750183693436611,-0.4750183693436611,1.003995689678229,6.842775426627348e-05
-0.47478324977996633,-0.47478324977996633,0.9192705561980221,6.55859331203216e-05
-0.4746270250795078,-0.4746270250795078,0.9200665770577207,6.376071926673813e-05
-0.4745178795685206,-0.4745178795685206,0.9403375605073838,6.323650993819695e-05
-0.4743759434491494,-0.4743759434491494,0.9851546532966505,6.429711315846799e-05
-0.4742442128254879,-0.4742442128254879,0.9447979401995594,6.276798473634577e-05
-0.4741100757591994,-0.4741100757591994,0.9557746804681437,6.5698145733464e-05
-0.47401078745119773,-0.47401078745119773,1.0197541313814478,6.981915554108064e-05
-0.4738569287647351,-0.4738569287647351,0.9975957832413626,6.469990407732189e-05
-0.4736269019783322,-0.4736269019783322,0.9524490019050085,6.678966251045955e-05
-0.4733758794929145,-0.4733758794929145,0.9000186734981812,6.347790628664281e-05
-0.47323308945392456,-0.47323308945392456,0.9561131239216621,6.611926640701576e-05
-0.47312779145831885,-0.47312779145831885,0.9578440898577243,6.586810674445811e-05
-0.4730274347150953,-0.4730274347150953,0.9578115403067763,6.673349542185998e-05
-0.4728830792208555,-0.4728830792208555,1.0125327826813106,6.87735331048947e-05
-0.47275816819774263,-0.47275816819774263,0.9980772530602406,6.68031049705902e-05
-0.4726352705130921,-0.4726352705130921,0.9405241618366178,6.885371911364015e-05
-0.4725416674268672,-0.4725416674268672,1.001565420052766,6.710800898389723e-05
-0.47246419330331263,-0.47246419330331263,0.9472615125981505,6.365217265162045e-05
-0.47235144821434005,-0.47235144821434005,0.9541783699723221,6.549082848904217e-05
-0.47225254510321973,-0.47225254510321973,0.9717792663369316,6.601025177506657e-05
-0.47208988818133546,-0.47208988818133546,0.9372927223850578,6.438890725879044e-05
-0.47192606885564603,-0.47192606885564603,1.0155014065723003,6.454768937929841e-05
-0.4717581413080552,-0.4717581413080552,0.9672861980310229,6.642905627263736e-05
-0.47165914571096434,-0.47165914571096434,0.9388412306304966,6.547688482072971e-05
-0.4714609038528579,-0.4714609038528579,0.942983406891523,6.221424664774934e-05
-0.47130211293165303,-0.47130211293165303,0.9881621146840542,6.529581359924808e-05
-0.47115709359859465,-0.47115709359859465,0.9224024634538714,6.42548847521132e-05
-0.4710129917668837,-0.4710129917668837,0.9858609499193264,6.435929161102129e-05
-0.47090418040670556,-0.47090418040670556,0.9849046348497901,6.316520987135682e-05
-0.47071331269098665,-0.47071331269098665,0.9677775247630687,6.403564660328584e-05
-0.4705939486990246,-0.4705939486990246,0.9945032276934335,6.77456920794758e-05
-0.47047374964195116,-0.47047374964195116,0.9946667743782805,6.815402665936456e-05
-0.47030129284198663,-0.47030129284198663,1.0062769627680868,6.539629046337489e-05
-0.4701578392854572,-0.4701578392854572,0.9693891182418382,6.585679827445579e-05
-0.4700407451166484,-0.4700407451166484,0.9953175799846431,6.468096591917373e-05
-0.46993413202012563,-0.46993413202012563,0.9623981675232706,6.480950273250585e-05
-0.4697696571006418,-0.4697696571006418,0.9167467333961963,6.541297058174086e-05
-0.46965427916470615,-0.46965427916470615,0.9600746382183948,6.745369354798173e-05
-0.4695721320867506,-0.4695721320867506,0.9022611076436433,6.45830179285137e-05
-0.4694879879203654,-0.4694879879203654,0.9731257264626036,6.864090196125211e-05
-0.46939472044223296,-0.46939472044223296,0.9266824656869634,6.715809109717453e-05
-0.4693004901839686,-0.4693004901839686,1.0074256321987511,6.48628833323976e-05
-0.46916135920837404,-0.46916135920837404,0.9622610584272181,6.66511882263895e-05
-0.468993720891649,-0.468993720891649,0.9435006240959884,6.55083064733732e-05
-0.46889324968651636,-0.46889324968651636,0.995892896888748,6.524669419087233e-05
-0.4687371476700264,-0.4687371476700264,1.0016907952778227,6.874827806839131e-05
-0.46856177749855304,-0.46856177749855304,0.9999522374288027,6.28854418406876e-05
-0.46844817220949153,-0.46844817220949153,0.9432898143534537,6.697534523447206e-05
-0.468141506376287,-0.468141506376287,0.9849404647196813,6.494550955394446e-05
-0.467981204048283,-0.467981204048283,0.9356726715337202,6.416479854693424e-05
-0.4678688775658884,-0.4678688775658884,0.9332176963828355,6.399148610654971e-05
-0.46769597764364335,-0.46769597764364335,1.007824127670039,6.359899748339078e-05
-0.46756628927132626,-0.46756628927132626,0.952901275319579,6.356150467519272e-05
-0.46745283707487034,-0.46745283707487034,0.9700556460456395,6.582206562815468e-05
-0.4673335302027226,-0.4673335302027226,1.0101945746610603,6.820552099465889e-05
-0.4671816720829611,-0.4671816720829611,0.999183865771621,6.445719684862659e-05
-0.46693832796941026,-0.46693832796941026,0.94286592158208,6.806234722632419e-05
-0.46667389867611747,-0.46667389867611747,0.9107688336414966,6.58035389365119e-05
-0.46654866301923903,-0.46654866301923903,1.0068665429986576,6.427359195614372e-05
-0.46648199787841804,-0.46648199787841804,0.973363806654074,6.6286535544325e-05
-0.46638627606726,-0.46638627606726,0.9612915477601962,6.867144188350058e-05
-0.4662656987005903,-0.4662656987005903,0.9889754516288874,6.955086331254755e-05
