time,time,flux,flux_err
-0.4990174339036457,-0.4990174339036457,0.9998153531258377,0.0003073072760535722
-0.4969984896488313,-0.4969984896488313,0.9997281905512442,0.0003070452782201041
-0.4950485689434572,-0.4950485689434572,0.999790798365965,0.0002803050461519162
-0.4939080200929311,-0.4939080200929311,1.0000665845449128,0.0002808745952608245
-0.4924242132270592,-0.4924242132270592,0.999913917233228,0.0002803605258166578
-0.4905395368237805,-0.4905395368237805,0.9997562404936577,0.0002809308838286659
-0.48869926445113376,-0.48869926445113376,0.999739722450794,0.0002802930754890806
-0.487713950304169,-0.487713950304169,0.9995924525174331,0.000280235086711044
-0.4860976851836313,-0.4860976851836313,0.9996917241566861,0.00028049163820997365
-0.4846210205309035,-0.4846210205309035,1.000082106234213,0.00028026734428442953
-0.48298614479936075,-0.48298614479936075,1.0000265394531653,0.0002803663181785813
-0.48112985954940085,-0.48112985954940085,0.9998512430014536,0.00028036011503299485
-0.47984182239961226,-0.47984182239961226,0.9999866694081814,0.0002804984387306276
-0.47819785036554097,-0.47819785036554097,0.9999659127230893,0.00028025320568960267
-0.4766203070008487,-0.4766203070008487,1.0000452886877762,0.000280878732464051
-0.4747828709179885,-0.4747828709179885,1.0002588714516174,0.00028039966404006395
-0.4737967233377276,-0.4737967233377276,1.0002188726469394,0.0002803661511699909
-0.4721792429321795,-0.4721792429321795,0.999838267380941,0.00028061603139228127
-0.47070332591611075,-0.47070332591611075,1.0000712559261984,0.00028024519822813897
-0.4690677759768732,-0.4690677759768732,0.9996783467094466,0.00028037433625195793
-0.4672113024513237,-0.4672113024513237,1.0000659897481547,0.00028045152657345463
-0.4659219231863972,-0.4659219231863972,1.0001412942177252,0.00028030857803674466
-0.4642787390919693,-0.4642787390919693,1.000330208309497,0.0002803310074642455
-0.4627012246492086,-0.4627012246492086,0.999769509326363,0.00028081138905825144
-0.46080238694921716,-0.46080238694921716,0.9996394793799253,0.000280430760436077
-0.4595948886446422,-0.4595948886446422,0.9995677032766418,0.0002802492938582414
-0.4580171980909654,-0.4580171980909654,0.9997784632702287,0.00028054850604891006
-0.45634502072352917,-0.45634502072352917,0.9996729651284267,0.0002802612855724915
-0.4545138206362026,-0.4545138206362026,0.9999875302423169,0.0002845411598909501
-0.4532141269577551,-0.4532141269577551,0.9999281792110672,0.00028026105979996974
-0.4520021693468152,-0.4520021693468152,0.9996973838602461,0.0002803759812675729
-0.45035976849467263,-0.45035976849467263,0.9998684765639851,0.00028030177248428433
-0.4488455080980202,-0.4488455080980202,0.9992801873202227,0.00028069124734357847
-0.4472294553954271,-0.4472294553954271,1.0000153974544044,0.0002803654048172322
-0.4459627307478513,-0.4459627307478513,0.9996090434829231,0.00028032629879388255
-0.44434768283972514,-0.44434768283972514,0.9997856987579332,0.0002802203525546495
-0.4433482274886046,-0.4433482274886046,0.9999791643258341,0.00028343059350328156
-0.4415819370340614,-0.4415819370340614,1.0003353460843702,0.00028035455967745674
-0.43971169547512545,-0.43971169547512545,0.9999360096545429,0.0002832338304169167
-0.43855685132584765,-0.43855685132584765,0.9999491014517133,0.00028042370213152547
-0.4373058199533261,-0.4373058199533261,1.000439470664435,0.000280249001776831
-0.4353265492907667,-0.4353265492907667,1.0003005673159677,0.00028067343551960904
-0.4337316434000968,-0.4337316434000968,0.9999925051957581,0.0002803932442181607
-0.43256774378896806,-0.43256774378896806,1.0000191286350462,0.00028034448980954424
-0.4311465126353141,-0.4311465126353141,0.9998773857588276,0.00028024639967076816
-0.4297147018376563,-0.4297147018376563,0.9998489147924128,0.000282178993955228
-0.4284992949324078,-0.4284992949324078,1.0001698034391837,0.00028032449715378535
-0.4264106296825048,-0.4264106296825048,1.000116338460175,0.0002820346714156717
-0.4248715846617415,-0.4248715846617415,0.9997286460231519,0.0002805141582435845
-0.42385190123459326,-0.42385190123459326,0.9993391802656146,0.00028029478504524577
-0.4222201934106124,-0.4222201934106124,1.0000381807418333,0.0002803087694716024
-0.420350167088327,-0.420350167088327,1.0001626332778462,0.00028071458203424073
-0.418838253456488,-0.418838253456488,0.9999969052441662,0.00028036352880754295
-0.4172358420961245,-0.4172358420961245,1.00012883143063,0.0002803522036580228
-0.41579822535859423,-0.41579822535859423,1.0004078899445463,0.0002814411457171625
-0.41457664262052274,-0.41457664262052274,1.0000267069492719,0.00028030946231495435
-0.41241451656169376,-0.41241451656169376,1.0002880870031385,0.0002812981273636058
-0.4104415853144019,-0.4104415853144019,0.9999143252163382,0.00028034377039492045
-0.4094570170796942,-0.4094570170796942,1.0002074271462167,0.0002803272565056294
-0.4078418551311188,-0.4078418551311188,1.0000627689649493,0.00028053700754572433
-0.4063645009315223,-0.4063645009315223,0.9999254772340942,0.0002802247295041311
-0.4047302523176768,-0.4047302523176768,1.0003858212381131,0.0002803799432064118
-0.40287413456680954,-0.40287413456680954,0.9999844681857537,0.00028035674792774426
-0.4017338924124488,-0.4017338924124488,0.9997584976586419,0.00028074054412432326
-0.4005596249990049,-0.4005596249990049,1.000184154042819,0.0002803901562755422
-0.3990609187480004,-0.3990609187480004,0.9998865597051431,0.00028094524792778724
-0.39710825797956206,-0.39710825797956206,1.000101342395904,0.0002803541122035437
-0.39601091563890806,-0.39601091563890806,1.000308259708343,0.00028024417499453614
-0.3946366729585861,-0.3946366729585861,0.999800682105165,0.0002802918945331826
-0.39304374630664823,-0.39304374630664823,1.0000117932558978,0.00028051380836627185
-0.39135168258435443,-0.39135168258435443,0.9997084685048909,0.0002802360687782464
-0.3897239924648602,-0.3897239924648602,1.0001592089202416,0.0002803219504870137
-0.3881451928136812,-0.3881451928136812,0.9998406104850623,0.0002805115378184961
-0.38674444829084675,-0.38674444829084675,1.000388365564326,0.0002802415746551995
-0.38514087564108196,-0.38514087564108196,0.9997798338392082,0.00028082165723718406
-0.3831935491129116,-0.3831935491129116,1.0000543225759952,0.00028031031924181146
-0.38208995664826945,-0.38208995664826945,0.9998667417432294,0.0002803633575814232
-0.3807203615113394,-0.3807203615113394,0.9998249038939434,0.00028030871854909517
-0.3791266252810601,-0.3791266252810601,1.0002131350609544,0.000280471806250166
-0.3774346132355276,-0.3774346132355276,1.000177442610943,0.00028027492499952566
-0.3759726033109473,-0.3759726033109473,0.9997762738710337,0.0002865982123454216
-0.3744784701812023,-0.3744784701812023,1.000067597518609,0.00028047224268118004
-0.37322053845637126,-0.37322053845637126,0.9999115539435142,0.00028016854710580794
-0.3714596282981802,-0.3714596282981802,1.0000950164757512,0.00028029815593125934
-0.3696757946374419,-0.3696757946374419,0.9999647383777026,0.00028081335933608084
-0.3682313810262713,-0.3682313810262713,1.0002598495748145,0.00028033104904457215
-0.3668042044584581,-0.3668042044584581,1.0001581434935383,0.0002803234939796996
-0.3652096556870674,-0.3652096556870674,0.9999975510977579,0.00028043965602520004
-0.36335669066393167,-0.36335669066393167,0.9998743076679227,0.000280312212424955
-0.36174425735662225,-0.36174425735662225,0.9999358544194333,0.00028445988557212673
-0.36054626160548653,-0.36054626160548653,0.9999360685195555,0.0002804718273048445
-0.3593041048698069,-0.3593041048698069,0.9996946245834527,0.0002802248494237854
-0.35754094103249373,-0.35754094103249373,1.0001564972933479,0.000280353331936044
-0.35601599607616663,-0.35601599607616663,1.0000306682182962,0.0002808814879315788
-0.3545006189102423,-0.3545006189102423,0.9997433569744008,0.0002803618885121045
-0.3531817334522202,-0.3531817334522202,1.000180235663407,0.00028041975557052754
-0.35171389212846405,-0.35171389212846405,0.9998915003172903,0.00028326762746785515
-0.3506305612885626,-0.3506305612885626,1.0002999496302798,0.0002802898214784961
-0.3485108833272534,-0.3485108833272534,0.9998377802393941,0.00028321704208926854
-0.34712161351853865,-0.34712161351853865,0.9995919534923037,0.00028033281525038765
-0.3459080598790024,-0.3459080598790024,1.0001887946911832,0.0002803006086081021
-0.34441004374748446,-0.34441004374748446,0.9997577339443857,0.0002802670035897261
-0.3424546544396435,-0.3424546544396435,0.9998927578011452,0.0002806431064020396
-0.34079320554810694,-0.34079320554810694,0.9999194162822939,0.00028037693995640133
-0.3393075838488585,-0.3393075838488585,0.9998639383268593,0.000280360255120729
-0.33779680151346836,-0.33779680151346836,1.00047013528857,0.0002821247373152807
-0.3367134260464809,-0.3367134260464809,1.0000351793962312,0.00028017073370575245
-0.3345892338082194,-0.3345892338082194,1.000009227302962,0.0002820642085148146
-0.3329853485549393,-0.3329853485549393,1.0000156084216671,0.0002804238875650039
-0.3318297932979476,-0.3318297932979476,0.9999265969368837,0.00028023577031632856
-0.3306020641757641,-0.3306020641757641,0.9995206154304593,0.00028035803457629384
-0.3288991264955257,-0.3288991264955257,1.000415439869903,0.00028053904619205073
-0.32721832304887355,-0.32721832304887355,1.0001015965467501,0.000280482358726656
-0.32571700980624885,-0.32571700980624885,0.9993754399698537,0.00028030926123016203
-0.3240945777455636,-0.3240945777455636,0.9998545153051481,0.00028037406997472535
-0.3231501237307384,-0.3231501237307384,0.9999843734153936,0.0002812182791456363
-0.32107359518558953,-0.32107359518558953,1.0000111158222746,0.0002812466317932121
-0.3188490446220385,-0.3188490446220385,1.0001751204646734,0.0002803606514527854
-0.3177573637403839,-0.3177573637403839,0.9997595257401344,0.00028028530761127984
-0.31637890840283944,-0.31637890840283944,0.9994435053604521,0.0002802807156615164
-0.31478671505101374,-0.31478671505101374,0.9998608873265147,0.000280518783343462
-0.313094607815583,-0.313094607815583,1.0003495134190987,0.00028030056141362667
-0.31146828540877325,-0.31146828540877325,0.9999137723778496,0.0002803587437865994
-0.3099549410508189,-0.3099549410508189,0.9997489006728731,0.0002807784219991477
-0.3088795830350136,-0.3088795830350136,1.0002255295508136,0.0002803614793294644
-0.3071229974120797,-0.3071229974120797,0.999695786354625,0.0002803795510887054
-0.3053379023549496,-0.3053379023549496,1.0001803299889762,0.0002809630888182973
-0.30399456799495966,-0.30399456799495966,1.000127948717693,0.00028022920859282303
-0.3027636972394248,-0.3027636972394248,0.9998347989998454,0.00028030258002937985
-0.30118306563381336,-0.30118306563381336,1.00026154012364,0.0002804624945919249
-0.29957058691288696,-0.29957058691288696,0.999817104467029,0.0002803891149261215
-0.29787835223905856,-0.29787835223905856,1.000229788981987,0.000280386968372995
-0.29622541077333153,-0.29622541077333153,0.9999636949551025,0.0002805113595427502
-0.2949628752649005,-0.2949628752649005,1.0000472418153465,0.00028022587761309244
-0.2932040206331294,-0.2932040206331294,1.0000150491684732,0.0002803543825015527
-0.29141958507389065,-0.29141958507389065,1.0003321571884225,0.00028080472722390415
-0.2900771762506338,-0.2900771762506338,1.000288175163964,0.0002803295640741065
-0.288844747904659,-0.288844747904659,0.9995025584129014,0.0002802897927006586
-0.28727029818546723,-0.28727029818546723,1.0000117073286983,0.00028044508782130615
-0.28564954101748297,-0.28564954101748297,0.9998233512147247,0.000280314911874875
-0.2840851743654639,-0.2840851743654639,0.9999759474162595,0.0002863246203241303
-0.28278363198041917,-0.28278363198041917,1.0001377867662766,0.00028034995771577213
-0.2815728657973523,-0.2815728657973523,0.9999449496244125,0.0002803322480588504
-0.2799298247300612,-0.2799298247300612,0.9999524767368648,0.0002802464909736675
-0.27835231621793355,-0.27835231621793355,0.9999331261211175,0.00028082469180395694
-0.27645339099835836,-0.27645339099835836,1.000076142850213,0.00028049452076409163
-0.2752468021484674,-0.2752468021484674,0.9998979013605187,0.00028030016463408754
-0.27366876682426666,-0.27366876682426666,1.0000747797059248,0.0002804220398197023
-0.27199538628410663,-0.27199538628410663,1.0003172739461363,0.00028033510050334625
-0.2701646422232443,-0.2701646422232443,1.0001690122039075,0.00028447196806027095
-0.26886536204910955,-0.26886536204910955,0.9998834169125133,0.0002802640213661842
-0.26765313927608075,-0.26765313927608075,1.0002439676252977,0.0002803908758374854
-0.2660108798452711,-0.2660108798452711,1.000352441290888,0.00028028592498363614
-0.2644963875405665,-0.2644963875405665,1.000093534734374,0.00028082130725381473
-0.2628806313972746,-0.2628806313972746,0.9997980421709862,0.0002803867826337346
-0.26161421653305295,-0.26161421653305295,0.9997194710386728,0.00028038591208375007
-0.25999946765587084,-0.25999946765587084,0.9999662642756988,0.00028021199323878196
-0.2589990466018207,-0.2589990466018207,0.9997330088330297,0.00028322248769414605
-0.2572327875466726,-0.2572327875466726,0.9998148661618554,0.000280262686003682
-0.2553629245085176,-0.2553629245085176,1.0002015475017931,0.00028302576413367106
-0.254207625939307,-0.254207625939307,1.0002536237028337,0.0002804840364637571
-0.25295752009769784,-0.25295752009769784,1.0002816306899986,0.0002802759596025583
-0.25097774519381344,-0.25097774519381344,1.000097433878073,0.0002806422099338572
-0.2492711790386238,-0.2492711790386238,1.0000059830543138,0.00028042586344062835
-0.24784140815318095,-0.24784140815318095,0.9998394432642824,0.0002804438911089657
-0.24608437199058245,-0.24608437199058245,0.9997101432287016,0.0002802337157209898
-0.2450786293047713,-0.2450786293047713,1.0001827009821747,0.0002820785132793345
-0.24331254949356662,-0.24331254949356662,1.0001889944524187,0.000280277519486908
-0.24141269688479952,-0.24141269688479952,1.0000082925754508,0.0002819277134297513
-0.24000979184929747,-0.24000979184929747,1.000204571456218,0.0002803467276135595
-0.23902588571509115,-0.23902588571509115,0.999922083942858,0.00028040202295011036
-0.23741171357251006,-0.23741171357251006,1.000097292412663,0.0002806257786716165
-0.23562885021674446,-0.23562885021674446,0.9998332825225926,0.00028036836207042195
-0.23430006019989377,-0.23430006019989377,1.0001364944894964,0.0002803754253389157
-0.232444088444754,-0.232444088444754,1.0001626109107722,0.00028029238574925775
-0.2313010836733156,-0.2313010836733156,0.9998808943417995,0.0002811760660228239
-0.22982194722135318,-0.22982194722135318,1.0001559767479127,0.00028027908583385156
-0.22757276029733475,-0.22757276029733475,0.9998601632957062,0.0002811779383110849
-0.22589484370982973,-0.22589484370982973,1.000299795887579,0.00028033648351403074
-0.2248167945217574,-0.2248167945217574,1.0000948492375275,0.00028020217132898167
-0.22324427873754757,-0.22324427873754757,0.9993738390475555,0.00028048399519731284
-0.2216397701704409,-0.2216397701704409,0.9998582171245166,0.0002802879726911631
-0.21999472431853065,-0.21999472431853065,0.9996720394368493,0.0002804074386195001
-0.21825464446665138,-0.21825464446665138,1.0001740773344485,0.00028031285955657865
-0.21723820191036794,-0.21723820191036794,0.9999296300705106,0.00028073701273358717
-0.21559365616776632,-0.21559365616776632,1.0001459126167513,0.00028030528230128663
-0.2140160959912464,-0.2140160959912464,0.9999544702679728,0.0002808152169504642
-0.21217659474132233,-0.21217659474132233,0.999378208637115,0.00028031864216325415
-0.2111910546234867,-0.2111910546234867,0.9999004092141428,0.00028036471145316007
-0.20957445870517405,-0.20957445870517405,1.0000488582627218,0.0002806167644325417
-0.2080979991311324,-0.2080979991311324,0.999997422535903,0.0002802694205929986
-0.20646293748068273,-0.20646293748068273,1.000066833115687,0.0002804455828798942
-0.20460660179160187,-0.20460660179160187,0.9999956943739591,0.0002803439495969999
-0.20331819861239636,-0.20331819861239636,0.9994533018686761,0.00028041819140966264
-0.20167444253747818,-0.20167444253747818,1.0002365907188544,0.00028028718341638434
-0.20009690584702183,-0.20009690584702183,0.9997352528098273,0.0002807532149007161
-0.19826024744543247,-0.19826024744543247,0.9996975181804688,0.000280330739313813
-0.1972738700591435,-0.1972738700591435,1.000099705712053,0.0002803761605549342
-0.19565605662864982,-0.19565605662864982,0.9999217516892145,0.00028055862588433707
-0.19418034271729995,-0.19418034271729995,0.9999338303930756,0.0002802418673177773
-0.19254461192394956,-0.19254461192394956,0.9999953575553289,0.0002803704513936414
-0.1910252301291621,-0.1910252301291621,1.0000870659671885,0.00028598416426473065
-0.18987476292531938,-0.18987476292531938,0.99981967800909,0.00028052077931575925
-0.18847666197325452,-0.18847666197325452,1.0002308232538142,0.0002802547551379015
-0.1868719286743726,-0.1868719286743726,1.0001652983227767,0.0002808666356888217
-0.18493092347634957,-0.18493092347634957,1.0003103179041424,0.00028036338708230593
-0.18370054206679926,-0.18370054206679926,0.9999302602005697,0.00028032970611193726
-0.1820269603304041,-0.1820269603304041,0.9999234211145944,0.0002803386202698223
-0.1806327220183448,-0.1806327220183448,0.9997404856799592,0.0002803729174923474
-0.17862728531181346,-0.17862728531181346,1.0004416371364007,0.0002803863607568348
-0.17710682285833174,-0.17710682285833174,0.9998529809593679,0.0002843414146421286
-0.17595380726852455,-0.17595380726852455,1.00007749104082,0.0002804785214547851
-0.17455791463071363,-0.17455791463071363,1.0001506318138256,0.0002802656748014305
-0.17295221785243484,-0.17295221785243484,1.0002616996135547,0.0002806913944934122
-0.17129350718241768,-0.17129350718241768,0.9999776060946542,0.0002803888365323054
-0.16996334895738982,-0.16996334895738982,0.9997533622356884,0.0002803826148194558
-0.16853985349225695,-0.16853985349225695,0.9998530664483903,0.0002802441438442732
-0.16710859835875452,-0.16710859835875452,1.000486970204492,0.0002831221541272181
-0.16589767544865025,-0.16589767544865025,0.9998701536018061,0.0002803593642023506
-0.16380537941295187,-0.16380537941295187,0.9997742676839849,0.00028284048711418625
-0.16251880345298558,-0.16251880345298558,1.0000442910907617,0.0002803977848778113
-0.16137365540125756,-0.16137365540125756,0.9998684726159215,0.0002803246547482814
-0.15961291395287844,-0.15961291395287844,1.0002398943979045,0.00028032632706071305
-0.15774660717434016,-0.15774660717434016,0.9998783420696615,0.0002806983221080949
-0.15623337429133244,-0.15623337429133244,1.0001796151671356,0.000280291708719097
-0.1546320470610226,-0.1546320470610226,0.99975704163901,0.0002803019029263467
-0.1531920109933708,-0.1531920109933708,1.0000691114278353,0.00028195831032425155
-0.15197492127481382,-0.15197492127481382,0.9999465057894126,0.00028037697709254385
-0.14988761656131827,-0.14988761656131827,1.0000425053684592,0.00028183260192484556
-0.14834703873857508,-0.14834703873857508,1.000141043036093,0.00028036360215084
-0.14732926570868585,-0.14732926570868585,1.0003834101570852,0.00028045510918248633
-0.1459470296431391,-0.1459470296431391,1.0002624051076199,0.0002802820991297998
-0.1441844968801888,-0.1441844968801888,0.9997215155137651,0.0002806212426587513
-0.14252933384486824,-0.14252933384486824,0.9997451120311991,0.00028031564211667114
-0.14103824806516058,-0.14103824806516058,1.000144730125059,0.0002804373266364887
-0.1395271294473787,-0.1395271294473787,0.9998235424811316,0.0002812565296242797
-0.1384479044136242,-0.1384479044136242,0.9996813340832466,0.0002802292392529689
-0.136296883666364,-0.136296883666364,1.000086673507598,0.00028114046318190454
-0.1342071120001492,-0.1342071120001492,0.9998756013851228,0.0002804204524399052
-0.1332313973660348,-0.1332313973660348,0.9998242864018358,0.00028016862367367593
-0.13161109052307438,-0.13161109052307438,1.0001285336811252,0.00028032678393143996
-0.1302130270967609,-0.1302130270967609,0.9998311760965773,0.00028051478625873975
-0.12839698697716811,-0.12839698697716811,1.0000414821097796,0.00028028276749572905
