time,time,flux,flux_err
-0.499897277270793,-0.499897277270793,0.9995154120189863,0.001569562228463146
-0.4997484196239384,-0.4997484196239384,1.0004603664400715,0.001544927533409159
-0.4995643247064436,-0.4995643247064436,1.0011956032417948,0.0015920083315969918
-0.4994470171339344,-0.4994470171339344,0.9989794503474709,0.0010130358338091465
-0.4993240709300153,-0.4993240709300153,1.0001469075588916,0.0011572518761468066
-0.4991681581916055,-0.4991681581916055,0.9995691609197962,0.0017367026272615987
-0.499056292026944,-0.499056292026944,0.9989718583093126,0.001299151754402062
-0.49899012823589145,-0.49899012823589145,0.9996564292300946,0.0013340621473270648
-0.49888023012608756,-0.49888023012608756,0.9994700341309093,0.0013883766638063183
-0.4986846225729096,-0.4986846225729096,0.9991658906403,0.0009800492866550439
-0.4985530631209258,-0.4985530631209258,1.0000787337235484,0.0015158643344160764
-0.4984767901478335,-0.4984767901478335,0.9995854525883324,0.0011504781982476656
-0.4983223341871053,-0.4983223341871053,0.9995339095104698,0.0012514282123790832
-0.49820079950150103,-0.49820079950150103,1.0005605612762314,0.0014928266359499802
-0.4980581697804155,-0.4980581697804155,0.9993889116958122,0.00104084368349882
-0.49792158051568547,-0.49792158051568547,0.9989540852933144,0.001494619328302055
-0.49780744227173274,-0.49780744227173274,1.0000669291107602,0.0011695776767589865
-0.4976921428809874,-0.4976921428809874,1.000226655683888,0.0011841662069204254
-0.49757878374366554,-0.49757878374366554,0.9994606861218823,0.0013954726757522376
-0.4975025938809267,-0.4975025938809267,1.0004458724616356,0.0011724745042144586
-0.4973963930271566,-0.4973963930271566,1.0010131464186331,0.0017072219629243417
-0.4972793239081511,-0.4972793239081511,1.000822430980876,0.0013653685764598218
-0.4971459735737881,-0.4971459735737881,0.9995220922930412,0.0010553506263578124
-0.49701616700476736,-0.49701616700476736,1.0019507170690898,0.0015342554204221992
-0.49689500551467064,-0.49689500551467064,1.0010494994224897,0.0012202431698327596
-0.4967834602241055,-0.4967834602241055,1.000270943412859,0.001433424415077994
-0.4967035488880356,-0.4967035488880356,0.9986814656475996,0.0011388904426220055
-0.4966202579613309,-0.4966202579613309,0.9993470627521079,0.001463057130097332
-0.4964749154954916,-0.4964749154954916,1.0003803450010582,0.0014404770025260847
-0.4963435771220247,-0.4963435771220247,0.9999318481174834,0.0013013902053409675
-0.496202800842002,-0.496202800842002,1.0010022951411404,0.001422383202495795
-0.49615295499679635,-0.49615295499679635,1.0014415922457682,0.001554912974205254
-0.49602146616234677,-0.49602146616234677,0.9986967815646048,0.0011799783390994954
-0.49591211381484757,-0.49591211381484757,1.0012696797793073,0.0012418203718085924
-0.495859070084407,-0.495859070084407,1.0000404665931983,0.0017020424133641836
-0.4957004990486894,-0.4957004990486894,0.9994101192949574,0.001309457004372096
-0.4955805816774955,-0.4955805816774955,1.000280146349744,0.0014233233998391783
-0.49546092066157144,-0.49546092066157144,0.9997088606277483,0.0014707063662262516
-0.495350136423076,-0.495350136423076,1.0000658692022664,0.001093595946086435
-0.4952646994948736,-0.4952646994948736,0.9994444716483288,0.00147209436581493
-0.49513102349010296,-0.49513102349010296,1.0009006644304925,0.0016950473277161568
-0.4950345123288571,-0.4950345123288571,1.0005833246270637,0.0013767226539122622
-0.49488694938772826,-0.49488694938772826,0.9998334774383999,0.0015017854640188633
-0.49477414089487864,-0.49477414089487864,1.0015845361922788,0.0014342523204860771
-0.49470686365530125,-0.49470686365530125,0.9982959511751475,0.00116617978826252
-0.4945841101653059,-0.4945841101653059,0.999326656270072,0.001205717428517303
-0.4944123116889386,-0.4944123116889386,0.9982346962166041,0.001120868474627427
-0.4942895402215072,-0.4942895402215072,0.9990488282648936,0.0016918625272040171
-0.4941329825000139,-0.4941329825000139,1.0015339064831303,0.001341384781200336
-0.49407378397590945,-0.49407378397590945,0.9987240058057594,0.001013372096634406
-0.4939903270365903,-0.4939903270365903,0.9992837581393769,0.001463194640495919
-0.49384028296044563,-0.49384028296044563,1.0002864921929822,0.0011097282927871066
-0.4936300541536184,-0.4936300541536184,1.0000679610085472,0.0011242832434223853
-0.49355235672410347,-0.49355235672410347,0.9990468525483674,0.0012077681356559395
-0.49347382870619183,-0.49347382870619183,1.0001376753482503,0.0015338950462457312
-0.4933720857821754,-0.4933720857821754,0.9982983860978887,0.0015154027591065878
-0.49321200338890775,-0.49321200338890775,1.0004793576056623,0.00121348523344038
-0.49310353186447176,-0.49310353186447176,1.0004913428620414,0.0017325273411964675
-0.49300895546621176,-0.49300895546621176,1.0001187591706246,0.0011417552010921231
-0.4929239086806774,-0.4929239086806774,0.9996654206088635,0.0014673250728803977
-0.4928297823076718,-0.4928297823076718,0.9992511749667468,0.0010344315746698785
-0.4927335248881718,-0.4927335248881718,1.0005097366416316,0.001317905900208115
-0.4926780823370791,-0.4926780823370791,0.9988680178191245,0.0014513217560397054
-0.49253639151138484,-0.49253639151138484,0.99972205995074,0.001547166325618576
-0.49236075314838673,-0.49236075314838673,1.0017793538336885,0.0018362258807917153
-0.4923011428312748,-0.4923011428312748,0.999875062380387,0.0010960595146135637
-0.4921915992279537,-0.4921915992279537,0.999585803416972,0.0013046087448646223
-0.49209816719812804,-0.49209816719812804,0.999544598608964,0.0010845966960738758
-0.49202862683741844,-0.49202862683741844,1.0001936244534366,0.0017823074380044727
-0.49192457895551345,-0.49192457895551345,1.0003989016574741,0.0012289228936226784
-0.4917817034118343,-0.4917817034118343,1.0012365005486097,0.0016039185615718155
-0.49167278382228685,-0.49167278382228685,1.0010920814143986,0.0015409313260454417
-0.4915873593912693,-0.4915873593912693,0.9996856678075773,0.0012899481657852306
-0.49149340470175956,-0.49149340470175956,1.000406373474117,0.0015905960337606391
-0.49138231290562545,-0.49138231290562545,1.001171833919914,0.0011785804607501024
-0.4912649135614629,-0.4912649135614629,0.9997966729942576,0.001397422084337183
-0.4911440508760279,-0.4911440508760279,1.0006303328551527,0.001682775373293769
-0.4910581015428761,-0.4910581015428761,0.9994780908885754,0.0010890175176103164
-0.49092178496212,-0.49092178496212,0.9997409047295246,0.001577473051665152
-0.49077226249646627,-0.49077226249646627,0.9994532657287646,0.0012875878494390154
-0.49064717869332525,-0.49064717869332525,0.9995695821399316,0.0014249129672355672
-0.4905395728928852,-0.4905395728928852,1.000722879578961,0.001191476317032402
-0.4904002487077378,-0.4904002487077378,0.9996117559202103,0.0012878085334373497
-0.49025769945728825,-0.49025769945728825,1.0012390611890898,0.0010723379377161842
-0.4901349926367402,-0.4901349926367402,1.0003144004285223,0.0014862689179403923
-0.49002390155073955,-0.49002390155073955,0.9992900425424797,0.0012193618647233892
-0.4899230636816355,-0.4899230636816355,0.9978338609228097,0.0012010444090504364
-0.48984734770056093,-0.48984734770056093,1.000525225402088,0.0015148507786292998
-0.4897504611086333,-0.4897504611086333,0.9999879978574592,0.0013178259703565715
-0.4896040303225163,-0.4896040303225163,0.9996008985852367,0.0010925649263433135
-0.4894656655553263,-0.4894656655553263,1.0007966286684167,0.0014579899836313973
-0.4893495292402804,-0.4893495292402804,1.0002095800021285,0.0011272162348666143
-0.48927646310039563,-0.48927646310039563,1.000521576656651,0.0012441642298881464
-0.48918167293886655,-0.48918167293886655,0.9991532436201537,0.001507099332460493
-0.4890915924363071,-0.4890915924363071,1.0002589364200398,0.0010379500898029402
-0.48893236749572677,-0.48893236749572677,1.001164664691407,0.0012590980930878943
-0.48876488927344325,-0.48876488927344325,1.0000233369010652,0.0013430922599412542
-0.4886398378337617,-0.4886398378337617,0.9990646752346418,0.0013206413602594492
-0.48855488769186195,-0.48855488769186195,1.0007092147420238,0.001202019279110446
-0.48847680731414583,-0.48847680731414583,0.9997054320285143,0.0013391101259466436
-0.4883263761847047,-0.4883263761847047,0.9990879944723409,0.0012753963453863728
-0.4881494001383544,-0.4881494001383544,0.9998439572836411,0.0014728131865893938
-0.48807641901948956,-0.48807641901948956,0.9994098705772785,0.001155164894624728
-0.4880032703018514,-0.4880032703018514,1.0007624951497696,0.0010708356553927687
-0.4878694587969221,-0.4878694587969221,0.9998136777076365,0.001388276423789084
-0.4877826435913448,-0.4877826435913448,0.9990639515719841,0.0014917765440945455
-0.4877571826495114,-0.4877571826495114,0.9995989143776101,0.0009577112986179272
-0.4875771958264522,-0.4875771958264522,1.0001980208805967,0.0013642302964231561
-0.4874530416127527,-0.4874530416127527,1.0002085831584602,0.0011736010285207847
-0.48737850727920884,-0.48737850727920884,1.000011635139457,0.0010214850338677297
-0.4872744320819038,-0.4872744320819038,1.0001441623471845,0.0010380385946466113
-0.48720688469329615,-0.48720688469329615,0.9994122626825177,0.001428165389152478
-0.48706870868918484,-0.48706870868918484,0.9988746286203144,0.0012748239931543912
-0.48695475099375474,-0.48695475099375474,0.9994971233263052,0.0010774374579480678
-0.48689306908636354,-0.48689306908636354,0.9995783833101164,0.0014794327965082343
-0.48681495406926845,-0.48681495406926845,1.0001826079940113,0.001474624413804048
-0.486721846133878,-0.486721846133878,0.999756502096066,0.001107050991003495
-0.48658035941480193,-0.48658035941480193,1.0002346430019178,0.001385488220699859
-0.4864162192752701,-0.4864162192752701,0.9988074429451566,0.0012125212255771273
-0.4862461525495746,-0.4862461525495746,0.9986113875296816,0.001511754593533801
-0.48618368838651804,-0.48618368838651804,1.0005790695512153,0.001104787071686754
-0.4861111684542266,-0.4861111684542266,0.9999133610306259,0.0015438094130651079
-0.4859133173493319,-0.4859133173493319,1.0000480488426369,0.0013961515706211714
-0.4857796308628167,-0.4857796308628167,0.9999859952871821,0.0010794449074130181
-0.4856194585081539,-0.4856194585081539,1.0001279175348943,0.0014710843458041428
-0.4854998572031036,-0.4854998572031036,1.0004122307146912,0.0012436437808354722
-0.4853902996619581,-0.4853902996619581,1.0016219805034918,0.0011555930762359224
-0.4853111296339193,-0.4853111296339193,1.0005021216550225,0.001190762342932712
-0.4851832596483291,-0.4851832596483291,0.9989413897482677,0.001065144032074478
-0.48507396028289806,-0.48507396028289806,0.9997373899612685,0.001596927590295318
-0.48489603799243924,-0.48489603799243924,0.9996988850024454,0.0016221731518409224
-0.48476838415663226,-0.48476838415663226,0.9998495561292573,0.0010964325771131126
-0.4846663608608651,-0.4846663608608651,0.9988654656683664,0.0012712863412511351
-0.4845605575159425,-0.4845605575159425,1.00037939717633,0.0011497136099020515
-0.48443051845242735,-0.48443051845242735,0.9991642948717132,0.0016543434698394741
-0.4843349619710352,-0.4843349619710352,0.9992883429464319,0.0010921527829253993
-0.4842108520984766,-0.4842108520984766,0.9998285172905298,0.0012390649297906859
-0.48409783402457834,-0.48409783402457834,1.0003168315362163,0.0010229309612767828
-0.48399972402257846,-0.48399972402257846,1.0000494523672732,0.0013541772603080232
-0.48386524635425304,-0.48386524635425304,0.9987523062051448,0.0009143894661252713
-0.4838055870306562,-0.4838055870306562,1.001002128759159,0.001111205838797218
-0.4837127695835079,-0.4837127695835079,1.0006120637153706,0.0010894918635485703
-0.48362044031237017,-0.48362044031237017,0.9993420847404305,0.001177059173444333
-0.4834970602372778,-0.4834970602372778,1.0010018647759638,0.001166748691833525
-0.4834015996137168,-0.4834015996137168,1.0002941545385429,0.0013419876211639226
-0.483240940196265,-0.483240940196265,0.9999991052000687,0.0011395534800794466
-0.48306799163256076,-0.48306799163256076,0.9995698069389736,0.0014999054847849578
-0.4830187358689727,-0.4830187358689727,0.9997967318975535,0.001048136103400601
-0.4828904913825681,-0.4828904913825681,1.000369771999385,0.0013034125335402076
-0.4827888656305731,-0.4827888656305731,0.9994560022396743,0.0011799783867805203
-0.4827048367966199,-0.4827048367966199,1.0001826205153683,0.001501774541022371
-0.48254074267752,-0.48254074267752,1.0008787069920593,0.001186758136996614
-0.48243873377214186,-0.48243873377214186,0.999410883167372,0.0014221041030957472
-0.48236024956422624,-0.48236024956422624,1.0009967550699697,0.0013916041772752854
-0.4822660317862756,-0.4822660317862756,1.0004603468071815,0.001226869680346236
-0.48210144421318546,-0.48210144421318546,0.9999649941569491,0.0012860611327973684
-0.48199259989487475,-0.48199259989487475,1.0007165798657922,0.001255521732338402
-0.48188524683646394,-0.48188524683646394,1.000009784001513,0.0011257385264937148
-0.48182463431439826,-0.48182463431439826,1.0002916749434558,0.0011017177268734088
-0.4817494343617,-0.4817494343617,1.0007324236225688,0.001238306758018829
-0.48160644880699693,-0.48160644880699693,0.9996805571287972,0.001136875529737539
-0.48153380057774486,-0.48153380057774486,0.9996376407955012,0.0015418837244264411
-0.48140310803719333,-0.48140310803719333,1.0016451268646929,0.001333682408654936
-0.4812638453047839,-0.4812638453047839,1.0017686198678377,0.0014350391536102785
-0.48118346078699686,-0.48118346078699686,1.001780389285159,0.0013572975792265857
-0.48110662966500967,-0.48110662966500967,1.0019677197971641,0.0012388660473095314
-0.48093893750046846,-0.48093893750046846,0.9996743865603672,0.0015063540834280788
-0.4808447343297303,-0.4808447343297303,0.9994791839488399,0.0012662729482338215
-0.480747714197787,-0.480747714197787,0.999146004645261,0.0013022550566334896
-0.4806582370059914,-0.4806582370059914,1.0006393606871948,0.0013386073862863648
-0.48057165619393344,-0.48057165619393344,0.9995347329412093,0.0015508264331027138
-0.4804493590476341,-0.4804493590476341,0.9990828453614705,0.0012345872075374595
-0.4803687430365244,-0.4803687430365244,0.9998015921996235,0.0011014827994802639
-0.4802482144688838,-0.4802482144688838,0.9988910965253291,0.001443186775975501
-0.4801081838464597,-0.4801081838464597,1.0008003979610443,0.001259882165458626
-0.47994226220907876,-0.47994226220907876,1.000453676599014,0.001271265420742951
-0.4797806363829295,-0.4797806363829295,1.0002829660692378,0.001436973080171744
-0.4796635285005323,-0.4796635285005323,1.000055378441283,0.0010792316069571592
-0.47958399388589895,-0.47958399388589895,0.9995306343801204,0.0013314048240994313
-0.47943507386517015,-0.47943507386517015,0.9999985699647279,0.0013982468647333996
-0.4792922018212266,-0.4792922018212266,1.000065949905108,0.00120707949629138
-0.47913837023515954,-0.47913837023515954,0.9998721819503675,0.0013135893338857042
-0.47903928631712916,-0.47903928631712916,1.0015665513221579,0.0015532554335613432
-0.47890795588318724,-0.47890795588318724,1.0005166511736445,0.0010953233313309306
-0.4788005770940799,-0.4788005770940799,0.9997943623183237,0.0010986655269940773
-0.4786352306720801,-0.4786352306720801,0.9995853140966455,0.001527744810436363
-0.4784874446719186,-0.4784874446719186,0.9998562551536064,0.0013738381426959385
-0.47839802618545946,-0.47839802618545946,0.9988799834181984,0.0012365799704761762
-0.47825313679495596,-0.47825313679495596,0.9996912342820581,0.0014633261281720854
-0.47803649031848183,-0.47803649031848183,0.9995223542275387,0.0015307700501618266
-0.4779710846443777,-0.4779710846443777,0.9991941405541764,0.0009576907451581219
-0.4778774014703231,-0.4778774014703231,0.9999859267885135,0.0011918052710669827
-0.47772280414355917,-0.47772280414355917,0.9997036828055256,0.0014978854926385864
-0.4776340268115746,-0.4776340268115746,1.000038259523406,0.0012136978655591319
-0.47749873624998146,-0.47749873624998146,1.0024249362269166,0.0014991608453089596
-0.4773201302537927,-0.4773201302537927,1.0005071457341383,0.0012428678672390609
-0.47720708850538357,-0.47720708850538357,0.9999519630102371,0.0012859940471275182
-0.4770978413580451,-0.4770978413580451,0.9990735391973427,0.0010955093707807509
-0.47696328036981867,-0.47696328036981867,1.0014475744959161,0.0011349688713020807
-0.4768703668334638,-0.4768703668334638,1.000110361375341,0.0014548686673274886
-0.47676928875007435,-0.47676928875007435,0.9995675203505682,0.0014710062751195135
-0.47664747171511407,-0.47664747171511407,0.9989197533130451,0.0011825792416703348
-0.47647357178502714,-0.47647357178502714,1.0015509092247992,0.0015529495147444373
-0.47635872409446167,-0.47635872409446167,1.0003957122574296,0.0015114519550540563
-0.47622462472936605,-0.47622462472936605,1.0001908768635253,0.0011946880771040473
-0.4761306231477647,-0.4761306231477647,0.9994437133129956,0.0014587628576358971
-0.4760676719728508,-0.4760676719728508,1.001741108592054,0.0015050597262027915
-0.4758865110256011,-0.4758865110256011,1.000614035453408,0.0013256840744334873
-0.47573603560595074,-0.47573603560595074,0.9999774424272637,0.0014009858044729594
-0.4756779578136047,-0.4756779578136047,1.0010360409945105,0.0014248645444504414
-0.47557292161800435,-0.47557292161800435,1.0017843526351056,0.00114713643209474
-0.4754051596246427,-0.4754051596246427,1.001716163304176,0.001519084420235495
-0.47532146488229043,-0.47532146488229043,1.0008009908394324,0.0015247831531315498
-0.4751580704090884,-0.4751580704090884,1.000760669237835,0.0016123151413462533
-0.4750447904254543,-0.4750447904254543,0.9994838631322214,0.0011730321210772908
-0.47491609073185825,-0.47491609073185825,1.0007845558419202,0.0013840418123897552
-0.4747832159191603,-0.4747832159191603,1.0003185133942654,0.001561382638667007
-0.4746191678321338,-0.4746191678321338,1.0000909392760353,0.0014745988803745746
-0.47448384150047784,-0.47448384150047784,1.0003900077293226,0.0010426960716762934
-0.47432459830015433,-0.47432459830015433,0.9997081404062407,0.001444600192847664
-0.47420807119924574,-0.47420807119924574,1.000088962505051,0.001495767753116823
-0.4741502147371648,-0.4741502147371648,0.9989102937218147,0.0013895249299426477
-0.4740589842462214,-0.4740589842462214,1.0007381352732978,0.0012096047827770064
-0.4739639677849482,-0.4739639677849482,0.9999154422386904,0.0014135996379589276
-0.47380017496761867,-0.47380017496761867,0.9984328931080553,0.0014139560873659524
-0.4736428549003904,-0.4736428549003904,0.9998356415399764,0.0012144147906872614
-0.4735452057022485,-0.4735452057022485,0.9994056473998396,0.0013045302917924473
-0.4734702253728756,-0.4734702253728756,1.000494596475254,0.001346219035346777
-0.47338156351615907,-0.47338156351615907,1.0017917332791517,0.0011361064451184293
-0.4731721795425983,-0.4731721795425983,1.000390366105194,0.0015864135900405425
-0.47303181430324914,-0.47303181430324914,0.999178330933279,0.0011544107638358613
-0.4729277557649766,-0.4729277557649766,0.9997595746916499,0.0017049680578734253
-0.4728366417431971,-0.4728366417431971,1.0004586496231462,0.0010301906579902695
-0.47274671818013303,-0.47274671818013303,0.998442354994254,0.0012665470632306404
-0.47262643654830755,-0.47262643654830755,0.9996126087484271,0.001721816519243597
-0.47251111284276703,-0.47251111284276703,0.9984166578832265,0.0012330445962937064
-0.4724041546185617,-0.4724041546185617,0.9990991719120597,0.00147551503695736
-0.47229727147350786,-0.47229727147350786,1.0011306028164824,0.0010503540912984604
-0.47222769404761494,-0.47222769404761494,1.000132724509221,0.0014003552773119272
-0.4721635099413106,-0.4721635099413106,1.0009476145939953,0.0015927857863313993
-0.47208855494536694,-0.47208855494536694,1.0004010156254717,0.0011236694083093103
-0.4719394943662337,-0.4719394943662337,1.000798174983486,0.0011165916952145779
-0.471851520826749,-0.471851520826749,1.0004835184689198,0.002212359604459307
-0.47177262070035797,-0.47177262070035797,1.0001658520593693,0.0012332978720616073
-0.471656359739427,-0.471656359739427,1.0011758904087178,0.001156880983855077
