time,time,flux,flux_err
-0.4997460496633721,-0.4997460496633721,0.9999689229209204,0.00011341907489930622
-0.4991369174943732,-0.4991369174943732,1.0000557370483256,0.00011076355274619454
-0.4977413724906607,-0.4977413724906607,1.0000899199077693,0.00011060525486948048
-0.4963106898552117,-0.4963106898552117,1.0001699619500426,0.00011065739712236152
-0.49543397666420785,-0.49543397666420785,1.0000124192428188,0.00010097409872733131
-0.4948230091351434,-0.4948230091351434,0.9999859062662821,0.00010116901472207544
-0.49438113556680036,-0.49438113556680036,1.0000780278293244,0.00010107102147136613
-0.4928642665676307,-0.4928642665676307,0.9998900079361455,0.00010096430495233929
-0.491856089119392,-0.491856089119392,0.999967757870355,0.0001014080889781385
-0.4912117215877515,-0.4912117215877515,1.0000290365345585,0.0001010471269142492
-0.4904101402338711,-0.4904101402338711,1.0000587971755928,0.00010150280212372308
-0.49003533111099384,-0.49003533111099384,1.0001914338152105,0.0001011701396058481
-0.48955537351721434,-0.48955537351721434,0.9999999216058683,0.00010194169372803837
-0.48890945993189233,-0.48890945993189233,0.999970390066484,0.0001011150692543151
-0.4878704167160322,-0.4878704167160322,0.999930544989521,0.00010105968002859935
-0.48685714746970915,-0.48685714746970915,0.9999694345747772,0.00010168198293192967
-0.48599908978794704,-0.48599908978794704,0.9999202929620173,0.00010107542361240353
-0.485268610829371,-0.485268610829371,0.9999675556757672,0.00010113686612708587
-0.4834120500221616,-0.4834120500221616,0.9999433679840088,0.00010100191662528853
-0.4822096995092579,-0.4822096995092579,0.9999429575168179,0.00010100986393162881
-0.4811861512731411,-0.4811861512731411,1.0001335451068003,0.00010407927074164895
-0.48073608601116574,-0.48073608601116574,1.0000290116395851,0.00010109801107858224
-0.48002812804479617,-0.48002812804479617,0.9998332208849163,0.00010105736958748759
-0.4790535522843129,-0.4790535522843129,0.9999470284581232,0.00010101381269757405
-0.47808694359846415,-0.47808694359846415,1.0000385728737449,0.00010129812682550189
-0.4771112074246048,-0.4771112074246048,1.000080131074764,0.00010100895912479428
-0.4764498872988042,-0.4764498872988042,0.9999443622260475,0.00010115988640391346
-0.4759896851479425,-0.4759896851479425,1.0000800788736275,0.00010116437067738768
-0.47534541079367043,-0.47534541079367043,1.0000773172923,0.00010104956295549347
-0.4739376749435905,-0.4739376749435905,1.0001681765086128,0.00010186943304898747
-0.4727992286076187,-0.4727992286076187,1.0001223530173058,0.00010160320091071791
-0.47208909659530035,-0.47208909659530035,0.9998196103590166,0.00010005523783475721
-0.4716560621294775,-0.4716560621294775,1.0001395591016413,0.00010419171363404669
-0.4712847346861963,-0.4712847346861963,0.9999485145358028,0.00010113907341332523
-0.470888359087985,-0.470888359087985,0.9999284902266323,0.00010101822451332888
-0.46966528323828244,-0.46966528323828244,0.9999804117746567,0.0001010660877112984
-0.4684086325665703,-0.4684086325665703,1.0000292759211635,0.0001010045736691764
-0.4675090686228941,-0.4675090686228941,0.9998967581611808,0.00010103456824684226
-0.466830860938353,-0.466830860938353,1.0000513101378847,0.0001005592456969762
-0.4660707979564904,-0.4660707979564904,0.9999439996994915,0.00010104939934417398
-0.46483393585658633,-0.46483393585658633,1.0000212304739384,0.00010100895769516982
-0.4637137126017478,-0.4637137126017478,0.9998653802863601,0.00010104349369186281
-0.463082048195065,-0.463082048195065,0.999966577698781,0.00010099370377712179
-0.46219891833752624,-0.46219891833752624,1.0001104065962445,0.00010099955252898386
-0.4618641691733501,-0.4618641691733501,1.0001561548385578,0.00010110793536161959
-0.46124910198850555,-0.46124910198850555,0.9999243656468695,0.00010106857817938434
-0.46023827285825974,-0.46023827285825974,1.0000439067617393,0.0001009883184060783
-0.45929697371466316,-0.45929697371466316,0.9999799018346783,0.00010137338142120356
-0.4586372332982137,-0.4586372332982137,1.0000700296425729,0.00010102073603565722
-0.45781884673051537,-0.45781884673051537,1.000122360710129,0.00010133721652220047
-0.4572740013274597,-0.4572740013274597,1.0000691778204065,0.00010114629396068594
-0.45669558892259376,-0.45669558892259376,1.0000183370502445,0.00010109169681623187
-0.45552138900529826,-0.45552138900529826,1.0000551307740229,0.00010120531375742306
-0.4543253293421003,-0.4543253293421003,0.9999795845158566,0.00010306278591199432
-0.45326124181156047,-0.45326124181156047,1.0000707281555001,0.00010235456450387941
-0.4526582412829157,-0.4526582412829157,1.0000281450464479,0.00010112488675175052
-0.451337191296625,-0.451337191296625,0.9999949217282829,0.00010122614633267305
-0.4498363984457683,-0.4498363984457683,0.9998426635384332,0.00010099371376716621
-0.4491312697704416,-0.4491312697704416,0.9999968762778717,0.00010102727105624041
-0.44814242114225633,-0.44814242114225633,1.0000229861005527,0.00010391926033467983
-0.44772458575607743,-0.44772458575607743,1.0000667479116725,0.00010114483027920561
-0.4471106172190048,-0.4471106172190048,1.000101754690702,0.00010104419983140859
-0.44613439639942953,-0.44613439639942953,1.00000730221947,0.00010097013328156178
-0.444968098118261,-0.444968098118261,1.0000777894343675,0.00010171800843959268
-0.44436428181506926,-0.44436428181506926,0.999937314964393,0.0001018243404931641
-0.44360998090560316,-0.44360998090560316,0.9999897298897104,0.00010105869513503068
-0.443051636085147,-0.443051636085147,1.0000649041095524,0.00010116784775867831
-0.4419119469661382,-0.4419119469661382,0.9998465583082389,0.00010097340154703058
-0.4402466940533486,-0.4402466940533486,1.0000706827399495,0.00010142956353236183
-0.4392343835133943,-0.4392343835133943,1.0000185441002765,0.00010104188427384783
-0.4387198473574244,-0.4387198473574244,0.9999371859640647,0.00010168052074355349
-0.43836429031362056,-0.43836429031362056,1.0000093957290725,0.00010112901927155427
-0.4378207184461644,-0.4378207184461644,1.0001411638021591,0.00010195523859027789
-0.43698553049907785,-0.43698553049907785,1.0001138633437276,0.00010109347870120586
-0.4353904738338315,-0.4353904738338315,0.9998626441889187,0.0001009922451863455
-0.4342412500802311,-0.4342412500802311,0.9999319440695345,0.00010112585324593616
-0.4334689634953975,-0.4334689634953975,0.9998793455187179,0.00010114359757908123
-0.43234217974095374,-0.43234217974095374,0.9999840349128805,0.00010103443958181398
-0.4310513535150676,-0.4310513535150676,0.9999579779317503,0.0001010332146616083
-0.43017443512653697,-0.43017443512653697,1.0000445486043812,0.0001020054389557551
-0.4294480028329417,-0.4294480028329417,0.9999923954207622,0.00010420946427364265
-0.4290977459211717,-0.4290977459211717,0.9999211606862589,0.00010110716017048434
-0.4283051494465326,-0.4283051494465326,0.9998721150210453,0.0001010741022438426
-0.4272973272614763,-0.4272973272614763,0.9999626973658076,0.00010105345833044828
-0.4263165287251468,-0.4263165287251468,0.999816357056158,0.00010129747594567187
-0.42527165698702446,-0.42527165698702446,0.9998427612697698,0.00010211135191926161
-0.42458957451017343,-0.42458957451017343,0.9999396414841648,0.00010111748532200028
-0.42375675749499353,-0.42375675749499353,0.9998032175990309,0.0001010788332813882
-0.42221495738776865,-0.42221495738776865,0.9999534156110043,0.00010133431026180376
-0.42131286829535386,-0.42131286829535386,0.999952999614176,0.00010243219761249577
-0.4204860262863804,-0.4204860262863804,1.0000172536641607,0.00010036016207921815
-0.42008236788678915,-0.42008236788678915,0.9999562209950652,0.00010483082161788377
-0.4196648680604994,-0.4196648680604994,0.9999095797240702,0.00010111876808599276
-0.4190954831239651,-0.4190954831239651,0.9999882787115866,0.0001010709424563528
-0.41756188313302117,-0.41756188313302117,0.9999854679619512,0.00010106913275419771
-0.4165556522741099,-0.4165556522741099,1.0001748903487155,0.00010100948550419637
-0.4156299175636377,-0.4156299175636377,0.999911832008678,0.00010359656062506318
-0.4150743594771484,-0.4150743594771484,0.9999316564810791,0.00010108089339244165
-0.41434007628122344,-0.41434007628122344,0.9998666861489808,0.00010103574143012954
-0.4131481720323791,-0.4131481720323791,1.000074612646518,0.00010098265207394211
-0.4118992970470572,-0.4118992970470572,1.0001213589993996,0.00010100336754692841
-0.4110711858797004,-0.4110711858797004,1.0000426717127295,0.00010095887229406234
-0.41048627164855134,-0.41048627164855134,0.999866100904374,0.0001010800507350461
-0.41016128685878356,-0.41016128685878356,1.000025107870527,0.00010110767088914634
-0.40929775982222055,-0.40929775982222055,0.9998891620770636,0.00010104122707384254
-0.4083376453971141,-0.4083376453971141,0.9998992088425258,0.00010095166696435182
-0.40750773260515416,-0.40750773260515416,0.999885938383011,0.00010142787278255699
-0.4068853356016916,-0.4068853356016916,1.000103574673794,0.00010101675164110013
-0.4059791565479827,-0.4059791565479827,0.9998689017894999,0.00010144422787367409
-0.4055720881340676,-0.4055720881340676,0.9996882949301847,0.00010113866778571685
-0.40522490634175484,-0.40522490634175484,0.9998686808402588,0.00010101825135453154
-0.404779420196428,-0.404779420196428,0.9999704918651586,0.00010113330569384
-0.4038792469800683,-0.4038792469800683,1.0000036402145822,0.0001011067456375658
-0.4028687054378679,-0.4028687054378679,0.9999272863986709,0.00010102193220045528
-0.4015948773027048,-0.4015948773027048,1.0000548212250489,0.00010008998505545647
-0.4007648629252799,-0.4007648629252799,1.000075715075353,0.00010114191393881537
-0.39903716740809614,-0.39903716740809614,0.9999697250578518,0.00010099925362948871
-0.39799306916393107,-0.39799306916393107,0.999950813995785,0.00010100381235099002
-0.3969067206504405,-0.3969067206504405,1.0000037596260245,0.00010399830171685593
-0.39628879015072016,-0.39628879015072016,0.9999380767212372,0.00010109698062733675
-0.3957458429707913,-0.3957458429707913,0.9999606250886508,0.00010111463463549305
-0.3947268366784556,-0.3947268366784556,0.9999786888599502,0.00010101504182949326
-0.3937673188454937,-0.3937673188454937,0.9999767227856134,0.00010126214057401789
-0.3926149342063582,-0.3926149342063582,1.0000566140612357,0.00010100053826831382
-0.3919053281133529,-0.3919053281133529,0.9999467121172811,0.00010114321098467685
-0.39148236970504513,-0.39148236970504513,0.9999134069810378,0.00010115882776469401
-0.39086074478836963,-0.39086074478836963,0.9999818806413122,0.00010105062261220455
-0.38941495980689067,-0.38941495980689067,0.9999599951336654,0.00010171950875791083
-0.38830843163013923,-0.38830843163013923,0.9999194835903202,0.00010154017693786775
-0.38762459274003047,-0.38762459274003047,1.0000244771414455,9.905869980879402e-05
-0.38723008525703334,-0.38723008525703334,0.9998498179748012,0.00010398658867074079
-0.38684392933209893,-0.38684392933209893,1.0000340722335572,0.00010113366282479183
-0.38645902715798003,-0.38645902715798003,0.9999187945373198,0.00010100194257177698
-0.38544131937233034,-0.38544131937233034,1.0000778950328277,0.00010108702695205549
-0.3840471528863418,-0.3840471528863418,0.9999921635785733,0.0001010083725670598
-0.3831308046428603,-0.3831308046428603,1.0000226701518877,0.00010105900606580355
-0.3824732691893587,-0.3824732691893587,1.0000555096473935,0.00010049102715154707
-0.38176515625964386,-0.38176515625964386,0.9999099135946394,0.00010110232702382216
-0.38063581939059077,-0.38063581939059077,1.000003122538007,0.00010099186889732655
-0.3797852276678896,-0.3797852276678896,1.000078485345601,0.00010102347450391947
-0.37898546499491204,-0.37898546499491204,0.999996883883771,0.00010097434442167706
-0.3784459711037925,-0.3784459711037925,0.9998531445785103,0.00010197434782648319
-0.37769225812953666,-0.37769225812953666,1.000054128052064,0.00010099019265299978
-0.37736671084712725,-0.37736671084712725,0.9998709286519787,0.00010109458870698781
-0.37661733478598763,-0.37661733478598763,1.0000501289605168,0.00010112745247528301
-0.3752515139334719,-0.3752515139334719,1.0001696342589212,0.00010134418858505482
-0.3744254164135782,-0.3744254164135782,1.0000553155252276,0.00010102199004769629
-0.3736169051233446,-0.3736169051233446,1.0000887508515004,0.00010128192361060333
-0.3729884070446133,-0.3729884070446133,0.9998928527957531,0.00010111507239231531
-0.37247834752633935,-0.37247834752633935,1.0002252481208462,0.0001011062842094879
-0.3710349623375805,-0.3710349623375805,0.9999204127358212,0.00010118650486455225
-0.3699869292337098,-0.3699869292337098,0.9999433145272262,0.0001029055853084252
-0.36886268727248533,-0.36886268727248533,1.0001025194144302,9.973169157456484e-05
-0.36826339274703057,-0.36826339274703057,1.000081359853742,0.00010262788217870497
-0.3674649645006866,-0.3674649645006866,0.9999752852546052,0.0001010461234886971
-0.36565056907274995,-0.36565056907274995,1.000046200511979,0.00010119845329776811
-0.36483981974160995,-0.36483981974160995,0.9999420614589963,0.00010102895804198542
-0.3639469905610895,-0.3639469905610895,1.0000368591710154,0.00010389559618523313
-0.3633382857806282,-0.3633382857806282,1.0000879808348553,0.00010108509654882349
-0.3627712243047426,-0.3627712243047426,1.000025831796338,0.00010108232883499318
-0.3619742772090831,-0.3619742772090831,0.9998859469530144,0.00010099337041966362
-0.36094922569755,-0.36094922569755,1.0001291610880307,0.00010097632277528204
-0.3600386349120527,-0.3600386349120527,1.0000211265702401,0.00010225655571784959
-0.3593874774785945,-0.3593874774785945,0.9999893369225031,0.00010101196486362212
-0.35873040567093994,-0.35873040567093994,0.9999456896865422,0.00010114319709749083
-0.3579539503218257,-0.3579539503218257,1.0000851204111751,0.00010102637015151068
-0.3565202485682676,-0.3565202485682676,0.9999585157040867,0.00010136165600399438
-0.3553049047040986,-0.3553049047040986,0.999907509986502,0.00010108491795289508
-0.35424132553016535,-0.35424132553016535,0.9999362876593718,0.00010162449424473714
-0.3538656827688101,-0.3538656827688101,0.9999692236631954,0.00010112463685173812
-0.35317628460470585,-0.35317628460470585,0.999874776256863,0.00010103080461835434
-0.35248363310529385,-0.35248363310529385,0.9999386640525205,0.00010104314040383117
-0.3508903430090868,-0.3508903430090868,0.9998751730238842,0.00010098895353196167
-0.34973260463011685,-0.34973260463011685,1.000069530247692,0.00010115401598234823
-0.3488644469369319,-0.3488644469369319,1.0000331021454207,0.00010111521000198084
-0.34761062918842073,-0.34761062918842073,1.000004022585287,0.00010108969134886209
-0.34616463134880177,-0.34616463134880177,1.000013616267085,0.00010098806515730188
-0.3450367740253569,-0.3450367740253569,1.0000588234800984,0.00010419394328967449
-0.34462362174090233,-0.34462362174090233,0.9998846178144836,0.00010108262546437179
-0.3441318450815743,-0.3441318450815743,1.000068326857583,0.00010111578233950498
-0.3430927294379217,-0.3430927294379217,1.0000813894985585,0.00010392923127553266
-0.3422747305259691,-0.3422747305259691,1.0000064644289386,0.00010134040814437233
-0.34140088918065886,-0.34140088918065886,1.000075322175292,0.00010099512030581193
-0.340611167451425,-0.340611167451425,0.9998432423180693,0.0001021054192576326
-0.33996061715006365,-0.33996061715006365,1.0001102568392575,0.00010114491900214408
-0.33925851789826994,-0.33925851789826994,1.0000890542506635,0.00010107287975850214
-0.33786712817818626,-0.33786712817818626,1.0000112755976283,0.00010128958497159835
-0.3367241766274674,-0.3367241766274674,0.9998183891555479,0.00010271295400899084
-0.3359989703327301,-0.3359989703327301,1.0000832294409892,0.00010027896626713608
-0.33557875161350237,-0.33557875161350237,0.9999558129504864,0.00010463526375866442
-0.3352074192080181,-0.3352074192080181,1.0001601751165734,0.00010110227662634002
-0.33494655651884386,-0.33494655651884386,1.000051993210463,0.00010113101552183397
-0.3338554749978357,-0.3338554749978357,1.0000587939957728,0.00010105071816175225
-0.3327155783379567,-0.3327155783379567,0.999910644182975,0.0001010503988694477
-0.3317932322344859,-0.3317932322344859,0.9999678838247934,0.00010101470082413376
-0.33096394699678056,-0.33096394699678056,1.0001038453465498,0.00010059936275185792
-0.33044825307879366,-0.33044825307879366,0.9999765349500557,0.00010113889904175221
-0.32958547987946074,-0.32958547987946074,1.0000009717871203,0.00010101111962119897
-0.3283937329717446,-0.3283937329717446,0.9999532411047116,0.00010099703895534815
-0.3272463857225375,-0.3272463857225375,0.9999377837895989,0.00010098651379662779
-0.3266482875740621,-0.3266482875740621,0.9998541044849689,0.00010091622683414096
-0.3259820039922488,-0.3259820039922488,1.0000138767544773,0.00010109073813047158
-0.3256604590598727,-0.3256604590598727,1.0001398506041688,0.00010111015082461656
-0.3249111629571416,-0.3249111629571416,1.0000996672588012,0.00010108309518653275
-0.3239013774000341,-0.3239013774000341,0.9998697839795391,0.00010099263569546815
-0.32307114321447444,-0.32307114321447444,0.9999800647551907,0.00010141174422844221
-0.32216714274836705,-0.32216714274836705,1.0000135398527656,0.00010100714434286675
-0.32139907769305864,-0.32139907769305864,0.999964610189308,0.00010141798750802987
-0.32102851796953474,-0.32102851796953474,1.0001485781116684,0.00010116467498804995
-0.3204497677841573,-0.3204497677841573,1.0000394157850256,0.00010104482763667896
-0.31937882535130485,-0.31937882535130485,0.9999208952112626,0.00010110079165921396
-0.3178110573790036,-0.3178110573790036,1.0000049065415233,0.00010156880989516752
-0.31676658012875125,-0.31676658012875125,1.0000986546496262,0.00010005681619904821
-0.31567455762269675,-0.31567455762269675,1.000082713768897,0.0001011034881062923
-0.3139462246050243,-0.3139462246050243,1.0001268391247458,0.0001010471434437892
-0.313103206177766,-0.313103206177766,0.9999684404987766,0.00010100597986916942
-0.3121694514848059,-0.3121694514848059,1.0000013658900235,0.00010405498187178314
-0.31172746434313015,-0.31172746434313015,1.000014334415189,0.00010109087361764716
-0.3110461010975996,-0.3110461010975996,1.0000890067250736,0.00010106736847103483
-0.3100820859588566,-0.3100820859588566,0.9999844976557494,0.00010100812194285246
-0.30897291430010226,-0.30897291430010226,1.0000259465303476,0.00010122675333656451
-0.3079237780359108,-0.3079237780359108,1.0000741522224588,0.00010106130575977682
-0.30734766093519283,-0.30734766093519283,1.0000406161429178,0.00010393274524083147
-0.3068931912537664,-0.3068931912537664,0.9999451787337479,0.00010109915134388671
-0.3061256922359462,-0.3061256922359462,0.999971590466993,0.00010105909806975994
-0.3048629990327754,-0.3048629990327754,1.0001367300619464,0.00010167713011207419
-0.3038164645287907,-0.3038164645287907,0.999936687029423,0.00010154197810169989
-0.3031320705180406,-0.3031320705180406,0.9999932680171486,9.90495351241346e-05
-0.30272550615336513,-0.30272550615336513,1.0001236178094073,0.00010381851991571359
-0.30227860274462726,-0.30227860274462726,0.9999773438886921,0.00010114312221209653
-0.301967039842566,-0.301967039842566,1.0000293280372223,0.0001010025934532777
-0.30094342470692936,-0.30094342470692936,0.9999233214393068,0.00010108371653188865
-0.29939630851149557,-0.29939630851149557,0.9999614139171531,0.00010175862824363428
-0.2984195978046046,-0.2984195978046046,1.0000821989613458,0.0001004528458780468
-0.29767867664340886,-0.29767867664340886,0.9999524856815466,0.00010108468191776158
-0.2966294141631806,-0.2966294141631806,1.0001235117273648,0.00010104947790211968
-0.29551565200526964,-0.29551565200526964,0.9999257764846557,0.00010101115818671924
-0.29453657052799825,-0.29453657052799825,1.0000388411249521,0.00010098624453018783
-0.29395053696789547,-0.29395053696789547,1.0000129999698895,0.00010199735429455594
-0.29329130103869827,-0.29329130103869827,0.999939161841119,0.00010124814745623942
-0.2929098420601804,-0.2929098420601804,0.9999029203702099,0.0001010829503670674
-0.29237105496868027,-0.29237105496868027,0.9999761527409137,0.00010113587525700525
