time,time,flux,flux_err
-0.4989551389141222,-0.4989551389141222,1.000689374027672,0.0010004982000625415
-0.4969561108403771,-0.4969561108403771,1.0012901249336874,0.0010202899523993393
-0.49540510977749364,-0.49540510977749364,1.0008523644974263,0.0010027344917442776
-0.4937564265437686,-0.4937564265437686,0.9994696662093644,0.0010021070679400806
-0.49193817090053926,-0.49193817090053926,1.0002770629081115,0.0009117785013222789
-0.49086199171943007,-0.49086199171943007,0.9996536937047857,0.0009133761567272234
-0.489967928994156,-0.489967928994156,1.0017015842905623,0.0009118704800938349
-0.48877710364322413,-0.48877710364322413,0.9998492727396006,0.0009121853307579796
-0.48794209361076357,-0.48794209361076357,1.0003834883579312,0.0009122708690887868
-0.48706362011289456,-0.48706362011289456,1.0000531044489673,0.0009119163261801462
-0.48617271426919617,-0.48617271426919617,1.000220563476716,0.0009107216890020377
-0.4853254649489827,-0.4853254649489827,1.0006404675483993,0.0009113718372500887
-0.4844964896874444,-0.4844964896874444,1.0007074825650009,0.0009116083018837716
-0.48300058242530214,-0.48300058242530214,0.9993815386475235,0.0009322962400384683
-0.4810280129764578,-0.4810280129764578,1.0015059157929782,0.0011642096036642284
-0.47493786788108994,-0.47493786788108994,1.001023274577467,0.0009269834041625855
-0.46807294027021273,-0.46807294027021273,0.9993504573744492,0.0009117714554457321
-0.465679271708359,-0.465679271708359,1.0012990293653166,0.000911794400389346
-0.4638863937958376,-0.4638863937958376,1.0005678400424616,0.0009141231175714621
-0.4619056477225968,-0.4619056477225968,1.0000678518112764,0.0009224301189677839
-0.460131791994354,-0.460131791994354,1.000068627837665,0.0009156288099239348
-0.45884588056796927,-0.45884588056796927,0.9994867626739807,0.0009169489162019184
-0.45732924361363986,-0.45732924361363986,1.0003420149239997,0.0009125002446085803
-0.45569863188866294,-0.45569863188866294,0.998263306003345,0.0009129796620821453
-0.4547600360980141,-0.4547600360980141,0.9987669678582538,0.0009140466844542719
-0.4537568480911432,-0.4537568480911432,0.999228887260893,0.0009119558668815112
-0.4526946124024107,-0.4526946124024107,1.000475981166919,0.0009118161162973163
-0.4518086934396706,-0.4518086934396706,0.9999968387789915,0.0009122569470522316
-0.4509114104985201,-0.4509114104985201,1.0003139608822975,0.0009112730856447417
-0.4500647323569865,-0.4500647323569865,1.0000757190114713,0.000911649413672682
-0.44923655338498064,-0.44923655338498064,1.0004138475158766,0.0009116637471585961
-0.44832369622090484,-0.44832369622090484,1.0000371632771212,0.0009109859054182007
-0.44616052460114586,-0.44616052460114586,0.999453668824698,0.0010274274204165553
-0.44411688256877824,-0.44411688256877824,0.9991498242099599,0.001234961324965868
-0.4371900796235423,-0.4371900796235423,0.9990863583699529,0.0015009714026336396
-0.4328029285701632,-0.4328029285701632,0.9999536080633863,0.0009113300639640458
-0.4307565430943214,-0.4307565430943214,1.0006557884446592,0.0009111166759955359
-0.42864367901129297,-0.42864367901129297,1.000528648218817,0.0009136566501782526
-0.42686825241544285,-0.42686825241544285,1.0006534401032119,0.000916907168795273
-0.4253835472751234,-0.4253835472751234,0.9996632372085685,0.0009270351320363196
-0.42410039464812144,-0.42410039464812144,0.9997956907178068,0.0009141696022129584
-0.4229014165030094,-0.4229014165030094,0.9988064927455232,0.0009166331914120203
-0.42138100078955176,-0.42138100078955176,0.9997388201771518,0.0009121475070243169
-0.41975346907711353,-0.41975346907711353,1.0002062109815901,0.0009121851400851492
-0.4188325639916002,-0.4188325639916002,1.0005821140976194,0.000912649575120102
-0.417862315459206,-0.417862315459206,1.0004987779507513,0.0009112173877824398
-0.4169077063270379,-0.4169077063270379,1.0002400830032352,0.0009115325140223925
-0.4160718783066841,-0.4160718783066841,0.9991238944650858,0.0009118651089885792
-0.4151353116889368,-0.4151353116889368,1.0007374668439524,0.0009118727693557096
-0.4143154656230763,-0.4143154656230763,0.9986818957586256,0.0009110362874933094
-0.41346766939605006,-0.41346766939605006,0.99946357626124,0.0009113486433574734
-0.4124523254264204,-0.4124523254264204,1.001354300537819,0.000911913901823032
-0.41023483253738957,-0.41023483253738957,1.0002955297158145,0.0010786775180743106
-0.4075890899002843,-0.4075890899002843,1.0002047453407898,0.0009351938795247531
-0.39753335258501465,-0.39753335258501465,1.0009365429769816,0.0009107410627547791
-0.39548714892953285,-0.39548714892953285,1.000683947286897,0.0009117556505722831
-0.39340067882512814,-0.39340067882512814,0.999925875236476,0.0009139462134611828
-0.3916478526807623,-0.3916478526807623,1.000672720977776,0.0009129072269416165
-0.3899694404324691,-0.3899694404324691,1.0002942777841775,0.0009342195394965575
-0.3886771787241742,-0.3886771787241742,1.0006378631289379,0.0009155343502565882
-0.3874281382399204,-0.3874281382399204,1.000296934427979,0.0009156626532325624
-0.38573332644300534,-0.38573332644300534,0.9995675199456227,0.0009127821132343958
-0.3843380127866112,-0.3843380127866112,0.9995775751953649,0.0009111052276371981
-0.38318974591893495,-0.38318974591893495,0.999059136973127,0.0009118016621016137
-0.3821523559563502,-0.3821523559563502,0.9987877231762772,0.0009119160646691284
-0.3811547773198981,-0.3811547773198981,0.999443623297247,0.0009122134965358587
-0.3802889578590111,-0.3802889578590111,0.9994252923847867,0.0009117036812470441
-0.3793903555088036,-0.3793903555088036,1.0003430656851682,0.0009106155359210983
-0.37854493698177977,-0.37854493698177977,0.999971048088495,0.0009112321093177559
-0.377721389153885,-0.377721389153885,0.999473404034188,0.0009113492956473018
-0.3766862260898051,-0.3766862260898051,1.0001435916136532,0.0009119992267657819
-0.374565737809462,-0.374565737809462,1.0001688192015226,0.0009937743884888247
-0.37236910699066356,-0.37236910699066356,0.9996709649044664,0.0011073062275060012
-0.3653899161829031,-0.3653899161829031,0.9992148313743995,0.0009288467223553804
-0.3605586366669741,-0.3605586366669741,0.999349273878422,0.0009111554151352951
-0.35814938884723235,-0.35814938884723235,1.0001766025821275,0.0009129982305232537
-0.35639475721327474,-0.35639475721327474,0.9998045960497773,0.0009132596027350299
-0.3543952960113529,-0.3543952960113529,1.000546167807122,0.0009234371491768902
-0.3527320090135618,-0.3527320090135618,1.0003881556146148,0.0009159820169723292
-0.35148124651022955,-0.35148124651022955,0.9997493797500091,0.0009152475672722773
-0.3497868395417754,-0.3497868395417754,0.9989972692552284,0.0009127058865753043
-0.3483932443225058,-0.3483932443225058,1.000387353695816,0.0009125085638062765
-0.3475018580684264,-0.3475018580684264,0.9992334419848323,0.0009135054679999189
-0.346364595110208,-0.346364595110208,1.0000862487434863,0.0009116771228141602
-0.34543071550215243,-0.34543071550215243,1.0003064103749837,0.0009119324552639991
-0.34447528768796476,-0.34447528768796476,0.9995721063176672,0.0009116604237936561
-0.34361512115065124,-0.34361512115065124,0.9989969770160589,0.0009111073503513258
-0.3427881799347233,-0.3427881799347233,0.9999088741649089,0.0009116542413028686
-0.3419563539646333,-0.3419563539646333,1.0010668868013322,0.000910880855347604
-0.34085104826808676,-0.34085104826808676,0.9992729530067223,0.0009111348615081406
-0.3386402223040932,-0.3386402223040932,0.9998055478971312,0.0010235071677379593
-0.3364185988233658,-0.3364185988233658,0.998473659274417,0.0012228236409086864
-0.32769009866315174,-0.32769009866315174,1.0003786546240767,0.0009141022529419367
-0.3246342307676969,-0.3246342307676969,0.9995426979367746,0.000911721794662559
-0.3225558499805629,-0.3225558499805629,0.9997522311973552,0.0014496769222742444
-0.3208308460576518,-0.3208308460576518,1.0002856907084394,0.0009135939478435289
-0.3190770820190664,-0.3190770820190664,1.0001006732130988,0.000918711781267309
-0.3177510172085022,-0.3177510172085022,0.9997987061321855,0.0009241605965295586
-0.316502588133153,-0.316502588133153,1.000161448765472,0.0009164484872980112
-0.31524722931790167,-0.31524722931790167,1.000466136381371,0.0009152943852983574
-0.31353723697029634,-0.31353723697029634,0.9995096418487638,0.0009118512385618997
-0.31227979855466403,-0.31227979855466403,0.9997788271327508,0.0009124283136533488
-0.31130445535090984,-0.31130445535090984,0.9994576980501485,0.0009120423519524695
-0.3103295245084155,-0.3103295245084155,0.9997802807881015,0.0009111901545625339
-0.3094953022926347,-0.3094953022926347,1.0004228256920578,0.0009119182899778467
-0.308547318080673,-0.308547318080673,1.0008771084609986,0.0009115209712859418
-0.3076855615494424,-0.3076855615494424,0.9993138066361119,0.0009112603570232379
-0.30685823288658864,-0.30685823288658864,1.0002798763119378,0.0009118097359974353
-0.30602966190199365,-0.30602966190199365,0.9989089212119152,0.0009105741149693853
-0.3044676231955236,-0.3044676231955236,0.999961805032715,0.000911302565358681
-0.30228742769540984,-0.30228742769540984,0.9986691356939771,0.0010735360819048934
-0.29621358139120274,-0.29621358139120274,0.9998015936102689,0.0009323864252238802
-0.28975866943364964,-0.28975866943364964,0.9999497545294712,0.0009107291737634081
-0.2873708039121993,-0.2873708039121993,0.9998235684846822,0.0009121834538849578
-0.28558791794202987,-0.28558791794202987,1.000166977281848,0.000913847497890602
-0.2838177743484266,-0.2838177743484266,0.999868967335981,0.0009183384483852954
-0.2823268767111585,-0.2823268767111585,0.998969231954163,0.0009293604436039412
-0.2810358854207152,-0.2810358854207152,1.0007925965567614,0.0009141877945566645
-0.27972880379893467,-0.27972880379893467,0.9987368366793481,0.000915180264816976
-0.2779883293631428,-0.2779883293631428,0.9987616819423458,0.0009113550328912182
-0.27669123725427197,-0.27669123725427197,0.9999577633889517,0.000912204536808984
-0.27573210686823585,-0.27573210686823585,0.998386625977334,0.0009113036498453028
-0.27454040420416276,-0.27454040420416276,0.9993841035667794,0.0009116269457146031
-0.2737054862554942,-0.2737054862554942,1.000104616253734,0.0009121765919066188
-0.27282623370338116,-0.27282623370338116,0.9999527694387289,0.0009120490663302531
-0.2719346587058681,-0.2719346587058681,0.9998443360444881,0.0009104911695952336
-0.27108746943049483,-0.27108746943049483,0.9992290834887217,0.0009111173492701985
-0.2702585776343767,-0.2702585776343767,0.9996366165997482,0.0009115940062192806
-0.268761899650417,-0.268761899650417,0.998372684581037,0.0009305322526045665
-0.26678923380823105,-0.26678923380823105,0.9991550650389616,0.0011438812789351343
-0.2623917828052072,-0.2623917828052072,0.9987426994334172,0.0009372275406213661
-0.254488909993961,-0.254488909993961,1.0003725954458713,0.0009117203315406937
-0.2524421679576335,-0.2524421679576335,0.9982599594453772,0.0009111265506083022
-0.25034549981210147,-0.25034549981210147,1.0001001637673925,0.0009139979302377916
-0.24852355650364188,-0.24852355650364188,1.0000102751937714,0.0009142837783186447
-0.24651630461303284,-0.24651630461303284,0.9990642463288628,0.0009236078716389869
-0.24508847121251165,-0.24508847121251165,0.9991826601519067,0.0009140827206552479
-0.24378231129812775,-0.24378231129812775,1.0000573918945421,0.0009153696631473798
-0.24204260887563578,-0.24204260887563578,0.9990346217273123,0.0009122893159662875
-0.2408543650759384,-0.2408543650759384,0.9994615240313818,0.0009146750117311305
-0.23995104621499194,-0.23995104621499194,0.9993217904425317,0.0009114988269979902
-0.23887196865689475,-0.23887196865689475,0.9999294371767096,0.0009118899456369409
-0.23792043766516144,-0.23792043766516144,0.9998880173738639,0.0009116932009010403
-0.23714323784952285,-0.23714323784952285,1.0005605772546233,0.0009118783106969883
-0.23634105888340856,-0.23634105888340856,0.999468051949903,0.0009111258301689627
-0.23549860831408295,-0.23549860831408295,0.9991407833075845,0.000911563298326311
-0.23467426003408037,-0.23467426003408037,0.9995059948699835,0.0009106032964700672
-0.23327936777059222,-0.23327936777059222,1.0002599001536236,0.0009114334249328224
-0.23123861224012215,-0.23123861224012215,0.9988593271546684,0.0012773023325100099
-0.2284275812053238,-0.2284275812053238,0.9997043273627415,0.0009310467973504702
-0.21856400531323744,-0.21856400531323744,1.0011066180345731,0.0009116644007626738
-0.21670449229641237,-0.21670449229641237,0.9999856119534153,0.0014147046373241764
-0.21470486638500005,-0.21470486638500005,1.0005759548488524,0.0009121450319371048
-0.21301902948107454,-0.21301902948107454,1.000307430731349,0.00091335146603779
-0.21137974494995432,-0.21137974494995432,1.0007666575170515,0.0009287570608954392
-0.21010917082749075,-0.21010917082749075,0.9996105983777797,0.0009151789880757421
-0.20895268888780266,-0.20895268888780266,1.0017325742173955,0.0009170998970034813
-0.20752678857388673,-0.20752678857388673,0.9997651314753808,0.0009119933784550837
-0.20609705891547492,-0.20609705891547492,0.9998479130019076,0.0009121297784476354
-0.2049255961763265,-0.2049255961763265,0.9992510087011596,0.0009129454565775522
-0.20401024872480775,-0.20401024872480775,0.9990597810496714,0.000910933479282415
-0.20306549942615676,-0.20306549942615676,1.0011253581033084,0.0009117201867378149
-0.2021714941423852,-0.2021714941423852,1.0005499564487892,0.0009118565580950056
-0.201236786001391,-0.201236786001391,0.9997005874078264,0.0009114942928142228
-0.2004107177897822,-0.2004107177897822,0.9997131775093646,0.0009117691428301474
-0.19957158713514217,-0.19957158713514217,0.9998063013179277,0.0009113246801527558
-0.19869505818278413,-0.19869505818278413,1.0002720642644358,0.0009109701617866396
-0.196923116731341,-0.196923116731341,0.9996711166894328,0.0009529893522851153
-0.19462423505465268,-0.19462423505465268,0.9995213019999074,0.0010338606981607633
-0.18708349665539573,-0.18708349665539573,0.9995420031825517,0.0009274458173579893
-0.18224415436416166,-0.18224415436416166,1.000475302503246,0.0009111234518659678
-0.17984623565062066,-0.17984623565062066,1.0002034762882492,0.0009127784606109199
-0.17809055173202068,-0.17809055173202068,1.001171877665894,0.0009132289336240404
-0.1763569196955359,-0.1763569196955359,1.0001177842190563,0.0009189835974288332
-0.1749337122302677,-0.1749337122302677,1.0000148896519305,0.000928223257867365
-0.17372484005682054,-0.17372484005682054,0.9999101999938704,0.000917243216541639
-0.1722226743477222,-0.1722226743477222,0.9994608918012364,0.0009132106224438472
-0.17058672624989413,-0.17058672624989413,1.000722711046253,0.0009112957929282271
-0.1693880300503224,-0.1693880300503224,0.9989957290058371,0.0009118568781260027
-0.1683415991414222,-0.1683415991414222,1.0004412109292968,0.000911319731887136
-0.16727589013316901,-0.16727589013316901,0.9990346085332149,0.0009124732305437951
-0.16644172338710633,-0.16644172338710633,1.0002161634495024,0.0009117364175294555
-0.16550033031744532,-0.16550033031744532,0.9996093580956545,0.000911373022713703
-0.16463716192156425,-0.16463716192156425,1.0009238493149692,0.0009111536379706308
-0.16380949092636002,-0.16380949092636002,1.000334864014079,0.0009118739939307545
-0.16298379610088887,-0.16298379610088887,0.9989888517347907,0.000911624219735014
-0.16115186986571645,-0.16115186986571645,0.9990819512723563,0.0009293259970211586
-0.15924051894180594,-0.15924051894180594,0.999400248926186,0.0011370524349693105
-0.1532560837920755,-0.1532560837920755,1.0007357062624525,0.0009344809543428237
-0.14705329268108472,-0.14705329268108472,1.0000484468669635,0.0009111096103728799
-0.14484697373773087,-0.14484697373773087,1.0010582816458489,0.0009119248705212737
-0.14283821377175626,-0.14283821377175626,1.00023507076468,0.000913249260925927
-0.1409829575342883,-0.1409829575342883,1.0003739552603315,0.0009223684322073131
-0.1390670628839871,-0.1390670628839871,0.9989045309310256,0.0009155377420904498
-0.1377800632508297,-0.1377800632508297,1.0014029113065388,0.0009172913888237488
-0.13627569584787125,-0.13627569584787125,0.9998297619849573,0.0009131759340448044
-0.13464111724024405,-0.13464111724024405,1.0005214438674144,0.0009129540978878844
-0.13356837793035084,-0.13356837793035084,0.9988637725655021,0.000913878983616462
-0.132675446945359,-0.132675446945359,0.9999516641958917,0.0009117947315381751
-0.1314872440576437,-0.1314872440576437,1.0000231306256286,0.0009116710394934908
-0.1306519582038163,-0.1306519582038163,1.0003788808094733,0.0009120059811836018
-0.12988655112712877,-0.12988655112712877,0.9993865064884642,0.0009118168614662105
-0.12904195101436927,-0.12904195101436927,1.0017258728638023,0.0009114437134840104
-0.12822050489485265,-0.12822050489485265,0.9995867037537209,0.0009111858909665578
-0.12737221822098946,-0.12737221822098946,1.0004293021082877,0.0009103185829030018
-0.1257326640683459,-0.1257326640683459,1.0002797939669776,0.0009378339270530425
-0.12374434229423059,-0.12374434229423059,0.9997291208911022,0.0012411778681701209
-0.11912949434045003,-0.11912949434045003,0.9997330091671752,0.0009311165994259945
-0.11112918486905983,-0.11112918486905983,0.9995645684828087,0.000911868650627903
-0.10911151446925942,-0.10911151446925942,0.9992551984351099,0.0013830086639579984
-0.10728961261338554,-0.10728961261338554,0.9986404229211152,0.0009136849122134439
-0.10551220067354734,-0.10551220067354734,0.99933489835728,0.0009163980579801386
-0.10402981603037915,-0.10402981603037915,0.9989607837473979,0.0009253859528721089
-0.10274961972681922,-0.10274961972681922,0.9996412260339801,0.0009141857150917233
-0.10154955668258481,-0.10154955668258481,0.999240494602461,0.0009165885659044365
-0.10003039696457564,-0.10003039696457564,0.9990226234180151,0.0009121224584379836
-0.09840183824489941,-0.09840183824489941,1.000527897215602,0.000912401298413338
-0.09747911345330067,-0.09747911345330067,0.9995361213567053,0.0009122006067710973
-0.09650772959066671,-0.09650772959066671,0.9994217426343763,0.000911382842391007
-0.09555256766761885,-0.09555256766761885,1.0005746683321664,0.0009115443400709551
-0.09471687454206404,-0.09471687454206404,0.998028596009781,0.0009111815971913807
-0.09377785554679577,-0.09377785554679577,1.0003994313855031,0.0009116436400254055
-0.09295830958581064,-0.09295830958581064,0.9996463206484663,0.0009114218029952004
-0.0921106048677757,-0.0921106048677757,0.999930529571806,0.0009117518045316063
-0.09128100771340542,-0.09128100771340542,1.0010897620921888,0.0009114684200075896
-0.08929669304488926,-0.08929669304488926,0.9991474008439333,0.0009507568192977406
-0.08693114855195745,-0.08693114855195745,1.000970310460485,0.0010346931517562744
-0.07783149135502754,-0.07783149135502754,0.9997936568634035,0.0009208897626909466
-0.0741279389236297,-0.0741279389236297,0.9993711137101524,0.0009111490924989625
-0.07165296625244082,-0.07165296625244082,0.9997857115292386,0.0009130311207100877
-0.06996386860919301,-0.06996386860919301,0.997907404292522,0.000913205272179337
-0.06832685070912703,-0.06832685070912703,0.9992989958973194,0.0009321330100222954
-0.06704511455391185,-0.06704511455391185,0.9988674949679751,0.0009154989967699123
-0.06578531572740758,-0.06578531572740758,1.0002323049309498,0.0009155829467971556
-0.06408226302883122,-0.06408226302883122,0.9984286234419668,0.0009119982950980444
-0.06245678303312161,-0.06245678303312161,1.0011689515961226,0.00091257721108326
-0.06149629379433463,-0.06149629379433463,1.0005247819880485,0.0009118539496302076
-0.060303711225424196,-0.060303711225424196,0.9995565095395478,0.0009116234825590769
-0.059468885791284266,-0.059468885791284266,0.9989968538879843,0.0009116693270623605
-0.05858885375855607,-0.05858885375855607,0.9996752807388989,0.0009116817163070905
-0.057696608595142605,-0.057696608595142605,1.0003505419106895,0.0009111013824336168
-0.05684947966146865,-0.05684947966146865,0.9993904373301638,0.000910786163746568
-0.05602067089639604,-0.05602067089639604,0.9983778096208636,0.0009111825608943264
-0.05452322075361735,-0.05452322075361735,0.9996478112050939,0.0009287632601893966
