time,time,flux,flux_err
-0.4993152335977887,-0.4993152335977887,0.9989738736388395,0.0003104598432553111
-0.49776385342787915,-0.49776385342787915,0.9989649872565866,0.00031319439556302763
-0.496377615206211,-0.496377615206211,1.0004151998539221,0.0002914887426289341
-0.4938882053266752,-0.4938882053266752,0.9993540635461597,0.000284820387824004
-0.4926315041592261,-0.4926315041592261,1.0001916363829015,0.00028346032164970045
-0.4911842570401859,-0.4911842570401859,0.9981432619483186,0.00028613804859378364
-0.490195914210517,-0.490195914210517,1.0004144734812606,0.000283304581756309
-0.48792421771372574,-0.48792421771372574,0.9999347894584305,0.0002928002540440209
-0.4862921785665094,-0.4862921785665094,0.999997749053987,0.0002835525071134417
-0.4848865191587265,-0.4848865191587265,0.9981631576991692,0.0002827982986009037
-0.48373403084874556,-0.48373403084874556,0.999925494474786,0.00028653405616700005
-0.4821802551018209,-0.4821802551018209,0.999548436374495,0.00029174399854344873
-0.47988264137152326,-0.47988264137152326,0.9994668537648745,0.00028386012466484153
-0.47863923352533677,-0.47863923352533677,0.9997206881469654,0.00028323459503177206
-0.4773145869755808,-0.4773145869755808,0.9994679027208953,0.00028632425656848306
-0.4762082499306416,-0.4762082499306416,0.9994541957900396,0.0002829342508954156
-0.4736696670945548,-0.4736696670945548,0.9989124427667722,0.0002921590155907284
-0.47234221343192073,-0.47234221343192073,1.0002095804370792,0.00028313949819091654
-0.47088718903337395,-0.47088718903337395,1.0006490733379525,0.00028310858757022605
-0.46987214356877305,-0.46987214356877305,1.000422086718689,0.0002864006282507636
-0.4679299806252857,-0.4679299806252857,0.9990644000668688,0.000291894415422728
-0.46589268088596325,-0.46589268088596325,1.0003523517096682,0.00028314443230740915
-0.4646783124388548,-0.4646783124388548,1.0002945959996936,0.00028297478640196017
-0.4633617752343525,-0.4633617752343525,1.0003688067642182,0.0002862566763131342
-0.462107048226062,-0.462107048226062,1.0003773815274417,0.0002904140814120315
-0.4596176838652809,-0.4596176838652809,1.0000019908517943,0.0002844138383854247
-0.4583611597712661,-0.4583611597712661,1.0003225530413926,0.000283149334338662
-0.45691352730386825,-0.45691352730386825,1.0000554851851065,0.00028581760199783364
-0.45592532200707864,-0.45592532200707864,1.0006465235573205,0.0002829429562649365
-0.45365350290699097,-0.45365350290699097,1.0005334860346013,0.0002917093981794775
-0.4520219129737143,-0.4520219129737143,0.99974384879001,0.0002831878520627003
-0.45061585170706164,-0.45061585170706164,1.0005498514260673,0.0002828607139166333
-0.449463481296425,-0.449463481296425,1.000423205022082,0.00028614375864334204
-0.4479095314705773,-0.4479095314705773,0.9999886713856021,0.0002906725152653029
-0.4456121516222993,-0.4456121516222993,0.999775405209057,0.00028359618095231504
-0.4443689122275828,-0.4443689122275828,0.9995208125454838,0.0002831872298476483
-0.44304395408703384,-0.44304395408703384,0.9999204271228086,0.0002861234383816101
-0.44193769762091506,-0.44193769762091506,1.000019722455494,0.0002825824040261703
-0.4393989314771716,-0.4393989314771716,1.0007729603400028,0.0002911893106882001
-0.4380718235808672,-0.4380718235808672,0.9999204803319423,0.00028312303135297965
-0.4366165846378863,-0.4366165846378863,1.0003066985432723,0.0002829375786558836
-0.4356016683445432,-0.4356016683445432,0.9996698894941094,0.00028581913301018824
-0.4336592222116451,-0.4336592222116451,0.9998204299465424,0.0002909248926863311
-0.4316222821733845,-0.4316222821733845,1.0002451133187742,0.00028311513921661747
-0.4304078416048469,-0.4304078416048469,1.0003882116458147,0.0002828912000574491
-0.42909107482191755,-0.42909107482191755,0.9997180471584756,0.00028594200666924986
-0.4278364825142035,-0.4278364825142035,1.000226480315958,0.00028947908235718486
-0.425347164021332,-0.425347164021332,0.9998439532679259,0.00028438075574033076
-0.4240908187292007,-0.4240908187292007,0.9999695521733276,0.0002831176149350126
-0.4226427998471536,-0.4226427998471536,0.9997756697738224,0.0002856009324973878
-0.4216547313666069,-0.4216547313666069,0.9997980369788365,0.0002827863750869628
-0.4193827892398076,-0.4193827892398076,0.9994835088801892,0.0002906851774493459
-0.4177516496789849,-0.4177516496789849,1.0001886464307503,0.0002832209197068142
-0.41634518728874353,-0.41634518728874353,0.9993827092579938,0.00028260432795539385
-0.41519293367464344,-0.41519293367464344,0.9999720473295662,0.000285948700681487
-0.41363880888757193,-0.41363880888757193,1.0000694017146545,0.00028988547700206635
-0.4113416638216222,-0.4113416638216222,0.9999348218724371,0.0002835941905938513
-0.41009859433079326,-0.41009859433079326,1.0003438073173627,0.00028316222331945114
-0.4087733234052848,-0.4087733234052848,1.0002346434563145,0.00028595942340088116
-0.4076671468920267,-0.4076671468920267,0.9998804884074671,0.00028257627272910567
-0.4051281969440879,-0.4051281969440879,0.999975319733227,0.0002904739852581967
-0.4038014361378373,-0.4038014361378373,0.9998328964562407,0.0002831182505694316
-0.4023459839753286,-0.4023459839753286,1.0000062822953322,0.00028293750919943444
-0.40133119451693344,-0.40133119451693344,0.999994748296805,0.00028574963619750436
-0.39938846484569696,-0.39938846484569696,1.0000103312106954,0.00029028170416736936
-0.39735188586946607,-0.39735188586946607,1.0000567883563847,0.00028318838887963067
-0.39613737407985355,-0.39613737407985355,0.9998929618279536,0.0002829675780069502
-0.3948203763950005,-0.3948203763950005,0.9998907752142092,0.0002857332976779596
-0.3935659181630854,-0.3935659181630854,1.0001213240584956,0.0002888422617952209
-0.39107664586845203,-0.39107664586845203,0.999702747102679,0.00028447333496470375
-0.38982048105140166,-0.38982048105140166,1.000314636337294,0.0002831071692602927
-0.388372074724839,-0.388372074724839,1.000136227185675,0.00028552459193289793
-0.38738414232643664,-0.38738414232643664,1.0005276012653224,0.0002828956715694354
-0.38511207669416764,-0.38511207669416764,1.0003714666236454,0.0002901220560092042
-0.38348138888450195,-0.38348138888450195,1.000080407292336,0.00028326511583658977
-0.38207452597721386,-0.38207452597721386,1.0000407306318644,0.00028270921152583956
-0.3809223878906778,-0.3809223878906778,0.9994683990039647,0.0002857993877086702
-0.3793680874623533,-0.3793680874623533,0.9999060216914373,0.00028898452350790136
-0.3770711778411169,-0.3770711778411169,0.9998438920035779,0.00028365732095892186
-0.37582827998217,-0.37582827998217,1.0000931799889927,0.00028315263564216916
-0.3745026949287876,-0.3745026949287876,0.9997978537105734,0.00028595210760689737
-0.3733965978364722,-0.3733965978364722,1.0001579841610009,0.0002826143646169101
-0.37085746344068865,-0.37085746344068865,1.0001428240858634,0.0002896221365663494
-0.36953105112165757,-0.36953105112165757,0.9999718790587918,0.00028320372106351314
-0.36807538698881215,-0.36807538698881215,0.9998744265170834,0.0002829461704327309
-0.36706072195843265,-0.36706072195843265,1.0005090528609124,0.00028568048234132423
-0.36511770847264413,-0.36511770847264413,1.0004031199722692,0.00028949883748935696
-0.3630814920656576,-0.3630814920656576,1.000283668049915,0.0002832405678867505
-0.3618669098637383,-0.3618669098637383,0.9996520219489634,0.00028288721999462777
-0.3605496798067179,-0.3605496798067179,0.999875840124701,0.0002855977744589549
-0.3592953550799393,-0.3592953550799393,0.9997933280045401,0.00028810064020136676
-0.3566964641820505,-0.3566964641820505,0.99998760044477,0.0002842896375104467
-0.35555014682977343,-0.35555014682977343,0.9998979011762529,0.0002832024168539646
-0.3541013519376975,-0.3541013519376975,0.9999494307351323,0.0002853230243136442
-0.35311355473750156,-0.35311355473750156,0.9998535340054593,0.0002829271670851362
-0.35069921294207235,-0.35069921294207235,1.0005465832207108,0.0002886082609896686
-0.34907911960604,-0.34907911960604,0.9997430271849783,0.00028401446370166633
-0.34780386784595974,-0.34780386784595974,1.0001749432200255,0.0002827862755957651
-0.34665184422142375,-0.34665184422142375,1.0001471323798972,0.00028566568803145055
-0.3450973671585871,-0.3450973671585871,0.999861812308624,0.000288346336589436
-0.3425265306265374,-0.3425265306265374,0.9998904119142885,0.0002836128540372689
-0.34155796914492387,-0.34155796914492387,1.0001836647080053,0.0002831996730792561
-0.34023206871374895,-0.34023206871374895,0.9999126803703289,0.0002858356325046576
-0.3391260505084574,-0.3391260505084574,0.9999278262033705,0.000282770098744582
-0.33644202474742996,-0.33644202474742996,1.0000532112954519,0.00028855056064268174
-0.33513121173405125,-0.33513121173405125,1.0001031621869931,0.0002837007405727932
-0.3338047939182161,-0.3338047939182161,0.99954625285558,0.00028305830216514597
-0.3327902506679948,-0.3327902506679948,0.9999876808989336,0.0002854850113976963
-0.3307274056698134,-0.3307274056698134,1.0000600518088523,0.0002881379954618905
-0.3286016525463765,-0.3286016525463765,1.0001573720884267,0.0002839019827686204
-0.32759644914067393,-0.32759644914067393,1.0003983118449447,0.00028301528438428003
-0.32627898511150305,-0.32627898511150305,1.0003161522652597,0.00028550261457592664
-0.32502479332074474,-0.32502479332074474,1.0002988633136654,0.00028765321954246425
-0.3221612188844574,-0.3221612188844574,0.9999461606091131,0.0002841894830995234
-0.3211058867025258,-0.3211058867025258,0.9999051958799037,0.0002834094850044583
-0.3198306316138769,-0.3198306316138769,0.9998888040639864,0.0002851937818328024
-0.318842968840454,-0.318842968840454,0.9999265443967589,0.0002830064624297458
-0.3164259928317733,-0.3164259928317733,0.999570873581374,0.0002882914987774875
-0.31456893932777347,-0.31456893932777347,1.000030010282654,0.00028366121761963184
-0.31350148507121955,-0.31350148507121955,1.0000727645207703,0.00028292445042238406
-0.3123813025190884,-0.3123813025190884,0.9999952950010662,0.000285489858617819
-0.310826647994736,-0.310826647994736,1.0000247792519483,0.000287873959484553
-0.3081168258647267,-0.3081168258647267,1.0001005255710582,0.0002839219587571123
-0.30715272238121544,-0.30715272238121544,0.9998111602762332,0.0002829023166970461
-0.3059614447784497,-0.3059614447784497,0.9998962340255814,0.0002855372164445445
-0.3048555047985701,-0.3048555047985701,0.9996728253553538,0.00028274275736796625
-0.3020710530215183,-0.3020710530215183,0.999968038457076,0.00028791689261080356
-0.3006320779060843,-0.3006320779060843,0.999932840902321,0.00028377451848523075
-0.29953420487404403,-0.29953420487404403,1.0000705156808942,0.00028294306327238323
-0.2985197807935037,-0.2985197807935037,1.0002533547399177,0.0002854787786244679
-0.29645657623777877,-0.29645657623777877,1.000437378940756,0.0002877136060815384
-0.29414366197433994,-0.29414366197433994,1.0002384366471115,0.0002838208598497067
-0.2930201782538006,-0.2930201782538006,1.000268448804155,0.00028307885847789037
-0.2920082924754297,-0.2920082924754297,0.9999047216551,0.00028528238632390124
-0.2907542329221542,-0.2907542329221542,0.9996718662949846,0.0002872657250682136
-0.28789057035173754,-0.28789057035173754,0.9998159425720688,0.00028418161502622455
-0.28659081085829713,-0.28659081085829713,0.9999941459203004,0.0002831411502833818
-0.285530637189504,-0.285530637189504,0.999631370356725,0.00028518885234227024
-0.2845723843404812,-0.2845723843404812,0.9999629587745046,0.00028299539468227034
-0.2821553575539383,-0.2821553575539383,0.9994308003566484,0.00028776686793198297
-0.2801638118099163,-0.2801638118099163,1.0000177068233906,0.0002836102116264845
-0.2790914729394899,-0.2790914729394899,0.9995830575727039,0.000283020299244157
-0.2781107628757127,-0.2781107628757127,1.0005132999710273,0.0002853844464898618
-0.2765559301361463,-0.2765559301361463,1.0001977354080376,0.00028738734396031277
-0.2738464130153261,-0.2738464130153261,0.9998430759227169,0.00028397642696208707
-0.27262903720143183,-0.27262903720143183,1.0003397771552363,0.000282982724051803
-0.27166997668600745,-0.27166997668600745,0.9999614276483516,0.000285400713300108
-0.2705849608348217,-0.2705849608348217,0.9997961939790546,0.0002828321455600538
-0.26780026116593947,-0.26780026116593947,1.0000140521512306,0.00028740124557127974
-0.2661713181837513,-0.2661713181837513,1.000101034577419,0.0002838158804907933
-0.2651250699047978,-0.2651250699047978,1.000170540187415,0.00028279482338308736
-0.26424931216861297,-0.26424931216861297,1.0000610820011624,0.0002852832458516062
-0.2621857481839925,-0.2621857481839925,1.000291380008127,0.0002871790410669181
-0.2597311402387277,-0.2597311402387277,0.999838606467993,0.0002831197895817936
-0.2586177716090333,-0.2586177716090333,0.999745411790221,0.00028364276747399144
-0.2577376018254654,-0.2577376018254654,1.0001588047428183,0.00028505521153555913
-0.25648367382873405,-0.25648367382873405,0.9998845512758455,0.0002869288487875593
-0.25361289096681505,-0.25361289096681505,1.0000668607228647,0.0002836083977002619
-0.25206674540968377,-0.25206674540968377,0.9998067679406312,0.0002829048668680011
-0.2512466689203848,-0.2512466689203848,1.0003322508238963,0.0002856357428839399
-0.2503018014582722,-0.2503018014582722,0.999861978442192,0.0002829196473219516
-0.24788472381983412,-0.24788472381983412,1.0002528311365362,0.0002874180940216183
-0.24575039195237877,-0.24575039195237877,1.0007636846022483,0.00028327720607554423
-0.24468975643826524,-0.24468975643826524,1.0003239920178233,0.0002832538116053781
-0.24384022536469274,-0.24384022536469274,1.0000517542665843,0.00028515263434560875
-0.24228521336212908,-0.24228521336212908,1.0002219554811635,0.000287115945999621
-0.23946538570194206,-0.23946538570194206,1.0001431387229147,0.0002832684708388895
-0.23819500536824306,-0.23819500536824306,0.9995027674674957,0.00028351417949773434
-0.2373994755016156,-0.2373994755016156,0.9996963495236024,0.0002851545929756406
-0.23631441854463447,-0.23631441854463447,1.0000244901561517,0.0002828825061477462
-0.23352947092803333,-0.23352947092803333,0.9997103579989549,0.00028709734620034074
-0.23175827598242904,-0.23175827598242904,1.0001590009701253,0.0002831941750593967
-0.230832719600312,-0.230832719600312,1.000011415800043,0.00028345827848155574
-0.22997884499663995,-0.22997884499663995,1.0002494673678186,0.00028511962433995985
-0.2279149213803521,-0.2279149213803521,0.9996733949042458,0.0002867795831709004
-0.22546073163593974,-0.22546073163593974,1.0003998218814942,0.00028326351436282963
-0.2243474208234602,-0.2243474208234602,0.999777992507805,0.00028361725243244713
-0.22346691315983663,-0.22346691315983663,1.000258649567653,0.00028492618827071295
-0.22221311616913225,-0.22221311616913225,1.000021893453524,0.0002866198873242911
-0.21934233968468106,-0.21934233968468106,0.9995015375038454,0.0002836310255067798
-0.21779626187244502,-0.21779626187244502,0.9999005315026883,0.00028302747746888494
-0.216976161706134,-0.216976161706134,1.0001668029302426,0.00028546247312765023
-0.21603122019391777,-0.21603122019391777,0.9996178886141129,0.00028300173094262854
-0.2136140916667955,-0.2136140916667955,1.000007823906616,0.00028706047412963237
-0.21148003866692305,-0.21148003866692305,1.000304736758076,0.000283251371288756
-0.21041914193397132,-0.21041914193397132,0.999959803104967,0.00028326757397103457
-0.2095696899313225,-0.2095696899313225,1.0000247917558276,0.00028502197079368453
-0.20801449789314574,-0.20801449789314574,1.000004763390031,0.0002867933700970213
-0.20519487848578138,-0.20519487848578138,0.9998596849365532,0.0002831043184731997
-0.2039246225028819,-0.2039246225028819,1.0002486114782712,0.000283542927999715
-0.20312897654189327,-0.20312897654189327,0.9998416286651309,0.0002849374504043129
-0.20204387790859074,-0.20204387790859074,0.9999733552515815,0.0002828700616170045
-0.19925868219766016,-0.19925868219766016,0.999946850314118,0.0002866912586410538
-0.19748794657684812,-0.19748794657684812,0.9997650955906522,0.0002831713637562976
-0.19656216101980134,-0.19656216101980134,0.9998058459995658,0.0002834064562072011
-0.19570837914770892,-0.19570837914770892,1.0000813406182678,0.00028489495569703323
-0.19364409591926232,-0.19364409591926232,1.0002528563211068,0.00028653324001610525
-0.19119032555117882,-0.19119032555117882,0.9998212689167094,0.00028322269027054365
-0.19007707353084696,-0.19007707353084696,1.0002349631376775,0.0002835345040027791
-0.18919622662779148,-0.18919622662779148,1.000364996896769,0.0002847918503540099
-0.18794255987013458,-0.18794255987013458,0.9996569594926923,0.0002862623594727448
-0.18507179086559516,-0.18507179086559516,0.9997833355677932,0.00028347084547406014
-0.18352578188237204,-0.18352578188237204,1.0000916707749359,0.0002829926557419504
-0.1827056566243755,-0.1827056566243755,0.9998246982230035,0.0002851928637985764
-0.18194929663845869,-0.18194929663845869,1.0000878402950755,0.0002900707741843061
-0.17993576615363055,-0.17993576615363055,0.9999306440361038,0.00028640431431599443
-0.17748216372788192,-0.17748216372788192,1.000081254553038,0.0002830779675454101
-0.17636893560638783,-0.17636893560638783,1.0007189679773814,0.00028371636255663656
-0.17548795263210196,-0.17548795263210196,0.9999187303365368,0.0002847149076787224
-0.17423433774742988,-0.17423433774742988,1.0001236803285583,0.00028618216228562044
-0.1713635720221191,-0.1713635720221191,1.00031062913586,0.00028356667480777277
-0.16981759094569499,-0.16981759094569499,0.9998179494543166,0.00028293198005022277
-0.16899745523860474,-0.16899745523860474,0.999839973816519,0.0002851816221581628
-0.16805240903017876,-0.16805240903017876,0.9998537326175272,0.0002829673356151901
-0.16563520932581924,-0.16563520932581924,0.9998043655743423,0.00028658737529112146
-0.16350155030568203,-0.16350155030568203,1.0001617993665737,0.00028331589669269733
-0.16244028501778301,-0.16244028501778301,1.0000645083930204,0.00028326470959507224
-0.16159094410427316,-0.16159094410427316,0.9999614157784087,0.0002847879455848656
-0.16003549824458788,-0.16003549824458788,1.0001261507358403,0.000286249186442094
-0.1572161728323863,-0.1572161728323863,0.9999640213773422,0.00028308073637312367
-0.1559460922635026,-0.1559460922635026,0.9997657354121212,0.0002836540518208018
-0.15515028185886875,-0.15515028185886875,0.9997538559560113,0.00028470605218054474
-0.15406512391896285,-0.15406512391896285,1.0000188030026225,0.0002828309023301942
-0.1512795805416772,-0.1512795805416772,1.0000967871348974,0.00028612318923014896
-0.14950949156477691,-0.14950949156477691,1.0008518397234467,0.00028339119559621037
-0.1485833836508391,-0.1485833836508391,0.9999988872795804,0.0002833575441837802
-0.14772972924306488,-0.14772972924306488,1.0002021053166714,0.0002848084146289603
-0.14566494258588136,-0.14566494258588136,1.0003789198306257,0.000285993283126475
-0.14321176113658113,-0.14321176113658113,0.9996409526875855,0.00028299866029290956
-0.14209859335078362,-0.14209859335078362,1.00008724983758,0.00028348651600629195
-0.1412172690780153,-0.1412172690780153,1.0000642868103573,0.0002844636022106827
-0.1399637834520945,-0.1399637834520945,1.000198984568876,0.00028587401397139255
-0.137093026549519,-0.137093026549519,1.0000615694602029,0.0002833905173568176
-0.13554711593874344,-0.13554711593874344,0.9998185873541843,0.0002829484591246742
-0.13472695344789826,-0.13472695344789826,0.9996154089352094,0.00028497277904008964
-0.13378183151617123,-0.13378183151617123,1.0002010315443315,0.0002829540756117398
-0.1313645810703747,-0.1313645810703747,1.0001315867829859,0.0002861493420791531
-0.12923120604605173,-0.12923120604605173,1.0001884202888875,0.0002831147710154523
-0.12816967542212296,-0.12816967542212296,1.0002489044325131,0.00028318324120840617
-0.12732041402027788,-0.12732041402027788,0.9995897483073598,0.00028461990853446463
-0.12576478579080685,-0.12576478579080685,1.0000116971551793,0.00028582722033732743
-0.12294567197764081,-0.12294567197764081,0.9992609293282658,0.00028293665295562286
-0.12167571770769428,-0.12167571770769428,0.9997547615347555,0.0002834814779422226
