time,time,flux,flux_err
-0.4990967448926919,-0.4990967448926919,0.9999584131820178,0.00010614446773701918
-0.4972150648633639,-0.4972150648633639,1.000014188071364,0.00010616996599961815
-0.495420226566542,-0.495420226566542,0.9999203771082229,0.00010614433420796175
-0.4939904226424308,-0.4939904226424308,1.0000114582674058,0.00010617065716490811
-0.49271788124460725,-0.49271788124460725,1.000105106339031,9.692653479675672e-05
-0.49143450700794344,-0.49143450700794344,0.9999018770839119,9.695326209990728e-05
-0.49023346875910645,-0.49023346875910645,0.999917728905422,9.734091318543222e-05
-0.48823513099341653,-0.48823513099341653,1.0000370387569812,9.690890248219422e-05
-0.48670658193295824,-0.48670658193295824,1.0000613687677833,9.689735949979353e-05
-0.4851383043831447,-0.4851383043831447,0.999941622667025,9.689505753903373e-05
-0.4837670681081363,-0.4837670681081363,1.000000984901693,9.74161692831887e-05
-0.4827185594127513,-0.4827185594127513,0.9999902426705395,9.690585017552497e-05
-0.481614428354078,-0.481614428354078,0.999908144072761,9.692697532724342e-05
-0.4804345044787624,-0.4804345044787624,1.0000157066416284,9.689473753246056e-05
-0.4792076611876837,-0.4792076611876837,0.9999313256665339,9.700474312487836e-05
-0.4780971453059465,-0.4780971453059465,0.9999160727204128,0.00010068212348499363
-0.476044531079242,-0.476044531079242,0.999969983144173,9.689623375512904e-05
-0.4741567918492365,-0.4741567918492365,0.9999639229792553,9.689778729031178e-05
-0.47261763491114833,-0.47261763491114833,0.9998748326432775,9.690681757918493e-05
-0.47119826773705425,-0.47119826773705425,1.0001584960492864,9.698848536818862e-05
-0.4699754089640919,-0.4699754089640919,1.0000110626613699,9.692126605335009e-05
-0.4688531404492096,-0.4688531404492096,0.9999963740754392,9.690141786530273e-05
-0.46777252507745287,-0.46777252507745287,0.9998035035590958,9.68828432583771e-05
-0.4666118914377876,-0.4666118914377876,1.000063607884103,0.0001101189409943325
-0.46522369010344844,-0.46522369010344844,1.0001227455601986,9.690653936040605e-05
-0.463027379300911,-0.463027379300911,1.0000705421149885,9.696867286309561e-05
-0.4613111798360478,-0.4613111798360478,0.9999226720993699,9.690717755375998e-05
-0.46028951234329724,-0.46028951234329724,1.0001049703184184,9.68875085350275e-05
-0.45888662763027244,-0.45888662763027244,0.9998357680440104,9.68989856700636e-05
-0.45771770670689876,-0.45771770670689876,1.000060382127708,9.691617410485815e-05
-0.456746760502574,-0.456746760502574,1.000048888423671,9.692017801021405e-05
-0.4554569685671595,-0.4554569685671595,0.9998475699739557,9.690162092704245e-05
-0.4543554398507695,-0.4543554398507695,0.9998804282362619,0.00010015599971389289
-0.45265989999024897,-0.45265989999024897,0.999924857856404,9.689509248661579e-05
-0.4508979137142887,-0.4508979137142887,1.0001192443727507,9.689393221213519e-05
-0.4494096524984343,-0.4494096524984343,0.999955060756917,9.690728591104118e-05
-0.4478810572793009,-0.4478810572793009,1.0000331781999245,9.798098697943181e-05
-0.44663473766704553,-0.44663473766704553,1.000076410356532,9.691268164386776e-05
-0.4454985715681687,-0.4454985715681687,0.9999929534960827,9.691031243604289e-05
-0.4442098373983754,-0.4442098373983754,1.0000594486732641,9.692899618656746e-05
-0.44296252849453593,-0.44296252849453593,1.0000828761996112,9.690767354699614e-05
-0.441408976308594,-0.441408976308594,1.0001006168983706,9.690474407472822e-05
-0.439284499824862,-0.439284499824862,1.0000907374025156,9.690050221948026e-05
-0.43777107684290967,-0.43777107684290967,1.0000599901605975,9.691074458858243e-05
-0.43621651294088226,-0.43621651294088226,1.0000276961203372,9.689416211470748e-05
-0.43481849419040375,-0.43481849419040375,0.9998836997358749,9.715383600623085e-05
-0.43356661471625557,-0.43356661471625557,0.9999609530690499,9.690501476241168e-05
-0.4324383884159033,-0.4324383884159033,0.9998990215354129,9.691140559022184e-05
-0.43129064279200974,-0.43129064279200974,1.0000003856064859,9.69131262569342e-05
-0.43012061556364645,-0.43012061556364645,1.0000465262276101,0.00010342683759245412
-0.42884773813711946,-0.42884773813711946,0.9999730596059253,9.690249743142723e-05
-0.4266278935785522,-0.4266278935785522,1.0000576532349934,9.715072590359367e-05
-0.4250855409525684,-0.4250855409525684,1.0001454762927497,9.691281692363285e-05
-0.42368770719476745,-0.42368770719476745,0.9998777094497193,9.68919680160489e-05
-0.42226833173044726,-0.42226833173044726,0.9998986957101931,9.691347039365522e-05
-0.42105482799815946,-0.42105482799815946,0.9998150914741087,9.692028795130095e-05
-0.4199384515799466,-0.4199384515799466,1.0001149472573192,9.689717340884649e-05
-0.41883879543456715,-0.41883879543456715,0.9999356204110101,9.68834705628895e-05
-0.4177072884660447,-0.4177072884660447,1.000027401368366,0.00012193113227710279
-0.416282623996085,-0.416282623996085,0.9999993104570546,9.690341055913632e-05
-0.4143145272129914,-0.4143145272129914,0.9999819566538077,9.688772841781913e-05
-0.41264407114504137,-0.41264407114504137,1.0002177294018888,9.6912553816269e-05
-0.41140057731827256,-0.41140057731827256,0.9998084157811988,9.689924674603849e-05
-0.40994888423883824,-0.40994888423883824,1.0000582134156009,9.689739796193465e-05
-0.40880726195318856,-0.40880726195318856,0.9998702412197644,9.691509029480908e-05
-0.40762491391506045,-0.40762491391506045,1.0000335781495735,9.690762634401585e-05
-0.40634344736317873,-0.40634344736317873,0.9998602104492689,9.691024082417189e-05
-0.4051549158990383,-0.4051549158990383,0.9998478939237149,9.728623647245672e-05
-0.40332162431295726,-0.40332162431295726,0.9999213052426758,9.687646739260944e-05
-0.40174006918387023,-0.40174006918387023,0.9999972367713152,9.69035679307268e-05
-0.4001201919745654,-0.4001201919745654,0.9999282443488207,9.690147854614391e-05
-0.39868799284595297,-0.39868799284595297,0.9998996328150506,9.751623406615317e-05
-0.3976086300754105,-0.3976086300754105,0.9998824123980532,9.689613181021383e-05
-0.39656469553447093,-0.39656469553447093,1.000003945242785,9.691381917403806e-05
-0.39527976331009995,-0.39527976331009995,0.999951012888511,9.691442393819048e-05
-0.3940524569217814,-0.3940524569217814,0.9999954263255866,9.689598828493425e-05
-0.3927208513647201,-0.3927208513647201,0.9998913306949164,9.765949598618124e-05
-0.39072574083256767,-0.39072574083256767,0.9999733700875547,9.690324256286791e-05
-0.38883601746201746,-0.38883601746201746,0.9999394350940966,9.688560854762473e-05
-0.38729516065504865,-0.38729516065504865,1.0000385988191556,9.691655508961768e-05
-0.385879796424706,-0.385879796424706,0.9998711817977683,9.699789097160011e-05
-0.3846492062075413,-0.3846492062075413,0.9999923524566692,9.691484163878726e-05
-0.38352763036382387,-0.38352763036382387,1.0000331722554334,9.691614918211733e-05
-0.38245272484782616,-0.38245272484782616,0.9999220202497192,9.687730052207626e-05
-0.38128322137636134,-0.38128322137636134,1.000047458441276,0.00010803638987906411
-0.37990609466505704,-0.37990609466505704,1.000169751885068,9.69185007783203e-05
-0.37770436022983633,-0.37770436022983633,0.9999617693240168,9.698367093347335e-05
-0.3759883218619507,-0.3759883218619507,0.9999183531156135,9.690081793352538e-05
-0.37443037082412045,-0.37443037082412045,0.9999409775501537,9.691020288572134e-05
-0.37312090193590847,-0.37312090193590847,1.0000261206936991,9.690949391675361e-05
-0.3718927310459549,-0.3718927310459549,1.00000279274848,9.690642976302635e-05
-0.3709795970338746,-0.3709795970338746,0.9999880007586789,9.693009408290448e-05
-0.36990547877940116,-0.36990547877940116,1.000123906345797,9.690397597175685e-05
-0.368802333837084,-0.368802333837084,0.999770817040196,0.00014100333335009295
-0.36734200195642186,-0.36734200195642186,1.0000196016005443,9.690091758965364e-05
-0.3653856372809969,-0.3653856372809969,1.0000447193965998,9.689770964747208e-05
-0.36372035950480497,-0.36372035950480497,0.9999812308457573,9.690664715495911e-05
-0.3623104379948927,-0.3623104379948927,1.000033951657215,9.818155022157677e-05
-0.3610152791035944,-0.3610152791035944,1.0000829071353459,9.690862898634592e-05
-0.35989793190528874,-0.35989793190528874,1.000110546936955,9.693238649049332e-05
-0.3587051849681302,-0.3587051849681302,1.000051434319887,9.689648482293815e-05
-0.35758482281962645,-0.35758482281962645,1.0000083965144422,9.690001983016767e-05
-0.3562969447564683,-0.3562969447564683,1.0000767410704867,9.752913003488464e-05
-0.35434475776855834,-0.35434475776855834,1.0000982718066656,9.690642017592198e-05
-0.35245167897082863,-0.35245167897082863,1.0000896325692468,9.689701172528061e-05
-0.3508930048192269,-0.3508930048192269,1.0000812715839977,9.690991795199579e-05
-0.3495001897186739,-0.3495001897186739,1.000200318025615,9.723325184221351e-05
-0.34824425479455384,-0.34824425479455384,0.9998818270961719,9.691186817992855e-05
-0.3471093642569031,-0.3471093642569031,0.9999739859696,9.69250142753634e-05
-0.3459691439958988,-0.3459691439958988,0.9999396213281855,9.691106368672973e-05
-0.34478868248697836,-0.34478868248697836,1.0000244652501968,0.00010248682396412368
-0.3435303168836981,-0.3435303168836981,0.9998590342857847,9.691148887763971e-05
-0.3413050307062804,-0.3413050307062804,1.0000318262795456,9.725389032348566e-05
-0.339764725031273,-0.339764725031273,1.0000979325772505,9.690199999150947e-05
-0.3383666418507346,-0.3383666418507346,1.0000103432085798,9.690036573619453e-05
-0.33694681086344647,-0.33694681086344647,0.9998775550581737,9.692740808838286e-05
-0.33573141473607393,-0.33573141473607393,0.9999639883452736,9.691102734798304e-05
-0.3346128147299169,-0.3346128147299169,1.0000720945576265,9.690976907472605e-05
-0.33351887172466377,-0.33351887172466377,0.999963713058164,9.689417268509608e-05
-0.3323786993700196,-0.3323786993700196,1.000214771844906,0.00011742882903056115
-0.33096489770541665,-0.33096489770541665,1.0000269313257486,9.6900074295251e-05
-0.32899328030471225,-0.32899328030471225,1.0000229204249718,9.690771220962203e-05
-0.327321271240362,-0.327321271240362,0.9999319345106524,9.689955184261222e-05
-0.3260794023721246,-0.3260794023721246,1.0001000433725677,9.69041717644441e-05
-0.3246301610473893,-0.3246301610473893,1.0001130701569714,9.690827940817561e-05
-0.3234807479617302,-0.3234807479617302,0.9999293782341245,9.690470014396877e-05
-0.32249886435311054,-0.32249886435311054,1.000059775783648,9.691316693320054e-05
-0.3212193358631339,-0.3212193358631339,1.0000271147494633,9.690630036142375e-05
-0.32011690487561284,-0.32011690487561284,1.0000920664966808,9.722160996918072e-05
-0.31840181662410033,-0.31840181662410033,0.9998682475911835,9.690279669640161e-05
-0.31664793965610444,-0.31664793965610444,1.0000568463707662,9.690996903271285e-05
-0.3151622012737789,-0.3151622012737789,1.0000311959470134,9.689849592580298e-05
-0.31363294695038346,-0.31363294695038346,0.9998479552784125,9.76217775210576e-05
-0.31255782526131953,-0.31255782526131953,1.0000572440970745,9.69069931722109e-05
-0.31140354249073426,-0.31140354249073426,0.9999609395196585,9.690930894407105e-05
-0.3101637257044786,-0.3101637257044786,0.9998279966811751,9.691247785759048e-05
-0.3090554268230335,-0.3090554268230335,1.0000322263726322,9.6905587190426e-05
-0.30747583839984144,-0.30747583839984144,1.0000287928590421,9.690179902109068e-05
-0.30540724052407314,-0.30540724052407314,1.0000332455715708,9.689924691067005e-05
-0.3038850215889397,-0.3038850215889397,1.0000163259677894,9.690035688077036e-05
-0.30227523683424806,-0.30227523683424806,1.0002037317586134,9.691225455309792e-05
-0.3008086313318927,-0.3008086313318927,1.0000384081499218,9.702011180589212e-05
-0.2995650536729954,-0.2995650536729954,0.9999809981653159,9.690279595241645e-05
-0.29843943662272066,-0.29843943662272066,1.000016933673291,9.690236795523121e-05
-0.29727308736764824,-0.29727308736764824,0.9999716464573025,9.689043758082526e-05
-0.2959545292396797,-0.2959545292396797,1.0001574775491286,0.00010633899754147809
-0.29458854338299717,-0.29458854338299717,0.9999797789903766,9.691795234598066e-05
-0.29238138040964257,-0.29238138040964257,0.999937141898493,9.702936764433042e-05
-0.2906655007012887,-0.2906655007012887,1.0000176612937384,9.689975515692333e-05
-0.28910851792170433,-0.28910851792170433,0.9999645545009409,9.690454816219392e-05
-0.28779948001611044,-0.28779948001611044,1.0000211695782015,9.690766220283036e-05
-0.28656848282844294,-0.28656848282844294,1.0001354661663004,9.692666527259197e-05
-0.2856537868065061,-0.2856537868065061,1.0000245412358155,9.690471571326286e-05
-0.2845854307612171,-0.2845854307612171,1.000158778377357,9.688804663287058e-05
-0.2834738625024329,-0.2834738625024329,1.0000952422018703,0.0001346113459151207
-0.282024140728754,-0.282024140728754,1.0000329926265135,9.690415587459984e-05
-0.2800642570757191,-0.2800642570757191,1.0001296913663944,9.68917660784192e-05
-0.27839742711366855,-0.27839742711366855,1.0000450740059645,9.690506094951911e-05
-0.27699262828682547,-0.27699262828682547,1.0001438325068883,9.844727158883955e-05
-0.2756927365975571,-0.2756927365975571,1.0000326904727737,9.690388892573556e-05
-0.27457326843723423,-0.27457326843723423,1.0000600022415658,9.69354427548212e-05
-0.2733810569552588,-0.2733810569552588,1.0000120704654856,9.690294636069557e-05
-0.2720948496251367,-0.2720948496251367,0.9999380523790299,9.69162125445594e-05
-0.2706608918582788,-0.2706608918582788,0.9999877043274179,9.744055911575489e-05
-0.26852895117626757,-0.26852895117626757,0.9999648594866759,9.689131737077258e-05
-0.2668563906030613,-0.2668563906030613,0.9999221862152974,9.690894399090042e-05
-0.2652495208414621,-0.2652495208414621,1.0001520716522703,9.690529346532342e-05
-0.263978561705153,-0.263978561705153,1.0001860243780407,9.730162689918006e-05
-0.26292193575645795,-0.26292193575645795,1.0000235750008195,9.689583605878565e-05
-0.2617803736240603,-0.2617803736240603,1.0000026768921635,9.69177068989537e-05
-0.26064768036885655,-0.26064768036885655,0.999969118104968,9.690788240720481e-05
-0.25946289091807556,-0.25946289091807556,0.9999935909628027,9.70967487050848e-05
-0.2584453807095997,-0.2584453807095997,0.9999950182736501,0.00010573460605282961
-0.25630360835202737,-0.25630360835202737,1.0001005515553103,9.690570985132614e-05
-0.2544439549004892,-0.2544439549004892,0.9999377821832784,9.689726769608479e-05
-0.2530456108317594,-0.2530456108317594,0.9999898962985885,9.691314657826928e-05
-0.25162533252150754,-0.25162533252150754,1.0000280578174308,9.693992764831423e-05
-0.25040803664160194,-0.25040803664160194,1.0000194411878507,9.691405025242151e-05
-0.2492872138711391,-0.2492872138711391,1.0002013310209703,9.69088541389703e-05
-0.24819898317364278,-0.24819898317364278,1.0002141380544323,9.690593462255924e-05
-0.24705008492601338,-0.24705008492601338,1.0001737582684513,0.0001137679024300308
-0.24564721312344773,-0.24564721312344773,1.0001451516730726,9.690472753916962e-05
-0.2434581300083664,-0.2434581300083664,0.9999349728921333,9.691863984673561e-05
-0.24174172364146215,-0.24174172364146215,0.9999529922964386,9.69065496638595e-05
-0.240457112895092,-0.240457112895092,1.0000208011759864,9.692166734319595e-05
-0.239091028070834,-0.239091028070834,0.9999982754386915,9.690486345323443e-05
-0.23788938275392865,-0.23788938275392865,1.000120598907024,9.690953594265458e-05
-0.23697497952234697,-0.23697497952234697,0.9999343405574994,9.690297676675135e-05
-0.23569952402904165,-0.23569952402904165,1.000063501012203,9.690958628793346e-05
-0.23450728549796623,-0.23450728549796623,1.0000343308179445,9.712846730313283e-05
-0.23268482890271117,-0.23268482890271117,1.0000819198988953,9.690231319473965e-05
-0.2310969309473876,-0.2310969309473876,0.9999746069933135,9.691050008508099e-05
-0.22969726814044406,-0.22969726814044406,0.9998604295872952,9.689792349446602e-05
-0.22831068515370134,-0.22831068515370134,0.9999857556341407,9.775657762937878e-05
-0.2270685608513304,-0.2270685608513304,1.0000077330246178,9.690296790311657e-05
-0.22592496505967574,-0.22592496505967574,0.9999053885342629,9.6899805817717e-05
-0.22463775363139576,-0.22463775363139576,1.0000028895990798,9.691366605605489e-05
-0.22339846159302396,-0.22339846159302396,1.0000035420470035,9.691116785436335e-05
-0.2218342305975966,-0.2218342305975966,0.9997888450473515,9.690085727510878e-05
-0.219709777017124,-0.219709777017124,0.9999438077040326,9.689507226859225e-05
-0.21819699682237115,-0.21819699682237115,0.999976444051606,9.689264224270343e-05
-0.21664791952352971,-0.21664791952352971,1.0001889907446562,9.691476235169222e-05
-0.21524296748684718,-0.21524296748684718,1.0000470870422018,9.706001466383831e-05
-0.21399691190599696,-0.21399691190599696,0.9999626342901078,9.690855890378882e-05
-0.21287672631442547,-0.21287672631442547,1.0000334905825001,9.691167095279913e-05
-0.2117193645448424,-0.2117193645448424,1.0001180856685972,9.690858559942093e-05
-0.21043104799027787,-0.21043104799027787,0.9999946288716147,0.000104952043264347
-0.20883480370393953,-0.20883480370393953,0.9999275603556764,9.689498505849334e-05
-0.20663863235531607,-0.20663863235531607,1.0000448374270878,9.705630053220295e-05
-0.205316758522531,-0.205316758522531,1.0000402545269238,9.689314779660839e-05
-0.20378670428326587,-0.20378670428326587,1.0000227276994338,9.689699566167228e-05
-0.20247809653519652,-0.20247809653519652,0.9999084648811489,9.690361509201212e-05
-0.20124427875562106,-0.20124427875562106,1.0000656443405318,9.691168448103334e-05
-0.20010822190961336,-0.20010822190961336,1.0000289859873959,9.69191217713708e-05
-0.19906356184801552,-0.19906356184801552,0.9999654405997683,9.689768612469266e-05
-0.19792479059979087,-0.19792479059979087,0.9999246381413276,0.00012891866479270808
-0.19630564417020652,-0.19630564417020652,1.0001205509765174,9.690512867513577e-05
-0.19436627179238714,-0.19436627179238714,0.9999732195887375,9.68988777496144e-05
-0.19276779462816193,-0.19276779462816193,1.0000241080043337,9.690465115538679e-05
-0.19142506715288618,-0.19142506715288618,1.0001112713681082,9.869572624942239e-05
-0.19016381708497648,-0.19016381708497648,0.9999712264262766,9.690495641952271e-05
-0.1889671943456051,-0.1889671943456051,0.9999374628320122,9.691262942183278e-05
-0.18782655825052644,-0.18782655825052644,1.000070320522266,9.69296132335397e-05
-0.1865418779940228,-0.1865418779940228,1.0002424083632948,9.698396353760286e-05
-0.18557750014733757,-0.18557750014733757,1.0000963779406447,9.751594756646895e-05
-0.18370762215199649,-0.18370762215199649,1.0001240784121137,9.69163159354455e-05
-0.1818130140818539,-0.1818130140818539,1.0000316963680398,9.690473910112086e-05
-0.18024610470456537,-0.18024610470456537,1.0001699487083182,9.689259642908033e-05
-0.1788740956253605,-0.1788740956253605,0.9998808242503389,9.738470711809538e-05
-0.17782714074564865,-0.17782714074564865,0.9999933610175793,9.690889090327173e-05
-0.17672174373292365,-0.17672174373292365,1.0000972626774212,9.692268377803807e-05
-0.1755426212985185,-0.1755426212985185,1.0000574473243247,9.688978467597775e-05
-0.17431729911040747,-0.17431729911040747,1.0001798097791406,9.705061065453849e-05
-0.17320499143243068,-0.17320499143243068,1.000247605098537,0.00010088314079819053
-0.17098290037101832,-0.17098290037101832,0.9998311485157811,9.689210998462902e-05
-0.16900576728512534,-0.16900576728512534,1.000082371427683,9.691301191683919e-05
-0.16739265855867416,-0.16739265855867416,0.9999714634600444,9.690204501206308e-05
-0.16608586302318146,-0.16608586302318146,0.9998234368344321,9.695882521223182e-05
-0.16483981837809553,-0.16483981837809553,0.9999859102647772,9.69174590018302e-05
-0.16369679190829628,-0.16369679190829628,0.9999175160819547,9.691133431198654e-05
-0.1626786078719306,-0.1626786078719306,1.0000547186930926,9.69173096004421e-05
-0.16151529844937612,-0.16151529844937612,1.0001959761117019,0.0001109247144560816
-0.15990892163245007,-0.15990892163245007,1.0000411895968333,9.690077537245343e-05
-0.15771664954372683,-0.15771664954372683,1.000061435854871,9.696982096655509e-05
