time,time,flux,flux_err
-0.49979991362124565,-0.49979991362124565,1.000087407605536,0.0002753234406120605
-0.49958593844894494,-0.49958593844894494,1.0002759464397364,0.000319153257821316
-0.49944473500060366,-0.49944473500060366,1.000281801530156,0.00029968113057929536
-0.4993194186002559,-0.4993194186002559,1.0000661491666885,0.00028888451516336964
-0.49920797924860383,-0.49920797924860383,0.999657649995575,0.00024493969996400994
-0.49917019907807114,-0.49917019907807114,0.9999984705374902,0.00024443980032092785
-0.498963756946614,-0.498963756946614,0.9995342369711393,0.0002646919719751034
-0.4988224600921967,-0.4988224600921967,0.9999889033671376,0.0002425250266649419
-0.4986946507764515,-0.4986946507764515,0.9998955528357332,0.0002491515366751239
-0.49848843552099426,-0.49848843552099426,1.0000670538449439,0.00025566857375649134
-0.49839033655953247,-0.49839033655953247,0.9998653237181424,0.000254516947933991
-0.49827616558832233,-0.49827616558832233,0.9997886482063238,0.0002684275763150303
-0.4981935192241508,-0.4981935192241508,0.9997287530333452,0.00024593972290568326
-0.4980792921887769,-0.4980792921887769,0.9999213957963194,0.00025233565187953724
-0.4978202936035814,-0.4978202936035814,0.9999371084684021,0.00024411818850130661
-0.4975239895633422,-0.4975239895633422,0.9999476486443417,0.0002594799197612557
-0.4973133095802041,-0.4973133095802041,0.9998588514681261,0.00024888377883852165
-0.4970879667023837,-0.4970879667023837,1.0000770231836005,0.0002698671045460922
-0.49698227972039605,-0.49698227972039605,1.0000772478419926,0.00026109230507525313
-0.4968551379060955,-0.4968551379060955,0.999824786934355,0.0002838876242129925
-0.49672697579371744,-0.49672697579371744,1.0000281733346186,0.0002605681083746775
-0.49651476701765207,-0.49651476701765207,0.9999998334149562,0.0002659089224934879
-0.496402615513216,-0.496402615513216,0.999969717367723,0.00025121962045292407
-0.49625490646722026,-0.49625490646722026,1.0000197657923486,0.0002633041578846816
-0.4961188385503192,-0.4961188385503192,0.9999818320726123,0.0002633299887886627
-0.49605394336977043,-0.49605394336977043,0.9999836775201645,0.00025983949314389534
-0.4959147017660143,-0.4959147017660143,0.9999007171034826,0.0002473942992359922
-0.4957833197840955,-0.4957833197840955,0.9999260151872313,0.00025540420612615064
-0.49564439677196787,-0.49564439677196787,0.9997926603210594,0.00025946795788930817
-0.49550056953012245,-0.49550056953012245,0.9997970518511853,0.0002667512179747094
-0.49537237658150846,-0.49537237658150846,0.9997730372586778,0.00026551812226202913
-0.4952048892810126,-0.4952048892810126,0.9996287700866313,0.000261441408369157
-0.49511267125417363,-0.49511267125417363,0.9997142421248266,0.000249123854963098
-0.4950223914464004,-0.4950223914464004,0.9999942256458552,0.00027559293217499086
-0.4949628402966482,-0.4949628402966482,1.0000609500452244,0.00024195510300901324
-0.4947832861871575,-0.4947832861871575,1.0001044200926732,0.00026466601148164684
-0.4944406692258781,-0.4944406692258781,1.0000670936361609,0.00027348168792523344
-0.49424408562190364,-0.49424408562190364,0.9999249516415414,0.0002720928045584026
-0.4941249367817363,-0.4941249367817363,1.0002177936559868,0.0002580957809185029
-0.49404430918366415,-0.49404430918366415,0.9996776651990602,0.00025491648955172446
-0.49399721790105106,-0.49399721790105106,1.0003337862147812,0.0002843869089865646
-0.4939254003831593,-0.4939254003831593,0.9993264084291461,0.0002552267288933491
-0.4938481574128673,-0.4938481574128673,0.9997167584543591,0.00025009193501865585
-0.4937364148856432,-0.4937364148856432,0.9999842719996244,0.00026542863131403724
-0.49360982583239094,-0.49360982583239094,0.9999875434578962,0.00025050495950631617
-0.49340683721093226,-0.49340683721093226,1.00013378432612,0.00023875337180544144
-0.4932267320204119,-0.4932267320204119,0.9999519505009896,0.00026814368417461603
-0.493034427780367,-0.493034427780367,0.9997093853392081,0.0002566096285459996
-0.4929035323970311,-0.4929035323970311,1.0001140727703155,0.00025237880006109397
-0.4928039079561131,-0.4928039079561131,0.9999559854262472,0.00024689220171524604
-0.4926863125241653,-0.4926863125241653,0.9996853959397256,0.00026978126885133835
-0.4926004088119953,-0.4926004088119953,1.0001269469614038,0.0002662819573739518
-0.49248577197431587,-0.49248577197431587,0.9994802996198346,0.0002465964006660285
-0.49222701847465944,-0.49222701847465944,0.999711752240084,0.0002695077245783729
-0.49206018296026743,-0.49206018296026743,1.0002984298890198,0.0002926895569158669
-0.49185567934400753,-0.49185567934400753,0.9999562546131576,0.00026120051925506837
-0.4916654596447188,-0.4916654596447188,1.0000756568004312,0.00026355484903628083
-0.4914675580097537,-0.4914675580097537,1.0000500630614728,0.0002558415796248968
-0.49133350127231096,-0.49133350127231096,1.0002311009490317,0.00028928510628753375
-0.4911390141569427,-0.4911390141569427,0.9997847031886522,0.0002655294820687261
-0.49099380655097774,-0.49099380655097774,0.9996520771708942,0.00025721308292878125
-0.49087601692517635,-0.49087601692517635,1.0003272608388059,0.0002636014032159011
-0.49072747059981336,-0.49072747059981336,0.9998410937880177,0.0002703001887084782
-0.4905753050938074,-0.4905753050938074,0.9999580632553295,0.00025657141683541117
-0.49036681494690126,-0.49036681494690126,1.0001078001424228,0.00025744098894634783
-0.4902511941472767,-0.4902511941472767,1.0003314187024217,0.0002537945672705062
-0.49012444580293957,-0.49012444580293957,0.9996942253511006,0.000245472754521898
-0.4899549102286983,-0.4899549102286983,0.999824635471996,0.00025490347508895294
-0.489825329867017,-0.489825329867017,0.9997502948969533,0.00025915275282454485
-0.4897458203573478,-0.4897458203573478,1.0002133918534233,0.0002735528866461298
-0.4896663884348527,-0.4896663884348527,1.0000767805838147,0.00025673985387884965
-0.4896140424134501,-0.4896140424134501,1.0001409036739886,0.0002496393051729601
-0.48957027306532835,-0.48957027306532835,0.9995937912816298,0.00023891532662487564
-0.48949432101726414,-0.48949432101726414,0.9999570050793244,0.00025729928341538334
-0.48935707911514326,-0.48935707911514326,0.9995334201589661,0.0002513096216329534
-0.48919774611931643,-0.48919774611931643,1.0003858750831884,0.0002519231052481255
-0.48905157418557793,-0.48905157418557793,1.0000217147116888,0.00025342736148478
-0.4889127567745163,-0.4889127567745163,0.9997321379081345,0.00026533801168938216
-0.4887549579842016,-0.4887549579842016,0.9997376266234799,0.00028152258050365484
-0.48869566598004893,-0.48869566598004893,1.0000577810102276,0.00027335861911595866
-0.48862625094188844,-0.48862625094188844,1.000008033529865,0.00025223012405244604
-0.488569472177187,-0.488569472177187,1.0000583993758227,0.0002728629426477138
-0.48851638762425864,-0.48851638762425864,0.9999964543459916,0.000242931020391773
-0.48831130073886014,-0.48831130073886014,0.999623849328505,0.00026251234663837535
-0.48820447086764035,-0.48820447086764035,1.0001590175066988,0.0002520480922692303
-0.488036108835513,-0.488036108835513,1.0002348921447406,0.00027162229576331695
-0.4878758803686651,-0.4878758803686651,0.9997860456402808,0.00025317314280448946
-0.4877325907495106,-0.4877325907495106,1.0000262596945255,0.0002521949019786343
-0.4876649895319133,-0.4876649895319133,1.0000638142032954,0.0002639150940354489
-0.4875591197036556,-0.4875591197036556,1.000041480917779,0.00025320973255525724
-0.48740198423256514,-0.48740198423256514,1.0003682587091935,0.00025957256692167477
-0.4872770357484114,-0.4872770357484114,1.0001941679780055,0.0002699452966778882
-0.4871221056280774,-0.4871221056280774,1.000162801703126,0.0002519775083513269
-0.4869258317594358,-0.4869258317594358,1.0000147092157055,0.0002504571883877047
-0.4866552679304732,-0.4866552679304732,1.0000117773964337,0.0002574191111708439
-0.4864643380860798,-0.4864643380860798,0.9998339525814446,0.0002701547899422849
-0.48635396536119513,-0.48635396536119513,1.0001353211405668,0.00026176175927316
-0.48625755386819947,-0.48625755386819947,1.000020089392662,0.00026461518914194516
-0.48601447750406807,-0.48601447750406807,1.0006370073793185,0.00025152207543638355
-0.48585488016251477,-0.48585488016251477,1.0001892879157273,0.00025125427821587624
-0.48577322470227957,-0.48577322470227957,0.9998936109149102,0.0002773127503740278
-0.48558398215827764,-0.48558398215827764,0.9999372203572531,0.00027026066144477474
-0.4854868041649752,-0.4854868041649752,0.9998216651188491,0.0002595157704869388
-0.48538456251480966,-0.48538456251480966,0.9999070673714872,0.0002677789558608294
-0.48529710626389716,-0.48529710626389716,0.999840504236628,0.00025538159377895645
-0.48516592348241827,-0.48516592348241827,0.9999946882610002,0.00023502408235514353
-0.4849783742225554,-0.4849783742225554,1.0003411774936073,0.0002421487637339814
-0.48488013672322267,-0.48488013672322267,0.9997432855773246,0.0002663853303598529
-0.4847935465317278,-0.4847935465317278,0.9996878188468798,0.00025450883189355564
-0.4847031478006102,-0.4847031478006102,0.9999168463634509,0.0002644795036424818
-0.4846251683018636,-0.4846251683018636,1.0000693309376105,0.00025073938942013106
-0.4844801924526109,-0.4844801924526109,0.9999861932665428,0.0002654141851291071
-0.48437960790543,-0.48437960790543,0.9997035025717491,0.0002504844321747776
-0.4843089964429964,-0.4843089964429964,0.9995362951875647,0.00027287661116168546
-0.4842482651663886,-0.4842482651663886,0.9999883245776872,0.0002526712368846264
-0.4840619030415837,-0.4840619030415837,1.000001938305055,0.0002628859881824054
-0.4837577261627303,-0.4837577261627303,1.0001685082253409,0.0002733717570417788
-0.4835837657563388,-0.4835837657563388,0.9995808008100189,0.0003031785803414062
-0.48349031435864165,-0.48349031435864165,1.0002031941032232,0.0002506698467052672
-0.4834101072163321,-0.4834101072163321,1.0003695890073474,0.0002667865421479603
-0.48333816396698237,-0.48333816396698237,1.0000732986544076,0.00026265075257236403
-0.48319720422878165,-0.48319720422878165,0.9999263544903595,0.0002655687001794788
-0.48314102854637897,-0.48314102854637897,0.9999635367414005,0.00023476046063825948
-0.48304695369370165,-0.48304695369370165,0.9997884236743548,0.00024964803269258355
-0.4828457796778821,-0.4828457796778821,1.0002611998424336,0.0002618050311990148
-0.48272250636364333,-0.48272250636364333,1.0001929334520312,0.00024858698445742896
-0.48257861142774344,-0.48257861142774344,1.000043096319294,0.00026082126058691235
-0.48240981694107177,-0.48240981694107177,0.9999749732945716,0.00025649112797096615
-0.482296933534235,-0.482296933534235,1.0002335875656996,0.0002632047396444187
-0.48219395107298624,-0.48219395107298624,1.0001663105738947,0.0002608375149800805
-0.482121618106612,-0.482121618106612,1.0003206672274956,0.00023726336512041378
-0.48198005901576835,-0.48198005901576835,1.0005662453959665,0.0002567056759911708
-0.4817536523391027,-0.4817536523391027,0.9997988633657009,0.00024058223740948962
-0.48153971874126,-0.48153971874126,0.9997422209022698,0.0002550645027084951
-0.4813571098522516,-0.4813571098522516,1.0000614902798142,0.00024890434870729523
-0.48110854403857956,-0.48110854403857956,0.9998952912201199,0.0002710050335018541
-0.4809848849530681,-0.4809848849530681,1.0001292565647015,0.0002549154681087694
-0.48083228069954204,-0.48083228069954204,0.9998387826541195,0.00027019658380887456
-0.4807480146497255,-0.4807480146497255,1.0002085218154826,0.0002521432442328923
-0.4805396660740371,-0.4805396660740371,1.000153122900999,0.00027371365379419085
-0.4804319797025528,-0.4804319797025528,0.9998597352069231,0.0002633627767996079
-0.4802753193973331,-0.4802753193973331,1.000119087788786,0.0002522237615321701
-0.4800893147606985,-0.4800893147606985,0.999848400428351,0.00026437447714559045
-0.48000561036096767,-0.48000561036096767,1.0001274121459334,0.00025979174699732933
-0.4798661135166185,-0.4798661135166185,0.9998664450592145,0.0002480081765228573
-0.4797300011799962,-0.4797300011799962,1.0000407308167438,0.00025444539636396884
-0.4796029990793613,-0.4796029990793613,1.0001171161069395,0.00024998330478652984
-0.47946489225651023,-0.47946489225651023,1.0002417942429482,0.0002601611189639784
-0.47935577440730415,-0.47935577440730415,0.999642406682057,0.00027031753556119
-0.47918533678312086,-0.47918533678312086,0.9998850155797132,0.0002572864648722388
-0.47906990153787776,-0.47906990153787776,0.9998876151171789,0.0002565590312883363
-0.47897566491374166,-0.47897566491374166,0.999470733320746,0.0002766447147539227
-0.47891520651683095,-0.47891520651683095,1.000616205576144,0.00024190872775372522
-0.47878828418033664,-0.47878828418033664,0.9999669850407962,0.0002838406296686337
-0.47855749605296294,-0.47855749605296294,1.000052107533228,0.0002684899903173953
-0.4783488527486043,-0.4783488527486043,1.0000512138701418,0.0002532840352288623
-0.4782201200752752,-0.4782201200752752,1.0002661552406376,0.00026525117575426703
-0.47807857349762345,-0.47807857349762345,1.000156652229824,0.0002653852829284175
-0.47798982975946275,-0.47798982975946275,1.0001089471761937,0.0002529033485269191
-0.4779327155345527,-0.4779327155345527,1.0005144019181826,0.00028979113318621273
-0.4778491924153059,-0.4778491924153059,1.0000685234532531,0.0002458729263079987
-0.47775715725583723,-0.47775715725583723,1.0003176956865976,0.0002633994783190913
-0.47763655137823663,-0.47763655137823663,1.0001284146449454,0.0002539032208162857
-0.4775029111049662,-0.4775029111049662,1.0002438717436255,0.00024903028861599354
-0.4773569787394081,-0.4773569787394081,0.9997837718910063,0.00024736254169182475
-0.47720013650105103,-0.47720013650105103,1.0004241108769663,0.0002583599765261165
-0.477010016728309,-0.477010016728309,0.9999090247100464,0.0002607340458915329
-0.47689046639134175,-0.47689046639134175,1.0002968139063024,0.0002606374768610389
-0.47676402935176154,-0.47676402935176154,1.000070156404077,0.0002460931434119534
-0.4766388217758504,-0.4766388217758504,1.0002683823313023,0.0002666883811283062
-0.47652048062809627,-0.47652048062809627,1.000230258774232,0.0002560940561567639
-0.47635108693430084,-0.47635108693430084,0.999685470159209,0.0002618067371950953
-0.47604648423875917,-0.47604648423875917,0.9999007817399924,0.00028618294271182956
-0.4759044812635693,-0.4759044812635693,0.9996146453367253,0.0002519954422186421
-0.4757499906299927,-0.4757499906299927,1.0001357003343827,0.0002595550057966864
-0.47561701907543463,-0.47561701907543463,0.9999976573187705,0.00026352168356939695
-0.47537137800536583,-0.47537137800536583,1.0000667228298032,0.0002678712123999751
-0.47519949986017307,-0.47519949986017307,1.0002887307195754,0.0002811904872280258
-0.47505063432836325,-0.47505063432836325,1.0002686774374214,0.0002607063137335812
-0.47492234116289184,-0.47492234116289184,0.999968217246853,0.00025779213327670544
-0.4747707072434423,-0.4747707072434423,1.0001026131844042,0.0002704235923043491
-0.47464922755243605,-0.47464922755243605,0.9998372383701936,0.0002641164724790169
-0.47446731403833836,-0.47446731403833836,0.9997629956441347,0.0002565273887825753
-0.474284064710082,-0.474284064710082,0.9999290758107845,0.00025679319546662114
-0.47416136699393974,-0.47416136699393974,0.999947552613445,0.0002671698761361003
-0.47397238396588365,-0.47397238396588365,0.9995834974793146,0.0002517035364217518
-0.47379132497080717,-0.47379132497080717,0.9996307292791181,0.00026054353279495487
-0.4736951901577413,-0.4736951901577413,1.00035746840326,0.0002587493390569184
-0.47360794102787623,-0.47360794102787623,1.000106036621906,0.00025760109424673595
-0.4735599779043696,-0.4735599779043696,0.9998040164493457,0.00026270999705942886
-0.4735176234447863,-0.4735176234447863,0.9999238395450174,0.0002458421130119483
-0.4734138568979688,-0.4734138568979688,1.0002755275740376,0.0002650599076357784
-0.4732740292296512,-0.4732740292296512,0.9999780065728444,0.00023422253242144194
-0.4731159811221005,-0.4731159811221005,1.0001510009456318,0.0002582393781770011
-0.47300752609953634,-0.47300752609953634,1.0000059794718357,0.00026115990029262524
-0.47286152591696007,-0.47286152591696007,0.9997473358065182,0.00026556857419398206
-0.47270464919565713,-0.47270464919565713,1.0002736246441883,0.0002818914209496596
-0.4726443584237131,-0.4726443584237131,1.0004216371081385,0.00027335010027029435
-0.47257112962106473,-0.47257112962106473,0.9999780892397228,0.00026425034117180966
-0.4725134174390405,-0.4725134174390405,1.0003750098023434,0.00025498030203359207
-0.472438358173531,-0.472438358173531,1.0002556444725719,0.00025705788509668257
-0.4722327077957743,-0.4722327077957743,1.0002457561044178,0.0002491261019123226
-0.4721579623030266,-0.4721579623030266,0.9998633979415079,0.00025065708572443926
-0.4720020313805435,-0.4720020313805435,1.0000023709692007,0.00026491475399131214
-0.4718402438062185,-0.4718402438062185,0.999715865063774,0.0002641305430361345
-0.47170990874728885,-0.47170990874728885,1.0001128036234002,0.0002545033410726055
-0.47161694417809485,-0.47161694417809485,1.000104116431715,0.0002640525555956896
-0.4714884962850192,-0.4714884962850192,0.9999576484101625,0.0002523100126594323
-0.47130756809347074,-0.47130756809347074,1.0002316715954769,0.0002552493884364338
-0.4711111463031557,-0.4711111463031557,0.9999060169417083,0.0002408743717631448
-0.4709425005072262,-0.4709425005072262,1.000115379409118,0.0002650174961867274
-0.47067838194270734,-0.47067838194270734,0.9997577644954946,0.00024893510700651036
-0.4704204031790141,-0.4704204031790141,1.0002194593000098,0.00025683613207727336
-0.47029931204160674,-0.47029931204160674,0.9998725943144278,0.0002607399846675807
-0.4702034495821863,-0.4702034495821863,1.000040758126114,0.00027034528173422543
-0.4699532637569064,-0.4699532637569064,0.9995488222560681,0.0002608003942116791
-0.46979809413169277,-0.46979809413169277,1.0004064553500145,0.00025159043107661976
-0.46968790550890843,-0.46968790550890843,1.0000342045851494,0.00027679015713717134
-0.4695112559311383,-0.4695112559311383,0.9999288742307579,0.000270453302627565
-0.46939745427516755,-0.46939745427516755,1.0003047041664717,0.00026676499662396116
-0.46932207927311537,-0.46932207927311537,1.000198626473026,0.00026159245040284116
-0.4692157337529352,-0.4692157337529352,1.0001623441725314,0.0002470163617948116
-0.4690240777468716,-0.4690240777468716,1.0000707868551122,0.00024321237265530026
-0.46884890381988953,-0.46884890381988953,1.000214141358405,0.00025342897973794544
-0.4687619546748465,-0.4687619546748465,0.9997217607899869,0.0002650467699897961
-0.4686620247688552,-0.4686620247688552,1.0000156832822746,0.000244423591296319
-0.4685628923245531,-0.4685628923245531,0.9998878096517423,0.0002499552437552911
-0.46844922429445435,-0.46844922429445435,1.0000376984193338,0.00026896413407577013
-0.4683472733275266,-0.4683472733275266,0.9996807605528121,0.0002578708446510802
-0.4682758765244216,-0.4682758765244216,0.9999656398419361,0.0002533158333777474
-0.46821006877871696,-0.46821006877871696,0.9997908731144737,0.00026949677577435294
-0.46806504584747016,-0.46806504584747016,0.999947165958057,0.0002628689386519311
-0.46779671632102693,-0.46779671632102693,1.0001753414506251,0.00026734660304924933
-0.4675465614396671,-0.4675465614396671,1.0002469262589389,0.00026868750325941183
-0.4674342342856107,-0.4674342342856107,0.9997647596671723,0.0002459838870799097
-0.46737852262449453,-0.46737852262449453,0.9999655951623658,0.00025589441006499054
-0.4673075359947688,-0.4673075359947688,1.0000663095164046,0.00027466905608285083
-0.4671809285573545,-0.4671809285573545,1.0000866336719354,0.00026837463732300393
-0.4671095540972601,-0.4671095540972601,0.9998071910978465,0.00024063493833034825
-0.4670267995294125,-0.4670267995294125,0.9999712179689911,0.000251776078952919
-0.4668268292014545,-0.4668268292014545,1.0000283143885693,0.00026088553130253005
-0.4667223533644574,-0.4667223533644574,0.999726751776439,0.00024503557953360687
-0.46660245389502963,-0.46660245389502963,0.9999579006923132,0.00025160586034397354
