time,time,flux,flux_err
-0.49912644389223715,-0.49912644389223715,1.000554202318355,0.0015310426517800252
-0.4979654788985499,-0.4979654788985499,1.0005073374648896,0.0014047429810477043
-0.49721238505844667,-0.49721238505844667,1.0046807373674744,0.0014355033676713984
-0.4963933829316375,-0.4963933829316375,1.0009509936001888,0.0014116999068721956
-0.49578560304871644,-0.49578560304871644,0.9994211855077315,0.0014063901050196189
-0.4949484362088697,-0.4949484362088697,1.0005172623524126,0.001435458673030524
-0.494015791817219,-0.494015791817219,0.9985226899381375,0.0015153601322802947
-0.49300423286367734,-0.49300423286367734,0.9987261102761075,0.0014069712472064217
-0.4920783095287334,-0.4920783095287334,1.0028298643359173,0.0014709437570512834
-0.49142278047183935,-0.49142278047183935,1.0025607072022997,0.0013322836012852285
-0.4906133418498939,-0.4906133418498939,1.000298105033857,0.0014219373436475987
-0.4901275258576788,-0.4901275258576788,1.000337088993947,0.0014371067551739755
-0.4894018604689336,-0.4894018604689336,1.001818591545972,0.0014404938649248585
-0.48805226925032913,-0.48805226925032913,1.0013349517589951,0.0014762069921424256
-0.4867879261822964,-0.4867879261822964,0.999250449019341,0.0014083289427653824
-0.48587162700750924,-0.48587162700750924,1.0000002016739136,0.0014071608992224348
-0.4852768531527545,-0.4852768531527545,0.9989195282406553,0.0013310189213486033
-0.48463262152290554,-0.48463262152290554,1.0000167149832802,0.0014004873458011648
-0.48406427598056323,-0.48406427598056323,0.9996146228032986,0.00147261195349723
-0.4836283080152498,-0.4836283080152498,1.0013243875134425,0.0014128370731441718
-0.4823896809757571,-0.4823896809757571,0.9979236175835086,0.0014374901420206706
-0.48138899115438105,-0.48138899115438105,0.998620447636941,0.0014094204245058734
-0.48033711240532284,-0.48033711240532284,1.0001769662473352,0.0014015910211211684
-0.4796598057728261,-0.4796598057728261,1.0011560962939112,0.001435287141480459
-0.47889809958360274,-0.47889809958360274,0.9991066325346377,0.001408762019221178
-0.4783040110487491,-0.4783040110487491,0.9994710546925172,0.001334341485174291
-0.47781697433820225,-0.47781697433820225,1.0007093267067915,0.0014339494032953254
-0.47685355852518113,-0.47685355852518113,0.999217826979765,0.0014704198577148437
-0.4757705399093538,-0.4757705399093538,1.0010483902119534,0.0014456913238752413
-0.4749197669709247,-0.4749197669709247,1.0008129421166465,0.0013677151162375782
-0.47411935185082255,-0.47411935185082255,1.0001730365572636,0.001408789425553352
-0.47327704798844933,-0.47327704798844933,1.0014401044444603,0.0014705567791887622
-0.47267589381845027,-0.47267589381845027,1.0003370886244292,0.0014748321919962773
-0.47216854546495596,-0.47216854546495596,0.9990494907407845,0.0013666492754664463
-0.47146648710404404,-0.47146648710404404,0.9996365659622114,0.0014810388333636672
-0.4702974632702535,-0.4702974632702535,0.9991503169426755,0.001473514664969007
-0.46930234879837374,-0.46930234879837374,0.9999317166612418,0.0013685125020377923
-0.46852146111050386,-0.46852146111050386,1.002416827369316,0.0014754338178700592
-0.46770368014513225,-0.46770368014513225,0.9995751505949617,0.001330834941994385
-0.46684854722152525,-0.46684854722152525,1.000647789357247,0.001401848104968547
-0.46632949010163427,-0.46632949010163427,1.001310204121004,0.0014062814630822736
-0.46547871828952336,-0.46547871828952336,1.001078659476049,0.0014412758977013667
-0.4642088531727495,-0.4642088531727495,0.9994878247610826,0.0014378335987356382
-0.46284899542006314,-0.46284899542006314,1.0004042159421733,0.0014046216605573668
-0.46199636071651184,-0.46199636071651184,0.9999555028785533,0.001377257952851939
-0.46127648477995536,-0.46127648477995536,1.000594231980144,0.001409403308596921
-0.46067040927664493,-0.46067040927664493,0.9992282597821488,0.0013702900837637428
-0.460265728248487,-0.460265728248487,0.9995324882461599,0.0014397367665390706
-0.45947046112123646,-0.45947046112123646,0.9998685998820893,0.0014355978246020661
-0.45816613371353015,-0.45816613371353015,0.9987335106503531,0.0014401865532337548
-0.4569746895467688,-0.4569746895467688,0.9999893278764738,0.001406190544343012
-0.4561677620746195,-0.4561677620746195,1.0018960446701144,0.0014136410298161836
-0.4553255638027622,-0.4553255638027622,1.000306851839444,0.001368670947164823
-0.45472368875889513,-0.45472368875889513,1.0007832018865748,0.0013651827968656515
-0.45414332908076177,-0.45414332908076177,1.0087215773999876,0.0014433688745886443
-0.4532733299107349,-0.4532733299107349,0.9995160127188889,0.0014390333042536116
-0.4521305273156031,-0.4521305273156031,0.9978389577786979,0.0014416906613304704
-0.4512003167787043,-0.4512003167787043,0.9984516464010852,0.0014071244542472972
-0.4504291036304494,-0.4504291036304494,1.0001090229437941,0.001440334301599825
-0.4497670089116582,-0.4497670089116582,0.9993657357904032,0.001536198168020898
-0.4490157542961242,-0.4490157542961242,0.9998541414130431,0.0014518118290777397
-0.44858678374730515,-0.44858678374730515,1.001662143117949,0.0013755715072596366
-0.4478933150123339,-0.4478933150123339,1.0012307556740978,0.0014801747419383722
-0.44671072778182863,-0.44671072778182863,0.9986650739964773,0.0014773633640228117
-0.44555554218495674,-0.44555554218495674,0.9997350978047495,0.001409121410927332
-0.4445713306839025,-0.4445713306839025,1.0022046878673394,0.0014353777750236295
-0.4439167349948548,-0.4439167349948548,1.0002640171589474,0.0013725514052988297
-0.44321738315011316,-0.44321738315011316,0.9988725319871115,0.0014062710249727916
-0.4426005178491323,-0.4426005178491323,0.9993079154464072,0.0014052029635230933
-0.44164664665440795,-0.44164664665440795,1.0014260318128159,0.0014363950601779486
-0.4404696140663873,-0.4404696140663873,0.9979075450493642,0.0014002707764616304
-0.4393384862331004,-0.4393384862331004,0.9997932415135459,0.0014073952014185946
-0.43839938495766545,-0.43839938495766545,0.9979089965200911,0.0013824449251928458
-0.43769602891370596,-0.43769602891370596,0.9982994478099123,0.001368485612938376
-0.43708693466433035,-0.43708693466433035,1.000725678487214,0.0013656538914174727
-0.4365950518618774,-0.4365950518618774,0.9985721942930788,0.0014734459531951646
-0.4359680948608002,-0.4359680948608002,0.9977355125295858,0.0014099305342603382
-0.43484516643547977,-0.43484516643547977,0.9994359214338708,0.0014728528884555918
-0.4337068899956648,-0.4337068899956648,0.999174410443549,0.0013745801319160525
-0.4327623384186154,-0.4327623384186154,1.001326310886172,0.0014039849903640122
-0.4319137835951551,-0.4319137835951551,0.9988609447323806,0.001434790496153524
-0.4312013110276894,-0.4312013110276894,0.9992338202541335,0.0014110115601207562
-0.43055520388297736,-0.43055520388297736,1.001569749459596,0.0014422210564555345
-0.42963310774321145,-0.42963310774321145,0.9989867554514262,0.001437168504269568
-0.4287536164825724,-0.4287536164825724,0.9990481898214544,0.001480368488941963
-0.42777534609776924,-0.42777534609776924,0.9987153856754738,0.001442139075828036
-0.42680965090294193,-0.42680965090294193,0.9999125009994252,0.0014377914090577407
-0.4261948695359024,-0.4261948695359024,1.0002609444607344,0.001370595544325947
-0.425379834062187,-0.425379834062187,0.9999335876814346,0.0014190786389128008
-0.4249739408776804,-0.4249739408776804,0.9988164829297151,0.0014039558640139634
-0.42407663189551387,-0.42407663189551387,0.9974540188915251,0.0014771530504100485
-0.4226883165239997,-0.4226883165239997,1.0009479229993716,0.0014426321938346529
-0.42149188143448557,-0.42149188143448557,0.9995310516649288,0.001405530875323839
-0.42066181158115795,-0.42066181158115795,0.9973528608938007,0.0014095933606176627
-0.4200673708892282,-0.4200673708892282,1.001177557027248,0.0013686593789421614
-0.4193832878929243,-0.4193832878929243,1.0003784757818983,0.0013981941514617832
-0.41893237720505566,-0.41893237720505566,0.9988266317036745,0.0014419442343846225
-0.4183264769748348,-0.4183264769748348,0.9990877990644673,0.0014123379353017781
-0.4171092930449959,-0.4171092930449959,0.9967895174747993,0.001472893366237976
-0.4160635654341604,-0.4160635654341604,0.9992716671196658,0.0013733696522539207
-0.4151336199891375,-0.4151336199891375,0.9983198028226614,0.0014017867237458498
-0.41439013383169365,-0.41439013383169365,0.9993010094839221,0.0014330275935433578
-0.4136809944426204,-0.4136809944426204,1.000192425066279,0.0014105451028922603
-0.4131276349802647,-0.4131276349802647,0.9998075488126675,0.0013733104344748023
-0.41261403034368416,-0.41261403034368416,0.9995390402520306,0.0014340908198654787
-0.41156328081924587,-0.41156328081924587,0.9974422937670349,0.0014773782173379399
-0.41044684161970507,-0.41044684161970507,0.9990716997619591,0.0014081816266316573
-0.40965749985261934,-0.40965749985261934,0.9995122072884586,0.0014045545375761465
-0.40889395145677554,-0.40889395145677554,0.9989222698722756,0.001502810997278632
-0.4080384074248286,-0.4080384074248286,1.0006817570959563,0.0013330781197435728
-0.40750668432956444,-0.40750668432956444,0.9993345452424782,0.0014783617347734522
-0.40697527865704614,-0.40697527865704614,1.0002237333657484,0.0014004751949905302
-0.4061287260879908,-0.4061287260879908,0.9984646858570688,0.001450751559685485
-0.4050154649121396,-0.4050154649121396,1.0002855406083309,0.0014761896705812098
-0.40410609761602245,-0.40410609761602245,0.9981124291725669,0.0014053468646633629
-0.4032173706818867,-0.4032173706818867,0.9973427184065571,0.001441921132492174
-0.40247341838075956,-0.40247341838075956,1.0014568401484407,0.001364871975001366
-0.4016094738726679,-0.4016094738726679,0.9997108693221028,0.0014041310700033138
-0.4011402318446926,-0.4011402318446926,0.9970971180472278,0.001374504147252415
-0.4001941746028024,-0.4001941746028024,1.000041810085526,0.0014724020111649618
-0.3987628425198636,-0.3987628425198636,0.9984548906113464,0.0014064288109914057
-0.39762460744859707,-0.39762460744859707,0.9999008266637344,0.0014032014600455257
-0.3967246819382126,-0.3967246819382126,0.9984097358536573,0.0013751099467622875
-0.396058585954961,-0.396058585954961,0.9994278162368065,0.0014106118378558754
-0.3954943590317271,-0.3954943590317271,0.9992434996782666,0.0014050508839363476
-0.39508728439468543,-0.39508728439468543,0.9983408021998219,0.001407110074880917
-0.3941662769699178,-0.3941662769699178,0.9976068692732657,0.0014699286958237642
-0.39301100391203364,-0.39301100391203364,0.9981176107750116,0.001408355437758357
-0.3918896411309106,-0.3918896411309106,0.9991523722158602,0.0014058902523562031
-0.3910825893279252,-0.3910825893279252,0.9999996454052956,0.001413370596411223
-0.3902407265784859,-0.3902407265784859,0.9986843800175074,0.0013688547539097283
-0.38963861918200565,-0.38963861918200565,0.9985337593372569,0.001365580023753234
-0.38905854107651977,-0.38905854107651977,1.0006914007340457,0.0014435829205058212
-0.38802959942331655,-0.38802959942331655,1.0002456110775524,0.0014730289416365712
-0.3868049746590259,-0.3868049746590259,0.9978809980628455,0.0014461469112574394
-0.3859310901221761,-0.3859310901221761,0.9988079861690069,0.0014064987187191872
-0.38528633232090215,-0.38528633232090215,0.9989485710902933,0.001406618710643314
-0.3844699599001615,-0.3844699599001615,0.9987399290498047,0.0015302295212044877
-0.38385728113134976,-0.38385728113134976,0.9991932600542164,0.0014869709359649171
-0.38336445885252035,-0.38336445885252035,1.0009744001197263,0.0013721247748516925
-0.3826452643865196,-0.3826452643865196,0.9990130739661348,0.0014777778499712828
-0.38134083449367606,-0.38134083449367606,0.9992837422692114,0.0014445039094661597
-0.3803186815188383,-0.3803186815188383,0.9983343974448309,0.0014438696677185367
-0.37930483568125056,-0.37930483568125056,0.9973917184199628,0.001403911608254547
-0.37863616059075866,-0.37863616059075866,0.9967646989990347,0.0014092314134733401
-0.3777857182038133,-0.3777857182038133,0.9985039516199297,0.0014059345902280884
-0.3772829954192275,-0.3772829954192275,1.0000497753434163,0.0013988149293260325
-0.3760094737266627,-0.3760094737266627,0.9990802615981936,0.0014055929965692666
-0.37494724267853596,-0.37494724267853596,0.999942976463531,0.0014039669006020486
-0.37389601087161284,-0.37389601087161284,0.9980297156697621,0.0014056707468848473
-0.3729978279021452,-0.3729978279021452,0.998778503739647,0.0013843891969080742
-0.3723273886262177,-0.3723273886262177,1.0000569698019668,0.0014018242063195058
-0.3717672690105246,-0.3717672690105246,0.9987451014850299,0.0014037403264911348
-0.3713626771899726,-0.3713626771899726,0.9967306535010312,0.0014087567178988846
-0.37042579733970343,-0.37042579733970343,0.9992371266730835,0.0014736334660101365
-0.36934080054124935,-0.36934080054124935,0.9963380639920162,0.0014459663913936969
-0.36827148153934103,-0.36827148153934103,0.9988887219936338,0.0013702695620870114
-0.3675326005479292,-0.3675326005479292,0.9990490090611603,0.0014712765010440967
-0.36667330347881943,-0.36667330347881943,1.0004743434065644,0.0013300519048258337
-0.36599708059402475,-0.36599708059402475,0.9984746864242119,0.0014098190564957613
-0.3653304290390224,-0.3653304290390224,0.9987623687938264,0.0014436459494422639
-0.3643270028838742,-0.3643270028838742,1.0001359295617727,0.0014733069649003996
-0.3634950025105354,-0.3634950025105354,0.9974737539712535,0.0014823420553152025
-0.3624795394949615,-0.3624795394949615,0.9996422256270906,0.0014028920202498847
-0.3616140782840375,-0.3616140782840375,0.9977250293486769,0.0014409506309602611
-0.36082912374004084,-0.36082912374004084,0.9995195309394169,0.0013322278289020014
-0.3601213188620022,-0.3601213188620022,0.9984793836034868,0.0014882999718858509
-0.3596402105038578,-0.3596402105038578,0.9979114309062471,0.0013680456537847774
-0.35841408703090566,-0.35841408703090566,0.9961464854571117,0.0014762798932661234
-0.3570704869041947,-0.3570704869041947,0.9984247587955526,0.0014085254110526857
-0.35607038739326524,-0.35607038739326524,0.9976998078453793,0.0014416627730217681
-0.3553604879856721,-0.3553604879856721,0.9982997600295832,0.0013727930359456967
-0.35470541621652957,-0.35470541621652957,0.9987606374283015,0.0014014312423670677
-0.35405437296758463,-0.35405437296758463,0.9968574290098742,0.0014363091410157466
-0.3536944228242646,-0.3536944228242646,1.0005266534586827,0.0013742174834273425
-0.35292991733949747,-0.35292991733949747,1.0032881614703304,0.0014790117907966314
-0.35190837450318213,-0.35190837450318213,0.9986411538864219,0.001440426654206018
-0.35097830793129103,-0.35097830793129103,0.9987795819870326,0.0013726229707696556
-0.3500488335164846,-0.3500488335164846,1.0006953872232882,0.0014027286879106384
-0.34930540095119794,-0.34930540095119794,1.0006484965246856,0.0014325461185787215
-0.34859638742891547,-0.34859638742891547,0.9990228013934592,0.0014085187959646192
-0.3480424102075631,-0.3480424102075631,0.9978790425776818,0.0013715879168093338
-0.34752949049106974,-0.34752949049106974,0.9985582101675163,0.0014354266522366543
-0.3464792797320115,-0.3464792797320115,0.9991029755689199,0.001477670124799981
-0.34536223626673745,-0.34536223626673745,0.9981973389045568,0.0014104033701578139
-0.34457259921364314,-0.34457259921364314,0.9974368565804326,0.0014053872847192414
-0.3438088651590078,-0.3438088651590078,0.99833588950988,0.0015000294662943518
-0.3429530829354917,-0.3429530829354917,0.9964098277638117,0.0013323110400205473
-0.34242221705135306,-0.34242221705135306,1.0007620075964012,0.0014798769757643096
-0.3418902965782763,-0.3418902965782763,0.9963728097527973,0.0014006819689591085
-0.34104441439740185,-0.34104441439740185,0.9957931909419081,0.0014484870573967484
-0.3399313364756381,-0.3399313364756381,0.9996578924938518,0.0014771032914320885
-0.3390213100981782,-0.3390213100981782,0.9993005792538915,0.0014073221056550664
-0.33813275401735154,-0.33813275401735154,0.9988769576652811,0.0014419217873930235
-0.3373881774623442,-0.3373881774623442,0.9991037396228817,0.0013662712223478147
-0.3365245944394701,-0.3365245944394701,0.9987382420024579,0.0014041688673454057
-0.33605510509478337,-0.33605510509478337,0.996459667898215,0.0013735596548560118
-0.33511032486603654,-0.33511032486603654,1.0014120943823632,0.0014734122011451469
-0.33367816489226243,-0.33367816489226243,0.9986434131671056,0.001408202654116213
-0.3325398524848424,-0.3325398524848424,0.9999958038433638,0.0014042869295622785
-0.3316398099737853,-0.3316398099737853,0.9980259439912155,0.0013758873697004243
-0.33097400643746366,-0.33097400643746366,0.9994367695719231,0.0014097180871248513
-0.3304095060491818,-0.3304095060491818,0.9998088847803132,0.0014060055372394993
-0.33000226434669455,-0.33000226434669455,0.9978114486020087,0.0014069501458242061
-0.3288067180787039,-0.3288067180787039,0.9999073932232676,0.0014394037017156846
-0.3277399030284869,-0.3277399030284869,0.9978911618970386,0.001407653469240155
-0.3265819492131413,-0.3265819492131413,1.001983284550814,0.0014051675404786078
-0.325872866895952,-0.325872866895952,0.9991826226521757,0.001412963351899174
-0.3249977375449816,-0.3249977375449816,0.9976719848135349,0.0014029521790698486
-0.32441458443718146,-0.32441458443718146,0.9985653967680641,0.0013306077323298401
-0.3238483023305889,-0.3238483023305889,0.9975281762801623,0.0014781669625876953
-0.32273938691578224,-0.32273938691578224,0.9977285928780006,0.0014732410190755635
-0.3214777100394713,-0.3214777100394713,0.9991947310212724,0.001407659907607366
-0.32067171177150156,-0.32067171177150156,0.9986619017387071,0.00144267440725283
-0.3200647338271665,-0.3200647338271665,0.9960799543163965,0.0015585594183649145
-0.31923416663048554,-0.31923416663048554,0.9990845798241118,0.001329446395924173
-0.318689303737483,-0.318689303737483,0.995370305730669,0.001486552460756192
-0.31816511146789705,-0.31816511146789705,0.9974490040910485,0.0014063807403854687
-0.31730917648201284,-0.31730917648201284,1.0000006761686548,0.0014437720270930648
-0.31603866930709046,-0.31603866930709046,0.9973274585553537,0.0014831895573531452
-0.3150344580742967,-0.3150344580742967,0.997073886093666,0.0014050864643427646
-0.31410278906696476,-0.31410278906696476,0.9978742835644437,0.0014054265427010412
-0.3133524762135494,-0.3133524762135494,0.9988905087674231,0.001410193854849541
-0.31259090347739404,-0.31259090347739404,0.9990604678074231,0.0014410531853380278
-0.3119634364509693,-0.3119634364509693,1.0014140829491118,0.0013639291223094942
-0.3107332097108156,-0.3107332097108156,0.9971093035844891,0.0014395336237778944
-0.3096142763974058,-0.3096142763974058,0.9971050304477499,0.0013700260801000465
-0.308601383529458,-0.308601383529458,0.9958421292769476,0.0014427362216907743
-0.3077878837742901,-0.3077878837742901,0.9975043299288909,0.0013441293836572348
-0.3071361331622029,-0.3071361331622029,0.9973691077395713,0.001403913523639752
-0.3065938194074988,-0.3065938194074988,0.9996927286711346,0.0014045430691589607
-0.3061688907098869,-0.3061688907098869,0.9967018794855906,0.0014446827326651287
-0.3051353879276576,-0.3051353879276576,0.9995874973433267,0.0014749390515072318
-0.30400866790077996,-0.30400866790077996,0.9995187680072425,0.0014093459441726235
-0.3028548418966238,-0.3028548418966238,0.9996836075767581,0.0014083872523791214
-0.3021521424765524,-0.3021521424765524,0.9974236509487877,0.0014319072229767326
-0.3012667314596911,-0.3012667314596911,0.9966980494732844,0.001408228846492584
-0.3006961894650885,-0.3006961894650885,0.9967974722345228,0.0013343584652384883
-0.30011217360188314,-0.30011217360188314,0.9974742676416961,0.0014751160614272008
-0.29904676032674615,-0.29904676032674615,0.9977443198679948,0.0014742270854300765
-0.2979873441872769,-0.2979873441872769,0.998229525675735,0.001447952675878616
-0.29702195333011333,-0.29702195333011333,0.9974114176898519,0.0014405251001187894
-0.2963136708909587,-0.2963136708909587,0.9981566956543853,0.001369791232197983
-0.2953784729481413,-0.2953784729481413,0.9976188908680719,0.0013860333187698528
-0.2948739253304666,-0.2948739253304666,0.999086184632392,0.0014384571393703978
