time,time,flux,flux_err
-0.49906632643918175,-0.49906632643918175,1.0000413104107835,2.8848734301382187e-05
-0.4974677386235271,-0.4974677386235271,0.9999798039073496,2.6462241497348335e-05
-0.496010373167519,-0.496010373167519,0.9999804849270898,2.633884879640133e-05
-0.494683044989506,-0.494683044989506,0.999933750302343,2.6314400173865384e-05
-0.4928177973968559,-0.4928177973968559,0.9999086202374778,2.632013762244276e-05
-0.49031815786802324,-0.49031815786802324,0.999963773307987,2.6317250969289227e-05
-0.488557519333699,-0.488557519333699,0.999979286014035,2.6334975906945752e-05
-0.48633091446754406,-0.48633091446754406,1.0000087844012173,2.6345354968985937e-05
-0.4847073558412376,-0.4847073558412376,0.9999701676368271,2.6332668907174792e-05
-0.48344899224684923,-0.48344899224684923,1.0000228963970188,2.658899814762882e-05
-0.48234849686486997,-0.48234849686486997,1.000006077874405,2.633647263928004e-05
-0.48059239358772177,-0.48059239358772177,0.9999569915530918,2.7486031146717496e-05
-0.47920066525039146,-0.47920066525039146,1.0000085952222544,2.6320022418834677e-05
-0.4777729261608329,-0.4777729261608329,0.9999939344127234,2.6315324598894192e-05
-0.4762274755215913,-0.4762274755215913,0.9999731876957858,2.6320650970128403e-05
-0.4743760834266141,-0.4743760834266141,0.9999708116611327,2.6397275603660937e-05
-0.4723549237613042,-0.4723549237613042,0.9999681675369614,2.633090346782614e-05
-0.4712123583405628,-0.4712123583405628,0.9999871600447487,2.680064537932018e-05
-0.4702165658905869,-0.4702165658905869,1.0000390046132508,2.6338932364580965e-05
-0.46874569968567814,-0.46874569968567814,0.999986940563498,2.631609689394698e-05
-0.46704473434510874,-0.46704473434510874,0.9999939330591433,2.6320231411732728e-05
-0.46559562785987507,-0.46559562785987507,1.000008113934756,2.6323064975860042e-05
-0.46390216332001727,-0.46390216332001727,1.0000035882898022,2.7226773640951818e-05
-0.4622965038754046,-0.4622965038754046,1.0000134631392001,2.6402208966444858e-05
-0.45993244310375303,-0.45993244310375303,1.0000101683848452,2.633247410424226e-05
-0.4584476869255013,-0.4584476869255013,0.9999732929717023,2.631763105623213e-05
-0.45724389222887113,-0.45724389222887113,0.9999973350564847,2.6336650832411876e-05
-0.4558217275189236,-0.4558217275189236,1.0000012832870977,2.6314976343243313e-05
-0.45424543405897566,-0.45424543405897566,0.9999490633584702,2.6319160854490653e-05
-0.4524721528578084,-0.4524721528578084,1.0000150079759256,2.6323013851445373e-05
-0.45063040167224244,-0.45063040167224244,1.0000225203699036,2.632229089470296e-05
-0.44905302272163683,-0.44905302272163683,1.00003509898943,2.6463375976373882e-05
-0.44725054020018434,-0.44725054020018434,0.99990587661063,2.633992237521354e-05
-0.44558700743000373,-0.44558700743000373,0.9999906725595007,2.631862601262586e-05
-0.444371808609867,-0.444371808609867,1.000019697084958,2.6427715621170676e-05
-0.443138450452534,-0.443138450452534,1.000012494539993,2.6337717859148168e-05
-0.442097199458658,-0.442097199458658,0.9999838478335817,2.6315465389578293e-05
-0.440403452872124,-0.440403452872124,0.999993755100707,2.632125438838263e-05
-0.4386049140637624,-0.4386049140637624,0.9999874239254158,2.632122330590951e-05
-0.4367044900260225,-0.4367044900260225,0.9999980882335244,2.63225462162515e-05
-0.4349059354950441,-0.4349059354950441,1.0000045181354502,2.6353912572233387e-05
-0.4334016599561437,-0.4334016599561437,1.0000103637396789,2.632137784316974e-05
-0.43192570703686217,-0.43192570703686217,0.9999928774431526,2.6851407153820232e-05
-0.430753902613651,-0.430753902613651,0.9999736572978648,2.6513296230758485e-05
-0.42950829289184184,-0.42950829289184184,1.000011075418785,2.6337867671159848e-05
-0.4277444932129583,-0.4277444932129583,0.9999931607468602,2.7442234211364078e-05
-0.42594052220811135,-0.42594052220811135,0.9999824001835698,2.6320872262153076e-05
-0.4240224688255694,-0.4240224688255694,1.0000015799416295,2.6319899990922966e-05
-0.42228970470823696,-0.42228970470823696,1.0000515885498082,2.6378640532060298e-05
-0.4203102162653522,-0.4203102162653522,0.9999922371801843,2.6322560274554337e-05
-0.4189453774764843,-0.4189453774764843,1.0000373613313611,2.63317420945954e-05
-0.4176919638477557,-0.4176919638477557,0.9999962602292435,2.6713471512681906e-05
-0.41658630233287114,-0.41658630233287114,1.000013696410299,2.631713539828022e-05
-0.4150157692740322,-0.4150157692740322,1.0000831985730303,2.6322292257688377e-05
-0.41320640648773405,-0.41320640648773405,1.0000136659052097,2.631915026991548e-05
-0.4116451588386553,-0.4116451588386553,1.0000223727102888,2.7364507482281764e-05
-0.4102772624093632,-0.4102772624093632,0.99995016095928,2.7085111587162496e-05
-0.40790424611768683,-0.40790424611768683,0.9999645996098432,2.6381980920022438e-05
-0.40621641578909473,-0.40621641578909473,1.0000327445432653,2.6332599102411376e-05
-0.40484355021253576,-0.40484355021253576,1.000023304519886,2.6335330020698294e-05
-0.4035295884597872,-0.4035295884597872,0.9999968024283022,2.6318121766115116e-05
-0.40219352112762863,-0.40219352112762863,0.9999910804183297,2.6319272202483552e-05
-0.40025672639676485,-0.40025672639676485,1.000022510893086,2.6321103834825806e-05
-0.3986542909879063,-0.3986542909879063,1.000037614894215,2.6321138155017477e-05
-0.39711604841140796,-0.39711604841140796,0.9999829519894462,2.6318628371717653e-05
-0.39522263600156293,-0.39522263600156293,0.9999757576573982,2.6432364793658145e-05
-0.3939298180033802,-0.3939298180033802,0.999991457497944,2.633465788108824e-05
-0.39262614346152985,-0.39262614346152985,1.000004570152224,2.631578600692153e-05
-0.39176484309427906,-0.39176484309427906,0.9999900561264352,2.6403048661150353e-05
-0.39050287526551986,-0.39050287526551986,1.0000438043535484,2.6316544258778477e-05
-0.38938334203630803,-0.38938334203630803,1.0000268489656505,2.6335586270985675e-05
-0.3875564092733839,-0.3875564092733839,0.9999803942646043,2.6321216925572707e-05
-0.3857507328160864,-0.3857507328160864,0.9999764799198696,2.6321589379188724e-05
-0.38372069513716267,-0.38372069513716267,1.0000209021980258,2.6321896575163735e-05
-0.38179516507079825,-0.38179516507079825,0.9999748518059443,2.696648678367562e-05
-0.38054955428742687,-0.38054955428742687,0.9999286489428598,2.63182707455672e-05
-0.3790741764700215,-0.3790741764700215,1.0000283788298325,2.6469410944380894e-05
-0.3778061865821655,-0.3778061865821655,1.0000423694753895,2.6317137127741456e-05
-0.3766681949789927,-0.3766681949789927,0.9999890683605294,2.6337985036233837e-05
-0.3748573484728695,-0.3748573484728695,0.999988044889081,2.6320085942020802e-05
-0.37234575248367036,-0.37234575248367036,1.000014298095509,2.6318895095460734e-05
-0.37052056793108934,-0.37052056793108934,0.9999975980884568,2.6322051643424644e-05
-0.36837936806477956,-0.36837936806477956,0.9999768004834124,2.6360495620870626e-05
-0.3666018658252142,-0.3666018658252142,1.0000127026709933,2.6333599131152463e-05
-0.36506203028038725,-0.36506203028038725,0.9999814721180382,2.6600106676000745e-05
-0.3639535296693793,-0.3639535296693793,1.000001169376717,2.6335918427053174e-05
-0.3621983831973921,-0.3621983831973921,1.0000167444583494,2.7486100173897708e-05
-0.36080684269618357,-0.36080684269618357,1.0000121375935485,2.6320688129611207e-05
-0.3594105272866727,-0.3594105272866727,1.000043522418925,2.6319127830564652e-05
-0.35810645925375867,-0.35810645925375867,1.0000153913765586,2.6319748268757784e-05
-0.3564146491327847,-0.3564146491327847,1.00000305563055,2.639951104424404e-05
-0.3542215609260893,-0.3542215609260893,1.00000392415702,2.6330255997301662e-05
-0.35309323749970645,-0.35309323749970645,0.9999643832052707,2.6817791259040346e-05
-0.3519938832519983,-0.3519938832519983,1.0000041995292006,2.633605327377425e-05
-0.35068428239392235,-0.35068428239392235,1.0000293265113762,2.6316395989664877e-05
-0.34907191027450607,-0.34907191027450607,1.000009463793355,2.6321283734549884e-05
-0.34740995082102016,-0.34740995082102016,1.0000087989022595,2.632014302461272e-05
-0.34580403751315314,-0.34580403751315314,1.0000241989236636,2.7243747557348374e-05
-0.34432002640896825,-0.34432002640896825,1.0000135666822996,2.6403810135357366e-05
-0.34195504216404515,-0.34195504216404515,1.000007216818771,2.6334252635905335e-05
-0.34037010126776296,-0.34037010126776296,1.0000121140965534,2.6319358686490655e-05
-0.33913169008665134,-0.33913169008665134,0.9999943747411582,2.63363398527475e-05
-0.33789794552067176,-0.33789794552067176,0.9999801067946278,2.6366216654576422e-05
-0.33685442075438915,-0.33685442075438915,0.9999679402671937,2.6317079500767445e-05
-0.33510987462505,-0.33510987462505,0.9999672822962294,2.6318104211147247e-05
-0.3332985772336542,-0.3332985772336542,0.9999748551096632,2.6321885076033833e-05
-0.33128231105729355,-0.33128231105729355,0.9999466981948221,2.6472569164995503e-05
-0.32927358940432894,-0.32927358940432894,0.999990163127031,2.6341937425997525e-05
-0.3275438915399718,-0.3275438915399718,0.9999770299586084,2.6318474117226508e-05
-0.32622269544008303,-0.32622269544008303,1.0000041068354537,2.6432455886001228e-05
-0.3249575175512291,-0.3249575175512291,1.0000130537905285,2.6316232635335e-05
-0.32382820472485035,-0.32382820472485035,1.0000679928890086,2.633868920092287e-05
-0.3220906933769584,-0.3220906933769584,0.9999716519925592,2.653025081467986e-05
-0.32061396141143633,-0.32061396141143633,1.0000123663383258,2.6324155261182136e-05
-0.3188168624750688,-0.3188168624750688,1.0000019725345066,2.6320166107425922e-05
-0.3173088575458678,-0.3173088575458678,1.0000151562639823,2.6333019273339543e-05
-0.315567467056826,-0.315567467056826,1.0000256667315708,2.634201301999821e-05
-0.31404886244708907,-0.31404886244708907,1.0000310920601332,2.6332418665095198e-05
-0.3126364098425256,-0.3126364098425256,1.000040176342027,2.632073314523735e-05
-0.3114004515540728,-0.3114004515540728,0.9999752036273177,2.634067925498799e-05
-0.3096499814229901,-0.3096499814229901,0.9999833120463736,2.6318191434551002e-05
-0.3079903892343282,-0.3079903892343282,0.999981462555357,2.744925984164258e-05
-0.3059467971856066,-0.3059467971856066,1.0000485359699745,2.6319871085747557e-05
-0.30430046558976753,-0.30430046558976753,0.9999645621251153,2.6343005257604534e-05
-0.30219304002530406,-0.30219304002530406,0.999959256866045,2.6357353772228795e-05
-0.30076282604859444,-0.30076282604859444,1.0000031259599997,2.6327697427838097e-05
-0.2992981443145254,-0.2992981443145254,0.9999552577128382,2.6724345962548716e-05
-0.298191582356958,-0.298191582356958,1.0000486084548965,2.631735422073437e-05
-0.2966221226510243,-0.2966221226510243,0.9999447732895372,2.6320505573474387e-05
-0.2951074423057435,-0.2951074423057435,0.9999939489014122,2.6319355028847016e-05
-0.29325893160348643,-0.29325893160348643,1.000028917026408,2.6320882441172026e-05
-0.2918832345516421,-0.2918832345516421,1.000009734535221,2.710439849750374e-05
-0.2895112041245739,-0.2895112041245739,1.0000128870307523,2.6383963391711663e-05
-0.28785479061261865,-0.28785479061261865,0.9999834310099859,2.6332535081984747e-05
-0.28667981623875677,-0.28667981623875677,0.9999699161105216,2.6334751194395434e-05
-0.28548159423226027,-0.28548159423226027,1.00004232470469,2.631720113028512e-05
-0.2840321874311485,-0.2840321874311485,0.9999644210821106,2.632136048152194e-05
-0.2822649131172511,-0.2822649131172511,1.0000314603784801,2.631863298116778e-05
-0.2805714804359013,-0.2805714804359013,1.0000269915262245,2.6321282020921882e-05
-0.27886451069207396,-0.27886451069207396,1.0000496666940797,2.6323050620184322e-05
-0.2768296065587492,-0.2768296065587492,0.9999792895676034,2.643672083752896e-05
-0.27512194648224975,-0.27512194648224975,1.0000130843913624,2.6335878182188892e-05
-0.2737556239168043,-0.2737556239168043,1.00003727977748,2.6332707514399513e-05
-0.2726543484830472,-0.2726543484830472,0.9999368471125477,2.6386176694054276e-05
-0.2715053106054256,-0.2715053106054256,1.000024429322132,2.63409171177079e-05
-0.2701450788132206,-0.2701450788132206,0.9999940511764283,2.6314262191967728e-05
-0.2685301291567157,-0.2685301291567157,0.9999814248071491,2.6320323741377238e-05
-0.2665578845320852,-0.2665578845320852,1.0000338318369275,2.6321828997605518e-05
-0.2644778871559538,-0.2644778871559538,1.000023146640173,2.6330018134601307e-05
-0.2629391854687128,-0.2629391854687128,1.0000445558965019,2.6976636350519442e-05
-0.2614695690368535,-0.2614695690368535,1.0000512333428397,2.6331927085165065e-05
-0.2602752191858599,-0.2602752191858599,0.9999730902614183,2.646101887774718e-05
-0.2589899803053413,-0.2589899803053413,1.0000143391184118,2.63386859183727e-05
-0.25752109129098244,-0.25752109129098244,1.0000458620453956,2.631664725682997e-05
-0.25564853435498663,-0.25564853435498663,0.9999333467086376,2.6319735353878934e-05
-0.2535313355634571,-0.2535313355634571,1.0000278106450953,2.6319301545520602e-05
-0.25177143218097625,-0.25177143218097625,0.9999835832782706,2.6338973140470656e-05
-0.2495443254141719,-0.2495443254141719,1.000016540533138,2.6346550570375974e-05
-0.24791995907144154,-0.24791995907144154,1.0000101953857385,2.6332926571979287e-05
-0.24644872235076037,-0.24644872235076037,1.0000176237348397,2.6632066161562315e-05
-0.2451856169012899,-0.2451856169012899,0.9999663345241139,2.631478999576422e-05
-0.24359279700656772,-0.24359279700656772,1.000034048234844,2.7484042603397437e-05
-0.24208604279192514,-0.24208604279192514,1.0000388927435522,2.6317934984269605e-05
-0.2406633070022508,-0.2406633070022508,1.000033579185272,2.6316716314039575e-05
-0.2390915568343189,-0.2390915568343189,1.0000289274031602,2.6321702935423655e-05
-0.23752293180077685,-0.23752293180077685,0.9999809328246023,2.6404215805238605e-05
-0.23556793426105288,-0.23556793426105288,1.0000085959403608,2.633171261905406e-05
-0.23442317338631255,-0.23442317338631255,1.0000157926527327,2.6829114596833555e-05
-0.23342933758540313,-0.23342933758540313,1.000053904174509,2.6340180765095792e-05
-0.23195775385174783,-0.23195775385174783,0.9999982233307495,2.6316417373948855e-05
-0.23025663909866126,-0.23025663909866126,1.0000423815041009,2.6319325385193578e-05
-0.22880720885877964,-0.22880720885877964,0.9999946826094066,2.6320287534461517e-05
-0.22711517874413403,-0.22711517874413403,1.0000018994303412,2.7260780926165483e-05
-0.22550845721634688,-0.22550845721634688,1.0000656162907067,2.64075652017348e-05
-0.22314632245106622,-0.22314632245106622,0.9999654316585449,2.6332998125506794e-05
-0.22165933779106126,-0.22165933779106126,1.0000023070307225,2.631844453086203e-05
-0.22051989803730976,-0.22051989803730976,0.99994674159101,2.638830364044409e-05
-0.21926045910586253,-0.21926045910586253,1.0000159685454992,2.631627319202789e-05
-0.21783484381376184,-0.21783484381376184,1.0000251596603182,2.6319654116400025e-05
-0.2161058622034034,-0.2161058622034034,1.0000572172788178,2.63219763717529e-05
-0.21406925994015183,-0.21406925994015183,1.0000192355249566,2.6319980853308022e-05
-0.21213115879363614,-0.21213115879363614,1.000025659695816,2.647906120232124e-05
-0.21013913692659117,-0.21013913692659117,1.000007139278588,2.6342104353670144e-05
-0.2084610166515631,-0.2084610166515631,1.0000488175295614,2.6332460126820185e-05
-0.2073655431071529,-0.2073655431071529,0.9999863201271904,2.6419045267931763e-05
-0.20614079047954875,-0.20614079047954875,0.9999654354562004,2.633946743592535e-05
-0.2046767460051342,-0.2046767460051342,1.000005683239678,2.6314489913726214e-05
-0.20275231187551981,-0.20275231187551981,1.0000869859888788,2.632230381638255e-05
-0.20060087672827648,-0.20060087672827648,1.0000039034778534,2.6323619133869693e-05
-0.19891580603143666,-0.19891580603143666,1.0000421343042762,2.6333819072133387e-05
-0.197173563362594,-0.197173563362594,1.00002987239221,2.6342650668084858e-05
-0.19565575694578002,-0.19565575694578002,0.9999948025991312,2.6332480225500653e-05
-0.19402963772954535,-0.19402963772954535,1.0000187406708059,2.6319328685298197e-05
-0.19271833403909114,-0.19271833403909114,0.9999857115023744,2.633620789863233e-05
-0.1909564644949569,-0.1909564644949569,1.0000070283448095,2.7456351636840525e-05
-0.18923914393380983,-0.18923914393380983,1.0000494176361385,2.6322911295608114e-05
-0.18755338174523786,-0.18755338174523786,1.0000139736276576,2.631972726714804e-05
-0.18590683595757582,-0.18590683595757582,0.9999781773912766,2.6346196302947792e-05
-0.18379998406016967,-0.18379998406016967,1.0000026274196423,2.6357335961766814e-05
-0.18236848475935402,-0.18236848475935402,1.0000414850195154,2.6328741719547993e-05
-0.18112150218803436,-0.18112150218803436,0.9999802801263866,2.67193679903096e-05
-0.18005609535248368,-0.18005609535248368,1.000015535322707,2.633750351432726e-05
-0.17872380881672142,-0.17872380881672142,1.0000167680289205,2.631992109800552e-05
-0.17732923620860674,-0.17732923620860674,1.0000506238036473,2.6320691376142394e-05
-0.17579956577392294,-0.17579956577392294,1.000068959477555,2.6321189854743547e-05
-0.17428335681033785,-0.17428335681033785,1.0000199579050768,2.711620322509723e-05
-0.17307804355295958,-0.17307804355295958,1.0000170927258616,2.6386378926453235e-05
-0.17070630940434056,-0.17070630940434056,1.0000181969718194,2.6332302044246027e-05
-0.16913178496906767,-0.16913178496906767,0.9999766077113581,2.6318864051062397e-05
-0.1678868712609983,-0.1678868712609983,0.9999782419973131,2.6336613869294267e-05
-0.1665540194742789,-0.1665540194742789,1.0000212056519873,2.631281914146186e-05
-0.16540534331725212,-0.16540534331725212,1.0000065866170522,2.6321294574480166e-05
-0.16346843362916844,-0.16346843362916844,0.9999639487606092,2.6320768904233936e-05
-0.1618679805927968,-0.1618679805927968,1.0000273240860675,2.632175451348945e-05
-0.1601302918366855,-0.1601302918366855,0.9999821167298885,2.6322499878722528e-05
-0.15843657838267972,-0.15843657838267972,1.0000290899662787,2.644139141192069e-05
-0.1566283337044297,-0.1566283337044297,0.9999636300500352,2.6331499163706343e-05
-0.1551958243617264,-0.1551958243617264,0.9999801718315788,2.6335243098586913e-05
-0.15396079605416163,-0.15396079605416163,1.0000331520457697,2.6389526745178333e-05
-0.15293315528761015,-0.15293315528761015,1.0000534629845927,2.6342865253341306e-05
-0.15154665024674613,-0.15154665024674613,0.9999851294172529,2.6314527962685136e-05
-0.1501359345857054,-0.1501359345857054,1.000012368601109,2.6321559204847044e-05
-0.14816425473763956,-0.14816425473763956,1.0000130438152752,2.6321696723906325e-05
-0.1460846116024186,-0.1460846116024186,1.0000398960039845,2.6329553294466943e-05
-0.1445452930565807,-0.1445452930565807,0.9999480098598049,2.6993294235956828e-05
-0.14307639494509203,-0.14307639494509203,0.9999970460052812,2.6332718057995836e-05
-0.14176313126226886,-0.14176313126226886,1.0000203471464189,2.6465990606414797e-05
-0.1404192771362432,-0.1404192771362432,0.9999888467920666,2.634159584354152e-05
-0.1387320766611083,-0.1387320766611083,0.9999794392862649,2.631463278547275e-05
-0.1371436822548276,-0.1371436822548276,1.0000355635716824,2.739155215410225e-05
-0.1351379258405359,-0.1351379258405359,1.000060660030646,2.6320642858189484e-05
-0.13337838939914945,-0.13337838939914945,0.9999790956666432,2.633911467347319e-05
-0.13115103159943828,-0.13115103159943828,0.9999701467016904,2.6347911322817737e-05
-0.12952626243059057,-0.12952626243059057,0.999968651117362,2.633247754126622e-05
-0.12805489694073913,-0.12805489694073913,1.0000535895925857,2.6643340125356674e-05
-0.1267910314090841,-0.1267910314090841,1.000041841519214,2.6315839608715453e-05
-0.1251987367599213,-0.1251987367599213,0.9999395707193693,2.7476980079011765e-05
-0.12369158988003619,-0.12369158988003619,0.999996252044536,2.6318836695609814e-05
-0.12226912862315657,-0.12226912862315657,0.9999769545940145,2.6316680300025586e-05
-0.1206978713053104,-0.1206978713053104,1.0000157025648089,2.6320813688802747e-05
-0.11875267710129264,-0.11875267710129264,1.0000203761700561,2.6406236661154643e-05
-0.11700333985718317,-0.11700333985718317,0.9999749557634525,2.6332465158473034e-05
