time,time,flux,flux_err
-0.49979289885329425,-0.49979289885329425,1.0000443741330745,0.00013850940303230033
-0.49940250333534575,-0.49940250333534575,0.9999172517198942,0.00013851367186791394
-0.49901210784575795,-0.49901210784575795,1.0000515387761,0.00013853043430676323
-0.4986217123843841,-0.4986217123843841,1.0000354950628372,0.00013850315485983988
-0.4982383440688505,-0.4982383440688505,0.9997680257447673,0.00012638036097481438
-0.49784742813499927,-0.49784742813499927,0.9998368806065601,0.00012632005302062318
-0.497515852325623,-0.497515852325623,1.0001600427476676,0.00012632510782158678
-0.4971837560087504,-0.4971837560087504,0.9997282435837487,0.0001263209171905245
-0.496858426564393,-0.496858426564393,0.9997773823053319,0.00012633973357309644
-0.4965330971392333,-0.4965330971392333,0.9989441702855885,0.00012636475484391156
-0.49620776773327047,-0.49620776773327047,0.9996143872012923,0.0001263607521705472
-0.4958824383462456,-0.4958824383462456,0.9999337729287425,0.0001263578349672754
-0.4955571089781522,-0.4955571089781522,0.9993337402409356,0.00012641174568161362
-0.4952317796292604,-0.4952317796292604,0.9994895275233426,0.00012643934007950042
-0.4949064502992126,-0.4949064502992126,0.9998312038720666,0.00012644797900106835
-0.4945811209878414,-0.4945811209878414,0.9999445435266425,0.0001264190165555931
-0.49425579169549216,-0.49425579169549216,0.9997468620667564,0.00012640727848873553
-0.4939304624220785,-0.4939304624220785,0.9998866092209482,0.00012636216475057644
-0.4936051331672523,-0.4936051331672523,1.0000662971162648,0.00012636310999683268
-0.4932798039309258,-0.4932798039309258,0.9993906725054125,0.00012637790902789958
-0.4929466668126704,-0.4929466668126704,0.9999110737553931,0.00012636438687928602
-0.49260311917962624,-0.49260311917962624,0.9992567351104158,0.0001263790761545375
-0.4922777900006281,-0.4922777900006281,0.9997273124676251,0.00012639783905296645
-0.4919524608404796,-0.4919524608404796,0.9999140410318805,0.00012640994246874244
-0.49162713169882866,-0.49162713169882866,1.0000369222158978,0.00012643280461413245
-0.49130180257533096,-0.49130180257533096,0.9999476630974797,0.00012640279477769013
-0.4909764734704183,-0.4909764734704183,0.9997278449472503,0.00012638816636559915
-0.4906511443836557,-0.4906511443836557,1.0000263588875729,0.00012637649964249379
-0.4903258153156543,-0.4903258153156543,1.00000503178042,0.0001263616909267386
-0.4900004862655411,-0.4900004862655411,0.9996082725164606,0.0001263411718275635
-0.48967515723375177,-0.48967515723375177,1.0000202194799612,0.0001263209180657066
-0.4893498282204636,-0.4893498282204636,0.9999647368311002,0.00012635104612166904
-0.48902449922514996,-0.48902449922514996,1.0001053362098657,0.00012633470989667131
-0.4886991702479001,-0.4886991702479001,0.9999882782914806,0.00012633655114498577
-0.48837384128906114,-0.48837384128906114,0.9999453579833453,0.00012632391543225188
-0.4880485123480252,-0.4880485123480252,0.9999744288523313,0.00012632632895257775
-0.48772318342531235,-0.48772318342531235,1.0001831255588258,0.00012635081964857268
-0.48739785452031403,-0.48739785452031403,0.9999432227156145,0.00012632146809378553
-0.48707252563337844,-0.48707252563337844,1.0001850623364217,0.00012632720766655732
-0.4867471967644182,-0.4867471967644182,0.9998756058312456,0.00012630495967430602
-0.48642186791343534,-0.48642186791343534,1.0000558221437106,0.00012632058545020638
-0.4860965390801649,-0.4860965390801649,0.9999880981111648,0.00012629427257571232
-0.4857712102651323,-0.4857712102651323,1.0000131767243539,0.00012629379370120568
-0.4854458814676388,-0.4854458814676388,0.9999241262167349,0.00012626588878842366
-0.48512055268803456,-0.48512055268803456,1.00004012114591,0.00012627329020868246
-0.48479522392605573,-0.48479522392605573,0.9999268351049118,0.0001262575314261621
-0.48446989518222916,-0.48446989518222916,1.0000822598717511,0.00012626234807155018
-0.48414456645567794,-0.48414456645567794,0.9999171585898396,0.000126272678013718
-0.48381923774710495,-0.48381923774710495,1.000064696638968,0.00012629673597989622
-0.48349390905624323,-0.48349390905624323,0.999916837566427,0.0001262830170462973
-0.4831685803830975,-0.4831685803830975,1.0001255145321841,0.0001262832859855961
-0.4828432517274905,-0.4828432517274905,0.9998442353746325,0.00012627371907067956
-0.482517923089247,-0.482517923089247,1.0000812925482765,0.00012627140948429934
-0.48219259446854645,-0.48219259446854645,0.9999903620104034,0.0001262781029782714
-0.4818672658657309,-0.4818672658657309,0.9999625367024597,0.00012627676697533847
-0.4815419372804559,-0.4815419372804559,0.9999485345405936,0.00012626487036793125
-0.48121660871237104,-0.48121660871237104,1.0001831473870049,0.00012629030664744006
-0.4808912801617389,-0.4808912801617389,0.999849783417017,0.00012628068301400992
-0.48056595162890725,-0.48056595162890725,1.0001761537941225,0.00012628445316669753
-0.4802406231134416,-0.4802406231134416,0.999859993876919,0.00012630132859071838
-0.4799152946152521,-0.4799152946152521,1.0000073229614628,0.00012626244598917328
-0.4795899661344283,-0.4795899661344283,1.0000587640247924,0.00012625135480638774
-0.4792646376712323,-0.4792646376712323,1.0000245752262877,0.00012624240815167518
-0.478939309225051,-0.478939309225051,0.9998910514246988,0.0001262191642411496
-0.4786139807966713,-0.4786139807966713,0.9999714608832377,0.0001262149478110063
-0.4782886523853069,-0.4782886523853069,0.9999551233504358,0.00012619604316858505
-0.47796332399113267,-0.47796332399113267,1.0000984989246917,0.00012624267323495012
-0.4776379956143252,-0.4776379956143252,0.9999119378605531,0.00012622106389904394
-0.4773126672548809,-0.4773126672548809,1.0001394248886215,0.00012623965554586062
-0.47698733891271416,-0.47698733891271416,0.9998697227816249,0.00012625817909324435
-0.47666201058738944,-0.47666201058738944,0.9999779397797154,0.0001262800813660834
-0.47633668228004,-0.47633668228004,1.0000419287815234,0.00012625870064554838
-0.47601135398953254,-0.47601135398953254,0.9999144286066054,0.00012622293603951353
-0.47568602571586605,-0.47568602571586605,1.0001715654216672,0.00012623325287595722
-0.4753606974596508,-0.4753606974596508,0.9998581198732437,0.0001262058326817742
-0.4750353692207135,-0.4750353692207135,1.0001247598393852,0.00012624203764076503
-0.47471004099861813,-0.47471004099861813,0.9998973106262031,0.00012623478884739964
-0.4743847127937137,-0.4743847127937137,1.0000366370822948,0.00012626245892438908
-0.4740593846060861,-0.4740593846060861,0.9999223177498153,0.0001262007423296217
-0.4737340564353868,-0.4737340564353868,1.0000359886527648,0.0001262025257992424
-0.47340872828205144,-0.47340872828205144,1.0000792075015021,0.00012620918091058955
-0.4730834001454731,-0.4730834001454731,0.9999803239939926,0.00012622391003550384
-0.472758072025821,-0.472758072025821,0.9999975632446365,0.00012624982331328985
-0.47243274392335904,-0.47243274392335904,0.9999669463200911,0.00012624256489548967
-0.4721074158381768,-0.4721074158381768,1.0001122739132184,0.0001262322241037649
-0.47178208776983366,-0.47178208776983366,0.9999092715336004,0.00012622784553620233
-0.4714567597183333,-0.4714567597183333,1.0000686670428163,0.00012617109135852302
-0.4711314316840234,-0.4711314316840234,0.9999942624404439,0.00012620816806151349
-0.47080610366664183,-0.47080610366664183,0.9999482146498062,0.00012621103533679427
-0.4704807756660131,-0.4704807756660131,1.0001009624863484,0.00012625504818055796
-0.4701299419699815,-0.4701299419699815,0.9998363300256642,0.0001261917681932956
-0.4697234121469009,-0.4697234121469009,1.0001241909740002,0.00012614696138785647
-0.4693876737087074,-0.4693876737087074,0.999936644530041,0.0001261695172440244
-0.4690623457824262,-0.4690623457824262,1.000039341269936,0.00012618407792223542
-0.4687370178726365,-0.4687370178726365,0.9999778113036006,0.0001262066137167842
-0.4684116899798628,-0.4684116899798628,0.9996637327071444,0.00012617384218768581
-0.4680863621040178,-0.4680863621040178,0.9999230624344435,0.00012619140039738227
-0.46776103424510324,-0.46776103424510324,1.0000407138073597,0.0001261474031139736
-0.46743570640311455,-0.46743570640311455,1.0000864250690893,0.00012613658524268813
-0.46711037857770704,-0.46711037857770704,0.9999493369338991,0.00012615337408323162
-0.46678505076966237,-0.46678505076966237,0.9999548681169209,0.0001261710499337253
-0.466459722978113,-0.466459722978113,1.0000718540711273,0.0001261964404608652
-0.4661343952034887,-0.4661343952034887,0.9998500034893476,0.00012616270701581214
-0.4658090674455352,-0.4658090674455352,1.00014012814215,0.00012614689106157034
-0.4654837397045938,-0.4654837397045938,0.9999570316439501,0.0001261597378213247
-0.46515841198084507,-0.46515841198084507,0.9999888541443498,0.00012617482722526992
-0.4648330842732399,-0.4648330842732399,1.0000475602952448,0.00012620217935194685
-0.4645077565828224,-0.4645077565828224,0.9999192305321088,0.00012620452744665654
-0.4641824289091616,-0.4641824289091616,1.0001073216744356,0.00012620687704221217
-0.46385710125234103,-0.46385710125234103,0.9998811533346519,0.00012617287326249733
-0.4635317736122733,-0.4635317736122733,1.0001146894637372,0.0001261880487172967
-0.46320644598904936,-0.46320644598904936,0.9999224827608449,0.0001261983911177604
-0.4628811183824929,-0.4628811183824929,1.000011173014266,0.00012621399483091916
-0.46255579079312314,-0.46255579079312314,0.9999849237422793,0.00012617384974600174
-0.46223046322007305,-0.46223046322007305,0.9999936431002989,0.00012618174267392594
-0.4619051356643009,-0.4619051356643009,0.9999588652976916,0.00012615898953559682
-0.46157980812476007,-0.46157980812476007,1.0001282185895368,0.00012615507065320237
-0.46125448060223456,-0.46125448060223456,0.9999436310102668,0.0001261733535566992
-0.4609291530966345,-0.4609291530966345,1.0000226706279165,0.00012621364860237162
-0.46060382560761576,-0.46060382560761576,1.0000536538765705,0.00012621564754456148
-0.46027849813544214,-0.46027849813544214,1.0000032343749006,0.0001261963010749559
-0.4599531706799322,-0.4599531706799322,1.000047360200488,0.00012618604405395967
-0.45962784324126355,-0.45962784324126355,0.9999638283402049,0.00012616830254860592
-0.45930251581926207,-0.45930251581926207,0.9999997148060691,0.00012613051988816118
-0.4589771884142756,-0.4589771884142756,1.0000117380321005,0.00012615766714742165
-0.4586518610257812,-0.4586518610257812,0.9999877723990368,0.00012615522741180155
-0.4583265336543036,-0.4583265336543036,0.9999962242876228,0.00012618446973909614
-0.4580012062994925,-0.4580012062994925,1.0000420569499826,0.00012620452191407152
-0.4576758789614342,-0.4576758789614342,0.9999477644971974,0.00012619341093369
-0.45735055163987504,-0.45735055163987504,1.0000154139474904,0.0001261986257268778
-0.45702522433532594,-0.45702522433532594,0.9999816689650366,0.0001261931391682188
-0.4566998970478796,-0.4566998970478796,1.0000123263175915,0.0001261630376770218
-0.45637456977657787,-0.45637456977657787,1.0000503838143244,0.0001261852471175868
-0.4560492425222922,-0.4560492425222922,0.9999570219040093,0.00012620138053927218
-0.45572391528467265,-0.45572391528467265,0.999988576021761,0.00012619416524637476
-0.4553985880638951,-0.4553985880638951,1.0000547308228889,0.000126169384303945
-0.4550732608602203,-0.4550732608602203,0.9999592015474399,0.00012616568226022187
-0.45474793367286,-0.45474793367286,0.9998821616302969,0.00012618489921628712
-0.454422606502866,-0.454422606502866,1.0001202410328278,0.00012619106434310414
-0.45409727934884286,-0.45409727934884286,0.9998960181352496,0.00012618126757708235
-0.4537719522120103,-0.4537719522120103,1.0000067050305854,0.00012619087444405746
-0.453446625092193,-0.453446625092193,1.0000656725615076,0.00012621193582124066
-0.453121297988606,-0.453121297988606,0.9999095468773305,0.00012618651368454876
-0.45279597090212287,-0.45279597090212287,1.000048163150774,0.0001261985054872134
-0.4524706438322177,-0.4524706438322177,1.0000075399917627,0.0001261994507105768
-0.452145316779416,-0.452145316779416,0.999897548366351,0.0001261922356732021
-0.4518199897432808,-0.4518199897432808,1.0001181432416497,0.00012622729075413203
-0.45149466272398797,-0.45149466272398797,1.0000015537611182,0.0001262685102910516
-0.4511693357214487,-0.4511693357214487,0.9999580561788403,0.00012627914720028744
-0.45084400873575314,-0.45084400873575314,1.0000216476366677,0.00012623718804899935
-0.45051868176698306,-0.45051868176698306,0.9999635159181561,0.00012620476388144406
-0.45019335481531614,-0.45019335481531614,1.0000257158537076,0.0001261974485143208
-0.44986802787961827,-0.44986802787961827,1.000035209613201,0.00012619662461665746
-0.44954270096137494,-0.44954270096137494,0.9999619465039741,0.00012620129027737516
-0.44921737405962114,-0.44921737405962114,1.0000089779141763,0.00012623655824713488
-0.44889204717514486,-0.44889204717514486,1.0000771057345106,0.0001262279106520042
-0.4485667203075117,-0.4485667203075117,1.0000674897132362,0.00012622489752091865
-0.44824139345654607,-0.44824139345654607,0.9998845384286611,0.0001262272335804324
-0.4479160666223315,-0.4479160666223315,1.0000299372842498,0.0001261992520270804
-0.44759073980522146,-0.44759073980522146,1.0000146591271188,0.00012620313525999954
-0.44726541300512646,-0.44726541300512646,0.999961483788001,0.00012619415952415923
-0.44694008622161263,-0.44694008622161263,1.0001113090864806,0.00012620783336253098
-0.44661475945494084,-0.44661475945494084,0.9998887937368833,0.00012621241785711512
-0.44628943270536753,-0.44628943270536753,0.9999959929788869,0.0001262158394807279
-0.4459641059728156,-0.4459641059728156,1.0000911868353581,0.00012622121602875325
-0.44563877925718887,-0.44563877925718887,0.9999576400540642,0.0001262269585999994
-0.44531345255814403,-0.44531345255814403,0.9999185570482998,0.00012622621920894714
-0.4449881258762861,-0.4449881258762861,1.0000933449418965,0.00012620812879184158
-0.44466279921136087,-0.44466279921136087,1.0000284468773868,0.00012625495154043132
-0.4443374725635362,-0.4443374725635362,0.9998946869858563,0.0001262410850436174
-0.4440121459330776,-0.4440121459330776,1.000041950108296,0.000126258474877826
-0.4436868193186719,-0.4436868193186719,0.9999943021091401,0.00012621742892612024
-0.44336149272189795,-0.44336149272189795,1.0000267365178996,0.00012622560341541208
-0.4430361661422239,-0.4430361661422239,0.999970376973565,0.00012621706620941398
-0.4427108395788689,-0.4427108395788689,1.0001116115083495,0.0001262085731955383
-0.44238551303296275,-0.44238551303296275,0.9998186275977815,0.00012619686311950853
-0.4420383245626418,-0.4420383245626418,0.9995823731105627,0.00012620305376175484
-0.44164376857223575,-0.44164376857223575,1.000149813760401,0.00012618503082711233
-0.4413184420822656,-0.4413184420822656,1.0000001805252878,0.0001262032312864276
-0.4409931156092252,-0.4409931156092252,0.9999949403976304,0.00012622236260970325
-0.44066778915363647,-0.44066778915363647,1.000089287456468,0.0001261853273806282
-0.4403424627148887,-0.4403424627148887,0.9998929376392092,0.00012622311747955716
-0.44001713629359573,-0.44001713629359573,1.0000654799830762,0.0001262241480307656
-0.4396918098893149,-0.4396918098893149,0.9999726669334313,0.00012623435646154637
-0.4393664835017891,-0.4393664835017891,1.0001014205201582,0.0001262051741724674
-0.4390411571318914,-0.4390411571318914,0.9998113566731005,0.0001261873892940526
-0.43871583077848547,-0.43871583077848547,1.0001355731124488,0.0001262462224226382
-0.43839050444296745,-0.43839050444296745,0.9998853125609722,0.0001262283987886605
-0.4380651781244637,-0.4380651781244637,1.0001417670804877,0.00012623417409856518
-0.4377398518235907,-0.4377398518235907,0.9999659206819738,0.00012625018192388102
-0.4374145255389458,-0.4374145255389458,1.000027202886922,0.00012623623682676897
-0.43708919927219014,-0.43708919927219014,0.9999661538088697,0.0001262352327232042
-0.436763873022711,-0.436763873022711,0.9999741383332628,0.00012622812372001404
-0.4364385467899858,-0.4364385467899858,1.0000440813271325,0.00012623596156373566
-0.4361132205751499,-0.4361132205751499,0.9999656479028269,0.0001262267178505082
-0.4357878943772427,-0.4357878943772427,1.0000091387872727,0.00012622292027390742
-0.4354625681965274,-0.4354625681965274,0.9999833486033376,0.00012623984335715825
-0.43513724203326054,-0.43513724203326054,0.9999904927205924,0.00012626031578851258
-0.4348119158873601,-0.4348119158873601,0.999978504963844,0.00012629631290727252
-0.43448658975882604,-0.43448658975882604,0.9999435024114085,0.00012626794517475907
-0.4341612636476569,-0.4341612636476569,1.000144244987084,0.0001262738692807005
-0.4338359375538527,-0.4338359375538527,0.9999433177282869,0.00012623673054300887
-0.4335106114773229,-0.4335106114773229,1.0001000293190838,0.0001262494443757919
-0.43318528541824686,-0.43318528541824686,0.9999551056654482,0.00012624379183262863
-0.4328599593764505,-0.4328599593764505,1.000000675564386,0.00012627060010932654
-0.4325346333521047,-0.4325346333521047,0.9999253140566688,0.00012631244064817182
-0.43220930734529867,-0.43220930734529867,0.9999345358768862,0.00012626328574231316
-0.43188398135568207,-0.43188398135568207,1.0000925664274563,0.00012624544561424592
-0.43155865538369226,-0.43155865538369226,0.9999011765902687,0.00012625451896214703
-0.43123332942889336,-0.43123332942889336,1.0000578609005515,0.00012628567246539415
-0.43090800349172226,-0.43090800349172226,0.9999810610228265,0.00012629138894783138
-0.43058267757200175,-0.43058267757200175,1.0000122924093717,0.00012632762259564949
-0.4302573516696476,-0.4302573516696476,0.9998788528354069,0.0001263201380901034
-0.42993202578456824,-0.42993202578456824,1.0000953798480439,0.00012627816619825512
-0.42960669991720446,-0.42960669991720446,1.0000135574552116,0.00012625594703739884
-0.42928137406729333,-0.42928137406729333,1.0000890618423641,0.00012623502153489812
-0.42895604823448535,-0.42895604823448535,0.9999714880206787,0.0001262575612186213
-0.42863072241930417,-0.42863072241930417,1.0000009277146176,0.00012624459717813417
-0.4283053966220109,-0.4283053966220109,1.0000315901719694,0.00012625501357520224
-0.42798007084164524,-0.42798007084164524,0.9999670586005432,0.00012626612318077435
-0.42765474507855894,-0.42765474507855894,1.0001099916475447,0.00012625803916863524
-0.4273294193332724,-0.4273294193332724,0.9999666831739533,0.00012623308911008366
-0.42700409360517855,-0.42700409360517855,1.0000964834924724,0.00012622985035357927
-0.4266787678944475,-0.4266787678944475,0.9998693461836717,0.00012622167374538564
-0.4263534422011695,-0.4263534422011695,1.0000558649030693,0.00012621178730324085
-0.42602811652508094,-0.42602811652508094,0.9999858617638143,0.00012620914994882247
-0.4257027908663563,-0.4257027908663563,1.000074898800134,0.00012621572661667075
-0.4253774652249124,-0.4253774652249124,0.9998967834667749,0.0001262227000928638
-0.42505213960048244,-0.42505213960048244,1.0000456977834558,0.00012620331698545757
-0.42472681399333184,-0.42472681399333184,1.0000574576169536,0.00012617429998666553
-0.4244014884035451,-0.4244014884035451,0.9999670857684471,0.0001261726570227605
-0.4240761628304238,-0.4240761628304238,0.9999535720385071,0.00012617411397190272
-0.42375083727440527,-0.42375083727440527,0.9999744508320424,0.0001261728838922222
-0.42342551173557935,-0.42342551173557935,1.000060510942501,0.0001261796410319438
-0.42310018621298406,-0.42310018621298406,0.9999430200838655,0.00012618384798180438
-0.42277486070749004,-0.42277486070749004,1.0000657783609448,0.00012617856182665853
-0.4224495352183162,-0.4224495352183162,0.9999484983116368,0.00012616308015621981
-0.4221242097462433,-0.4221242097462433,1.000139236650017,0.00012618812768349437
-0.42179888429014023,-0.42179888429014023,0.9998303044068425,0.00012615778225942182
-0.42147355885078885,-0.42147355885078885,1.0000584340749985,0.0001261424549075304
-0.4211482334269725,-0.4211482334269725,0.9999772601852179,0.00012612716563475658
-0.42082290801947303,-0.42082290801947303,1.0000611355105287,0.00012609100588790453
