time,time,flux,flux_err
-0.4998880646735415,-0.4998880646735415,1.0010232672234747,0.0016392282962579118
-0.4997338509807605,-0.4997338509807605,1.0000426330565964,0.0019820456831460675
-0.4996043099089273,-0.4996043099089273,0.9995681803496321,0.0017449714248472877
-0.49944346475027146,-0.49944346475027146,0.9994590101003271,0.0016960705709067585
-0.4993353990261141,-0.4993353990261141,0.999906805517854,0.0013488443997586902
-0.49922684928739613,-0.49922684928739613,1.0009610867786407,0.0011733035991997398
-0.4991002848300923,-0.4991002848300923,1.0005817314100895,0.0017816485448992937
-0.4989461991535279,-0.4989461991535279,0.998733004169266,0.0012996315470590037
-0.4988622036425909,-0.4988622036425909,1.002682575072361,0.0018513087752620983
-0.4987496225264067,-0.4987496225264067,0.9997951312302705,0.0016787313238002786
-0.49862313332115493,-0.49862313332115493,0.9982188504611553,0.001317169224896795
-0.49851122214533916,-0.49851122214533916,0.9995983348348514,0.001583365920071865
-0.49838461986473137,-0.49838461986473137,1.000202242667804,0.0012066097885449017
-0.4982697199933284,-0.4982697199933284,1.000499545659164,0.0017766594669181342
-0.49807156543286624,-0.49807156543286624,1.0016575501375296,0.0013244767108877137
-0.4979937194346121,-0.4979937194346121,1.0006088182355413,0.001785445472676601
-0.49788413709479756,-0.49788413709479756,1.0013338255069475,0.0016800349007493533
-0.49775764586656807,-0.49775764586656807,1.0014543450580171,0.0013169028545745413
-0.49762966239036927,-0.49762966239036927,0.9992921630072938,0.0016415515192446703
-0.4975059446684327,-0.4975059446684327,1.0010795421918826,0.0011139003273197099
-0.49740308514038245,-0.49740308514038245,1.000127944483347,0.001531524401410715
-0.49726912688860236,-0.49726912688860236,0.9996066884882729,0.0015520682976872294
-0.4971499165754608,-0.4971499165754608,0.9985342486991181,0.0015607533888416334
-0.49707730827000773,-0.49707730827000773,0.9995735802271586,0.001692279635928154
-0.4969445147336785,-0.4969445147336785,1.0007234367805733,0.0016191211837460386
-0.4967847622295324,-0.4967847622295324,0.9999766591340702,0.0016003821793280325
-0.49666670882551217,-0.49666670882551217,0.9991456564808034,0.0013244711700891529
-0.496577996351067,-0.496577996351067,1.0003240629808647,0.0014563793469497697
-0.49642503110605957,-0.49642503110605957,0.9987907005881211,0.0015330471095290046
-0.4962891413858756,-0.4962891413858756,0.9998246028577272,0.0015691863536187098
-0.49623108598643173,-0.49623108598643173,1.0003390382803865,0.0016070456010805559
-0.4961173480801051,-0.4961173480801051,0.9998008557768863,0.0016813779077187961
-0.49597721244472837,-0.49597721244472837,1.00103829639625,0.0015398043922510124
-0.49585152145569394,-0.49585152145569394,0.9999871968330458,0.0014436936766031136
-0.4957635897301486,-0.4957635897301486,0.9992579531014641,0.0014295131643052436
-0.49560405529553575,-0.49560405529553575,1.000080439686778,0.0015803442811301645
-0.49547316788368223,-0.49547316788368223,1.0002338867639504,0.0012991331082484044
-0.4953850088879335,-0.4953850088879335,0.9992786135273256,0.001790994351404294
-0.4952652817610385,-0.4952652817610385,1.000291823088661,0.0016751530879025103
-0.4951455011637279,-0.4951455011637279,0.999613849971501,0.0015128611592253943
-0.49498752585473654,-0.49498752585473654,0.9987449624791042,0.001399224692123154
-0.49489808846607275,-0.49489808846607275,1.0005451250589847,0.001429338900125063
-0.49477336031131924,-0.49477336031131924,0.998468957903609,0.0016993398114789036
-0.4946361826708937,-0.4946361826708937,0.9993561766849991,0.0012338818105884644
-0.4945312834936885,-0.4945312834936885,0.9997241104306127,0.0018410315140758933
-0.4944446558974562,-0.4944446558974562,1.0031247227046751,0.0012655533926493711
-0.494319710774522,-0.494319710774522,1.0012318882173958,0.0015772797167489202
-0.494166827446702,-0.494166827446702,1.0003919878372067,0.001603397525734145
-0.4940462968327154,-0.4940462968327154,0.9999831563378276,0.0011822043554252743
-0.493945455536516,-0.493945455536516,1.0001204206314962,0.0016536287190002511
-0.49380557422746846,-0.49380557422746846,0.9989331826464525,0.0015552207564982917
-0.49368962782057224,-0.49368962782057224,1.0001577358281106,0.0018636320076727512
-0.4935852899246072,-0.4935852899246072,1.0001059399751284,0.0013492843365910583
-0.493489377527834,-0.493489377527834,0.9979748166530669,0.0015521058544853902
-0.49332085688727717,-0.49332085688727717,1.0013634532165736,0.0015350815802013403
-0.4931950654850084,-0.4931950654850084,1.0012414818300135,0.0013020472284970357
-0.49310966682450613,-0.49310966682450613,1.001573898688535,0.0015938355620853442
-0.4929630661418173,-0.4929630661418173,1.0003131013151392,0.0015335237589253026
-0.4928431344582975,-0.4928431344582975,0.9992121264170454,0.0013776204338006325
-0.4927727515918434,-0.4927727515918434,0.9986265219355623,0.0018548455344400687
-0.49264697448680295,-0.49264697448680295,0.9993617527138628,0.0016031109941382128
-0.49248517742268516,-0.49248517742268516,0.9999818805669454,0.001496592107472588
-0.49235590999324474,-0.49235590999324474,1.0013861265947235,0.001382446652881192
-0.49227204440971944,-0.49227204440971944,1.0000195081551124,0.001528510654334095
-0.4921196761735075,-0.4921196761735075,1.0008140167254012,0.001579716858722852
-0.4919953763026058,-0.4919953763026058,1.0000358883652904,0.0013005108407409109
-0.4919072611193144,-0.4919072611193144,0.9990898143864181,0.0018542378041240697
-0.49180134427561484,-0.49180134427561484,0.9992960839221556,0.0016746377904388542
-0.49165358131541553,-0.49165358131541553,1.0005295296879504,0.0014737388255559709
-0.49152087298440394,-0.49152087298440394,1.001093110317816,0.0014149482100880412
-0.4914282502233334,-0.4914282502233334,1.0000574144797194,0.0015074942669600403
-0.49127661533344735,-0.49127661533344735,0.9992027985602062,0.00158090469260747
-0.4911489068078822,-0.4911489068078822,1.001393759366155,0.0012435691968296666
-0.4910586035756353,-0.4910586035756353,0.9999993229956772,0.0018422240078637745
-0.49094380741875054,-0.49094380741875054,1.0007064336912928,0.001421314650310524
-0.49082190122230146,-0.49082190122230146,1.0001529000312466,0.001762334758685455
-0.4906848992019661,-0.4906848992019661,0.9995538838757623,0.0013814464969145875
-0.490570582193692,-0.490570582193692,0.9985758311063513,0.0014309851490486411
-0.4904490977565047,-0.4904490977565047,0.996292162210738,0.0013700298148623844
-0.49033792217099403,-0.49033792217099403,0.9996233493133662,0.00148955552117654
-0.49020907515435963,-0.49020907515435963,1.0030434241266097,0.0019184863218742916
-0.49010881695307945,-0.49010881695307945,0.9997752801378887,0.0013706296626930024
-0.4900289228834481,-0.4900289228834481,1.0005139525509361,0.0015471977245993093
-0.4898588889557118,-0.4898588889557118,0.9993113654466242,0.0015325598105758998
-0.4897188177889973,-0.4897188177889973,1.0016014930684145,0.0011818335725187676
-0.48963429079954607,-0.48963429079954607,1.0007060411825057,0.0016852257558106116
-0.48951497315034087,-0.48951497315034087,1.0011862557211038,0.001519747306569748
-0.4893889376216919,-0.4893889376216919,0.9995656485195529,0.0015727249962893767
-0.4892879398656703,-0.4892879398656703,1.0006235266089223,0.0016873028632795601
-0.4891892370495043,-0.4891892370495043,0.9999648472302219,0.0016144581403218655
-0.4890571091064544,-0.4890571091064544,0.9995114940440036,0.0014723428878094902
-0.4889117280536084,-0.4889117280536084,0.9998324983225318,0.0013014548930366872
-0.48881005992101334,-0.48881005992101334,1.000266627054111,0.001527740989937805
-0.4886849512265655,-0.4886849512265655,1.000510175457011,0.0016531318023256573
-0.4885807691995467,-0.4885807691995467,1.0009726029269037,0.0012226576563301457
-0.488462123637197,-0.488462123637197,1.0008026710084976,0.0018412520591385012
-0.48835542829757517,-0.48835542829757517,1.00068552736387,0.0013600907722932903
-0.48826127579287687,-0.48826127579287687,0.9983773682781338,0.0015763913521417033
-0.48810735028175145,-0.48810735028175145,1.000199978341485,0.0015732206476753783
-0.4879740784711203,-0.4879740784711203,0.9981932910149321,0.001430396606674439
-0.4878672201952611,-0.4878672201952611,0.9996688232044096,0.0014663570302111343
-0.48776489190935307,-0.48776489190935307,1.0015159372838578,0.0014754981782747752
-0.4876341623355245,-0.4876341623355245,0.9998401276296031,0.0018550201499955177
-0.487533570430395,-0.487533570430395,1.0001183696285658,0.0013757382920871147
-0.4874470817224221,-0.4874470817224221,0.9996905303921043,0.0015970939090009686
-0.4872922257621667,-0.4872922257621667,1.0002479944229414,0.001497207088964353
-0.48714986782014763,-0.48714986782014763,0.9989323889157584,0.001266366580065563
-0.4870575672359848,-0.4870575672359848,0.9997298666041177,0.0016190668718470565
-0.48693435148348385,-0.48693435148348385,0.9998856694131442,0.0015692410942698357
-0.4868212789186487,-0.4868212789186487,1.0002999136587636,0.0012876765408860132
-0.4867143183562689,-0.4867143183562689,0.999620575851849,0.0018526773765800257
-0.4866057041769409,-0.4866057041769409,1.0006865352343062,0.001357675830055209
-0.4864944234332199,-0.4864944234332199,1.0007081965027003,0.0017626698138694524
-0.48634586540035796,-0.48634586540035796,0.999162190666733,0.0013398335530774336
-0.4862352538771063,-0.4862352538771063,0.9995743128849621,0.001502949453300911
-0.4861064817181102,-0.4861064817181102,0.9998580615577465,0.0013278215990273471
-0.48601047116780477,-0.48601047116780477,0.9980994132291275,0.0014944627819229535
-0.4858816113822854,-0.4858816113822854,1.0005608397517154,0.0019127341520707984
-0.48578140167343237,-0.48578140167343237,1.001151132285693,0.0013669992938773435
-0.485701466099863,-0.485701466099863,0.9996174070104284,0.001549352130502468
-0.48553142913085023,-0.48553142913085023,1.0005528353642166,0.0015318852599802912
-0.48539133884033847,-0.48539133884033847,1.0003137667768787,0.0011823968661275695
-0.48529993569113117,-0.48529993569113117,0.9996204587511786,0.0016789548838609847
-0.48518750796221183,-0.48518750796221183,0.9988065986565481,0.0015200605145056485
-0.48506148244928227,-0.48506148244928227,0.9996129354304906,0.0015712632326900192
-0.4849605131033684,-0.4849605131033684,0.9998729600220155,0.001685264799202043
-0.4848617860297395,-0.4848617860297395,1.0001687964790775,0.0016143342564576232
-0.4847294913864232,-0.4847294913864232,1.0015444364318833,0.00147117016378554
-0.48456366800139106,-0.48456366800139106,1.000779503677157,0.0013060324845495283
-0.48448257933138167,-0.48448257933138167,0.9989300412500907,0.0015234165935854224
-0.48435750553715595,-0.48435750553715595,1.0000968295832586,0.0016518806793685697
-0.484253336020015,-0.484253336020015,0.9986658880372714,0.0012222387569522423
-0.4841346571251165,-0.4841346571251165,0.998891009076238,0.0018382279301323082
-0.4840279983815776,-0.4840279983815776,0.9996649576097072,0.0013571915443085795
-0.48393382232329146,-0.48393382232329146,0.9999485089780151,0.001573335903288892
-0.48375037779967445,-0.48375037779967445,0.9988611770969005,0.0015990336505635604
-0.48364148250185507,-0.48364148250185507,1.00108228127771,0.0013992816250809818
-0.4835190328797239,-0.4835190328797239,1.0007586113068154,0.0014632475458531142
-0.4834305058760492,-0.4834305058760492,1.0015467463456613,0.0014780814424421623
-0.48330669136739746,-0.48330669136739746,1.0001430256662804,0.001855818786207845
-0.48320615701897507,-0.48320615701897507,0.9993225143105858,0.001372325950691879
-0.4831065339739723,-0.4831065339739723,0.9984978955714364,0.0016272946470261402
-0.482917795135279,-0.482917795135279,1.0027660792052704,0.0014952899851031246
-0.4827948515184005,-0.4827948515184005,1.00167052788353,0.0011828861190080401
-0.4827062039778752,-0.4827062039778752,0.9983034217604336,0.00158728724278075
-0.4825861952737284,-0.4825861952737284,1.0013441471781814,0.0016418601566419416
-0.48246682116521244,-0.48246682116521244,0.999371876234569,0.001274857703641208
-0.4823868661488916,-0.4823868661488916,0.9999198397311858,0.0018534477286862808
-0.4822738089788118,-0.4822738089788118,0.9986973194466465,0.0016949433137429513
-0.4821330066935673,-0.4821330066935673,0.9990002089947618,0.0014693642911378984
-0.48195691968347776,-0.48195691968347776,0.998906548315975,0.0012631937677116188
-0.4818673427292254,-0.4818673427292254,1.0016239403017864,0.0015212483349531952
-0.4817431141627139,-0.4817431141627139,0.9998948847419451,0.001676287643037976
-0.4816568761470819,-0.4816568761470819,0.9996885629669577,0.0012224829507042382
-0.4815488460265442,-0.4815488460265442,1.0017323910232458,0.0018394417484864432
-0.4814539864858943,-0.4814539864858943,1.001103102781215,0.0013658623681246285
-0.4813373502760669,-0.4813373502760669,1.000225108651999,0.0015754062455635039
-0.4811539058293931,-0.4811539058293931,0.9988978867414142,0.0015989959062444787
-0.48104498497980896,-0.48104498497980896,0.9995667587770931,0.0013984143405666523
-0.48091038809692466,-0.48091038809692466,1.000015312551857,0.0016657720457602405
-0.48081587776832746,-0.48081587776832746,1.0006600327316857,0.0012618042257674692
-0.48069901149747807,-0.48069901149747807,1.001599757829691,0.001845577003807408
-0.4806099474978794,-0.4806099474978794,0.9992929477823026,0.001341557627160835
-0.48052291583112494,-0.48052291583112494,0.9992164890321718,0.0016205009377233321
-0.4803636162610644,-0.4803636162610644,0.9993035718230798,0.0015281027773785987
-0.4801983642296307,-0.4801983642296307,1.0018707618140055,0.0011820154812550528
-0.48010974592571076,-0.48010974592571076,1.0002827938917145,0.0015867275332240413
-0.47998972631016273,-0.47998972631016273,1.0012187124935816,0.0016397364566659721
-0.47987035325890587,-0.47987035325890587,1.0026325274275965,0.0012765934937422462
-0.4797903948680755,-0.4797903948680755,1.000084526273905,0.0018519749023937515
-0.47967129860689395,-0.47967129860689395,1.0002800883457277,0.0016230072624869867
-0.4794981236709532,-0.4794981236709532,1.00035837872085,0.00152893096853401
-0.4793564283244791,-0.4793564283244791,1.000566423357845,0.0012852866443125415
-0.479275412028403,-0.479275412028403,0.9912564641738809,0.001518644492795614
-0.479159750641719,-0.479159750641719,1.0002585179294827,0.0017600522852138476
-0.4790604163004161,-0.4790604163004161,1.0001900934561465,0.0012234212277995632
-0.4789523585911354,-0.4789523585911354,1.000292356160127,0.0018376772954169097
-0.47886290091937556,-0.47886290091937556,0.9991000181486541,0.0012636719435471836
-0.4787408782578666,-0.4787408782578666,1.001114686409215,0.0015758063347631125
-0.47855751140817804,-0.47855751140817804,0.9994879007699213,0.0016180713967018587
-0.4784535650870453,-0.4784535650870453,0.9982824937167022,0.0014319940000676664
-0.4783635490877714,-0.4783635490877714,0.9831651063217365,0.0013956230005730554
-0.4782587470197086,-0.4782587470197086,1.0008718238732635,0.0016391572882707758
-0.4781393746669494,-0.4781393746669494,0.9972341156682377,0.0012755676448185861
-0.4780594140313269,-0.4780594140313269,0.9991707926072573,0.0018524409710348807
-0.477940320371016,-0.477940320371016,0.9988969865480481,0.0016209148760273101
-0.47779617674913766,-0.47779617674913766,0.9999501525887936,0.0014603039506325005
-0.47763065469694654,-0.47763065469694654,1.0011431361497483,0.0013618604490730252
-0.4775444313890375,-0.4775444313890375,0.9802829606327832,0.0015245992408184888
-0.4774423937451672,-0.4774423937451672,0.9992136446162456,0.00164239999689995
-0.47735393242891744,-0.47735393242891744,0.9988133461833894,0.0012600681714764498
-0.4772370258819819,-0.4772370258819819,0.9998923370953982,0.0018445669502486924
-0.47714777840203626,-0.47714777840203626,1.0002890789874321,0.001370542981730892
-0.47701193278227266,-0.47701193278227266,1.0004104766869595,0.001544143851318841
-0.476857548374511,-0.476857548374511,1.0016431050228753,0.0015661432789293383
-0.47672375884213236,-0.47672375884213236,0.9986890906085482,0.0015190890187886984
-0.4766325890401902,-0.4766325890401902,0.979785639483028,0.0014001873713473522
-0.4765346611086443,-0.4765346611086443,0.9991070461452797,0.0016280375492717918
-0.4764083960821154,-0.4764083960821154,1.0008624573682567,0.001275457898116368
-0.4763284332090052,-0.4763284332090052,0.9992381698885975,0.0018536574526530566
-0.47620934214558586,-0.47620934214558586,1.00198807199504,0.0016204253697349141
-0.4760444130758515,-0.4760444130758515,1.0001778719501602,0.001461514233639268
-0.47589968093685686,-0.47589968093685686,0.9993443546342686,0.0013609787352116451
-0.4758065268965538,-0.4758065268965538,0.9802780965984776,0.0015288174821220647
-0.4757044892825547,-0.4757044892825547,0.9995086895000614,0.001644881366230231
-0.475598678727647,-0.475598678727647,1.0007422758024227,0.001362323846564342
-0.47549037537512506,-0.47549037537512506,0.9984754359792947,0.0018399727036087186
-0.47539268750687713,-0.47539268750687713,1.001232764107673,0.0013578682680801322
-0.47524298163402817,-0.47524298163402817,1.0010654525588973,0.001760679856089923
-0.47508436454702974,-0.47508436454702974,1.0001180535096759,0.001320527471098699
-0.47498467221234364,-0.47498467221234364,1.0014385594366846,0.0014440122542966707
-0.4748743293764107,-0.4748743293764107,0.9789739353238842,0.001437050650717324
-0.47479635645808005,-0.47479635645808005,0.999764970335033,0.0016009357455512127
-0.4746774175077405,-0.4746774175077405,0.9995032144576754,0.001276728658927822
-0.4745974524015537,-0.4745974524015537,1.001177154240142,0.0018505242516571624
-0.4744783639287391,-0.4744783639287391,0.9996964775146994,0.001619343429594342
-0.47430516821623314,-0.47430516821623314,0.9987642833169152,0.0015275401710952894
-0.47414234041824554,-0.47414234041824554,1.0003605000218536,0.0012856613469602106
-0.474079529155415,-0.474079529155415,0.978530310041335,0.0015108408901006358
-0.4739746163058157,-0.4739746163058157,0.9996609288464384,0.001333211658394926
-0.4738938209235471,-0.4738938209235471,1.0001268570025725,0.0016064666766721918
-0.47377504029482226,-0.47377504029482226,0.9994074225875688,0.0018432638859154366
-0.4736858478473664,-0.4736858478473664,0.9995038996540607,0.00136725619048994
-0.4735479342999497,-0.4735479342999497,0.9976744138601434,0.0015782144360205932
-0.47336457827255457,-0.47336457827255457,0.998638378842305,0.0016160054086404585
-0.47325367569495713,-0.47325367569495713,1.00098270866773,0.0014445379474684569
-0.4731396183286279,-0.4731396183286279,0.9793934441104734,0.0013748621826705268
-0.4730782130346995,-0.4730782130346995,1.0012026758099963,0.0016433647508111806
-0.47297346941927004,-0.47297346941927004,0.9986329594639596,0.0012905145534074128
-0.4728821756374657,-0.4728821756374657,1.0018004028947627,0.0017917479683679269
-0.47276928709594584,-0.47276928709594584,0.9999470173646265,0.0016861900356217759
-0.472612563114842,-0.472612563114842,1.0008805644158798,0.0014713846910008883
-0.472437733467342,-0.472437733467342,1.0015715586260836,0.0013604572235950802
-0.47234854486371775,-0.47234854486371775,0.9793380851916748,0.0015176032713453843
-0.4722258360381318,-0.4722258360381318,1.0006361445455432,0.0015870997719727783
-0.47214603240354336,-0.47214603240354336,1.000504243432297,0.0013595616623463312
-0.47204861381791263,-0.47204861381791263,0.9991298036030193,0.001539157953412078
-0.4719782333886542,-0.4719782333886542,0.9995364065787419,0.0016819528552730022
-0.47186030769300374,-0.47186030769300374,1.0007146253215222,0.0015729354111179868
-0.4716645969643764,-0.4716645969643764,0.9999163501630299,0.0015636882130260442
-0.4715307784423374,-0.4715307784423374,0.9998602214540394,0.0015191041376849432
-0.47142738112510757,-0.47142738112510757,0.9797899503430397,0.0013547643482820742
-0.471334395719623,-0.471334395719623,0.999209599971981,0.0015994665700646287
-0.47123052315986913,-0.47123052315986913,0.9989443186853162,0.001306912553936636
-0.4711628964031377,-0.4711628964031377,1.0000520719725778,0.0018377443372858085
