time,time,flux,flux_err
-0.4998626031476306,-0.4998626031476306,1.002831097401656,0.0031123947616206833
-0.4997106554332277,-0.4997106554332277,1.0076506149276772,0.0021101602800331102
-0.4995939329615794,-0.4995939329615794,0.9981530405245211,0.00251178371741937
-0.4994773112659459,-0.4994773112659459,0.9992086570653855,0.0024804616958546124
-0.49931865316611945,-0.49931865316611945,1.0018785628268363,0.0026954410937221917
-0.4991721369031438,-0.4991721369031438,1.0012470865761098,0.0026697467483452367
-0.49908379805201547,-0.49908379805201547,0.9970872179912156,0.002685731218831286
-0.49896657348799633,-0.49896657348799633,1.002141126134814,0.0024736325792633564
-0.4987910772106261,-0.4987910772106261,0.9972534172705834,0.002392490076013871
-0.4986814460095047,-0.4986814460095047,1.002294190880769,0.0024153248990938406
-0.4985841331847041,-0.4985841331847041,1.002774464625665,0.0023595430165718463
-0.49846301515499364,-0.49846301515499364,0.9992615213001086,0.002548314039297053
-0.49838473326854,-0.49838473326854,1.0001694344174312,0.0024417867509600954
-0.4982584842815413,-0.4982584842815413,1.0017301397061065,0.0023813102379405034
-0.4981736108886253,-0.4981736108886253,0.9989651923200942,0.0025692462615793847
-0.4980517268042604,-0.4980517268042604,1.0005830994754734,0.002628955769143946
-0.4978672813787853,-0.4978672813787853,0.9991798870594021,0.002585914485464403
-0.4977478294418688,-0.4977478294418688,0.998945912564408,0.002447428720182997
-0.49757702434835666,-0.49757702434835666,1.0009690433628804,0.002360748403058604
-0.4974518138489657,-0.4974518138489657,1.0024090107995356,0.00225417621475354
-0.49728392937468013,-0.49728392937468013,0.997660281723079,0.002618817655105072
-0.49709659028594616,-0.49709659028594616,0.99974107770533,0.0026284503613921155
-0.49698422207111437,-0.49698422207111437,1.0013339528162397,0.0025636985064803374
-0.4969145799150283,-0.4969145799150283,1.0019399252482466,0.002522267239130177
-0.4968270595647482,-0.4968270595647482,0.998873852131889,0.002433853480333964
-0.4967686289957783,-0.4967686289957783,1.004250377098559,0.00222144549274753
-0.49667400864927913,-0.49667400864927913,1.0001127869564268,0.0024244280430499835
-0.4965607997797633,-0.4965607997797633,1.0015945527756727,0.002295624723918041
-0.49644022109205255,-0.49644022109205255,1.0022201513423497,0.0024116771844180226
-0.49625369206405595,-0.49625369206405595,0.9996755149154355,0.002554444603014155
-0.4960558767277689,-0.4960558767277689,1.002276733234074,0.0022912264854657036
-0.4959477390842949,-0.4959477390842949,1.000522499192184,0.002442046648438241
-0.49572269765012605,-0.49572269765012605,1.0003191516488914,0.0026230310589397576
-0.4955162976493739,-0.4955162976493739,1.0043009845138384,0.002564983896297179
-0.49540487692247553,-0.49540487692247553,1.000854496513878,0.0023237380825871018
-0.49515724618540846,-0.49515724618540846,0.9995398167094557,0.0024572148296311863
-0.4950921092342469,-0.4950921092342469,1.0007925725948414,0.002630013236792312
-0.49495642624642644,-0.49495642624642644,1.0002730532183288,0.002386915920069905
-0.49487418090466234,-0.49487418090466234,1.0027852927213687,0.0025887773968253933
-0.49474330291741353,-0.49474330291741353,1.0008590896517024,0.0025623924985629116
-0.494666166613024,-0.494666166613024,0.9989312395516705,0.002381167333810992
-0.4945457708210597,-0.4945457708210597,1.0022064924217855,0.002322280091022424
-0.4944253667577868,-0.4944253667577868,0.9996600620651857,0.0024759368432744617
-0.49433365943477836,-0.49433365943477836,0.9968050347268356,0.0025193891473971803
-0.49415395312134935,-0.49415395312134935,1.0020518083465586,0.002558210039805229
-0.49403321876488915,-0.49403321876488915,0.9974988065724089,0.00236195309356577
-0.4939012724204076,-0.4939012724204076,0.9984961649270673,0.002417556247103174
-0.49378218274141544,-0.49378218274141544,0.9978067242220894,0.002355416010609884
-0.4936468644915294,-0.4936468644915294,0.9973759731633279,0.0026246058411600833
-0.49350220815285867,-0.49350220815285867,1.0049161590003846,0.002495243684709403
-0.49327639795010325,-0.49327639795010325,1.0017990887263466,0.0023648216834316763
-0.49315391553100196,-0.49315391553100196,0.9945355699233192,0.0025509527006401956
-0.4929742156771681,-0.4929742156771681,1.0002220472071532,0.002555414190122178
-0.4928900334827631,-0.4928900334827631,0.9990085167179972,0.002486873435735484
-0.49283119741885456,-0.49283119741885456,1.0010759415092632,0.002651626896274837
-0.4927553187830199,-0.4927553187830199,1.0019231694619883,0.0024766313147814934
-0.49265222781759804,-0.49265222781759804,1.0018940752213958,0.0026391054260586364
-0.49248784432638787,-0.49248784432638787,0.999154108309197,0.0024459765886434026
-0.4922681218213256,-0.4922681218213256,0.9994888854885596,0.0022435940531757275
-0.4921835994009598,-0.4921835994009598,1.0027181631821944,0.002635157509789434
-0.4921351428547496,-0.4921351428547496,1.0015064085189793,0.002428944171400952
-0.4919555219632457,-0.4919555219632457,0.9989222307718073,0.002452126574758011
-0.491833881333514,-0.491833881333514,1.0015734801036003,0.0024039651619012945
-0.49167724992257716,-0.49167724992257716,1.0004795513633784,0.0024618456302776984
-0.4915298801217432,-0.4915298801217432,0.9990133233911793,0.002183461477101365
-0.49142918762590854,-0.49142918762590854,0.9972432755882187,0.002335659310765947
-0.49132377552086837,-0.49132377552086837,1.0008530561385225,0.00257192808944019
-0.49112340726933323,-0.49112340726933323,1.001369521541061,0.002831254136672456
-0.49090696886087243,-0.49090696886087243,0.9970154709867142,0.0025117110278096346
-0.4907169509890082,-0.4907169509890082,1.0003720086340744,0.00250907446721852
-0.49060312708970744,-0.49060312708970744,1.0000831963173558,0.002845338866537965
-0.49053347965236754,-0.49053347965236754,1.000934794761669,0.002363668378270973
-0.490480732643482,-0.490480732643482,0.9996642919475466,0.002650458535562625
-0.49040591337507067,-0.49040591337507067,1.0003225057667922,0.002611800485766246
-0.4903397639052855,-0.4903397639052855,1.0055945533897097,0.0027623128088566555
-0.49019425375990977,-0.49019425375990977,1.0004623780489008,0.0022590555609842055
-0.4901020648292615,-0.4901020648292615,1.0019786284505372,0.0020425131527577736
-0.48999964752729286,-0.48999964752729286,0.9982145425354225,0.0025389749490093852
-0.48988120926223927,-0.48988120926223927,1.0013292769008406,0.0024612229620799503
-0.489776041859659,-0.489776041859659,1.0035758518373061,0.002478253292041286
-0.489691533097357,-0.489691533097357,1.0013519784900264,0.0028828600935075686
-0.48959472156639094,-0.48959472156639094,0.9999120217190258,0.0022847394368049456
-0.4895086120497581,-0.4895086120497581,0.9999393716848355,0.0025083352599015937
-0.4893381819354545,-0.4893381819354545,1.0020741419730954,0.0021854640007599015
-0.48923038568755145,-0.48923038568755145,0.9972150251742529,0.002481827415188061
-0.4890927830307191,-0.4890927830307191,0.9984762103456347,0.002666076067989691
-0.4889168264184264,-0.4889168264184264,0.9989812593046048,0.0028523178222328916
-0.48877798626672303,-0.48877798626672303,1.001434994232504,0.002482402340445603
-0.48859319915718513,-0.48859319915718513,1.0000658847179766,0.002784574578884937
-0.48844576215269625,-0.48844576215269625,0.9986956926584245,0.0025165810751563303
-0.4883470486081933,-0.4883470486081933,0.9958801986256258,0.00230378604423686
-0.48827421340174626,-0.48827421340174626,0.998605919431253,0.002725084515378588
-0.48821353291350533,-0.48821353291350533,1.0010570808889097,0.002661180030965539
-0.48812354053479795,-0.48812354053479795,1.0011902104473431,0.0025093962050891714
-0.48792592815843816,-0.48792592815843816,1.0007012406363294,0.002482755733809087
-0.4878414627735765,-0.4878414627735765,1.0016984311650714,0.002390860233250718
-0.4877333660810109,-0.4877333660810109,0.9967598612237424,0.002495865304367407
-0.48760811417741934,-0.48760811417741934,1.0009342715876166,0.002389653620438777
-0.48755064400647824,-0.48755064400647824,1.0019876933596357,0.0023675544542759216
-0.4874949697004922,-0.4874949697004922,1.0033308676454689,0.0026793686259192102
-0.4874086944018927,-0.4874086944018927,1.0010988705868757,0.0024860031864582946
-0.48730730985116677,-0.48730730985116677,1.0017510387559478,0.0024604717615747686
-0.4871649202734261,-0.4871649202734261,0.9996771173984813,0.002441683418326159
-0.4870018928559148,-0.4870018928559148,0.9990833618392327,0.002478083788004363
-0.48681494708143874,-0.48681494708143874,0.9964469969082439,0.0025381677931597094
-0.48663791786857474,-0.48663791786857474,0.9948665851823536,0.002278269385109009
-0.4865069331812265,-0.4865069331812265,1.000452108840688,0.0025351015953612175
-0.486371124229845,-0.486371124229845,1.0038785130452523,0.0023885789736428076
-0.4862398785964615,-0.4862398785964615,0.9994740255391668,0.0026156743650167812
-0.4860908398208267,-0.4860908398208267,1.0013648687055983,0.0024575319148149007
-0.48601449741727265,-0.48601449741727265,1.0014851984621618,0.0025801886870361205
-0.48590859676114634,-0.48590859676114634,1.0017459325077307,0.002627112134492601
-0.48573155308695276,-0.48573155308695276,0.9975998655173708,0.0022307428721427365
-0.48561992350914807,-0.48561992350914807,0.9996171622203569,0.002367512092806218
-0.48553297635226045,-0.48553297635226045,0.9982209699279105,0.0025058431512004087
-0.4854017477104208,-0.4854017477104208,1.0000007311763723,0.002530501504230215
-0.48533327263467074,-0.48533327263467074,1.0011339173267864,0.0024408656046921574
-0.48520945450727593,-0.48520945450727593,0.9979467362345078,0.0022998537968129326
-0.4851082904511713,-0.4851082904511713,0.9999437216466361,0.002572716086752164
-0.4850215162739914,-0.4850215162739914,1.0015953520926533,0.0027014598427315666
-0.4848701990089467,-0.4848701990089467,0.9981133197959986,0.0026977668677654
-0.48474466235966246,-0.48474466235966246,0.9981789086757527,0.002572008798632699
-0.4846013051694172,-0.4846013051694172,1.0003094137821293,0.002314353646641592
-0.48448326492689375,-0.48448326492689375,0.9955457171534686,0.0022125253308140774
-0.4843991699846811,-0.4843991699846811,0.9996212729131667,0.002184738655869928
-0.48421845991651935,-0.48421845991651935,1.0023756664872345,0.0025992323904046105
-0.4840307471822598,-0.4840307471822598,0.9993290673382195,0.00259105575268163
-0.4839095639264997,-0.4839095639264997,0.9985431295850871,0.002470861414526504
-0.4838415228907252,-0.4838415228907252,1.0022001797790547,0.002563818748316242
-0.48373176454661004,-0.48373176454661004,0.9999153083996873,0.0024080429492216683
-0.48364754470894694,-0.48364754470894694,0.998490594267168,0.00347684176783051
-0.4835137568250502,-0.4835137568250502,0.998088469763041,0.0023733532615867687
-0.4833706060413533,-0.4833706060413533,1.0005478191239945,0.002402416702109034
-0.48322440592964994,-0.48322440592964994,0.99990969304378,0.002482956238610198
-0.4831249660568574,-0.4831249660568574,1.0032625536651374,0.0024185757669027046
-0.48301946337378465,-0.48301946337378465,1.0013998153089363,0.002406338979189873
-0.4829429362951487,-0.4829429362951487,1.0020021333417262,0.002324745438666251
-0.4827506854784588,-0.4827506854784588,1.0024932838230765,0.002651996558128996
-0.48259586501262675,-0.48259586501262675,1.0008904545396118,0.0025124060002669393
-0.4824559042142937,-0.4824559042142937,1.0018580872470297,0.002585405569129116
-0.4822956564723427,-0.4822956564723427,0.9991072412913724,0.002337917168783677
-0.4821110045817477,-0.4821110045817477,0.9981770665834825,0.0027429983064060142
-0.48203147128260754,-0.48203147128260754,1.0014311795558337,0.0025715537943636103
-0.4819223805621732,-0.4819223805621732,1.002080013526792,0.0025089534805945867
-0.48182530374469934,-0.48182530374469934,1.0021715278647898,0.0023323059649437037
-0.48172865493033895,-0.48172865493033895,1.0017487204316504,0.002555762270613991
-0.4816325793723081,-0.4816325793723081,0.9972179163698444,0.002335215488759427
-0.48153111695755796,-0.48153111695755796,0.9998077748071544,0.0022525389964723097
-0.4814249800441758,-0.4814249800441758,0.9992112189773075,0.0025553380546552472
-0.4813090716274019,-0.4813090716274019,0.9985884232281638,0.002827479340166466
-0.4811815047603886,-0.4811815047603886,1.002419483624319,0.002252494074846416
-0.481054757811944,-0.481054757811944,0.99880186569719,0.0025984850918965236
-0.48090936572443754,-0.48090936572443754,1.0021832432387359,0.0024585518869107157
-0.48075053545071567,-0.48075053545071567,1.000812927926533,0.0024663907352126696
-0.48060590545865123,-0.48060590545865123,1.0029915068600928,0.002597273378699086
-0.48047168747107205,-0.48047168747107205,0.996354617115626,0.0024877256587719767
-0.48027496936920216,-0.48027496936920216,0.9964860452730051,0.0024981229226251674
-0.4801355792216782,-0.4801355792216782,0.9981046169894785,0.0025585264674571335
-0.4799232911984291,-0.4799232911984291,1.0012574166788588,0.002508467966960768
-0.47984232942362726,-0.47984232942362726,0.9996066262811049,0.002591953134383439
-0.47978229937361905,-0.47978229937361905,0.9956814304296554,0.0027094279847558527
-0.4796822634893033,-0.4796822634893033,0.9994835118007469,0.002250911397863916
-0.4795917028863187,-0.4795917028863187,1.0014826800105465,0.0030575849028858758
-0.47943030428468775,-0.47943030428468775,0.9999849434028135,0.0023985987320340007
-0.4792858576332947,-0.4792858576332947,0.9969601372489464,0.0022538310892373362
-0.4791422828307986,-0.4791422828307986,1.000585600438178,0.0025464282742069027
-0.4790812100734911,-0.4790812100734911,0.9980344340603761,0.0025385659493328953
-0.47896772360509204,-0.47896772360509204,0.9997512950234025,0.00241729185755535
-0.4788209779027966,-0.4788209779027966,1.0002698520909128,0.0023354830195934434
-0.47871256791841005,-0.47871256791841005,1.0037938672565871,0.0027874883316871416
-0.47857849547363,-0.47857849547363,1.0012469022045922,0.0026217185228347133
-0.4784508052729507,-0.4784508052729507,0.9989581854224621,0.002231820557031322
-0.4783615874777752,-0.4783615874777752,0.9982293900538795,0.002591476268348961
-0.4782905951622524,-0.4782905951622524,1.0017437113335395,0.0024011894502435354
-0.47796383447494006,-0.47796383447494006,0.9988591379502425,0.002562046791178811
-0.4777271465918602,-0.4777271465918602,0.9980188699646886,0.0022110986311673865
-0.4776226692581986,-0.4776226692581986,1.000658744673576,0.002689010015341244
-0.47751861484175606,-0.47751861484175606,1.0011637071049997,0.0027285640564697015
-0.47743444464867935,-0.47743444464867935,1.0003790856475565,0.002661344435806127
-0.4773591918663442,-0.4773591918663442,0.9992660958826078,0.00258367246508866
-0.4772708148055244,-0.4772708148055244,1.0028612199458797,0.002621973275579674
-0.47706262871543004,-0.47706262871543004,1.001458001208745,0.0021990343128995417
-0.47696944048802836,-0.47696944048802836,1.0015960411981208,0.0024325708406811985
-0.47688220885356714,-0.47688220885356714,0.9992883106676065,0.0026524208000467406
-0.47680995097725826,-0.47680995097725826,0.9983813924115468,0.002524967844733255
-0.47668909370477197,-0.47668909370477197,0.9991198256435597,0.002377719324734613
-0.4765349547891674,-0.4765349547891674,1.0003171717847394,0.0024065684459252815
-0.47642233549995583,-0.47642233549995583,0.9988085766161469,0.002658513216252657
-0.47628674738843985,-0.47628674738843985,1.0048622762899675,0.0023406322018218666
-0.4761942121454922,-0.4761942121454922,0.9964559870570836,0.0024458734964612977
-0.47601302692710307,-0.47601302692710307,0.9999138075457333,0.002830163637668267
-0.47587810436343714,-0.47587810436343714,0.9997682370960108,0.00233134179115277
-0.4756902545999765,-0.4756902545999765,1.0014203546894211,0.002575276931019534
-0.47556195645811383,-0.47556195645811383,0.9989097049157019,0.002767945872968758
-0.4754302973022277,-0.4754302973022277,0.9992768156540912,0.0025396053316935176
-0.47533331656159133,-0.47533331656159133,1.0020716128575475,0.0025360821026799646
-0.4752307242641109,-0.4752307242641109,0.9977514020859564,0.002722561806938022
-0.4751749693732563,-0.4751749693732563,1.0001125078527342,0.0028407912337610804
-0.4750945724656049,-0.4750945724656049,0.998305480789934,0.0024367413638634134
-0.4748864875349682,-0.4748864875349682,1.0011614725829048,0.002529142228916572
-0.4747856327412592,-0.4747856327412592,0.9991358293920516,0.0023577730997339256
-0.47461969171381496,-0.47461969171381496,1.0005167159316568,0.0026469226478508688
-0.4745068977063056,-0.4745068977063056,0.9959439592254455,0.002440603702518072
-0.4744456504628033,-0.4744456504628033,0.9989106111558792,0.0028427551791573554
-0.4743743747247208,-0.4743743747247208,1.0015646443607422,0.0022548683465690414
-0.4742477137682727,-0.4742477137682727,0.9981979285191501,0.0025510684384341406
-0.4740352162167255,-0.4740352162167255,0.9988109725545472,0.002388639911402815
-0.47392905320339196,-0.47392905320339196,1.0005364889863457,0.0025498779706978622
-0.4737856316274701,-0.4737856316274701,0.9962632766155984,0.0026919518878064292
-0.4735934562875627,-0.4735934562875627,0.9990034897883631,0.0023101383715631177
-0.47342670965153955,-0.47342670965153955,0.9970117142506997,0.0033899976823108095
-0.4732929890105879,-0.4732929890105879,0.9994007073657574,0.002530226745442548
-0.4731707744733285,-0.4731707744733285,1.0019798428413502,0.0024156205335547757
-0.47305677667754936,-0.47305677667754936,0.9994841254991362,0.002521885382721983
-0.47295447101059834,-0.47295447101059834,0.9988887784758109,0.002584736121867568
-0.47289573038615346,-0.47289573038615346,0.9976904555604605,0.002596110750084262
-0.47268006598242207,-0.47268006598242207,1.0000229483011462,0.0023124145972605657
-0.47258465036902636,-0.47258465036902636,0.9978243780398216,0.0024540086068059962
-0.4724832620442612,-0.4724832620442612,1.0012344680746224,0.0023949026308202224
-0.472340481408537,-0.472340481408537,0.9989134425584425,0.002505206596877009
-0.47227136807232456,-0.47227136807232456,0.9991008688090641,0.002541434457302408
-0.4721957732752344,-0.4721957732752344,0.9979718686661888,0.0021154125677036464
-0.472074441753648,-0.472074441753648,0.9974917881401868,0.002674986807708412
-0.4719919608862256,-0.4719919608862256,1.0016892983717096,0.002553446147489714
-0.47185933129730984,-0.47185933129730984,1.0014696625955493,0.0025655768059819717
-0.47170765359624056,-0.47170765359624056,1.000940552290415,0.0026067614730204687
-0.4716099837231013,-0.4716099837231013,0.9998176308843612,0.0025606206368621294
-0.471430824701747,-0.471430824701747,1.0002218680509578,0.002269568054417864
-0.4713448507794965,-0.4713448507794965,1.0054800482535555,0.00221091169790834
-0.4712398299114284,-0.4712398299114284,0.9999200341793208,0.00248615517962287
-0.47114269165322187,-0.47114269165322187,0.9974460196497471,0.002586122051557391
-0.4709629594650323,-0.4709629594650323,1.0013003296361211,0.0025761472918605665
-0.4708534139837866,-0.4708534139837866,0.9948104919753336,0.0026058771265200353
-0.4707828351354692,-0.4707828351354692,0.9999571495218301,0.002539739754690815
-0.47070573663077087,-0.47070573663077087,0.9981257109028803,0.002701588904394812
-0.470525090443698,-0.470525090443698,0.9969901343800661,0.0021953541869044043
-0.470355710167496,-0.470355710167496,0.9995832097994433,0.0024122329307193946
-0.47025597379615647,-0.47025597379615647,1.0004283024718548,0.0024651318646024723
-0.47011953793116845,-0.47011953793116845,1.0000221712142587,0.002644768199596585
-0.47004499054346527,-0.47004499054346527,1.0002034709248813,0.0024139926697181167
-0.4699383431121532,-0.4699383431121532,1.0013801360400412,0.0022646174721011455
-0.4698749870498432,-0.4698749870498432,0.9988810632261508,0.002429544799458618
-0.4696892618412676,-0.4696892618412676,0.9987129534749686,0.002655457644877201
-0.46950469206130946,-0.46950469206130946,0.9985356302841286,0.002562814152440247
-0.46927689274016304,-0.46927689274016304,1.0018138734243616,0.0024538333139322017
-0.46908727460249794,-0.46908727460249794,0.998320169248027,0.0023201602555238724
