time,time,flux,flux_err
-0.49993479672715085,-0.49993479672715085,1.0000839213935075,0.0002704111879576314
-0.4998348916429677,-0.4998348916429677,1.000068131267867,0.00024584515156751414
-0.4996999033050088,-0.4996999033050088,1.0001601216098368,0.00023689441883320705
-0.499488886227482,-0.499488886227482,0.9998532291156712,0.00023768597549392117
-0.4993770517037774,-0.4993770517037774,0.9999544294888569,0.0002385221534873218
-0.4992962484713644,-0.4992962484713644,0.9997194521343877,0.00023671766399020484
-0.49921453831411783,-0.49921453831411783,0.9997875809030543,0.00024183929535415244
-0.49894419955307967,-0.49894419955307967,0.9999023308762919,0.0002456877957424068
-0.49877941680388177,-0.49877941680388177,0.9999287423584452,0.0002252687614304398
-0.49860665273154153,-0.49860665273154153,1.0001781487106598,0.0002472308826585706
-0.4984724277492205,-0.4984724277492205,0.9996402577548931,0.00025825220145944585
-0.4984263049802394,-0.4984263049802394,0.9998232627138062,0.0002383998279715247
-0.49836556416703387,-0.49836556416703387,1.0001009919670862,0.00024314606366562558
-0.49827776034944693,-0.49827776034944693,1.0001786171374694,0.00024579765784201027
-0.49816146758385005,-0.49816146758385005,1.0001007605310601,0.00023407209889091812
-0.4980288592516445,-0.4980288592516445,1.0000347966071046,0.00024463529385242665
-0.49789710540353554,-0.49789710540353554,1.0002167437959875,0.00023468791337722056
-0.49780170118028766,-0.49780170118028766,0.9998818464190166,0.00024188847356127336
-0.4977059312855999,-0.4977059312855999,1.0001241565077414,0.00023978780164790755
-0.49756409776891813,-0.49756409776891813,1.0004939229004202,0.0002400829320171877
-0.49745052248690624,-0.49745052248690624,1.0001105609435887,0.00023743427417925899
-0.4973241055951803,-0.4973241055951803,1.000221239768025,0.00024371060021730035
-0.4972151190493605,-0.4972151190493605,0.9998928870315476,0.00024176377499531815
-0.49715765644432397,-0.49715765644432397,0.9997652568711783,0.00024403580336415746
-0.49703391404400465,-0.49703391404400465,1.0000719239874845,0.00022786067020543702
-0.49682198276277634,-0.49682198276277634,1.0000137257795751,0.00024682417422603386
-0.49665732504145127,-0.49665732504145127,1.0000171545625869,0.0002240338275330338
-0.49645622162206565,-0.49645622162206565,1.000004544661582,0.0002509119630930766
-0.49629564805145493,-0.49629564805145493,0.9997037413830684,0.0002493084221324755
-0.4961237320712826,-0.4961237320712826,1.0001681445474362,0.00023355082811603138
-0.49596236280631273,-0.49596236280631273,0.9999946568127397,0.0002319599743874085
-0.49582589756682866,-0.49582589756682866,0.9998064598897507,0.00024713245362753365
-0.4957085983129218,-0.4957085983129218,1.0001265932674996,0.00024064295419839592
-0.4955629819531168,-0.4955629819531168,0.9998337712996331,0.0002405844952299248
-0.4954021619872947,-0.4954021619872947,0.9997831332549627,0.0002518879443985507
-0.49532175688436836,-0.49532175688436836,1.000167207758654,0.00024090836922838248
-0.49517879577106216,-0.49517879577106216,0.9997108622863893,0.00024080030958213735
-0.49508372314230653,-0.49508372314230653,1.000244000521238,0.0002251731255163748
-0.4949337529091281,-0.4949337529091281,0.9999208304503127,0.00024560558981849654
-0.49481037648220083,-0.49481037648220083,1.0008404849433026,0.00040460305231689
-0.4947038088270347,-0.4947038088270347,1.0002019332320087,0.0002428838222565869
-0.4946457660291344,-0.4946457660291344,0.9999458636733527,0.00023332001711627
-0.49442464035455486,-0.49442464035455486,1.0002766135360828,0.00023500156223274157
-0.4943022700746951,-0.4943022700746951,0.9999707557289594,0.00023576846987871728
-0.49415123884318746,-0.49415123884318746,0.9998266888237988,0.00023042670493680445
-0.49402100555817013,-0.49402100555817013,0.9999471663237142,0.0002508553133650326
-0.4938944392168196,-0.4938944392168196,1.00008965002941,0.00040467590828789375
-0.49384869015193544,-0.49384869015193544,0.9998822366531451,0.00024522862704240216
-0.49375388983316953,-0.49375388983316953,1.0004721106777161,0.00024490926182524537
-0.493634157723136,-0.493634157723136,1.000082735587584,0.00024321481608781162
-0.4935102934163297,-0.4935102934163297,1.000052661296296,0.0002410666163142722
-0.4933751771306561,-0.4933751771306561,1.0001490619761193,0.00022784546712973142
-0.49323991005439893,-0.49323991005439893,1.000219507002499,0.0002486574578319678
-0.4931547888852947,-0.4931547888852947,0.9999984260597916,0.00026116528437711853
-0.49307906836475013,-0.49307906836475013,1.0004390880911367,0.00024039712433410483
-0.49299582810199355,-0.49299582810199355,0.9998011973764364,0.00022635647617833362
-0.492905247471208,-0.492905247471208,0.9999516188326704,0.00023682143675250316
-0.49279422981853716,-0.49279422981853716,1.0000056793829808,0.00024725994277350136
-0.49265861458188737,-0.49265861458188737,1.0000021010768638,0.00025303473679535386
-0.4926171485123632,-0.4926171485123632,0.9998446662379248,0.000244172427894834
-0.4925575275752635,-0.4925575275752635,0.9995880280647148,0.00023222301953190676
-0.49235858272950284,-0.49235858272950284,0.9999504109575389,0.0002469745040175308
-0.4922186224575853,-0.4922186224575853,1.0002990367528917,0.0002445829383054759
-0.49208241816741066,-0.49208241816741066,1.0000593297653078,0.00025439336518896826
-0.49188461657831795,-0.49188461657831795,0.9994323830211957,0.00025071842313813925
-0.4916334600326081,-0.4916334600326081,1.000094981767041,0.0002429510246226113
-0.4914526562213723,-0.4914526562213723,1.0001056785537283,0.00024116919488900154
-0.49131137641743405,-0.49131137641743405,0.9997609929328048,0.0002394685469472723
-0.49118567327677737,-0.49118567327677737,1.0001854225470315,0.00025001733643570796
-0.49110083308478353,-0.49110083308478353,1.0004069793130013,0.0002490060083295988
-0.49096476140985035,-0.49096476140985035,1.0001282860889111,0.0002602310657535465
-0.49086380099106464,-0.49086380099106464,0.9997883807907947,0.00024074552773450377
-0.4907641784935549,-0.4907641784935549,0.9999352491576952,0.00023560609987971932
-0.490696343077434,-0.490696343077434,1.000122054760349,0.00024932131669723413
-0.4905967416380008,-0.4905967416380008,0.9999485858992877,0.00023695530981954687
-0.49043700005640856,-0.49043700005640856,0.9997503383287796,0.00023834174162581036
-0.49035100144392346,-0.49035100144392346,0.9998760764867722,0.00023786673405218334
-0.49028013221395667,-0.49028013221395667,1.0001361067590402,0.0002329822732330137
-0.49019010816846276,-0.49019010816846276,0.9997146139056262,0.0002390633573717903
-0.49000482385818034,-0.49000482385818034,1.0000907300469097,0.00024842166518572863
-0.48982369367804496,-0.48982369367804496,1.00012770454993,0.00023537974476958235
-0.48969779719554934,-0.48969779719554934,0.9999279603337523,0.00022803929761843622
-0.4895559685632179,-0.4895559685632179,1.0000959512484617,0.0002452932650352779
-0.4893806520944054,-0.4893806520944054,1.0003061906955213,0.00024008452697761224
-0.48928104786973564,-0.48928104786973564,0.9996184736191587,0.0002523153269309617
-0.4891504281447851,-0.4891504281447851,0.9997857619927076,0.00025129973704777814
-0.4890659120908822,-0.4890659120908822,0.9996447249941509,0.00024378595158501808
-0.4889660567670944,-0.4889660567670944,1.0003574663803412,0.0002301729682448053
-0.48877853234516805,-0.48877853234516805,1.0002887426977787,0.0002575175339982491
-0.4886814230500022,-0.4886814230500022,0.9998340441066338,0.00023513982746187545
-0.48858678030301234,-0.48858678030301234,1.0002139583615741,0.0002559097200557155
-0.4884615330156521,-0.4884615330156521,1.0005167719841357,0.00022691157451429914
-0.48833523291832537,-0.48833523291832537,1.000478660392993,0.0002493902800658327
-0.48819701389511466,-0.48819701389511466,0.9998469456170651,0.0002414381998134742
-0.48811815580993423,-0.48811815580993423,0.9999892323870437,0.00023094559244821793
-0.4880769996132585,-0.4880769996132585,0.9997129295753204,0.00025269778832484965
-0.4880166015158466,-0.4880166015158466,0.9999408506995271,0.00025021990351814776
-0.4878651403239928,-0.4878651403239928,1.00014986015213,0.00025144469726133073
-0.48764690890020573,-0.48764690890020573,1.0002919468073124,0.00022381245865342312
-0.4875098330499895,-0.4875098330499895,0.9998412667610929,0.00023164015954144323
-0.48740795866033293,-0.48740795866033293,1.0000249661087675,0.00026137593710959917
-0.4871628690023499,-0.4871628690023499,1.0000186950007621,0.00025765431240128763
-0.4869174049643334,-0.4869174049643334,0.9999596364036419,0.00023750941194374044
-0.48671821463940435,-0.48671821463940435,1.0000294106950105,0.00024392719616768362
-0.4865866499036201,-0.4865866499036201,0.9997331034441663,0.0002474268846259769
-0.4864835399457661,-0.4864835399457661,1.000190177472065,0.0002537580288363693
-0.48639505377504977,-0.48639505377504977,0.9997632213112336,0.00024172246544121022
-0.48633190563195966,-0.48633190563195966,1.000150671205175,0.0002467172504056575
-0.486211467992689,-0.486211467992689,0.9999341426278135,0.0002515202997863197
-0.48611652382751347,-0.48611652382751347,1.000116927937843,0.0002394497463066014
-0.4859964217772358,-0.4859964217772358,0.9998816871711677,0.0002391280349066061
-0.48587034255542677,-0.48587034255542677,0.9994924065639964,0.0002449275053214695
-0.4858384849845606,-0.4858384849845606,0.9996904827803436,0.0002264696140506602
-0.4857895952263789,-0.4857895952263789,0.9996498431732711,0.00023458599656203614
-0.4856775088708673,-0.4856775088708673,1.0002339370748112,0.0002428422429146687
-0.48549911703012183,-0.48549911703012183,0.9999194734874279,0.00024338393183921843
-0.4853612516380963,-0.4853612516380963,1.0002427489537529,0.00023423264026322483
-0.4852953419795085,-0.4852953419795085,1.0000377737385044,0.0002370570868910249
-0.48520653141385994,-0.48520653141385994,1.0002579248989463,0.0002394333755022958
-0.48486100803347654,-0.48486100803347654,1.0002665849730932,0.00023680843628231223
-0.4847511103638681,-0.4847511103638681,0.9996394357109313,0.00024398844949917567
-0.48464589735667685,-0.48464589735667685,0.9998164344299403,0.0002534170802915564
-0.48457086515481934,-0.48457086515481934,0.9998424341222234,0.00024698029156548687
-0.4845218213456974,-0.4845218213456974,1.0005274417025576,0.00023864319918039714
-0.48439249722941896,-0.48439249722941896,0.9998168807806447,0.00023509575108647996
-0.484199128569162,-0.484199128569162,0.9999677013746313,0.0002548866128260901
-0.4840070664708037,-0.4840070664708037,1.0001420212292687,0.00024518108475356796
-0.48392604252367166,-0.48392604252367166,0.9997687154005807,0.0002493482011861369
-0.4838011327759887,-0.4838011327759887,1.0001957066639717,0.00024120667341087868
-0.4837010625189578,-0.4837010625189578,0.9999437792977641,0.00024135042619001642
-0.48358954245632046,-0.48358954245632046,0.9999802950076184,0.00024012499027740883
-0.48351081076907576,-0.48351081076907576,1.000307239999867,0.0002359388624628265
-0.4834477498297929,-0.4834477498297929,0.9998481699715726,0.0002416189657109537
-0.4833717467532551,-0.4833717467532551,1.0004598590982994,0.00024141872277551787
-0.4832456497038947,-0.4832456497038947,0.999943300675459,0.00024564029365512115
-0.4831251367657387,-0.4831251367657387,0.9998785169500645,0.00022058649094754373
-0.48301803112917696,-0.48301803112917696,1.000346872101699,0.00022454003911568293
-0.48285831304019666,-0.48285831304019666,0.9999373002417814,0.0002457180100093189
-0.48273278166525413,-0.48273278166525413,1.0002522910170455,0.0002581839462972495
-0.4826064182117989,-0.4826064182117989,1.0000422744182331,0.00022296389496034706
-0.48244432071733173,-0.48244432071733173,1.000065393482052,0.0002354713992771047
-0.4822725540136162,-0.4822725540136162,1.0001721373810195,0.00024590345700676707
-0.4820953285205178,-0.4820953285205178,0.9998888860450135,0.0002424002898375759
-0.48194867970814814,-0.48194867970814814,0.999854335708006,0.00025641108118356633
-0.48187716116954105,-0.48187716116954105,1.0000786429770663,0.00023798683736278394
-0.48182601376465756,-0.48182601376465756,0.9996657931087279,0.0002460372026435459
-0.4817530172134866,-0.4817530172134866,1.0000992703294558,0.00024021765777815918
-0.4816414915942005,-0.4816414915942005,0.9999580045179142,0.000246618098014257
-0.48147695046573064,-0.48147695046573064,1.000229023729563,0.0002457724190777961
-0.4813398231024621,-0.4813398231024621,1.0000021954750968,0.00023089135522061182
-0.481303835685685,-0.481303835685685,1.0002500475958818,0.00024315365326550465
-0.4812542430423491,-0.4812542430423491,1.000237539447949,0.00023782936365988248
-0.4811229402082972,-0.4811229402082972,1.0001769971688461,0.0002372710685891319
-0.4810745377930289,-0.4810745377930289,0.9998786253371794,0.00024405486179873408
-0.4809121126156242,-0.4809121126156242,0.9998867621422253,0.0002457220575532081
-0.48082640845459534,-0.48082640845459534,1.00038756035952,0.00023487441797471722
-0.4807301572785946,-0.4807301572785946,0.9997801254215544,0.0002398285131471388
-0.48067619041976284,-0.48067619041976284,0.9998686158654593,0.0002484448040980097
-0.480599925165734,-0.480599925165734,1.0000503021759564,0.00022853804215819162
-0.4803562903231068,-0.4803562903231068,0.9999518743904547,0.0002333069602053652
-0.48018689814271054,-0.48018689814271054,0.9999471683011254,0.0002491474504432925
-0.48010002562295995,-0.48010002562295995,1.000533801471905,0.0002449927793547994
-0.48001651667873374,-0.48001651667873374,1.000050919643702,0.00023951917900952958
-0.4799491730351292,-0.4799491730351292,0.9998125664321869,0.00024380963296120637
-0.4796707186687854,-0.4796707186687854,0.999724335326356,0.0002605202008446728
-0.47949689270390083,-0.47949689270390083,0.9997872071922727,0.00023057007753182786
-0.4793006863852497,-0.4793006863852497,0.9996962538476207,0.0002426101458620523
-0.47914887159568026,-0.47914887159568026,1.000027110163877,0.0002462121022432246
-0.47902179732045624,-0.47902179732045624,0.9998299298385162,0.00026527010595221403
-0.4789175747522677,-0.4789175747522677,1.0005664088419883,0.0002376960348791847
-0.4788288835217827,-0.4788288835217827,0.9998311376798859,0.00024881727781664716
-0.4787429867508763,-0.4787429867508763,1.0000290516743728,0.00023726861310992202
-0.47861985950003144,-0.47861985950003144,0.9999491321127104,0.00022782621017231763
-0.47849458693599445,-0.47849458693599445,1.0002793522267963,0.00023430924799898277
-0.47831082986231194,-0.47831082986231194,0.9996685984708765,0.00025277256392189574
-0.4781746668239066,-0.4781746668239066,1.0001237484212315,0.0002392399877409316
-0.4780614499744843,-0.4780614499744843,1.0000418454016087,0.0002369979820556054
-0.47794835097010946,-0.47794835097010946,0.9998425173539589,0.0002392492872462442
-0.4777681548192049,-0.4777681548192049,1.0001604901192092,0.00024231427755527367
-0.4776398465990496,-0.4776398465990496,1.000215470764966,0.00023537861267157166
-0.4775057406593987,-0.4775057406593987,0.9997985973103116,0.0002457700775467938
-0.47738009955355665,-0.47738009955355665,1.0002280678788502,0.00024822267384131763
-0.4773280143737793,-0.4773280143737793,0.9998898686380293,0.00024213356583274444
-0.4772504602166009,-0.4772504602166009,1.0001634903172714,0.00024168146983664154
-0.47716939984529744,-0.47716939984529744,1.000181746483076,0.0002529058336930759
-0.4769649814996228,-0.4769649814996228,0.9995322344171855,0.0002477138422859931
-0.4768501328711864,-0.4768501328711864,0.9999844811196722,0.0002359625797699908
-0.4767587475500477,-0.4767587475500477,1.0001602044808569,0.00024175264182990883
-0.47668907470215344,-0.47668907470215344,1.0001591721004828,0.00024046453888316167
-0.4766325282289472,-0.4766325282289472,1.0001830616297958,0.00023306371318682079
-0.47652646082424327,-0.47652646082424327,1.0002455693035688,0.0002452022521031786
-0.4764036269567441,-0.4764036269567441,0.9996885768514151,0.00031347273396734336
-0.47628914745655493,-0.47628914745655493,0.9999559163729455,0.0002422527233992585
-0.47614680618426064,-0.47614680618426064,1.0000493029385846,0.0002358531037259523
-0.47610707218627796,-0.47610707218627796,1.0000829490668863,0.00024397231071759026
-0.47601535740614054,-0.47601535740614054,1.0000821752831537,0.00023568321942124237
-0.4758439517703664,-0.4758439517703664,1.0000235979318801,0.0002344702487842076
-0.4756805061660998,-0.4756805061660998,0.9997154194448497,0.0002491735021723872
-0.4755370146674977,-0.4755370146674977,1.0002844167468294,0.00027296270815838953
-0.47540845690818967,-0.47540845690818967,0.999552040090099,0.00023960385248153796
-0.47529278223955773,-0.47529278223955773,0.9999793768088037,0.0002575343134806545
-0.47506220909999686,-0.47506220909999686,0.9999326461283043,0.00024898707400673335
-0.47484237091848625,-0.47484237091848625,0.9997891826744209,0.0002415165587850588
-0.4746823538480385,-0.4746823538480385,1.0000249190037387,0.00024329267119203494
-0.4745908364049683,-0.4745908364049683,0.9997860285625653,0.00024250394363918405
-0.4744263150329061,-0.4744263150329061,0.999435589439708,0.00023677749337467851
-0.4742822952357528,-0.4742822952357528,1.0000705984629188,0.0002487548409591187
-0.4741971481475048,-0.4741971481475048,1.0003874339685228,0.0002408718628051871
-0.47406093254176085,-0.47406093254176085,1.0001639286755937,0.0002368041242125914
-0.4738367458245193,-0.4738367458245193,1.0004653994999972,0.00023898947091365494
-0.4737007087096572,-0.4737007087096572,0.9999815847976332,0.00036107426523856957
-0.4736370347018237,-0.4736370347018237,1.0001459838020688,0.00023752350757932835
-0.4735233660583617,-0.4735233660583617,0.9994238191997109,0.0002389767323964319
-0.4733303885353962,-0.4733303885353962,1.0001366998435879,0.0002624438527302132
-0.473219153410173,-0.473219153410173,0.9995769506545521,0.00022998173808618026
-0.4731508250457409,-0.4731508250457409,0.999931134331956,0.00023461054940605803
-0.4730036385335552,-0.4730036385335552,1.000083678796258,0.00023483777850849744
-0.47288079375575764,-0.47288079375575764,0.9998518500229794,0.0002514575039046083
-0.47278799758569223,-0.47278799758569223,0.9998511424247732,0.0002468538876598703
-0.4727442401403096,-0.4727442401403096,0.9996052975633894,0.00024132474007604356
-0.4726588170298783,-0.4726588170298783,0.9999910652383525,0.00023718287991340392
-0.4725860313519661,-0.4725860313519661,0.9999172027736831,0.0002637439450437327
-0.47245459473124357,-0.47245459473124357,0.9997513076081586,0.00023767313282886893
-0.47236301400917,-0.47236301400917,0.9997565004624613,0.00023448949672958303
-0.4722385467153799,-0.4722385467153799,1.0001534236869616,0.00023998557044881152
-0.4721236576951924,-0.4721236576951924,0.9999890423676285,0.00024787681283829175
-0.47200091121485455,-0.47200091121485455,1.0000388553150894,0.000247753156877454
-0.47191010221722535,-0.47191010221722535,0.9999209437863353,0.00023740479030995876
-0.4718531559847179,-0.4718531559847179,0.9997510002180844,0.00022853038577407684
-0.47177444242624916,-0.47177444242624916,0.9997378714029264,0.00024303017319755112
-0.47169657619451755,-0.47169657619451755,0.9996870574138395,0.0002451282158781621
-0.4715768738089537,-0.4715768738089537,0.9997420809629058,0.0002398713901450639
-0.47152057362764027,-0.47152057362764027,0.9997158992029535,0.00024586425144422746
-0.47143159252154876,-0.47143159252154876,0.999945786153581,0.00023188702306145017
-0.47128500324688505,-0.47128500324688505,0.9999722534436429,0.00023725281253832433
-0.4710950329026673,-0.4710950329026673,1.0003904656511258,0.00024250570804628413
-0.47087084618469816,-0.47087084618469816,0.9999327187992039,0.00023576398672056094
-0.4707409036520403,-0.4707409036520403,1.0002959402658504,0.000249443280361625
-0.4705540711816866,-0.4705540711816866,1.0003130038973325,0.00023618550675428995
-0.4703732418121945,-0.4703732418121945,0.9996173152338207,0.0002349513753988521
-0.47020162113694824,-0.47020162113694824,1.0000600308127159,0.00024040003907204347
-0.47009328654094135,-0.47009328654094135,0.9999399629979064,0.0002557261516834484
