time,time,flux,flux_err
-0.49993082471943734,-0.49993082471943734,0.9997996065387486,0.00015925369208661438
-0.4997363396782021,-0.4997363396782021,0.9999835872816243,0.0001330622399537104
-0.49961929890923784,-0.49961929890923784,1.0001464581127002,0.000139383072897604
-0.4994646825449308,-0.4994646825449308,0.9998559769457973,0.0001329722144437781
-0.4993836711786571,-0.4993836711786571,1.0003073668861262,0.00013781883353872836
-0.49928276060309146,-0.49928276060309146,1.0000333401671775,0.00013719386149499294
-0.4991490406013327,-0.4991490406013327,1.000055085482617,0.00013795125241037554
-0.49899922304248323,-0.49899922304248323,0.9998981744538049,0.00014558859500364872
-0.4989670621762343,-0.4989670621762343,1.0000639231051884,0.00013405094841869474
-0.4988756092141557,-0.4988756092141557,0.9999406482420549,0.00013591144822923433
-0.4987239168614906,-0.4987239168614906,1.0001251676760472,0.0001373683414235031
-0.498625209187594,-0.498625209187594,1.0000240829263292,0.00013334651376768164
-0.4984851972651086,-0.4984851972651086,0.9998044713720601,0.00013202959928795027
-0.49830951503972754,-0.49830951503972754,0.9998260260326284,0.00013159461267371313
-0.49820116283663085,-0.49820116283663085,1.000020914181779,0.0001489357625670064
-0.49807724073034476,-0.49807724073034476,1.0002825449267652,0.00013727144529803177
-0.4979499337838206,-0.4979499337838206,0.9998704499596659,0.00013438160337550973
-0.49781521760960457,-0.49781521760960457,0.9999229334295521,0.0001430343767182053
-0.4976043427712284,-0.4976043427712284,0.9999716729597357,0.0001368820099605343
-0.4974974949800526,-0.4974974949800526,1.000061553005531,0.0001434337356867672
-0.49742711512881216,-0.49742711512881216,0.9999627872295263,0.0001309836938058831
-0.49735368517576717,-0.49735368517576717,1.000167743366625,0.00013645625845707177
-0.4972397328419902,-0.4972397328419902,0.9999090224424855,0.0001320592667449803
-0.4970276034728158,-0.4970276034728158,1.0002772813378829,0.0001400740826328626
-0.49693239376065323,-0.49693239376065323,0.9997852528931406,0.00014002096978412513
-0.4967657131499436,-0.4967657131499436,1.0000630862836648,0.00013487101206081887
-0.4966488385594857,-0.4966488385594857,0.9997768195286989,0.00013626291726262616
-0.4965550312459527,-0.4965550312459527,0.9998220115550218,0.00013518462050463704
-0.49636886917214723,-0.49636886917214723,1.000127062823649,0.00013787444916891928
-0.49621356516654486,-0.49621356516654486,0.9998708324981405,0.00013370327247153084
-0.49611037554132054,-0.49611037554132054,1.0000088827663094,0.00013651857926886676
-0.49602494170467254,-0.49602494170467254,1.0000170487578373,0.00013530966569060687
-0.4959273549560749,-0.4959273549560749,0.9998976859091501,0.00013219966683880125
-0.4958399417693727,-0.4958399417693727,1.000182424667272,0.00013204175881942072
-0.4957146649430797,-0.4957146649430797,0.9999319979444165,0.00013584772818824896
-0.4955773394918651,-0.4955773394918651,0.999856518380646,0.00013863542530019953
-0.4954271223010437,-0.4954271223010437,0.9999011117982082,0.00013999597319188975
-0.4953274546081957,-0.4953274546081957,1.000076917026616,0.0001337028973572596
-0.49525724295017426,-0.49525724295017426,1.0000503049369267,0.00013493765317132005
-0.4950816070246219,-0.4950816070246219,1.000045339228482,0.00013100911437545577
-0.4949189670071064,-0.4949189670071064,1.0001368370270054,0.00014330027527000147
-0.49481734905493796,-0.49481734905493796,0.9998881314174846,0.00014317670641425092
-0.4946848184954433,-0.4946848184954433,0.9998590208893161,0.00014008145118850733
-0.494519516100263,-0.494519516100263,0.9999524689944526,0.00013208901855441777
-0.4943450032755209,-0.4943450032755209,0.9999844236900236,0.0001360094422343385
-0.4941760584275471,-0.4941760584275471,1.0000440696954298,0.00013638582351601104
-0.4940660037427733,-0.4940660037427733,1.000014440744398,0.00013191359427072518
-0.4939452423925104,-0.4939452423925104,0.999855104836447,0.0001360637009643669
-0.4938251328043407,-0.4938251328043407,1.0002840920630205,0.00013568102550011308
-0.4937379673421674,-0.4937379673421674,1.0000233262954048,0.0001419068529201686
-0.4935903322242666,-0.4935903322242666,0.9999405094889788,0.00013898791673311076
-0.4934381424318417,-0.4934381424318417,0.9998882492088429,0.00013414064208536587
-0.49334231693428593,-0.49334231693428593,1.0001941271975343,0.00014170297667146729
-0.4932454879832221,-0.4932454879832221,1.0001322690913605,0.0001322656626149893
-0.4931469141789421,-0.4931469141789421,0.9998024238684884,0.0001368973119011652
-0.49306533488706916,-0.49306533488706916,0.9999656072355538,0.00013966604151983853
-0.4929067063050752,-0.4929067063050752,1.0000325906289762,0.00013202458541712226
-0.49277416421973613,-0.49277416421973613,0.9999718761527305,0.0001385803869468587
-0.49271182560987653,-0.49271182560987653,0.9997742704449472,0.00013402329207297292
-0.4925358292341116,-0.4925358292341116,1.0001298714237539,0.0001378270695763689
-0.4924617840966675,-0.4924617840966675,0.9999179859432601,0.00013201208595537827
-0.4923525292302656,-0.4923525292302656,0.9997758642527632,0.00013359669573984246
-0.4921878033914254,-0.4921878033914254,0.99997351702643,0.00013779831671530962
-0.49201485660596517,-0.49201485660596517,1.0000713386549773,0.00013836653885119198
-0.49189460243578653,-0.49189460243578653,0.9999153349334093,0.00014299191594737714
-0.49184700324767616,-0.49184700324767616,0.9999238022311421,0.00013693755398959495
-0.49177062059243326,-0.49177062059243326,1.0000622989132684,0.00013941793296954702
-0.4916596834809752,-0.4916596834809752,0.999858934074483,0.00013463025658435012
-0.49151218453407636,-0.49151218453407636,1.000033280788837,0.00013464406743964646
-0.4913720104726963,-0.4913720104726963,0.9999434933894025,0.00014325985504939632
-0.49126287356411924,-0.49126287356411924,1.0004221123329358,0.00013503670384992601
-0.4912135029975616,-0.4912135029975616,1.0000797414728857,0.0001329236533826236
-0.4911430021718843,-0.4911430021718843,0.9999872442692326,0.0001438832698035571
-0.4910028357960982,-0.4910028357960982,0.9998301501444729,0.00014153775646588642
-0.49090303491029774,-0.49090303491029774,0.9999509135960608,0.0001349886085750068
-0.49082669574854665,-0.49082669574854665,0.9998337697299295,0.00013739540188191336
-0.4907121274882229,-0.4907121274882229,0.9999491821497196,0.00014681009137754487
-0.4906188461201964,-0.4906188461201964,1.000152248356916,0.00014415107644392082
-0.4905543561893865,-0.4905543561893865,0.9999130396880833,0.00013549274645629296
-0.4904631545701704,-0.4904631545701704,0.9998416853361455,0.00013592208160843327
-0.490314051968744,-0.490314051968744,0.9999339850594241,0.0001337273458645309
-0.4901547189147095,-0.4901547189147095,1.0000565709234592,0.00013297552792917623
-0.49003358576301254,-0.49003358576301254,0.9999849321176258,0.0001336354238719096
-0.4899442892812658,-0.4899442892812658,1.000022495851778,0.00013795337388943228
-0.48988577782947684,-0.48988577782947684,0.999963173311424,0.00013300607471575417
-0.4898037698054395,-0.4898037698054395,1.0000735644373389,0.0001330433704868424
-0.48965295950183646,-0.48965295950183646,0.9997906299027589,0.00013585759194805657
-0.48952066005367667,-0.48952066005367667,0.999757371045275,0.00013858380183071956
-0.48937540946499214,-0.48937540946499214,1.000020593723738,0.0001329535409401693
-0.48927350185695107,-0.48927350185695107,0.9999794432235329,0.00013654977969721786
-0.489133361120912,-0.489133361120912,0.9999992253285279,0.0001326646903540249
-0.4889929046083125,-0.4889929046083125,1.0001631510870201,0.0001381542026054739
-0.4888553828597651,-0.4888553828597651,1.000032452286059,0.00013860588842190617
-0.4887349482210993,-0.4887349482210993,0.9998627239254535,0.0001308163003795253
-0.4886230369549594,-0.4886230369549594,1.0000585591601105,0.0001361123163591534
-0.48855058570188703,-0.48855058570188703,0.9998011978755788,0.0001325988068232392
-0.48845158668991645,-0.48845158668991645,1.0000767446506975,0.0001342538946799577
-0.48834929430740887,-0.48834929430740887,0.9999241178502516,0.00013470273832383582
-0.4882589138149342,-0.4882589138149342,0.9999825090060174,0.0001385110870567846
-0.4881352317177516,-0.4881352317177516,0.9999380546363422,0.00013574705687409612
-0.4880375204695156,-0.4880375204695156,1.0000977382676335,0.00014199968898533514
-0.48789663627176194,-0.48789663627176194,1.0001256187469825,0.00013767308269777286
-0.4877836597253918,-0.4877836597253918,1.0001652019041027,0.00014320235108862097
-0.48772348852144204,-0.48772348852144204,1.0000836758361027,0.00013591393164513014
-0.4876376146807161,-0.4876376146807161,1.0000252942786056,0.00013422172228895127
-0.48752906290319514,-0.48752906290319514,0.9999888301335137,0.00013596141028025978
-0.48741607907941215,-0.48741607907941215,0.9999581502819656,0.00013240627420347604
-0.4872907780438254,-0.4872907780438254,1.0001743372124416,0.00013702181516730483
-0.4872136078120093,-0.4872136078120093,0.9999077564621647,0.00014480727534927813
-0.4871176091954112,-0.4871176091954112,1.000081534102979,0.00013455964734586276
-0.4870106694048445,-0.4870106694048445,0.9999321103454311,0.00014247300158714098
-0.4869063439662568,-0.4869063439662568,0.999954763295829,0.00013742890686190056
-0.4867860674727126,-0.4867860674727126,1.0000534599798054,0.0001384113656479065
-0.4866424277759506,-0.4866424277759506,1.0001338893693121,0.00013490670787846224
-0.4865381518866343,-0.4865381518866343,1.0000705325630261,0.00013939823316391105
-0.48645164658883006,-0.48645164658883006,1.0001028088591748,0.00013560086539019396
-0.48636623696584136,-0.48636623696584136,0.9999814089443989,0.000133481306840243
-0.4863072720108903,-0.4863072720108903,0.9998710189435863,0.0001335278553585083
-0.4860599079023814,-0.4860599079023814,1.000111198095579,0.00013300840343617406
-0.48599417425866703,-0.48599417425866703,0.9998226698313907,0.00013802227177071963
-0.4858484780728759,-0.4858484780728759,0.9999735688656344,0.0001413935292219267
-0.48578338900624657,-0.48578338900624657,1.0000742832710787,0.000133147509113982
-0.485675146360154,-0.485675146360154,1.0001119051401783,0.00013426406576914234
-0.4855638847278897,-0.4855638847278897,0.9999078683852651,0.00013396163806259239
-0.48542896504804955,-0.48542896504804955,1.000000607915394,0.00013967016276709125
-0.4852884115120105,-0.4852884115120105,0.9999015659176343,0.00013967590348689312
-0.4851547715559718,-0.4851547715559718,0.9999963928213699,0.00013588694060526755
-0.4850763771071797,-0.4850763771071797,0.9999531185173935,0.00014161768710871728
-0.48493315737650844,-0.48493315737650844,1.0002213700375124,0.00013900122862981474
-0.48482008502978713,-0.48482008502978713,0.999807846597693,0.0001387081930061664
-0.4846624703917769,-0.4846624703917769,0.9999621435381048,0.00013085042494669901
-0.4845180976371921,-0.4845180976371921,0.9999263470279629,0.00013886586046153685
-0.4843776727357181,-0.4843776727357181,1.0001004146044103,0.0001308322664106535
-0.4843144332458905,-0.4843144332458905,1.0000195876483293,0.0001357635057370763
-0.4842312477638188,-0.4842312477638188,1.0001373325981993,0.00013403199709430583
-0.48409880836406954,-0.48409880836406954,1.000064894169105,0.00013377844184244897
-0.48393408833799184,-0.48393408833799184,0.9999130616135214,0.00014506116310049105
-0.483859847097483,-0.483859847097483,1.0001131292589112,0.00013613879197112201
-0.48377125577681,-0.48377125577681,1.0000265272180973,0.00013475290591104627
-0.4836312626372091,-0.4836312626372091,0.9999815876225192,0.00013404951855953357
-0.48352483544294955,-0.48352483544294955,1.0000319408173268,0.00013335823588307786
-0.48336066929623484,-0.48336066929623484,1.0001183153652589,0.0001302765969846314
-0.4831532662974496,-0.4831532662974496,0.999699585677092,0.00013694869787528929
-0.48301204907838835,-0.48301204907838835,0.9999798380588226,0.0001326800664375537
-0.4829065543344768,-0.4829065543344768,1.00018600636456,0.00013250236030534456
-0.4827914318098919,-0.4827914318098919,1.0002290312928312,0.0001433689572871492
-0.48258320386885317,-0.48258320386885317,1.000059005393752,0.00013746686758180752
-0.4824033282107848,-0.4824033282107848,1.0000865368294038,0.00014404997726412695
-0.48234302174751065,-0.48234302174751065,1.0000519288834184,0.00013425529660681336
-0.48221493550445305,-0.48221493550445305,1.0001091391867978,0.0001375706021628148
-0.48211636804189767,-0.48211636804189767,1.0003482729573818,0.00013404231541265115
-0.4819600310715032,-0.4819600310715032,1.0000131298918842,0.00013699412000863097
-0.48185362974691087,-0.48185362974691087,0.9998697146592441,0.00013778886210495092
-0.48175146728681284,-0.48175146728681284,0.9998426082304468,0.00013692791031593172
-0.4815881107962923,-0.4815881107962923,1.0001218696946883,0.0001342690601315721
-0.4815180889869225,-0.4815180889869225,0.9999892647317923,0.0001359347647600359
-0.4814257779267791,-0.4814257779267791,1.0001406786948448,0.0001303410259311972
-0.48128424166861805,-0.48128424166861805,1.000094710763999,0.00013555502270711308
-0.48109070882419475,-0.48109070882419475,0.9999268458851747,0.00013742973312690684
-0.48096355579327793,-0.48096355579327793,1.000251270600413,0.00014274021288249677
-0.4809155360351724,-0.4809155360351724,1.0000158365025482,0.0001319215575495244
-0.4808077098648937,-0.4808077098648937,0.9999925779695712,0.00013901157992087852
-0.48072327151312494,-0.48072327151312494,1.0001650493733663,0.00013273866066909596
-0.48060336248672686,-0.48060336248672686,1.00010999497022,0.00013580281931191546
-0.4804830889239383,-0.4804830889239383,0.999857589793408,0.00013791074644040185
-0.4803314294797019,-0.4803314294797019,0.9999422131953688,0.0001322637524836425
-0.48024898670482796,-0.48024898670482796,1.0000133819074868,0.0001334633879090495
-0.48018082757189406,-0.48018082757189406,1.00009235147884,0.0001408959972459027
-0.48011204481808817,-0.48011204481808817,0.9999961872186264,0.00013410428012439603
-0.47995521484408527,-0.47995521484408527,1.0000623018250758,0.00013670373192973905
-0.47984816192038127,-0.47984816192038127,0.9999041578397219,0.0001373200622877719
-0.4797564562264597,-0.4797564562264597,0.9999004289164487,0.00014429340100318932
-0.47965438533574345,-0.47965438533574345,1.00002709174881,0.00014311775575232835
-0.4795592101458169,-0.4795592101458169,1.0000160842754657,0.00013682877550831186
-0.4794600134126085,-0.4794600134126085,0.9997876197589015,0.00013268481360026994
-0.4794021103974956,-0.4794021103974956,0.9999043658096699,0.0001300989685287429
-0.4792929706782161,-0.4792929706782161,0.9991332470034063,0.00015314235889596649
-0.47913389947789253,-0.47913389947789253,0.9998934248913761,0.0001358723923660773
-0.47901017211770525,-0.47901017211770525,1.000049286800996,0.00013354005639285184
-0.4789222354767844,-0.4789222354767844,1.0000856461984042,0.0001370655951726725
-0.4788254599661741,-0.4788254599661741,0.9998138210011668,0.0001347702062109738
-0.4787069360434543,-0.4787069360434543,1.000059320123629,0.00013706486533827087
-0.47859071601706094,-0.47859071601706094,0.9999826862261105,0.0001372204127585088
-0.4784175923101429,-0.4784175923101429,0.9998881862478836,0.0001372627398541326
-0.47829521307357936,-0.47829521307357936,0.9999760343690676,0.00013462372269805564
-0.47811330397671553,-0.47811330397671553,1.0001442664177962,0.00013719642842137354
-0.47798690971394536,-0.47798690971394536,1.0002193020092098,0.0001385015052790333
-0.4778547093119414,-0.4778547093119414,1.0000389856541982,0.00013112491511689
-0.4776963531548972,-0.4776963531548972,0.9998868331833719,0.00013638558948104827
-0.4776278342687874,-0.4776278342687874,0.9997274675039953,0.00013644703331992407
-0.4774686491873581,-0.4774686491873581,0.9999985826678222,0.00013111832658883006
-0.47739723939012035,-0.47739723939012035,0.9999844053226367,0.0001423735918984029
-0.4773487272475904,-0.4773487272475904,0.9998600200797348,0.00013937871337026326
-0.47724881398607977,-0.47724881398607977,0.9999741602086829,0.00014285243193793142
-0.4771064428729005,-0.4771064428729005,1.000078326933414,0.00013558998047058407
-0.4769476562381897,-0.4769476562381897,0.9999255324484929,0.00013912030444695206
-0.47679279854128254,-0.47679279854128254,1.0000717372300303,0.00014303256477781926
-0.47674357529322153,-0.47674357529322153,0.9999074135311451,0.00013300014128396677
-0.47664095781874494,-0.47664095781874494,0.9999330206082938,0.00012906567979804678
-0.47654421879342407,-0.47654421879342407,0.9999900758819849,0.00013778065800298326
-0.47647335166984706,-0.47647335166984706,0.9999070970682886,0.00013354418036332303
-0.4763360392746108,-0.4763360392746108,0.9999123324614484,0.00013358441047014947
-0.47621019244616036,-0.47621019244616036,0.999964248502178,0.00014830439945231203
-0.4761459155124612,-0.4761459155124612,1.0000563563620548,0.0001325940326615787
-0.4760781174452859,-0.4760781174452859,1.0000614342502487,0.00013603716594235536
-0.47602504442766075,-0.47602504442766075,0.9999812146838571,0.00014244084321487707
-0.475852260740794,-0.475852260740794,1.0000050805595024,0.00013993771647008356
-0.47578568666940557,-0.47578568666940557,1.000054892863354,0.00013200024038983337
-0.47570215903251667,-0.47570215903251667,0.999820209341922,0.00014321414644814497
-0.47559129687724633,-0.47559129687724633,1.0000421472020635,0.00013523479604174516
-0.4755137706095411,-0.4755137706095411,1.0000090107377475,0.0001419955903730314
-0.4754370894450403,-0.4754370894450403,0.9998729911249749,0.00013465458597274963
-0.47535295668494654,-0.47535295668494654,1.00003094411323,0.00013460528132541497
-0.47524915613321356,-0.47524915613321356,0.999840236824389,0.0001305020481390815
-0.4750765512595535,-0.4750765512595535,0.9999541226830575,0.0001369970278815239
-0.4749160708553973,-0.4749160708553973,0.9998003499930542,0.00013443466778303664
-0.4748158283808152,-0.4748158283808152,1.000090593494735,0.00013576857794394675
-0.47469073425017994,-0.47469073425017994,1.0001275495592656,0.0001345347413426818
-0.4745634039420111,-0.4745634039420111,1.0000638035251925,0.00014192730187690902
-0.4743945073765644,-0.4743945073765644,1.0000308077880722,0.0001347932871503779
-0.47427032565756233,-0.47427032565756233,0.9998763512588719,0.0001362195587987363
-0.47416464305570116,-0.47416464305570116,1.0003113879192949,0.00014154881292780176
-0.4740384939839714,-0.4740384939839714,1.0000299157835895,0.0001318257522224008
-0.4739132224647619,-0.4739132224647619,1.000197083151616,0.0001392417078109003
-0.4737303462570708,-0.4737303462570708,1.0000292844691538,0.00013698111928722804
-0.47355514047667385,-0.47355514047667385,0.999930819908044,0.0001365271870043584
-0.47340628156234743,-0.47340628156234743,0.9999945696341423,0.0001329631243867069
-0.47331652646680594,-0.47331652646680594,0.9999975974399457,0.0001356828075381128
-0.4732109695483814,-0.4732109695483814,0.9999563968973627,0.0001337400823017262
-0.47313088571172557,-0.47313088571172557,0.9999072365475717,0.0001398803849149216
-0.4730087446012476,-0.4730087446012476,0.9998860414685817,0.0001349403677934252
-0.47293705747579223,-0.47293705747579223,0.9998606078295506,0.0001426268805699438
-0.47287483141117265,-0.47287483141117265,1.00009759751054,0.00014295906230666632
-0.47271974845716613,-0.47271974845716613,1.000019723837601,0.00013397500292247226
-0.47260636258652083,-0.47260636258652083,1.000212409089399,0.00013710208306495262
-0.4724872222657723,-0.4724872222657723,1.0002199125958982,0.00012923906400658358
-0.4723797658130934,-0.4723797658130934,1.0000734802937155,0.00013159606983018823
-0.47224257454654434,-0.47224257454654434,0.9998916697115519,0.0001328626586310578
-0.4721448580108699,-0.4721448580108699,1.0000296914612137,0.0001468242166453777
-0.47201702068341544,-0.47201702068341544,0.9999319285005855,0.00013720233946070114
-0.47189162536888035,-0.47189162536888035,1.000108126304771,0.0001350549685203058
-0.47179497075849214,-0.47179497075849214,1.0002323009320035,0.00014323646244237355
