time,time,flux,flux_err
-0.4998258694680165,-0.4998258694680165,0.9998431893591863,0.00014931391688518313
-0.4996955409399864,-0.4996955409399864,0.9996247855555911,0.00014794925706580961
-0.49957536164462607,-0.49957536164462607,0.9999111270446187,0.00015039635973962057
-0.4994281509483699,-0.4994281509483699,0.9998220471283117,0.00013811930196440094
-0.4993090899013623,-0.4993090899013623,0.9998347711185425,0.00013947186607873087
-0.49920545791028414,-0.49920545791028414,0.9996232606798376,0.000139957798339233
-0.49914258998687727,-0.49914258998687727,0.9998776446797407,0.00013712719611138436
-0.4990249432645214,-0.4990249432645214,0.9997465299455494,0.00013576446859760275
-0.4988473754594452,-0.4988473754594452,0.9995686412378613,0.00013592297961233864
-0.49876534775903564,-0.49876534775903564,0.9998136868519607,0.00013436972138432794
-0.49866611893230584,-0.49866611893230584,0.9996346139268641,0.00013850033640579792
-0.4985487748926971,-0.4985487748926971,0.9997024040503811,0.0001443494762872741
-0.4983617609708745,-0.4983617609708745,0.999733571920809,0.00014094312330983368
-0.49822568514064186,-0.49822568514064186,0.9998453930804676,0.0001400153858431307
-0.4981054448413488,-0.4981054448413488,0.9997804436461116,0.00014224685727299592
-0.4980305475786736,-0.4980305475786736,0.9995928212452622,0.00013794287642944833
-0.497888958852127,-0.497888958852127,0.9998082769577396,0.00014276282634139985
-0.49765138395523534,-0.49765138395523534,0.999939468675862,0.000134832362400082
-0.4974468221225834,-0.4974468221225834,0.9997236890531166,0.0001384573893118008
-0.49729750182450516,-0.49729750182450516,0.9997879737274925,0.0001409813329285102
-0.4971252558476408,-0.4971252558476408,0.9998242630608518,0.00013392124758141157
-0.49685604032492847,-0.49685604032492847,0.9998742837426035,0.00013422702571517844
-0.4967284607278998,-0.4967284607278998,1.0000237204099085,0.00013642761416894357
-0.4966488870719331,-0.4966488870719331,0.9999061872520215,0.0001448163510142014
-0.49658528644577016,-0.49658528644577016,1.0001646903262813,0.00013863527604058518
-0.49645693211714387,-0.49645693211714387,0.9999107682404121,0.00014163111049999105
-0.496364216227812,-0.496364216227812,0.9997282407744583,0.0001376297772226414
-0.4962769542413298,-0.4962769542413298,0.9997377889849186,0.00013605898371369562
-0.49614591445351836,-0.49614591445351836,0.9997125032318277,0.00013785790099589705
-0.495944125623646,-0.495944125623646,0.9997171170464391,0.000137344549511402
-0.49574444526297157,-0.49574444526297157,0.999931337783438,0.00014159138840110007
-0.49552064165254706,-0.49552064165254706,0.9999903542988211,0.00014635600726667716
-0.49543400205366195,-0.49543400205366195,0.9998447532058495,0.00013538582761184382
-0.4952575516748766,-0.4952575516748766,0.9996640909285249,0.00014175685669013245
-0.49508384539876715,-0.49508384539876715,0.9997398495032153,0.000140918248821919
-0.49483629654423567,-0.49483629654423567,0.9997825480913602,0.000142877944283359
-0.49465058345595025,-0.49465058345595025,0.9996795026741825,0.00013896692004195164
-0.4945241677989543,-0.4945241677989543,0.9996308960241574,0.00013543188898562788
-0.494384663249366,-0.494384663249366,0.9998141619953216,0.00013707529697638132
-0.49416546746288076,-0.49416546746288076,0.9999655351965695,0.0001378645591549049
-0.494029164974927,-0.494029164974927,0.9998415087119387,0.0001374857901387634
-0.4939328662920161,-0.4939328662920161,0.9998939180710325,0.0001357290563974998
-0.49373468323319686,-0.49373468323319686,0.9999822029743701,0.00013795278939431518
-0.49358528999073314,-0.49358528999073314,0.999983825290203,0.00014091661592004627
-0.49350892393558754,-0.49350892393558754,0.9994298972647376,0.0001362807154079413
-0.49347596037041513,-0.49347596037041513,0.9995094727371979,0.00014163080635562806
-0.49340460858365986,-0.49340460858365986,0.9996345759630707,0.00013835530102718888
-0.4932282650079287,-0.4932282650079287,0.9996823137761556,0.00013595672819220398
-0.4931066982040647,-0.4931066982040647,0.9998478662306975,0.0001381840401502796
-0.49292901732260364,-0.49292901732260364,0.9996464605268949,0.0001356766854224994
-0.49275423982471694,-0.49275423982471694,0.9998233288807722,0.00013649431061050923
-0.4927038521200302,-0.4927038521200302,0.9999044345148871,0.00014530867994141272
-0.4925914440849738,-0.4925914440849738,0.9998332315732018,0.00014372119437880778
-0.49238553873728963,-0.49238553873728963,0.9997067936677098,0.0001409076698061266
-0.4922391505111591,-0.4922391505111591,0.9996101243772623,0.00014107538344656205
-0.492111333412322,-0.492111333412322,0.9999153038228394,0.00014300303188169975
-0.491935568091867,-0.491935568091867,0.9996106328864685,0.0001354172929356262
-0.4917743595149659,-0.4917743595149659,1.000048462926335,0.0001366563447215475
-0.4915397747514362,-0.4915397747514362,0.999721529060766,0.00014306986429909552
-0.49130538813915337,-0.49130538813915337,0.9998098221318074,0.0001368236602634919
-0.49108433603178125,-0.49108433603178125,1.0001393264623963,0.0001363753989969694
-0.4909710224696028,-0.4909710224696028,0.9997735156543566,0.00014476300647185418
-0.49080726322135887,-0.49080726322135887,0.999921300718953,0.00013832580032184627
-0.49068847972157525,-0.49068847972157525,0.999969419300195,0.0001358585392514636
-0.49064769915203216,-0.49064769915203216,0.9998756702360933,0.00013790295818009857
-0.49057006836374056,-0.49057006836374056,0.9996239159880072,0.00013708954043353862
-0.4904143333187676,-0.4904143333187676,0.999734865073641,0.00014117240533021227
-0.4902879278524779,-0.4902879278524779,0.9999356225026045,0.00013664923189024385
-0.4901192288176389,-0.4901192288176389,0.999784675948457,0.00013702342864014145
-0.48988733396690803,-0.48988733396690803,0.9996917643767157,0.00014569918837267922
-0.4897621917640208,-0.4897621917640208,0.9997936127855279,0.00014021445041604875
-0.48966254810657117,-0.48966254810657117,0.9995798760033091,0.0001362717759928563
-0.4895084305680939,-0.4895084305680939,0.9997713445141404,0.00014407030042116805
-0.4893914580861747,-0.4893914580861747,0.9996974348178178,0.0001396017292659212
-0.48924996530622594,-0.48924996530622594,0.9995686030475722,0.0001380740266250552
-0.4890680172131397,-0.4890680172131397,0.9997209536449425,0.00014048189136382967
-0.48890229594762785,-0.48890229594762785,0.9999230354227043,0.00014030082963922618
-0.48879426648563823,-0.48879426648563823,0.9999292876603569,0.00013593763634473077
-0.4886458923421742,-0.4886458923421742,0.9999527227913363,0.00013659040594601746
-0.48850583604798886,-0.48850583604798886,0.999762499277159,0.000133913627802061
-0.4883743842561671,-0.4883743842561671,0.9998962016409617,0.0001377388474170255
-0.4882244585074659,-0.4882244585074659,0.9998300026656268,0.0001399880108351991
-0.4880348401253286,-0.4880348401253286,0.9994085118773299,0.00016503514402686466
-0.48788946555432633,-0.48788946555432633,0.9994740244704239,0.00013604258018567675
-0.4878284567683295,-0.4878284567683295,0.9996937581999434,0.00013760455327995808
-0.48777124959015056,-0.48777124959015056,1.0000273991574546,0.00013932244361370376
-0.48762127100198993,-0.48762127100198993,0.9999260389756778,0.00013543082394641123
-0.48747068626762485,-0.48747068626762485,0.9998716473444219,0.00013538650660272107
-0.48727392564615,-0.48727392564615,0.9999772135377645,0.00013867191245376775
-0.4870603949049837,-0.4870603949049837,0.9995310134062241,0.00014072286884616903
-0.4869810990676342,-0.4869810990676342,0.999848720483854,0.000138304308325964
-0.48682188833699913,-0.48682188833699913,0.9996736260064243,0.00013977580599096033
-0.4866386658002739,-0.4866386658002739,0.9996252838408883,0.00013680957290306662
-0.486450944540411,-0.486450944540411,0.9997383084881113,0.000143440155534985
-0.4863570122324745,-0.4863570122324745,0.999855657693806,0.0001404210364634523
-0.48621603975916516,-0.48621603975916516,0.9998635392167727,0.00013680719409907158
-0.4860837543550588,-0.4860837543550588,0.9997276756833738,0.00013424359629644954
-0.48597800760180687,-0.48597800760180687,0.999746744792213,0.00013390146309014703
-0.48575637182584613,-0.48575637182584613,0.9998489484615654,0.00014020105281350515
-0.48559227796140475,-0.48559227796140475,0.9996574512678702,0.00013521546670869968
-0.4854539789354021,-0.4854539789354021,0.9999141156817022,0.00013614385122377119
-0.4853512585439603,-0.4853512585439603,0.9997132465563847,0.0001380796043168252
-0.4852547023954685,-0.4852547023954685,0.9996433414968205,0.00013498817406479557
-0.48516593138556346,-0.48516593138556346,0.9998346080946396,0.0001427559472214512
-0.4850709981386899,-0.4850709981386899,0.9997884071341279,0.00013638305538714345
-0.4849934523968841,-0.4849934523968841,1.0000542878266943,0.0001372135506889027
-0.48494537120859604,-0.48494537120859604,0.9997818752351957,0.0001369207994405603
-0.484833414638706,-0.484833414638706,0.999819490984326,0.00013490878064888515
-0.4846462999514188,-0.4846462999514188,0.9996444975940684,0.00013787746640203454
-0.48452404816343914,-0.48452404816343914,0.9995274831036542,0.00013573765605656785
-0.48439856891272937,-0.48439856891272937,1.0000691949226854,0.00015162014980021356
-0.4842249139430351,-0.4842249139430351,1.0000546542420152,0.0001409411591399714
-0.48411391924455527,-0.48411391924455527,0.999827197765652,0.00013825477839525844
-0.48398639808001465,-0.48398639808001465,0.9996504223113822,0.00013644284815779253
-0.4838920187037729,-0.4838920187037729,0.9997202893620315,0.00013925804697425664
-0.4837560449879675,-0.4837560449879675,0.9996243614923221,0.00014331146818106444
-0.4835366358471219,-0.4835366358471219,0.9995953403986959,0.00013461488220271658
-0.48330245372635544,-0.48330245372635544,0.9997611307157752,0.00014443707670151458
-0.4831353477980883,-0.4831353477980883,0.9998993212949806,0.00014046383668949738
-0.4830236225818226,-0.4830236225818226,0.9999464575265165,0.00013372418220777667
-0.48289698327862424,-0.48289698327862424,0.9998735395947159,0.00013541605781645135
-0.4826922270818613,-0.4826922270818613,0.9999913718968628,0.00013475638331006808
-0.48258144984429235,-0.48258144984429235,0.9999299180426349,0.000139854970683828
-0.48240129990736025,-0.48240129990736025,0.9999000167669363,0.00013832757370487654
-0.4822330252864049,-0.4822330252864049,0.9999471123746059,0.0001414346166059704
-0.4821717481929227,-0.4821717481929227,0.9997268940303483,0.00013597743282864515
-0.48211606650511385,-0.48211606650511385,0.9998173531218824,0.00013466252721875178
-0.48197067249057,-0.48197067249057,0.999854814663659,0.00013612310597756482
-0.4817455233445799,-0.4817455233445799,1.0000396450631248,0.00013658105411377654
-0.48148385032400254,-0.48148385032400254,0.9999653628497333,0.00014145464016756295
-0.48137058061984134,-0.48137058061984134,0.9999270948590031,0.0001394034317985139
-0.48132989782534424,-0.48132989782534424,0.9997899856720786,0.00014192868957765497
-0.4811041653432767,-0.4811041653432767,0.9997302751762946,0.00014139403183292972
-0.480946207146917,-0.480946207146917,0.9999200181158361,0.00014340232176239594
-0.48081529711707843,-0.48081529711707843,0.9998797109735733,0.0001378368359933672
-0.4807460191339487,-0.4807460191339487,0.9997578498461422,0.0001394842742077804
-0.48059558740715147,-0.48059558740715147,0.9998665986761364,0.00013922549668864473
-0.4803828580843401,-0.4803828580843401,0.9998181918317657,0.0001367139582708963
-0.48027347069364623,-0.48027347069364623,0.9997853494093913,0.00013716557743723206
-0.48002475181783666,-0.48002475181783666,0.9997978078018791,0.00013457534041718083
-0.47990201527791215,-0.47990201527791215,0.9997061862466922,0.00013786902607584967
-0.47978907102733503,-0.47978907102733503,0.9997410663890294,0.00013561625584671005
-0.4796542761767341,-0.4796542761767341,0.9997997389522935,0.00013933148688959182
-0.47954148525095663,-0.47954148525095663,0.9996963945238662,0.00013493752760285316
-0.4794267928569752,-0.4794267928569752,0.9995489826418655,0.00014066496876608074
-0.4793418918598036,-0.4793418918598036,0.9997667899666387,0.0001412201625492321
-0.4792503423544986,-0.4792503423544986,0.999811491711176,0.00013663375358464368
-0.4791370197504875,-0.4791370197504875,0.9997949925606534,0.00013808296149993006
-0.47901207533068374,-0.47901207533068374,0.9998553626418047,0.00013734392876074336
-0.47890211084959444,-0.47890211084959444,1.0000137105331155,0.00013622841998865557
-0.4787535812429269,-0.4787535812429269,0.9996859661598837,0.00014365413304292705
-0.4785483392806782,-0.4785483392806782,0.999886272777567,0.00014164938235386681
-0.47840952366168493,-0.47840952366168493,0.9996083998513894,0.00014072493619896699
-0.47826628204420557,-0.47826628204420557,0.9998081997963748,0.00014278747881954794
-0.4781868235346337,-0.4781868235346337,0.9997266191766266,0.0001419890099353875
-0.47805253681581233,-0.47805253681581233,0.9998485488287778,0.00014050974274651057
-0.4778515401980258,-0.4778515401980258,0.9999138405991734,0.00013511823772946035
-0.47768734666678936,-0.47768734666678936,0.9999285703316276,0.00013672724222025726
-0.47752370656235144,-0.47752370656235144,0.9998031792925997,0.000138496571840406
-0.477353011368541,-0.477353011368541,0.9996601731470847,0.00013965174913882776
-0.4769883214990841,-0.4769883214990841,0.9998426944957213,0.00013566884142403424
-0.4768819754739525,-0.4768819754739525,0.9997687844860191,0.00013623880852443133
-0.47680065306049074,-0.47680065306049074,0.9998467223800469,0.0001453028078908081
-0.47670256262499605,-0.47670256262499605,0.9997211499021483,0.00014328257969174366
-0.4765841225031181,-0.4765841225031181,0.999730531071233,0.0001382700993122084
-0.47650077438738664,-0.47650077438738664,0.9997865053800613,0.0001372034318409148
-0.47638754836370933,-0.47638754836370933,0.9998289551923829,0.0001353980472847602
-0.47624490424423127,-0.47624490424423127,0.9999139332508676,0.00013624572008692705
-0.47608460598421515,-0.47608460598421515,0.9997425507373026,0.0001388071478550463
-0.4758254432184913,-0.4758254432184913,0.9997406400346482,0.00014225585054211367
-0.4756638311177085,-0.4756638311177085,0.9997158997281396,0.00014146347120394767
-0.4755464307148941,-0.4755464307148941,0.9999128018596946,0.00013824917138116204
-0.4753921638126485,-0.4753921638126485,0.9998140165068458,0.00014176624283865298
-0.4752354763368203,-0.4752354763368203,0.9997159476907027,0.00013511521442733371
-0.4750415832277213,-0.4750415832277213,0.9994217549310263,0.00014524305070350498
-0.47485308255490966,-0.47485308255490966,0.9996771036790687,0.00014230734663123838
-0.47473399865193644,-0.47473399865193644,0.9998259709046338,0.0001355799343173368
-0.4746208991666208,-0.4746208991666208,0.9996607142608156,0.00013428601748278617
-0.47444892017883833,-0.47444892017883833,0.9996378033077453,0.00013662518283363972
-0.47424998644855804,-0.47424998644855804,0.9999191930759002,0.00013975266104031029
-0.4741355682752328,-0.4741355682752328,0.999683842150221,0.00013802342060294345
-0.4740245771652553,-0.4740245771652553,0.9997374009227956,0.00013651780419886032
-0.47384475030048634,-0.47384475030048634,1.000028061410952,0.00013661379748107085
-0.4737470009109529,-0.4737470009109529,0.9998491639232681,0.00013948945078249482
-0.47367822629821604,-0.47367822629821604,0.9998352591499844,0.00013823615554696102
-0.47363793476106364,-0.47363793476106364,0.9997334305227966,0.0001416070922607157
-0.4734978363092523,-0.4734978363092523,0.9998338300893602,0.0001382913518620223
-0.4733702296980482,-0.4733702296980482,0.9997674900433255,0.0001367996849701649
-0.4731934823168558,-0.4731934823168558,0.9998607087824837,0.00013653198021108364
-0.47296694767210284,-0.47296694767210284,0.9997925118945628,0.00013773155871126534
-0.47288190072358705,-0.47288190072358705,0.9997920477615848,0.0001425253960192409
-0.4728050851888838,-0.4728050851888838,0.9998051706643102,0.00014075020959018058
-0.47261240155203266,-0.47261240155203266,0.9995539705807968,0.00014091635755425385
-0.47251518860502983,-0.47251518860502983,0.9996544801546502,0.00014362540634463194
-0.47238797280951983,-0.47238797280951983,0.9997873105473193,0.0001421287166917001
-0.47225174644772777,-0.47225174644772777,0.9997427737830862,0.00014005686584882753
-0.4720983488907223,-0.4720983488907223,0.9998336178485226,0.0001389011376054008
-0.47196229771725484,-0.47196229771725484,0.999515760574732,0.00013539912544577703
-0.47182872227276673,-0.47182872227276673,0.9998707400528548,0.00013962417927505623
-0.47163304275018164,-0.47163304275018164,0.9999127923545172,0.00014244235722516116
-0.4713591101513884,-0.4713591101513884,0.999780535676034,0.00013422217033380273
-0.4711854766821489,-0.4711854766821489,0.9995177844732368,0.00013650449455697439
-0.4710392482986208,-0.4710392482986208,0.9998159254861564,0.00014582389471212953
-0.4708942392921017,-0.4708942392921017,0.9997279302117065,0.00013765530068141394
-0.47082875146370495,-0.47082875146370495,0.9997864557371934,0.00013651741980413067
-0.4707955877172935,-0.4707955877172935,0.9996130934572565,0.0001351460991882099
-0.47071224320170585,-0.47071224320170585,0.9997373979026112,0.00014426300747913179
-0.4706092560103571,-0.4706092560103571,0.9998434550780655,0.00013643011506719302
-0.4704853274706693,-0.4704853274706693,0.9998412553698204,0.00013847658554293066
-0.4703579588247521,-0.4703579588247521,0.9999892966184968,0.00013831554943391088
-0.4701744550009607,-0.4701744550009607,0.999792020144523,0.0001388638048476209
-0.4700322960226913,-0.4700322960226913,0.99985484336786,0.00014616202994533614
-0.46990363813820296,-0.46990363813820296,0.9997663462914523,0.00013782101762315193
-0.4697529054239567,-0.4697529054239567,0.9998559675224172,0.00013995668029044689
-0.4696076270847698,-0.4696076270847698,1.0000147268969097,0.00013978421980934266
-0.46943596309574787,-0.46943596309574787,0.9996999798582774,0.00013687971451986977
-0.46923181279635173,-0.46923181279635173,1.0000543168858056,0.00013711360598481394
-0.4690714061900508,-0.4690714061900508,0.9997158283077399,0.000140458193400511
-0.4689837269434065,-0.4689837269434065,0.9998124353630089,0.00013990367628474138
-0.4688568024459528,-0.4688568024459528,1.000133730814661,0.0001364152026390593
-0.4686885602030088,-0.4686885602030088,0.9996556004399008,0.00013369429953310124
-0.4685783142173022,-0.4685783142173022,0.999832360157314,0.0001377573685380171
-0.4684784600023704,-0.4684784600023704,0.9996294504019418,0.00013630962503244647
-0.4683219221464242,-0.4683219221464242,0.9998315456382049,0.00013906179866474526
-0.46815803087374663,-0.46815803087374663,0.9998249169254787,0.00016868641997426476
-0.4680439059076889,-0.4680439059076889,0.9996727205920866,0.00013582414627848327
-0.4679896375637327,-0.4679896375637327,0.9996965994379934,0.00013763778662711669
-0.4679183192180062,-0.4679183192180062,0.9998138019975098,0.00013904797578595207
-0.46777113973439555,-0.46777113973439555,0.9997837745428146,0.0001357363361448645
-0.46765907850131044,-0.46765907850131044,0.9999946672938025,0.00013507042964526188
-0.46752724731995843,-0.46752724731995843,0.9998471291965126,0.00013691444257303974
-0.4672784150337975,-0.4672784150337975,1.000025761619201,0.00013817694520045577
-0.4671777526389633,-0.4671777526389633,0.9997891717425527,0.00014042622944763093
-0.46705207198610876,-0.46705207198610876,0.9997440671046924,0.00013563059296637235
-0.46689003095016235,-0.46689003095016235,0.9996580396065451,0.00014293909569593438
-0.4667422828671988,-0.4667422828671988,1.0001186617835354,0.00013975195293166015
-0.4666281470497779,-0.4666281470497779,0.9997232963208542,0.0001374649878528053
-0.4665491769061191,-0.4665491769061191,1.0000061753364062,0.00014538899396907305
-0.4664154145648354,-0.4664154145648354,0.9996938641285202,0.00014184271927626207
-0.466274225563393,-0.466274225563393,0.9997098572692977,0.00013372511501284523
-0.4661687501196866,-0.4661687501196866,0.9996262715159674,0.0001384556150947969
-0.4659972362816916,-0.4659972362816916,0.9998757669952834,0.00013737040893058115
