time,time,flux,flux_err
-0.49961769156652736,-0.49961769156652736,1.0000103317053535,6.897313126685404e-05
-0.49854228786134624,-0.49854228786134624,1.0000735239551948,6.890550387364831e-05
-0.4967637534340611,-0.4967637534340611,1.0000362544471195,6.900355917263361e-05
-0.4953035963786533,-0.4953035963786533,1.0000718228499088,6.894707915786878e-05
-0.49388774359395027,-0.49388774359395027,1.0000681893907406,6.906222299429696e-05
-0.49273051933996614,-0.49273051933996614,1.000004496060824,6.897934314654379e-05
-0.4910152063865098,-0.4910152063865098,1.0000044205071519,6.901884715713642e-05
-0.49057819297449895,-0.49057819297449895,1.0000565156094103,6.898641846878064e-05
-0.48902796535694504,-0.48902796535694504,1.000060749621841,6.892849612386426e-05
-0.487234998679196,-0.487234998679196,1.0000585313685015,6.903002325079148e-05
-0.48629719961900264,-0.48629719961900264,1.000084556935094,6.896595423929136e-05
-0.4845279802146251,-0.4845279802146251,0.9999986419571367,6.899013922899845e-05
-0.4839467461424647,-0.4839467461424647,1.0001048090870355,6.893651595224735e-05
-0.4825906065540039,-0.4825906065540039,0.9999041671399975,6.907184081277916e-05
-0.4820410779037047,-0.4820410779037047,1.000104262871383,6.89942970463755e-05
-0.48069879998511167,-0.48069879998511167,1.000198188546667,6.899943445011031e-05
-0.4798354805636336,-0.4798354805636336,0.9998313785499351,6.90748516196357e-05
-0.4786424582329346,-0.4786424582329346,0.9999176549638731,6.898395058880262e-05
-0.4775977463097661,-0.4775977463097661,1.0001020180280433,6.898789064483124e-05
-0.47619176988955586,-0.47619176988955586,0.9999387542241956,6.902952694709419e-05
-0.47460702164971735,-0.47460702164971735,0.9999435036843405,6.8946214535831e-05
-0.4720885332149919,-0.4720885332149919,1.0000156437807792,6.898986289566489e-05
-0.4699890337520628,-0.4699890337520628,0.9999701869427244,6.900815701013074e-05
-0.4684519850416109,-0.4684519850416109,1.0000342143177394,6.891893406203211e-05
-0.4672292724309955,-0.4672292724309955,1.000013612171117,6.890091554245887e-05
-0.4657860508435988,-0.4657860508435988,0.9999377676613644,6.902167838440651e-05
-0.46459887145174433,-0.46459887145174433,1.0000158278918814,6.895279195465965e-05
-0.46310535670636455,-0.46310535670636455,1.0000739897744135,6.892736186376515e-05
-0.4617219990992453,-0.4617219990992453,1.0000316937923959,6.897051245279543e-05
-0.4604815681697801,-0.4604815681697801,0.9999312384424851,6.899396884278456e-05
-0.4595409419387579,-0.4595409419387579,1.0000823870521565,6.89678898465902e-05
-0.4578543509458541,-0.4578543509458541,1.0000089972403008,6.906418374281318e-05
-0.4557239355650381,-0.4557239355650381,0.9999762928852359,6.900592308499728e-05
-0.45394801916263533,-0.45394801916263533,0.9999250557961339,6.898633408146336e-05
-0.4525108142130193,-0.4525108142130193,0.9999454624940309,6.898779816767343e-05
-0.45104686447157294,-0.45104686447157294,1.0001400820583621,6.893669792003038e-05
-0.44981425069709075,-0.44981425069709075,1.0000155392735308,6.901606543197131e-05
-0.4490045710786944,-0.4490045710786944,0.9997569468653864,6.905677030138869e-05
-0.4472687077315641,-0.4472687077315641,0.9999539573252395,6.903431262754301e-05
-0.44635545559722234,-0.44635545559722234,0.9999699380101313,6.901811955749483e-05
-0.4447333713338594,-0.4447333713338594,0.9999014090154743,6.900906640628827e-05
-0.44310823236737634,-0.44310823236737634,1.0000871820335746,6.899876077673392e-05
-0.44115184786060124,-0.44115184786060124,1.0000659467900026,6.902311691696556e-05
-0.43998718945367726,-0.43998718945367726,0.9999422470763738,6.900287975202454e-05
-0.4378555294286343,-0.4378555294286343,0.9999101348059363,6.898070335115026e-05
-0.4361166700240574,-0.4361166700240574,0.9999225246350913,6.897848199368581e-05
-0.4349077928214683,-0.4349077928214683,0.9999883847180975,6.892858910600294e-05
-0.43381863579706986,-0.43381863579706986,0.9999880215209597,6.890964080703694e-05
-0.43276626125298207,-0.43276626125298207,0.9999598710919999,6.898953760622761e-05
-0.43149604181671747,-0.43149604181671747,1.0000454799659901,6.897745889310845e-05
-0.43022663166484565,-0.43022663166484565,0.999998515854287,6.891144843285875e-05
-0.42827187693765156,-0.42827187693765156,0.9999059112804204,6.898271143818809e-05
-0.426230793792638,-0.426230793792638,0.9999457855238683,6.893208493107808e-05
-0.4246186842516181,-0.4246186842516181,0.9999412111202233,6.902772044642218e-05
-0.42236417714739216,-0.42236417714739216,0.9999494111890492,6.895746981450604e-05
-0.42107975713443013,-0.42107975713443013,0.999902988437017,6.895685791330705e-05
-0.41891963059606496,-0.41891963059606496,1.0000783877817012,6.900222826021387e-05
-0.41785172500531187,-0.41785172500531187,0.999935073741869,6.893528310176277e-05
-0.41616844852105717,-0.41616844852105717,0.9999936018956079,6.901536034187662e-05
-0.4154675111203687,-0.4154675111203687,1.0000416298403247,6.899089384163844e-05
-0.4138624516504933,-0.4138624516504933,1.0000896318602905,6.907546013783967e-05
-0.41331222145236096,-0.41331222145236096,0.9999728673286267,6.898426586463868e-05
-0.41205623148416637,-0.41205623148416637,1.0000034265620241,6.899762926227022e-05
-0.4112449276537518,-0.4112449276537518,0.9998724539300966,6.906644605059706e-05
-0.4102627062209649,-0.4102627062209649,0.9999873107315173,6.892907165868317e-05
-0.4090807955013588,-0.4090807955013588,0.9999098247460436,6.90549357934762e-05
-0.4082812802793342,-0.4082812802793342,0.9999851321786355,6.902672884883946e-05
-0.40707384398701835,-0.40707384398701835,1.0000648077618908,6.898546714457274e-05
-0.40497929330886107,-0.40497929330886107,0.9999653774300217,6.899894868211036e-05
-0.4021056739409687,-0.4021056739409687,0.9998936288985594,6.904402097316289e-05
-0.4004216131390422,-0.4004216131390422,0.999910052161978,6.897308648951255e-05
-0.39881808438367444,-0.39881808438367444,1.000120224939361,6.890052006923438e-05
-0.39732095649960686,-0.39732095649960686,1.0001164723765232,6.897293896901516e-05
-0.3963423817884177,-0.3963423817884177,0.9999635321415937,6.894954647891439e-05
-0.3945036219534813,-0.3945036219534813,0.9998227804269432,6.89260908017773e-05
-0.3930178749738843,-0.3930178749738843,1.0000115597326693,6.893839083618339e-05
-0.39158362849993866,-0.39158362849993866,0.9999888582067051,6.89665665226545e-05
-0.390295994283224,-0.390295994283224,1.0000794282943788,6.901488300626868e-05
-0.3891097822735901,-0.3891097822735901,0.999971065584177,6.90363208653084e-05
-0.3874248187392368,-0.3874248187392368,1.0000059156468268,6.896266015281942e-05
-0.38596797415812034,-0.38596797415812034,0.9999048366088654,6.904021376784719e-05
-0.384348628319276,-0.384348628319276,0.9999304332561222,6.896883332777683e-05
-0.3828109304988175,-0.3828109304988175,1.0000294556567342,6.900877681206853e-05
-0.3821663904018351,-0.3821663904018351,1.0000536371489048,6.894765178086e-05
-0.38116847087221684,-0.38116847087221684,0.9999510136823175,6.897055261969836e-05
-0.37980056937085466,-0.37980056937085466,1.000026748615285,6.904276271587004e-05
-0.3780939431584557,-0.3780939431584557,0.9999441924398894,6.906707195220794e-05
-0.377395570257795,-0.377395570257795,0.99987372840387,6.896848533954121e-05
-0.3758235347544542,-0.3758235347544542,0.9999837195138424,6.903115769872308e-05
-0.37484963582683123,-0.37484963582683123,0.9998948170674344,6.89410020542118e-05
-0.3734514245588798,-0.3734514245588798,1.000026034368873,6.902507260936452e-05
-0.371169413041207,-0.371169413041207,0.9999816627699613,6.902143167807924e-05
-0.3681576392307761,-0.3681576392307761,1.0000890811433067,6.903896438742286e-05
-0.3667268983554095,-0.3667268983554095,1.0001500123695675,6.890339621027051e-05
-0.3653964985613129,-0.3653964985613129,0.9999127352580744,6.895346531124275e-05
-0.3643503090715967,-0.3643503090715967,1.000125334393224,6.900120233139761e-05
-0.3633933195509599,-0.3633933195509599,1.0000354287426518,6.889037287327731e-05
-0.3617047522959183,-0.3617047522959183,0.999838945765928,6.897402472256625e-05
-0.36073128423304296,-0.36073128423304296,1.0001226956244509,6.895424771791351e-05
-0.3592143943766132,-0.3592143943766132,1.0000246610549486,6.897855448635448e-05
-0.35792404464009453,-0.35792404464009453,0.9999636758296605,6.892821259886896e-05
-0.3566028969056788,-0.3566028969056788,1.0000956449417648,6.898237518174023e-05
-0.35492453390761514,-0.35492453390761514,0.9999776891494621,6.89306527826035e-05
-0.3533047958801035,-0.3533047958801035,0.999992104936467,6.897580762451708e-05
-0.35193061224854316,-0.35193061224854316,1.0000168849863225,6.891839054051388e-05
-0.34966069227666596,-0.34966069227666596,1.0001069254894166,6.899544298059585e-05
-0.3479088597290684,-0.3479088597290684,0.9999749324094651,6.901740853357281e-05
-0.3464540468659834,-0.3464540468659834,0.9999224657906545,6.899180058233841e-05
-0.3449576645332854,-0.3449576645332854,1.0000535719326336,6.904578371168993e-05
-0.34400415147683816,-0.34400415147683816,0.9999160878231196,6.899207239537572e-05
-0.342843985723448,-0.342843985723448,0.9999974454831353,6.901180208752236e-05
-0.34217476150515724,-0.34217476150515724,1.0000107379761407,6.904137931326255e-05
-0.3407015784090618,-0.3407015784090618,1.0000917388716712,6.903289366306838e-05
-0.33993423371430254,-0.33993423371430254,0.9999370368542972,6.895938671517495e-05
-0.3381263697592658,-0.3381263697592658,0.9999815666558142,6.897235895572936e-05
-0.3368097391896299,-0.3368097391896299,0.9998669401038619,6.905097359471614e-05
-0.33490073416614907,-0.33490073416614907,1.000022039640133,6.894416619902229e-05
-0.3332051284305635,-0.3332051284305635,0.9999535334607664,6.908217362165922e-05
-0.3319956289662514,-0.3319956289662514,0.9999778724236668,6.899006378272142e-05
-0.33066810991585954,-0.33066810991585954,1.0000382315611032,6.891882597345563e-05
-0.32941646008112,-0.32941646008112,0.9999881464609262,6.896377214674603e-05
-0.3282316823999281,-0.3282316823999281,0.9998570755339911,6.89146495887455e-05
-0.3264209610206308,-0.3264209610206308,0.9999477123636684,6.892014142642765e-05
-0.3250949047636823,-0.3250949047636823,0.9999527381018659,6.894480704390605e-05
-0.3238595780116157,-0.3238595780116157,0.999852647472807,6.891727276613885e-05
-0.3225934133617557,-0.3225934133617557,1.0001186639295288,6.893439360208621e-05
-0.32167305891343856,-0.32167305891343856,0.9998890231252415,6.903894081162075e-05
-0.32020726865303006,-0.32020726865303006,0.9999135512285516,6.900072584633662e-05
-0.3183056210342329,-0.3183056210342329,0.9999417231413386,6.901234958099543e-05
-0.3171128524336382,-0.3171128524336382,0.9999804630141437,6.894768450296939e-05
-0.314691658243828,-0.314691658243828,0.9999636549108754,6.901782189303309e-05
-0.3135789849271532,-0.3135789849271532,1.0000311815215501,6.893758597492392e-05
-0.31236651799699755,-0.31236651799699755,1.0000421886908737,6.900427920811719e-05
-0.31145743552624483,-0.31145743552624483,1.0000225792284083,6.895929969857957e-05
-0.30962304791901263,-0.30962304791901263,0.9999879166081215,6.907733222702333e-05
-0.30904229300358566,-0.30904229300358566,0.999992533545037,6.894823739977697e-05
-0.30732765124703293,-0.30732765124703293,1.000066570842732,6.900047896597763e-05
-0.30665043391782093,-0.30665043391782093,1.0000536378050804,6.89794323882662e-05
-0.30522611470660194,-0.30522611470660194,0.9999959884889021,6.899125292983489e-05
-0.30437046429724435,-0.30437046429724435,0.9999121728236773,6.901872367453609e-05
-0.3025049291594769,-0.3025049291594769,1.0000446329643125,6.904154342310937e-05
-0.3008689775539096,-0.3008689775539096,1.0000088132181137,6.901157324176839e-05
-0.2983777048109914,-0.2983777048109914,0.9999959078259136,6.895597622155343e-05
-0.2964756204528385,-0.2964756204528385,0.9999991225137869,6.89555539199698e-05
-0.29528988374222537,-0.29528988374222537,0.9999427736000565,6.898920596983132e-05
-0.2939955924084643,-0.2939955924084643,1.000009636742957,6.894046758372375e-05
-0.29297272641560995,-0.29297272641560995,0.9999959859314915,6.897908180427562e-05
-0.2919725170111633,-0.2919725170111633,0.9999972666044975,6.895487582488707e-05
-0.29014428562368266,-0.29014428562368266,0.9999263147448214,6.895559291505368e-05
-0.28897575706796486,-0.28897575706796486,0.9999258042324275,6.897826718670577e-05
-0.28733415152819364,-0.28733415152819364,1.0000300571635758,6.899234999542241e-05
-0.2854745847842423,-0.2854745847842423,1.0000351949570596,6.900056063257912e-05
-0.2844329897605348,-0.2844329897605348,0.999951813309538,6.896125920852364e-05
-0.28349521886266305,-0.28349521886266305,0.9999807539171449,6.894965044558644e-05
-0.28217982889473203,-0.28217982889473203,0.999892819854592,6.897340213277348e-05
-0.2803335091099143,-0.2803335091099143,0.9999685368207591,6.894733254647124e-05
-0.27914166767586723,-0.27914166767586723,1.0001092256758652,6.902728905908106e-05
-0.2779909041768406,-0.2779909041768406,0.9999700420914792,6.892073063150203e-05
-0.2764831136650173,-0.2764831136650173,0.9999345951218374,6.905602123471277e-05
-0.2759616331823054,-0.2759616331823054,0.9999154924702465,6.898313419197174e-05
-0.2747301689378219,-0.2747301689378219,1.0000038986741295,7.032542496439157e-05
-0.2739132037590025,-0.2739132037590025,0.9999589994726987,6.904853650783967e-05
-0.27275987536850155,-0.27275987536850155,1.0000862649082576,6.89655505615697e-05
-0.2717190970972297,-0.2717190970972297,1.0000178689542842,6.901543365020476e-05
-0.27052249805274187,-0.27052249805274187,1.0000461182379303,6.902613930409891e-05
-0.26922478600317845,-0.26922478600317845,1.000020962928501,6.897174009949287e-05
-0.26819080400455275,-0.26819080400455275,0.9999362333364716,6.902089052837566e-05
-0.266536714528047,-0.266536714528047,0.9999388804697394,6.8989006413653e-05
-0.2647997646432486,-0.2647997646432486,1.0000203092243627,6.899205909121869e-05
-0.26315444244683023,-0.26315444244683023,0.999868708104998,6.895159619152964e-05
-0.2616584585324745,-0.2616584585324745,0.9999076762759713,6.891163162574549e-05
-0.26067177242075557,-0.26067177242075557,1.0000196497760574,6.89681403933217e-05
-0.2596531254675938,-0.2596531254675938,0.9998799048520587,6.892587624812088e-05
-0.2584969122952316,-0.2584969122952316,1.0000366746517793,6.896652025569844e-05
-0.2572226385047543,-0.2572226385047543,0.9999057160802247,6.890666589766351e-05
-0.2557285617949674,-0.2557285617949674,0.9999685897867202,6.898528675024427e-05
-0.25436946134577737,-0.25436946134577737,0.9999292407065511,6.897207592048693e-05
-0.2530560476850951,-0.2530560476850951,1.0000699999752105,6.89675313303359e-05
-0.25186576423293444,-0.25186576423293444,1.0000742234758981,6.90416273772443e-05
-0.2506766082253307,-0.2506766082253307,0.9999873248208244,6.903832530095937e-05
-0.24922966959420592,-0.24922966959420592,0.9999437565043374,6.899515685669045e-05
-0.24691810938093112,-0.24691810938093112,0.9999184680742049,6.894225070396236e-05
-0.24515864208515267,-0.24515864208515267,1.00002903204888,6.900440342000333e-05
-0.2443037576158531,-0.2443037576158531,0.9999284426760437,6.897365264111839e-05
-0.24261408690799727,-0.24261408690799727,1.0000044108613977,6.894770887540735e-05
-0.2409622698716703,-0.2409622698716703,0.9999580094512858,6.903405421806853e-05
-0.2404953232529806,-0.2404953232529806,0.9999153218270541,6.90171659212232e-05
-0.23920684350159718,-0.23920684350159718,0.9998962147055591,6.897621737101371e-05
-0.2381017994164722,-0.2381017994164722,1.0000756500928638,6.902803777214373e-05
-0.23718379878264387,-0.23718379878264387,1.0000891395393343,6.893680139864255e-05
-0.23609628560370766,-0.23609628560370766,1.000015038598781,6.908418025211932e-05
-0.2344319200827158,-0.2344319200827158,0.9999314554632013,6.90200117205216e-05
-0.2330619184183888,-0.2330619184183888,0.9998801156181454,6.90304674192902e-05
-0.23131126863736426,-0.23131126863736426,1.0000494777839883,6.89279928202105e-05
-0.22959347521245946,-0.22959347521245946,1.0000222571201884,6.897610439639341e-05
-0.22773226210701977,-0.22773226210701977,0.9999240182900136,6.895326671941927e-05
-0.22662974764680258,-0.22662974764680258,1.0000023968885903,6.905620414209309e-05
-0.22561082568863638,-0.22561082568863638,1.000033089049678,6.889522307722708e-05
-0.224509777482308,-0.224509777482308,1.0000252491059463,6.897449688089837e-05
-0.2238942655050778,-0.2238942655050778,0.9999973574563363,6.891702150200107e-05
-0.22213042294752086,-0.22213042294752086,0.9999199151603563,6.89235477167488e-05
-0.22023076745972503,-0.22023076745972503,1.000128415553315,6.90072762223285e-05
-0.21930959093151614,-0.21930959093151614,0.9998822620867861,6.893536033888975e-05
-0.21790834404382622,-0.21790834404382622,0.9998814751028672,6.896401080340224e-05
-0.2159570714007714,-0.2159570714007714,0.9999795933734598,6.904685526714457e-05
-0.21424378788651666,-0.21424378788651666,0.9999844617460921,6.902953787154122e-05
-0.2129618383711204,-0.2129618383711204,1.0000038918927854,6.902938596305701e-05
-0.2113923223441816,-0.2113923223441816,1.000022201693432,6.898836990229065e-05
-0.20981698295654497,-0.20981698295654497,1.000002963885683,6.901167821807118e-05
-0.20883660219114972,-0.20883660219114972,1.0000078953316192,6.891934205286869e-05
-0.20748080715420655,-0.20748080715420655,1.0001064031362672,6.906194462574176e-05
-0.2063527365680784,-0.2063527365680784,0.9998919600238116,6.903410311289255e-05
-0.2052346162876347,-0.2052346162876347,0.9999525887116876,6.90385794894802e-05
-0.2045409794242005,-0.2045409794242005,0.9999807958997982,6.899824708013567e-05
-0.20324540681467623,-0.20324540681467623,1.000021597845982,6.897432117544162e-05
-0.20211831083870493,-0.20211831083870493,0.9999351876231127,6.899063883043578e-05
-0.2004491060753935,-0.2004491060753935,0.9999292162826772,6.901113997004354e-05
-0.19899996866151923,-0.19899996866151923,1.0000029540759243,6.901609841414283e-05
-0.19795717995730228,-0.19795717995730228,0.999925449209704,6.895546367094305e-05
-0.19630017523886636,-0.19630017523886636,0.9998885494114396,6.894462204396181e-05
-0.1946882038784679,-0.1946882038784679,0.9999410827695707,6.898984264126876e-05
-0.1933475181547692,-0.1933475181547692,1.0000135050260064,6.895743661095577e-05
-0.19238130503945286,-0.19238130503945286,0.9998609300332764,6.89144255425572e-05
-0.1912421488072141,-0.1912421488072141,1.0001091606955388,6.899564780413428e-05
-0.19007186586677563,-0.19007186586677563,0.9999644379584108,6.894264152761794e-05
-0.1886073329631472,-0.1886073329631472,0.999832577213352,6.893838939432077e-05
-0.18654851951869206,-0.18654851951869206,0.9999845352982453,6.9015813653244e-05
-0.1850253832002636,-0.1850253832002636,1.00010388438199,6.896322908973534e-05
-0.18352643476828234,-0.18352643476828234,0.9999580631687606,6.902201350075633e-05
-0.1818999715251266,-0.1818999715251266,1.0000637741281608,6.899800855579543e-05
-0.1804091879967018,-0.1804091879967018,1.0000801458564808,6.897863502465927e-05
-0.17923039340239483,-0.17923039340239483,1.0000101802577026,6.893653919348754e-05
-0.17693749348109122,-0.17693749348109122,0.9999778532864703,6.90164567730826e-05
-0.17596456882893108,-0.17596456882893108,0.9999990167351587,6.898874308651726e-05
-0.17410652485414174,-0.17410652485414174,1.0000770068726337,6.89942734537785e-05
-0.17366698715341045,-0.17366698715341045,1.0000434276038497,6.89052000548983e-05
-0.1727068146239617,-0.1727068146239617,0.9999715371836931,6.903298365927559e-05
-0.1717875053625903,-0.1717875053625903,0.9999844302977208,6.905079334456501e-05
-0.1709290383179905,-0.1709290383179905,1.000156749110239,6.899079914860398e-05
-0.16964157045877074,-0.16964157045877074,0.9999797323025748,6.90612193000046e-05
-0.1684987571235979,-0.1684987571235979,0.9999547949854388,6.901973832379842e-05
-0.1671781390949036,-0.1671781390949036,0.9999694382425117,6.898307682020707e-05
-0.16544895170227392,-0.16544895170227392,1.0000340268219539,6.900674634265018e-05
-0.16255635102570523,-0.16255635102570523,1.0000460188793656,6.895028228985329e-05
-0.16006736102717695,-0.16006736102717695,1.0000059739739258,6.896495916616327e-05
