time,time,flux,flux_err
-0.4995249930827413,-0.4995249930827413,0.9999593483203478,7.368476641304378e-05
-0.4976387169852387,-0.4976387169852387,0.9998514091200976,7.371562201459364e-05
-0.49617300131649245,-0.49617300131649245,1.0000780259441098,7.37069840554819e-05
-0.4946828427084256,-0.4946828427084256,0.9997821002576878,7.36955695942325e-05
-0.49297895312774925,-0.49297895312774925,1.0000737628816565,7.383439361848893e-05
-0.490865346629289,-0.490865346629289,1.000132972507785,7.370686576283356e-05
-0.48916292764479297,-0.48916292764479297,0.9999319681349317,7.36846450210613e-05
-0.4879596565064276,-0.4879596565064276,0.9998601028706615,7.368902194206391e-05
-0.48585723302094264,-0.48585723302094264,0.9999640505450985,7.370188979762671e-05
-0.4844075375061948,-0.4844075375061948,0.9998910121320709,7.367923017296696e-05
-0.48266768936882726,-0.48266768936882726,0.9999426205899751,7.36858377224668e-05
-0.48105969007592647,-0.48105969007592647,0.9999504004038732,7.410071051327992e-05
-0.478736183536239,-0.478736183536239,0.999885924688089,7.368012134685795e-05
-0.4770847156061791,-0.4770847156061791,1.0000442427175436,7.369974440277349e-05
-0.47507081833609843,-0.47507081833609843,0.9998912447584194,7.369009759712525e-05
-0.47387398140854203,-0.47387398140854203,0.9999933373457722,7.367673130983645e-05
-0.4724370585870929,-0.4724370585870929,0.999919167482022,7.369551400230649e-05
-0.47125694137939717,-0.47125694137939717,1.0000523750213781,7.369739695272897e-05
-0.46969421178218906,-0.46969421178218906,0.9999767491778864,7.368921560391258e-05
-0.4677271718974225,-0.4677271718974225,1.0001477730321924,7.369565688915407e-05
-0.4655981327901827,-0.4655981327901827,0.9999280726839667,7.369151278884841e-05
-0.46410188054724133,-0.46410188054724133,0.9998121576990583,7.367502403954966e-05
-0.46277551525854504,-0.46277551525854504,1.000150593136585,7.370338905171564e-05
-0.4613580626697512,-0.4613580626697512,1.0000717921104176,7.3703436546643e-05
-0.46003628596663476,-0.46003628596663476,1.000044317888547,7.369862904868057e-05
-0.45765947115432937,-0.45765947115432937,1.000007213535034,7.370688102810178e-05
-0.45528663154400417,-0.45528663154400417,1.000030152615818,7.368773613986596e-05
-0.4535291108535603,-0.4535291108535603,0.9998777127952811,7.368787962885451e-05
-0.4521558931999607,-0.4521558931999607,1.0001591743567757,7.369462578505853e-05
-0.45025958498881663,-0.45025958498881663,1.00023156173495,7.369786295973555e-05
-0.4488643957127351,-0.4488643957127351,1.0001024582249696,7.368030780257237e-05
-0.4469319433468627,-0.4469319433468627,0.9999026445053498,7.378268083463534e-05
-0.44494632304704285,-0.44494632304704285,1.000024715807299,7.3706427233867e-05
-0.44300154623633714,-0.44300154623633714,1.0000756120777612,7.366085575347787e-05
-0.44169062678702176,-0.44169062678702176,1.0000769064837276,7.370049351973781e-05
-0.439800282754004,-0.439800282754004,0.9999059925895919,7.368997309219365e-05
-0.4384682919626357,-0.4384682919626357,0.9999235440194261,7.369013669702118e-05
-0.4368293508538045,-0.4368293508538045,0.9999602780172372,7.36912923176444e-05
-0.4354805618728278,-0.4354805618728278,0.9999395145722356,7.390187153377237e-05
-0.43318077170988545,-0.43318077170988545,1.0001245198662259,7.370111320466227e-05
-0.43160145326983185,-0.43160145326983185,1.0000210872839386,7.368617228914939e-05
-0.429764036097913,-0.429764036097913,1.0000116556595349,7.370428212059429e-05
-0.4280682363198139,-0.4280682363198139,1.0000161960123748,7.369811928860568e-05
-0.4263822410517605,-0.4263822410517605,0.9999450353695746,7.370320253186347e-05
-0.4249752479518065,-0.4249752479518065,1.0001138701250454,7.368591511879678e-05
-0.42288883043220266,-0.42288883043220266,1.0001142308036628,7.371180091474708e-05
-0.42103499712829945,-0.42103499712829945,1.0002054993513683,7.367825374741679e-05
-0.4190590878657531,-0.4190590878657531,0.999995642713281,7.367812783517752e-05
-0.41770903882861604,-0.41770903882861604,1.0000912148907442,7.369284684343599e-05
-0.41639389705087526,-0.41639389705087526,0.999976479632702,7.36958743722494e-05
-0.41496753818064464,-0.41496753818064464,0.9997795703400824,7.368605512600622e-05
-0.4138936786679551,-0.4138936786679551,1.000012393290213,7.368464849966755e-05
-0.4120669859752525,-0.4120669859752525,1.0000996539541678,7.370783331488285e-05
-0.4098891958827153,-0.4098891958827153,0.9999004242202275,7.367799000844512e-05
-0.4076720422541257,-0.4076720422541257,0.9998611673830708,7.368329436771651e-05
-0.4064437416265719,-0.4064437416265719,1.0000090575021578,7.368354674855437e-05
-0.40503740224230567,-0.40503740224230567,1.0000878729679605,7.372534794182501e-05
-0.40366243856260553,-0.40366243856260553,0.9998576884689193,7.37156709302732e-05
-0.4019636122189695,-0.4019636122189695,0.9999794664279046,7.369974306382523e-05
-0.3998561185377184,-0.3998561185377184,0.9999517090074743,7.371897595879937e-05
-0.3978844538738485,-0.3978844538738485,1.0000194930525672,7.367893185474358e-05
-0.3963644745934289,-0.3963644745934289,1.000197718159555,7.36914963783762e-05
-0.39519028539652934,-0.39519028539652934,1.00006427073807,7.366416231217457e-05
-0.39341906167101115,-0.39341906167101115,1.0000733612668287,7.369375325693168e-05
-0.3920852498034947,-0.3920852498034947,1.0000463644583817,7.368815681314177e-05
-0.39009533769567495,-0.39009533769567495,0.9999826368402422,7.372227495214778e-05
-0.3882687422039453,-0.3882687422039453,1.0000189354190123,7.381923668687468e-05
-0.3860916050936794,-0.3860916050936794,0.9998189663942977,7.36860915594791e-05
-0.3848481608787552,-0.3848481608787552,1.0000809842037293,7.369622703319728e-05
-0.3829522213258315,-0.3829522213258315,0.9999904982691813,7.370180455859826e-05
-0.3816460367117543,-0.3816460367117543,1.0000263635527489,7.365602175160635e-05
-0.38000105993123723,-0.38000105993123723,1.0000945337028473,7.371603880349557e-05
-0.3785438270046143,-0.3785438270046143,1.0001552074837292,7.402890606187406e-05
-0.37650859109999146,-0.37650859109999146,0.9998354038541128,7.37002302533706e-05
-0.3746394168905681,-0.3746394168905681,0.9999800016260758,7.368214127092209e-05
-0.3725869642017642,-0.3725869642017642,0.9999616593164704,7.369018873945525e-05
-0.3709009671001695,-0.3709009671001695,1.0000523022628272,7.367844367078531e-05
-0.3694544291589409,-0.3694544291589409,0.9999023693815008,7.370117866725045e-05
-0.3680828635755461,-0.3680828635755461,1.0001130713429183,7.372458208382132e-05
-0.36705114085925744,-0.36705114085925744,0.9999396964770598,7.367116957990237e-05
-0.36507155527360735,-0.36507155527360735,0.9999901140876164,7.369205449013469e-05
-0.3634208230650984,-0.3634208230650984,1.0000034515909315,7.368251540621036e-05
-0.36128847140062137,-0.36128847140062137,0.9998865732508829,7.368373675127748e-05
-0.36004559010616505,-0.36004559010616505,1.0000875826809505,7.369840817158942e-05
-0.35865659262926786,-0.35865659262926786,0.999908348630796,7.369960047508076e-05
-0.3572828913864214,-0.3572828913864214,1.0000422574503147,7.371783571426819e-05
-0.35557211535342503,-0.35557211535342503,1.0000710560727204,7.37128231568441e-05
-0.3532947529311059,-0.3532947529311059,0.9998991193645491,7.36949969681366e-05
-0.3507935939996969,-0.3507935939996969,0.9999343367900642,7.36949912413667e-05
-0.34956040353281426,-0.34956040353281426,1.0001727572710455,7.367901592879889e-05
-0.34801460862217937,-0.34801460862217937,0.999967997964499,7.369296997805317e-05
-0.3467000039003324,-0.3467000039003324,0.9999900361492532,7.370086858945824e-05
-0.3452516969817225,-0.3452516969817225,0.9999868124177322,7.368561815138638e-05
-0.3430262436973862,-0.3430262436973862,0.9999654497303636,7.376344736381615e-05
-0.3409282272623386,-0.3409282272623386,0.9999034110060823,7.36983008302959e-05
-0.33920007168198935,-0.33920007168198935,1.0000773289103564,7.368391654157706e-05
-0.33779513369663616,-0.33779513369663616,1.0000578697235576,7.369949710447351e-05
-0.33591124388040045,-0.33591124388040045,1.000099902145322,7.370289594068302e-05
-0.33486947178316767,-0.33486947178316767,0.9999033618487576,7.368722877523996e-05
-0.333261331677204,-0.333261331677204,1.0000602379336243,7.369536937024674e-05
-0.3315897648863029,-0.3315897648863029,0.9998966518886977,7.389819542882357e-05
-0.3291978257679148,-0.3291978257679148,1.0000018144277005,7.370286935896135e-05
-0.3280372806708328,-0.3280372806708328,1.000001872915903,7.367742442796946e-05
-0.3262054974329658,-0.3262054974329658,0.9998580386485217,7.368425985574701e-05
-0.32450602176832033,-0.32450602176832033,0.9999592512717925,7.368457581905815e-05
-0.3228236954921158,-0.3228236954921158,0.9999323870080117,7.370592310716612e-05
-0.32126924115582367,-0.32126924115582367,1.0000335738129205,7.370177265338423e-05
-0.31882011582492853,-0.31882011582492853,1.0000198510522589,7.369905473950774e-05
-0.31707970989227763,-0.31707970989227763,1.0001269186401545,7.366528935622477e-05
-0.3152150693262229,-0.3152150693262229,1.00001710393409,7.36974591170717e-05
-0.3139242739620386,-0.3139242739620386,1.0000624530422788,7.369178126635678e-05
-0.312539220333565,-0.312539220333565,1.000045678014049,7.371174115011434e-05
-0.3111072613770375,-0.3111072613770375,1.0000558567151194,7.371821270667542e-05
-0.31016191038361285,-0.31016191038361285,0.9999630192144512,7.368030946222237e-05
-0.30801802426285574,-0.30801802426285574,0.9999202377297834,7.373354093628034e-05
-0.3057964920910308,-0.3057964920910308,1.0000809260345551,7.369047645207809e-05
-0.3038134282134706,-0.3038134282134706,1.0000225539047731,7.369044232407283e-05
-0.30262895674677565,-0.30262895674677565,1.0001033784948863,7.367846747221974e-05
-0.30123435496352613,-0.30123435496352613,1.0000474146599523,7.37022079906736e-05
-0.29983904615801293,-0.29983904615801293,1.0000187598230155,7.369949300022013e-05
-0.29790976210788356,-0.29790976210788356,0.9999808037829571,7.370113291040246e-05
-0.2955973350908607,-0.2955973350908607,0.9998982046588882,7.370769984662654e-05
-0.29332171003334223,-0.29332171003334223,1.0000426642481952,7.368715487230819e-05
-0.29205646906630134,-0.29205646906630134,1.0000100966901562,7.368312433941172e-05
-0.29019559763546565,-0.29019559763546565,0.9999719695483955,7.369650628803189e-05
-0.2888411429681582,-0.2888411429681582,0.9999853615027925,7.36929470848191e-05
-0.2868702477309853,-0.2868702477309853,1.0000029133517756,7.370864454518654e-05
-0.28519947375170884,-0.28519947375170884,0.9999687314728959,7.378567497517005e-05
-0.2828171088884119,-0.2828171088884119,0.9999720235567885,7.370773325290378e-05
-0.28163556968211195,-0.28163556968211195,0.9999980000280366,7.366912888843267e-05
-0.2798809612344485,-0.2798809612344485,1.000114704933461,7.368516604787824e-05
-0.2784673209214816,-0.2784673209214816,1.0000150274937378,7.368642272140527e-05
-0.27717528268985914,-0.27717528268985914,1.0001562508791104,7.371773773200176e-05
-0.2758096535486402,-0.2758096535486402,1.0000585539640647,7.368713141553502e-05
-0.2744192554033361,-0.2744192554033361,1.0000201967471605,7.399509690115878e-05
-0.27196301036456133,-0.27196301036456133,1.000084547915571,7.370017895351859e-05
-0.27056186058325693,-0.27056186058325693,0.9999626134347992,7.367832616342532e-05
-0.26866794113011566,-0.26866794113011566,1.0001016780578769,7.371191239241397e-05
-0.2670034611481242,-0.2670034611481242,1.0000638159968753,7.369927714266322e-05
-0.26531391565222295,-0.26531391565222295,1.0000500575685467,7.370454459154377e-05
-0.2641364639683161,-0.2641364639683161,0.9998722672606469,7.368146900452722e-05
-0.26215271174150984,-0.26215271174150984,1.000012907977536,7.370401134450613e-05
-0.2603058542823419,-0.2603058542823419,1.0000082894277555,7.367743246620588e-05
-0.2583239874220453,-0.2583239874220453,1.0000855159449826,7.368423443914726e-05
-0.2569784603547305,-0.2569784603547305,0.9999044050022918,7.368903765797009e-05
-0.2556582144665299,-0.2556582144665299,0.9999676156131094,7.368958791774981e-05
-0.25423590197751766,-0.25423590197751766,1.0001659941726708,7.36939562056415e-05
-0.2529146289889468,-0.2529146289889468,0.999929657067155,7.370456781708476e-05
-0.25054028728336564,-0.25054028728336564,1.0001067446780287,7.373115672873225e-05
-0.24817126266716513,-0.24817126266716513,1.0001065088190253,7.370876405964237e-05
-0.2464027434354648,-0.2464027434354648,0.9999070115499358,7.36877790221245e-05
-0.24516713633784093,-0.24516713633784093,1.000043282681251,7.368671883023654e-05
-0.2434799576032674,-0.2434799576032674,1.000012030977804,7.369535696766062e-05
-0.24213362672016955,-0.24213362672016955,1.0000598165125911,7.369098842823877e-05
-0.23981353203998879,-0.23981353203998879,0.999943492866483,7.376456835480076e-05
-0.23800291937659496,-0.23800291937659496,1.0000941566139043,7.368718843173936e-05
-0.2361469129275065,-0.2361469129275065,0.9999350674866626,7.368071757231529e-05
-0.2348896290495759,-0.2348896290495759,0.9999230795973043,7.367159954739378e-05
-0.23301597122917883,-0.23301597122917883,1.000002164221558,7.369282412599587e-05
-0.23166944405820686,-0.23166944405820686,1.000105951126137,7.368321477457426e-05
-0.23004488924343605,-0.23004488924343605,1.0000372456620763,7.372064879056139e-05
-0.22835547172871884,-0.22835547172871884,0.9999742056748717,7.384647900879106e-05
-0.2260662553308066,-0.2260662553308066,1.0000231578671728,7.370253336599634e-05
-0.22466308236180338,-0.22466308236180338,0.9998882012398562,7.367350173986748e-05
-0.22296823262586257,-0.22296823262586257,1.0000968923739375,7.370979468753909e-05
-0.22129899051215035,-0.22129899051215035,1.0001335398692777,7.368499831195122e-05
-0.21926518002001102,-0.21926518002001102,0.9999752033145676,7.37086930659112e-05
-0.21781538272625767,-0.21781538272625767,1.000091350218241,7.417289900373778e-05
-0.21577228493697476,-0.21577228493697476,0.9999943497457485,7.36946954142183e-05
-0.213910083117662,-0.213910083117662,0.999986988298612,7.368048476516116e-05
-0.21185141778842081,-0.21185141778842081,1.0000983197643436,7.370974497984396e-05
-0.21036083347862586,-0.21036083347862586,0.9999884363250937,7.368118945950978e-05
-0.20898043253400828,-0.20898043253400828,1.0000505792781187,7.370336418418175e-05
-0.20755011888977606,-0.20755011888977606,1.0000504565381072,7.37160368051121e-05
-0.20659642351674848,-0.20659642351674848,1.000086179932456,7.369154833043943e-05
-0.20488484273082577,-0.20488484273082577,0.9998691622118263,7.368153615189898e-05
-0.20343509273952803,-0.20343509273952803,0.9999653621892574,7.370093963296298e-05
-0.20130258496792522,-0.20130258496792522,1.0001081676639578,7.371603985810837e-05
-0.1998097145697102,-0.1998097145697102,1.0000142653262378,7.368736919828689e-05
-0.19848131079634185,-0.19848131079634185,0.9999804874433298,7.369928698756093e-05
-0.197065476863645,-0.197065476863645,1.0000985183376252,7.369277861909972e-05
-0.1957435299642384,-0.1957435299642384,0.9999726750540339,7.369090872916353e-05
-0.1933658858470153,-0.1933658858470153,0.999820567007918,7.369882015516299e-05
-0.19099178326432592,-0.19099178326432592,0.999986545696183,7.370263937873173e-05
-0.18923793008143547,-0.18923793008143547,1.0000554368424943,7.368221156657623e-05
-0.18786074940871914,-0.18786074940871914,0.9998835797009937,7.368482782816909e-05
-0.18596598881704268,-0.18596598881704268,0.9999586621020666,7.370970132436365e-05
-0.1845728034939384,-0.1845728034939384,1.0001978728624974,7.369659619019207e-05
-0.18263810100615957,-0.18263810100615957,1.000134753666775,7.379342939862973e-05
-0.18065249303472228,-0.18065249303472228,1.0001206495470663,7.370797349709453e-05
-0.17871020069287624,-0.17871020069287624,0.9999635951847408,7.36635465759675e-05
-0.17739656192425174,-0.17739656192425174,0.9999974797750525,7.369141375049506e-05
-0.17550600578833836,-0.17550600578833836,0.9999438107911593,7.36825350851676e-05
-0.17413121009594762,-0.17413121009594762,1.0000312725963973,7.369300364803316e-05
-0.17253737529972568,-0.17253737529972568,1.0000324682824488,7.370479359237927e-05
-0.1711889449885348,-0.1711889449885348,1.0000949299363004,7.391874470713119e-05
-0.16888563781394622,-0.16888563781394622,0.9999662749749687,7.369555122158195e-05
-0.16731091975816526,-0.16731091975816526,0.9999877484776405,7.367381315457668e-05
-0.1655275445256848,-0.1655275445256848,1.0001255826200373,7.367778715402864e-05
-0.16413088213594165,-0.16413088213594165,1.0001216610897088,7.369394517745642e-05
-0.16237988519133068,-0.16237988519133068,0.9999782323504401,7.37075067439873e-05
-0.16096733288432005,-0.16096733288432005,0.9999487275838395,7.371308249138454e-05
-0.1596310690016253,-0.1596310690016253,1.0001073320471576,7.367409750345437e-05
-0.1575166475842707,-0.1575166475842707,0.9999848670950129,7.37046551338214e-05
-0.1559851020370843,-0.1559851020370843,1.0000429487486466,7.367669608288678e-05
-0.15417035758146086,-0.15417035758146086,1.0001460765916046,7.369443595198098e-05
-0.15291950340906624,-0.15291950340906624,1.0000881440415903,7.368712997862026e-05
-0.15153997659799642,-0.15153997659799642,1.0000020274927606,7.372136612868807e-05
-0.15016695517406334,-0.15016695517406334,1.0001796082942818,7.371013140586637e-05
-0.1488935959030641,-0.1488935959030641,1.0000196844934368,7.372866322357927e-05
-0.14659835143538658,-0.14659835143538658,1.0000046836738083,7.370305022926439e-05
-0.1441205446375534,-0.1441205446375534,1.000092396695838,7.369929227994077e-05
-0.1426411873428151,-0.1426411873428151,1.0000123545866368,7.367170447724826e-05
-0.14130463357432746,-0.14130463357432746,1.0000646005345721,7.370709067764447e-05
-0.13989528904785403,-0.13989528904785403,0.9999714383336116,7.371252075374349e-05
-0.13857265047263354,-0.13857265047263354,1.00001177267577,7.371009929205991e-05
-0.1362543638853822,-0.1362543638853822,0.9998932961358182,7.372047244183e-05
-0.13444045668875332,-0.13444045668875332,1.0000152577841208,7.368660731076948e-05
-0.13258743298065384,-0.13258743298065384,1.0001340766801252,7.368574210113554e-05
-0.13132717179541942,-0.13132717179541942,0.999890216355924,7.368896921079687e-05
-0.12945830183743964,-0.12945830183743964,1.0000462530168919,7.369358587708831e-05
-0.1281088052492123,-0.1281088052492123,0.9999630560520949,7.368946203358909e-05
-0.12648193815839476,-0.12648193815839476,1.000071104626144,7.372091045309295e-05
-0.12479296265810262,-0.12479296265810262,0.9999957783932537,7.381384085546264e-05
-0.12250904426909984,-0.12250904426909984,0.9999075281581575,7.370913665518197e-05
-0.12109762509644498,-0.12109762509644498,1.000025540584936,7.367215004533606e-05
-0.1192754048446659,-0.1192754048446659,1.0000682391036784,7.369550991499954e-05
-0.11756322255532722,-0.11756322255532722,1.0000178680622374,7.367543831815152e-05
-0.11570669760985766,-0.11570669760985766,1.0000539074604256,7.372859021783699e-05
-0.11425244100391865,-0.11425244100391865,1.0000773901676374,7.408224538757967e-05
-0.1122140565974405,-0.1122140565974405,1.0000290602507076,7.370482877407079e-05
-0.11034767273522447,-0.11034767273522447,0.999933331923344,7.367879066157599e-05
-0.10829273556882982,-0.10829273556882982,0.999985238029514,7.368948855318622e-05
-0.10679742455831728,-0.10679742455831728,1.000133182552417,7.367459875140531e-05
-0.10542167681851425,-0.10542167681851425,1.0001341311162295,7.369977591116059e-05
-0.10399300844874233,-0.10399300844874233,1.0000483104723163,7.371025720635994e-05
-0.10303096724092028,-0.10303096724092028,1.0000540379101241,7.36799305308754e-05
-0.10090275553811807,-0.10090275553811807,1.0000721420601066,7.37076928619138e-05
-0.09912875923037064,-0.09912875923037064,0.9999889129730384,7.369701038121772e-05
-0.096994539766456,-0.096994539766456,1.0000137994497833,7.368041733354726e-05
-0.09575431361736264,-0.09575431361736264,0.999995158701094,7.368792714687775e-05
-0.09436216025205794,-0.09436216025205794,0.9999352535410247,7.370041790747908e-05
-0.09298823157732841,-0.09298823157732841,0.9998125612745701,7.369909597433845e-05
-0.09127963462960906,-0.09127963462960906,0.9999728425791632,7.37079183466731e-05
