time,time,flux,flux_err
-0.4997986163223686,-0.4997986163223686,1.0000280897866585,0.0002381707665514028
-0.49965614787797674,-0.49965614787797674,0.9998219406395858,0.00026559088712835375
-0.4995472766648163,-0.4995472766648163,0.9993118717577042,0.00023400341263792607
-0.4994538212995394,-0.4994538212995394,1.0002767608665328,0.000229515012504979
-0.4993147643224802,-0.4993147643224802,0.9996339714360113,0.00024454742007652864
-0.4990846651497122,-0.4990846651497122,0.9999162914985507,0.00024016170498035767
-0.49891081719106295,-0.49891081719106295,0.999733520917961,0.0002483410240261058
-0.49874781117541717,-0.49874781117541717,1.0003004890902694,0.00024140721458688454
-0.4986562538200815,-0.4986562538200815,1.000176211379087,0.00024562385744114157
-0.49853007578713004,-0.49853007578713004,1.0002186344589943,0.00023817613353778848
-0.49831599547469524,-0.49831599547469524,1.0002330385393357,0.00024242830456433308
-0.4981590824863815,-0.4981590824863815,0.9997327607849122,0.00023294405726598184
-0.49800533581801576,-0.49800533581801576,1.000054796696991,0.0002464132828937912
-0.49782930072542514,-0.49782930072542514,1.0002049806629545,0.0002457923876609101
-0.4976732548879227,-0.4976732548879227,1.0002441454516275,0.00023197548208475632
-0.49756653433578324,-0.49756653433578324,0.9998811600199641,0.00023996762456768924
-0.4974638118561415,-0.4974638118561415,0.999664236518569,0.000250631657592014
-0.49741109557144225,-0.49741109557144225,0.9999995133749475,0.0002414304408744941
-0.4972665201756172,-0.4972665201756172,0.9999416375559509,0.00024146902443046987
-0.4970998685479572,-0.4970998685479572,0.9999920852462155,0.00024664485441066306
-0.4969621053300216,-0.4969621053300216,0.9999781116233052,0.0002288967316477287
-0.4967821679281769,-0.4967821679281769,0.9998551300079133,0.00024541907765676316
-0.4966036616860947,-0.4966036616860947,1.0002817238655524,0.00023033109200235182
-0.49642109683700253,-0.49642109683700253,0.9999805666750898,0.00022480041251652776
-0.4962863206572365,-0.4962863206572365,0.9998210394518383,0.00024772328949319654
-0.49619673677661924,-0.49619673677661924,1.0001177752597965,0.0002434591875280401
-0.4960684564299299,-0.4960684564299299,0.9997253304723163,0.00024473341980585925
-0.49590735550227694,-0.49590735550227694,1.000062924613087,0.00024265335291088434
-0.49573854065238265,-0.49573854065238265,1.0003305000002332,0.00025226847521602733
-0.49565875520784175,-0.49565875520784175,1.0000253775213035,0.000250799956312321
-0.49556934253196233,-0.49556934253196233,0.9997187606815963,0.00023730651962714612
-0.49538485596785903,-0.49538485596785903,0.9998285165655888,0.0002529862701864751
-0.49522616657995966,-0.49522616657995966,0.9998295427646804,0.00023549018313609812
-0.49510834429529493,-0.49510834429529493,1.0000661466815732,0.0002442703662827667
-0.4949918667371094,-0.4949918667371094,1.000127403214313,0.00024833831492470515
-0.4948392337137193,-0.4948392337137193,1.000313936627128,0.00023137335332239182
-0.49476239304058256,-0.49476239304058256,1.000101608056945,0.0002507736456960812
-0.49459741968021265,-0.49459741968021265,1.0002128621956028,0.00024034123758171982
-0.49450265007690175,-0.49450265007690175,1.000084867408535,0.0002377314363177039
-0.4943335314535943,-0.4943335314535943,0.9999883144520787,0.0002523622710767445
-0.4942390941891063,-0.4942390941891063,1.000334956898604,0.0002452120940944593
-0.4941661489974649,-0.4941661489974649,0.9998691661973546,0.00023036898176594266
-0.4939300325400836,-0.4939300325400836,0.9998764011541491,0.00024486538628213706
-0.4937890794411942,-0.4937890794411942,1.0001446482804544,0.00024445332485273667
-0.4936551157756185,-0.4936551157756185,1.000023739431591,0.00023918468280870138
-0.49350750664743825,-0.49350750664743825,1.0001486491886076,0.00025067732786359997
-0.4934043154105893,-0.4934043154105893,0.9999520035456821,0.00024146520401728452
-0.49327503218373747,-0.49327503218373747,1.0001046060930647,0.0002457937974494679
-0.49313518347771607,-0.49313518347771607,1.0000560261625144,0.00024968733193242627
-0.49298549999148233,-0.49298549999148233,0.9998645981805041,0.0002419303409901531
-0.49277466067287606,-0.49277466067287606,0.999997698120054,0.00023930929579765633
-0.49256320071435766,-0.49256320071435766,0.9999655704403552,0.00023981356401997538
-0.49236358604175623,-0.49236358604175623,0.9999026993672102,0.00024881822491180987
-0.49228047854703616,-0.49228047854703616,1.000174130965603,0.0002520445856259353
-0.4921882137525245,-0.4921882137525245,0.999700647853991,0.00023377092790953318
-0.49198938751724197,-0.49198938751724197,1.0001350606275854,0.00027044493821391265
-0.4917947084722982,-0.4917947084722982,1.000084842691818,0.00025014436915008463
-0.49168079511728136,-0.49168079511728136,0.9999941817720199,0.0002577118452755345
-0.49152520089410245,-0.49152520089410245,1.0004477455148835,0.0002520390828339036
-0.4914247564956895,-0.4914247564956895,0.9999239102853462,0.00023541147778826377
-0.4912557165429462,-0.4912557165429462,0.9999106949817383,0.00024544064493239865
-0.4911256334235077,-0.4911256334235077,1.0000592287949293,0.0002474493519790381
-0.49103780220102633,-0.49103780220102633,0.9998239260387912,0.00022971491385604905
-0.49091315487676185,-0.49091315487676185,0.9998454290017198,0.00023715731408124392
-0.4908251925757213,-0.4908251925757213,1.0000363896938658,0.00024155152323168953
-0.4907347355649108,-0.4907347355649108,1.0000643890442562,0.00022931962372686054
-0.49063535819368553,-0.49063535819368553,0.9998905138583165,0.00024275326077588462
-0.49048004417127233,-0.49048004417127233,1.0002026526614844,0.00023756778220562544
-0.49030294450494694,-0.49030294450494694,0.9997618018115932,0.0002358964326853393
-0.490149347269471,-0.490149347269471,1.000485227614884,0.00023839430315884764
-0.48997338804256285,-0.48997338804256285,1.000061749019506,0.0002399999515520601
-0.48987175601214406,-0.48987175601214406,1.0002349759428681,0.00029197819113011903
-0.48967413481732364,-0.48967413481732364,1.0000237353554813,0.00024117305022543366
-0.4895575915412337,-0.4895575915412337,1.0001701228792665,0.00024511616451651443
-0.4894576053462515,-0.4894576053462515,0.9999994520048382,0.0002478433878517703
-0.48934554442312217,-0.48934554442312217,1.0003336909504057,0.00023543520238689938
-0.48926469927973815,-0.48926469927973815,0.9999554264142215,0.00024175837111007625
-0.48916360894872923,-0.48916360894872923,0.999980661388862,0.00024500031432696945
-0.48904411990224617,-0.48904411990224617,0.9998279157203587,0.00024016525905782524
-0.48887303974624957,-0.48887303974624957,0.9999862897767965,0.0002471411535230578
-0.4887661880784435,-0.4887661880784435,1.0001166079264556,0.00023519352257847046
-0.48861499515114704,-0.48861499515114704,0.9999907269874587,0.0002348219645784653
-0.4884957831731299,-0.4884957831731299,1.0002139942152712,0.00024800092018120696
-0.4883087502385024,-0.4883087502385024,1.0002650002403608,0.0002272740347264901
-0.48804451810283356,-0.48804451810283356,1.0005479248491844,0.0002328254692126347
-0.4878399336412258,-0.4878399336412258,1.0000649932404608,0.00024204595971646223
-0.48762120367609896,-0.48762120367609896,1.0004687445162737,0.00025123095391338737
-0.48748027065230415,-0.48748027065230415,1.0000210060196513,0.0002351430344040614
-0.48728110451484097,-0.48728110451484097,0.9998455907623727,0.00024846841919905216
-0.4871627413194801,-0.4871627413194801,1.000009750372919,0.00024390821412883422
-0.48705620313921827,-0.48705620313921827,1.0000665164766533,0.00023199015309735956
-0.48692487436492227,-0.48692487436492227,1.0001135001730597,0.0002449651101136026
-0.48688724075764184,-0.48688724075764184,0.9997773852627233,0.00023627247818845077
-0.48678231375015457,-0.48678231375015457,1.0000508781415918,0.00025219797689085305
-0.4866858243614843,-0.4866858243614843,1.0001422365701742,0.00024601694739841736
-0.48658618722693064,-0.48658618722693064,0.9999502484913447,0.00023159056916346755
-0.48641543294434086,-0.48641543294434086,1.0004423099626643,0.00023520025986169474
-0.4863150090124691,-0.4863150090124691,0.9998777359429187,0.00022622682033067811
-0.48617730685364224,-0.48617730685364224,0.9999921258874289,0.00023362175290337394
-0.48604243530862734,-0.48604243530862734,0.9999354785687423,0.00023633403191375017
-0.4859779354010243,-0.4859779354010243,1.0000146672519528,0.00025322054305227325
-0.4858705220416596,-0.4858705220416596,1.000012158841972,0.0002346142464397482
-0.48577135434024965,-0.48577135434024965,1.0003153065821966,0.00025644096120747335
-0.485663570700126,-0.485663570700126,1.0005898038818455,0.00023212909735072134
-0.48554853929381353,-0.48554853929381353,0.9997958749372247,0.0002542406029904816
-0.48546846114768416,-0.48546846114768416,0.9998791124902038,0.00023850390886609617
-0.48533926410455025,-0.48533926410455025,0.9998105462425174,0.0002322102597206048
-0.48526930356674713,-0.48526930356674713,1.0001737136681021,0.0002549968612366908
-0.4851329004683066,-0.4851329004683066,1.0000240195388785,0.00023510204520552593
-0.4849449024470232,-0.4849449024470232,1.0001439837492494,0.00024874101421781965
-0.4848118205118226,-0.4848118205118226,0.9998870242932835,0.00023565707056943025
-0.4846727993477543,-0.4846727993477543,1.0001436259753167,0.00023211208185070883
-0.4845636433550681,-0.4845636433550681,1.000087461977956,0.00026107583190905915
-0.4843730525462888,-0.4843730525462888,0.999880063590291,0.00023097743502017857
-0.4841559022454021,-0.4841559022454021,0.9998001179267053,0.00023310353772138917
-0.4840459966864728,-0.4840459966864728,1.0001558610086512,0.00026412365185648145
-0.48393496642675016,-0.48393496642675016,0.9999672167502496,0.00023101882829035911
-0.48384979764668967,-0.48384979764668967,0.9998308780306182,0.0002324829572930996
-0.4836673729500035,-0.4836673729500035,1.000061328506877,0.00023189683849565826
-0.483518242930586,-0.483518242930586,0.9996734826156788,0.0002350959246214859
-0.48331153516264747,-0.48331153516264747,1.0003017525856643,0.00024559659444617154
-0.48318628021297627,-0.48318628021297627,0.9998095611373421,0.0002377537195989463
-0.4830387792251713,-0.4830387792251713,1.0002973412058211,0.00023595715445124256
-0.4828774985864584,-0.4828774985864584,0.9999114192947717,0.0002463109375384641
-0.48277879315573957,-0.48277879315573957,1.0001661420321573,0.00023746273828542476
-0.4827015363589453,-0.4827015363589453,1.0002287071996705,0.00023432711103910184
-0.48259604712802684,-0.48259604712802684,0.9999322370728857,0.00023057166480614048
-0.48245062189671445,-0.48245062189671445,0.9999361258222803,0.000235162833838448
-0.48229968274390556,-0.48229968274390556,1.0004512984205574,0.00023686784047737127
-0.482073148265772,-0.482073148265772,0.9999107616459237,0.0002473300368306228
-0.4819658833650465,-0.4819658833650465,1.0003742572591108,0.00024872425631424617
-0.48182206436104025,-0.48182206436104025,1.0002836238530888,0.00024715841695414605
-0.4817411577547318,-0.4817411577547318,1.0002359388717885,0.00022518034840620212
-0.48159358599805274,-0.48159358599805274,0.9998604496327381,0.000250811538459233
-0.4814589657238685,-0.4814589657238685,1.0003703420112706,0.0002440191071794491
-0.4813458464865107,-0.4813458464865107,0.9997494269093575,0.00023893722600035796
-0.4812583535509475,-0.4812583535509475,1.0002353076838824,0.0002531201654448111
-0.4811322509682213,-0.4811322509682213,1.000245006601657,0.00023762853966001945
-0.4810096149711171,-0.4810096149711171,1.0000232467104229,0.00024581405783911025
-0.4809143482874788,-0.4809143482874788,0.999653628705351,0.00023905073649255928
-0.4807841951827868,-0.4807841951827868,0.9996596843623206,0.0002508372621648935
-0.4806487827030651,-0.4806487827030651,1.000182145432636,0.00025303359246485826
-0.48047784108566705,-0.48047784108566705,1.0003736153152913,0.00022377910810415357
-0.480347280150454,-0.480347280150454,0.9996960645430605,0.00023850736926627923
-0.48014501571742585,-0.48014501571742585,0.9997503635604182,0.00024008019447386571
-0.480058634832676,-0.480058634832676,0.9998171506873005,0.00024989675695844015
-0.47993380223051646,-0.47993380223051646,0.999954751879035,0.0002411576414501827
-0.479710925299878,-0.479710925299878,0.9998044366041114,0.00023412485313412698
-0.47956028525804867,-0.47956028525804867,0.9999906402437364,0.00024957140725747153
-0.47934817627465237,-0.47934817627465237,0.9999909105853562,0.00024008180796968877
-0.47919854271021906,-0.47919854271021906,0.9998680614793536,0.0002421508531474642
-0.47906377405233797,-0.47906377405233797,0.9999930731117912,0.00023659448330749363
-0.4789316817681538,-0.4789316817681538,1.0003241556188585,0.00024548284383609355
-0.4788205950811971,-0.4788205950811971,0.9999331187271343,0.00023410488398341675
-0.478684357979364,-0.478684357979364,0.9999655112041606,0.00023995685408583376
-0.47857088886521526,-0.47857088886521526,0.9996971025705891,0.00024079464887131292
-0.47839172352323656,-0.47839172352323656,0.9997859885275323,0.00024391281857076658
-0.47821228345710554,-0.47821228345710554,1.0002771654867313,0.0002706222295369029
-0.47806676322143177,-0.47806676322143177,1.0002842206722153,0.00023575892784945452
-0.47793847058128447,-0.47793847058128447,0.9999054196779543,0.0002472605909342639
-0.47775076603211347,-0.47775076603211347,1.000271172859705,0.0002547386340289039
-0.47762287271034437,-0.47762287271034437,0.9999405805002513,0.00023798938530266957
-0.4774969908059575,-0.4774969908059575,1.0000696664409747,0.00023733063183691114
-0.47741630777090904,-0.47741630777090904,0.9998578299434616,0.0002434455767794656
-0.47736841141449987,-0.47736841141449987,1.000032179783669,0.00024441736315860765
-0.4772693836464896,-0.4772693836464896,0.9998899872206124,0.0002447229463407868
-0.47708659800046005,-0.47708659800046005,0.9997683404363389,0.00023876528238877992
-0.47691727791825544,-0.47691727791825544,1.0003224867713203,0.00023642584801058234
-0.4768377445594524,-0.4768377445594524,0.9997695899615326,0.00023443924890540163
-0.4767572968965396,-0.4767572968965396,0.9996525300641472,0.0002409498673383938
-0.4765670623877668,-0.4765670623877668,1.000277317797745,0.00023418931455211682
-0.4763962723496661,-0.4763962723496661,1.0004557502536242,0.00023705575505549706
-0.47622368598313186,-0.47622368598313186,1.000223343899562,0.00023000231799529162
-0.4761240266299865,-0.4761240266299865,0.9998509751425576,0.00024782364420318026
-0.4759383946293383,-0.4759383946293383,0.9998353782852124,0.00023720892910008098
-0.47569697347207696,-0.47569697347207696,1.0003147755630128,0.00024249198378190577
-0.475604752968502,-0.475604752968502,1.0001151968992847,0.00026981628030088177
-0.475492402636155,-0.475492402636155,1.0000482653314098,0.00023139019295381188
-0.4753590382002585,-0.4753590382002585,1.000450918516547,0.00024044136055388884
-0.4752395494302618,-0.4752395494302618,1.0002613691582734,0.00024311311882840286
-0.4751324495351582,-0.4751324495351582,1.0000234253313836,0.00023513120665089263
-0.47501250640052606,-0.47501250640052606,0.99990053953683,0.00024089941426389504
-0.47492461476867903,-0.47492461476867903,1.0000117022770234,0.00024227223675326502
-0.4747434608878393,-0.4747434608878393,1.0001607250744668,0.0002479156321780439
-0.47462851416203194,-0.47462851416203194,1.0002033444876228,0.00025337846020357025
-0.4744857139034139,-0.4744857139034139,1.0001070683141848,0.00024058182718651684
-0.4743004493349872,-0.4743004493349872,0.9998630650241104,0.00025014281067630144
-0.4741393948504992,-0.4741393948504992,1.0000205805682365,0.00023579921348929064
-0.47396734712529,-0.47396734712529,1.0000989947918586,0.0002535654150664635
-0.47380486742113137,-0.47380486742113137,0.9998445184198654,0.00023547722547440311
-0.47367519769395583,-0.47367519769395583,1.0000789096344795,0.00024462607054178483
-0.4735476231195207,-0.4735476231195207,1.0000151951339533,0.00023832398373186962
-0.4734497631623526,-0.4734497631623526,0.9998364235980886,0.00024164555154303184
-0.4733918318852375,-0.4733918318852375,0.9999879809213541,0.00024210141523936342
-0.47327900947275336,-0.47327900947275336,0.9999756797561566,0.0002452694989606974
-0.47308980612288,-0.47308980612288,0.9999435020952425,0.0002518187685194166
-0.4729344516876154,-0.4729344516876154,0.9998147768262514,0.00023565186688247704
-0.4728163556639629,-0.4728163556639629,0.9998316527768715,0.00024760736194748517
-0.4725577010671259,-0.4725577010671259,0.9999870632692291,0.00023823276877506363
-0.47233308377908545,-0.47233308377908545,1.000403254298722,0.00023863076171174818
-0.47221206161848384,-0.47221206161848384,0.99999608879438,0.00024396005981205767
-0.47211266518497724,-0.47211266518497724,0.9999030724637491,0.0002405436054411508
-0.4719270333232998,-0.4719270333232998,1.0002676475659174,0.0002444295440404138
-0.4716897244783468,-0.4716897244783468,1.0000464413868162,0.0002507261310257083
-0.4715787553752307,-0.4715787553752307,0.9998764196484992,0.00024166942436755563
-0.4714721528616792,-0.4714721528616792,1.0000267369343097,0.0002466198693167844
-0.4712982554381597,-0.4712982554381597,1.0004335881593884,0.00023410026574596467
-0.47112683141604067,-0.47112683141604067,1.000132535585149,0.00023215914985939145
-0.4710059282777365,-0.4710059282777365,1.0000947116545835,0.0002425887488795775
-0.4707776679446397,-0.4707776679446397,1.000154849513456,0.0002353760160093364
-0.4707053745383746,-0.4707053745383746,0.9998830361715492,0.0002469972518537195
-0.4705745345861942,-0.4705745345861942,1.0002209867868845,0.00023905200501284047
-0.4704182224420947,-0.4704182224420947,0.9999556325254504,0.00022458722095250596
-0.4702361307427054,-0.4702361307427054,0.999880384941131,0.00024601283007039197
-0.47014601131377276,-0.47014601131377276,0.9999019071009425,0.0002385582278613835
-0.4699757754948223,-0.4699757754948223,0.9999001115632951,0.00024699101700168577
-0.4698172795076971,-0.4698172795076971,1.0001679139843023,0.0002514495685422304
-0.4697060934973706,-0.4697060934973706,1.0000889427404793,0.00022109495762856848
-0.46958280981561984,-0.46958280981561984,1.0002218074794886,0.00023989438904536883
-0.4694771832684637,-0.4694771832684637,1.0000629456681884,0.00023847878221154866
-0.46940186934007216,-0.46940186934007216,1.0002760870280882,0.0002405328974705522
-0.4692186522719567,-0.4692186522719567,1.0004871826638042,0.00024842330552429765
-0.4690724545303965,-0.4690724545303965,1.0000690209762495,0.00023859786998104343
-0.468891202667146,-0.468891202667146,1.0001929328865802,0.00023644427358330812
-0.4686745064871502,-0.4686745064871502,1.000176345235116,0.00023233683659166046
-0.4684978702636727,-0.4684978702636727,0.9998120280242848,0.00022287999629173137
-0.46835137312154984,-0.46835137312154984,0.9993344766081792,0.00023742448093881993
-0.4682156717462931,-0.4682156717462931,1.0002307203400065,0.0002518656985897938
-0.4680965888801438,-0.4680965888801438,0.999680954763267,0.0002340619653001481
-0.4679552334084292,-0.4679552334084292,1.000156004003917,0.00025632647111590337
-0.4677846716745989,-0.4677846716745989,1.000117151366681,0.00024943594849094914
-0.46769472857922667,-0.46769472857922667,0.9997633225818163,0.00024658744930249266
-0.4676185931501095,-0.4676185931501095,0.9997944760244024,0.000245742477308247
-0.46746826680246156,-0.46746826680246156,1.00000611140799,0.00024553089993269476
-0.4673529596759181,-0.4673529596759181,0.9998701830708994,0.00024172761023072664
-0.467202288077533,-0.467202288077533,1.0002595513527712,0.00023938172311398584
-0.46709383856577913,-0.46709383856577913,1.0000159757848157,0.00024736559572081116
-0.4669519517861772,-0.4669519517861772,0.9998482799480584,0.0002350861102612109
-0.4668355729205359,-0.4668355729205359,1.0002095580076706,0.00023902102332299204
-0.4667449415916053,-0.4667449415916053,0.9997597545222128,0.0002382118691899172
-0.46660966069757703,-0.46660966069757703,0.9999587961565337,0.00024037714189714177
-0.4665334970530239,-0.4665334970530239,1.0000099400245486,0.00023405307529041297
