time,time,flux,flux_err
-0.49996917394916335,-0.49996917394916335,0.9994878770175669,0.0004328264435314376
-0.49986010879850556,-0.49986010879850556,1.000138908517993,0.00040092879532826624
-0.49971651416344687,-0.49971651416344687,0.999529937849655,0.0003604077849452834
-0.49964882789208787,-0.49964882789208787,1.000480468233986,0.0003837531349077255
-0.4995332148486341,-0.4995332148486341,0.9997285607596087,0.0003609277152975054
-0.4993748805434734,-0.4993748805434734,1.0004011737112193,0.00038073150221092946
-0.49927569160063284,-0.49927569160063284,1.0002898325443657,0.00036692288189604837
-0.4991686532906897,-0.4991686532906897,0.999866712499832,0.00036050883984918347
-0.49907170691003555,-0.49907170691003555,0.9998980945187059,0.0003744208456562514
-0.49893018492803093,-0.49893018492803093,1.0000521181764284,0.0003508110444619488
-0.49879219095164445,-0.49879219095164445,1.0001180402876375,0.00039229366989075007
-0.49870527633247547,-0.49870527633247547,0.9999735594105512,0.0003679021346687818
-0.49861461295804477,-0.49861461295804477,1.0002439119460012,0.0003416924309971607
-0.4985105986277631,-0.4985105986277631,0.9996432117837303,0.0003976962333493749
-0.49841478098896913,-0.49841478098896913,0.9999536277029627,0.0003895925117256356
-0.4983091579772008,-0.4983091579772008,1.0004362799591804,0.000375348537215084
-0.4982111311146582,-0.4982111311146582,1.0003569258992955,0.0003528240350469696
-0.4981379339209525,-0.4981379339209525,0.9997522173085288,0.00035849979987926577
-0.49808014141453893,-0.49808014141453893,0.9997581510794478,0.0003917401016728482
-0.4980012030544458,-0.4980012030544458,0.9999615368532725,0.0003828177627479128
-0.49785551296881747,-0.49785551296881747,1.0003452996882363,0.0003398479774867594
-0.497748691351444,-0.497748691351444,0.9992718007626514,0.0003334079816986887
-0.49767094433191233,-0.49767094433191233,1.0001451962585728,0.00036144017991666667
-0.49756882324509205,-0.49756882324509205,0.9999278250867919,0.0003733977171518011
-0.4974686643887253,-0.4974686643887253,1.0006411085469558,0.00039311607498524034
-0.49741263342802994,-0.49741263342802994,0.9999307752785127,0.00034985854189776677
-0.4972753482594271,-0.4972753482594271,1.000195829284761,0.0003576850276128134
-0.4971798707803828,-0.4971798707803828,1.0000831538464858,0.00037552349753720154
-0.4970503100725182,-0.4970503100725182,0.9998784596423645,0.00040675173598460205
-0.49691616644049647,-0.49691616644049647,0.9998656508123382,0.00033889486385913387
-0.4968108599357947,-0.4968108599357947,0.9995109127231281,0.0004043918586917176
-0.49671159992212777,-0.49671159992212777,0.9999925309440121,0.0003644568655920346
-0.4966100271078176,-0.4966100271078176,1.0004771278016407,0.0003647796159983181
-0.4964679465760128,-0.4964679465760128,1.0004016468791723,0.000374747916837444
-0.4963852446286182,-0.4963852446286182,1.0006087904002423,0.00037018322475557277
-0.49623962270634364,-0.49623962270634364,1.0001259755847656,0.0004269299227204389
-0.4961642007190676,-0.4961642007190676,0.999812358681277,0.0004918915913945719
-0.4960420675750356,-0.4960420675750356,1.000172414215242,0.0003689578214349719
-0.49594084923301124,-0.49594084923301124,1.0002818855628672,0.0003747635766830089
-0.49584736134274865,-0.49584736134274865,1.000245856779016,0.00037324146054999155
-0.4957781016586523,-0.4957781016586523,1.0009479696403423,0.0003709029376099453
-0.49570112053552295,-0.49570112053552295,0.9999808799934982,0.0003878695512200026
-0.49564385996200144,-0.49564385996200144,0.9996220707345609,0.00036762097657292293
-0.49550832411041484,-0.49550832411041484,1.0001501406206756,0.00037198636778024396
-0.4953861019013857,-0.4953861019013857,1.0008427747606639,0.00036564173584413426
-0.4951770292689616,-0.4951770292689616,0.9997332745856152,0.0003522287506871332
-0.4950821939666639,-0.4950821939666639,1.0000426819928863,0.00035931332553534303
-0.4949955408592359,-0.4949955408592359,1.0001119273970385,0.00038686389427532327
-0.49484705467984896,-0.49484705467984896,0.9998517310019859,0.0003869381773577679
-0.4946941556721868,-0.4946941556721868,0.9990541188186903,0.0003526775405882567
-0.49452829177243984,-0.49452829177243984,0.9996974429066083,0.00037462904212975576
-0.49437531855219274,-0.49437531855219274,1.0002615615550348,0.0003699554039757551
-0.4942814739828464,-0.4942814739828464,0.9999616043438249,0.00037040687626047606
-0.49416271084774055,-0.49416271084774055,1.0002524995863848,0.0003751660728682967
-0.494026644655969,-0.494026644655969,0.9995585088653126,0.0003965339502413511
-0.4938674115008325,-0.4938674115008325,0.9998218371949203,0.00035822473243323296
-0.49377307654795005,-0.49377307654795005,1.0004079641707517,0.00038901856342520903
-0.4936702023536782,-0.4936702023536782,0.9994891699023991,0.0003544960321788405
-0.493558605711587,-0.493558605711587,0.9996947773660494,0.0003670264618776464
-0.4934863093185413,-0.4934863093185413,0.9998743814595527,0.000413428549341593
-0.493419123084459,-0.493419123084459,1.000592079217464,0.0003910355762360237
-0.4933769978684722,-0.4933769978684722,1.0004109136456265,0.00033726013931029413
-0.49321122022229247,-0.49321122022229247,0.9994659594671186,0.00034583417054824084
-0.4931139119667932,-0.4931139119667932,1.0000516968329027,0.0003400156809375427
-0.4930314377132163,-0.4930314377132163,1.0000518563051868,0.00037155817107606653
-0.49292140754696445,-0.49292140754696445,0.9999660029638621,0.00037066332671673426
-0.4927967731353419,-0.4927967731353419,0.9998880679714401,0.00038007576979124595
-0.4927133083867375,-0.4927133083867375,0.9999838123322821,0.0003535639241155758
-0.4926276001497172,-0.4926276001497172,1.0000760098792596,0.0003433114070862182
-0.49251309930550635,-0.49251309930550635,0.9994942753035314,0.0003726415601747263
-0.4924402292934246,-0.4924402292934246,0.9999850474633278,0.00038744337543198743
-0.49240383137221216,-0.49240383137221216,1.0003184798608917,0.00037456119015597244
-0.49233794216561366,-0.49233794216561366,0.9996074986412185,0.00034295838674073
-0.49221519516722767,-0.49221519516722767,0.9999787750089061,0.00035334051438017957
-0.4920601193633047,-0.4920601193633047,1.0005171095787904,0.000351336847513095
-0.4919697643403197,-0.4919697643403197,0.9999173056166709,0.0004242948036770353
-0.49185275472482315,-0.49185275472482315,1.0001675171577047,0.0003853408536052235
-0.4917808115693333,-0.4917808115693333,0.9997811119101288,0.00036488376050151597
-0.4916120497327938,-0.4916120497327938,0.9999015302726397,0.0003693472737025708
-0.49141681216933647,-0.49141681216933647,0.999819363856721,0.00037306953834670106
-0.49130502531988895,-0.49130502531988895,0.9997848368631402,0.00040117536887017966
-0.49125150929103256,-0.49125150929103256,1.0003093210623903,0.0003839650458606719
-0.491135064651462,-0.491135064651462,1.0004725590602885,0.0003674827876165212
-0.49093964813728236,-0.49093964813728236,0.9999007296525427,0.0003917001598099403
-0.49086248109888403,-0.49086248109888403,0.99975009068022,0.0003748539349778971
-0.4907996046982589,-0.4907996046982589,1.003459226522366,0.0004778040847424665
-0.4907443754345877,-0.4907443754345877,1.00004407521033,0.0003660695634494261
-0.49059327855284207,-0.49059327855284207,1.0002083653868286,0.00035853601202708214
-0.4904575458655017,-0.4904575458655017,0.9997173745641824,0.0003382014694162793
-0.49035150686540874,-0.49035150686540874,0.99967877352147,0.00035931174215219697
-0.49014206353531337,-0.49014206353531337,1.0007505731445288,0.00038121548053464025
-0.48997772744623946,-0.48997772744623946,1.0005906100184776,0.0003392114752470135
-0.4899302231475303,-0.4899302231475303,1.0003209794408747,0.0003978621346200785
-0.48984739611041733,-0.48984739611041733,1.0001140839706495,0.000335539302531473
-0.4897478398612293,-0.4897478398612293,0.9998649816901672,0.0004048455977320823
-0.4895304702629801,-0.4895304702629801,1.0000476344088263,0.0003491360071451696
-0.4894032904936466,-0.4894032904936466,0.9999853119129906,0.00038506326656624124
-0.4893301682335732,-0.4893301682335732,1.0004190195881348,0.00035734303087662427
-0.48924131874518934,-0.48924131874518934,1.000111009727958,0.00038797252795362504
-0.48908775553063605,-0.48908775553063605,0.9997435965720516,0.0003462051094640809
-0.4889815226837527,-0.4889815226837527,0.9998353584952755,0.0004095319625339219
-0.4888407450191153,-0.4888407450191153,1.00032458873065,0.0003419684500279359
-0.48870065566297854,-0.48870065566297854,0.9999687825348073,0.00037828711165663624
-0.4886081427845056,-0.4886081427845056,1.0000293587221007,0.0003828305345283965
-0.488509616524243,-0.488509616524243,0.9998863296939735,0.0003601505311553499
-0.4883822117262753,-0.4883822117262753,1.0001060252087697,0.00037210210151489905
-0.48825103079070686,-0.48825103079070686,1.0001030603257859,0.00036023379926487467
-0.4881118163961219,-0.4881118163961219,0.9997665638787133,0.0003828113311047373
-0.4880045657861046,-0.4880045657861046,0.9996661053526996,0.0003552140701044216
-0.4879142070269154,-0.4879142070269154,1.0008375013150812,0.00040225906591377186
-0.48782094006892296,-0.48782094006892296,1.0003323937517674,0.00040162602045268466
-0.48770382700895426,-0.48770382700895426,0.9998060248124403,0.00035371025052806696
-0.48762364167923805,-0.48762364167923805,1.0006246069809426,0.0003845737322226051
-0.4875384672726796,-0.4875384672726796,0.9991495555699649,0.00034729695045641564
-0.487459381174267,-0.487459381174267,0.9998127929262883,0.0003707305068933096
-0.48741620782602696,-0.48741620782602696,1.000226107224495,0.0003969209609502782
-0.4873068833621801,-0.4873068833621801,0.9998382557377724,0.0003737404717868228
-0.48713231049187017,-0.48713231049187017,0.9997230684751084,0.00034127136045560187
-0.48698167772163287,-0.48698167772163287,1.0004164634196493,0.000353595528074183
-0.48689711449405876,-0.48689711449405876,1.000036511913453,0.000373118705951836
-0.48681673246173884,-0.48681673246173884,1.0002420621608303,0.00038956361024692363
-0.4866842542171071,-0.4866842542171071,0.9995253355170982,0.00036388595082099625
-0.4864941177984292,-0.4864941177984292,0.9997677264741661,0.00039016521601274305
-0.48638440238137265,-0.48638440238137265,0.9996662294354255,0.0003968575724086044
-0.4862599306834454,-0.4862599306834454,1.0002566025985975,0.00036714921689113596
-0.48615517622019977,-0.48615517622019977,1.0007034876241128,0.00038948953025239226
-0.48603621555012066,-0.48603621555012066,1.0001019503226931,0.0003653399119134468
-0.4859520728772623,-0.4859520728772623,1.000390026061359,0.0003527067252031296
-0.48582988991765885,-0.48582988991765885,1.0006468411399754,0.0003931234250553503
-0.48571834961840066,-0.48571834961840066,1.0000714769121408,0.0003817696877719013
-0.4855582736316137,-0.4855582736316137,1.0002143823661824,0.0003600218749998798
-0.4854627984765102,-0.4854627984765102,1.0005409676937351,0.00036383060713175285
-0.48536562772569597,-0.48536562772569597,0.9994052555767677,0.00036584478514118166
-0.4852551359814242,-0.4852551359814242,1.000333000867681,0.0004055972574364704
-0.48515459416667,-0.48515459416667,0.9996725352464926,0.0003607684776257439
-0.4850834300836141,-0.4850834300836141,0.9997700403249168,0.0003449096347639477
-0.4850182892674638,-0.4850182892674638,1.0120564433934003,0.00040948062670664214
-0.4849023055743601,-0.4849023055743601,1.0004640028782277,0.0003716489165723132
-0.4847734048838902,-0.4847734048838902,0.9998422462565106,0.0003930162633080681
-0.4846049554362253,-0.4846049554362253,0.9997989885379461,0.00034724996594891856
-0.4844659633832634,-0.4844659633832634,0.999784601413823,0.0003630644376687432
-0.4843563669266587,-0.4843563669266587,1.0009891663808075,0.00038964452054354585
-0.4841867558636295,-0.4841867558636295,0.9995030027743649,0.00039756950178905645
-0.4840630995167885,-0.4840630995167885,1.00049515993006,0.0003758363636723379
-0.4838622829018277,-0.4838622829018277,0.9998341509723637,0.00036223357995153244
-0.48368847163656026,-0.48368847163656026,1.000389939117725,0.0003848946184110436
-0.48352720818293166,-0.48352720818293166,0.99977680882568,0.0003679893556557104
-0.4833902178070275,-0.4833902178070275,0.999780441766298,0.00037463673961645914
-0.4832510570980958,-0.4832510570980958,1.0008139043341147,0.0003444433660818553
-0.48316127938524006,-0.48316127938524006,1.0000108354878252,0.00036988374434092754
-0.4830876592037384,-0.4830876592037384,0.999643563396982,0.00036533279393853693
-0.48298197623589656,-0.48298197623589656,1.0002909040173382,0.00033829469910395246
-0.4828763704106677,-0.4828763704106677,0.9997882812687899,0.00037280535076181877
-0.48277721326594475,-0.48277721326594475,1.000334411702979,0.0003991781016290011
-0.48274704217765246,-0.48274704217765246,1.0003393218811678,0.0003681868258798145
-0.4826443662175734,-0.4826443662175734,1.0001714614352177,0.00034668495861372767
-0.482550813506532,-0.482550813506532,1.0000186192197362,0.0003428604202901648
-0.4824362348015711,-0.4824362348015711,0.999746299367791,0.0003835636204960854
-0.48235520503658336,-0.48235520503658336,0.9999958815524433,0.00034499666461590254
-0.48224777367286153,-0.48224777367286153,0.9998448564972879,0.0003820004121656265
-0.4820834910300619,-0.4820834910300619,0.9999785133163887,0.0003634988395116622
-0.4819870598017587,-0.4819870598017587,0.9999111520586317,0.00035562202783931786
-0.48183502254105404,-0.48183502254105404,0.9994679427033739,0.0003953918511615562
-0.48178912445582683,-0.48178912445582683,1.0003400319388303,0.0003801729406818139
-0.48171764456055827,-0.48171764456055827,1.0003136855607928,0.0003622637397534952
-0.4816179179637402,-0.4816179179637402,0.9999696614915905,0.00035320816736333227
-0.481456490050914,-0.481456490050914,0.9996066351680604,0.00036716134526705373
-0.4813550239625329,-0.4813550239625329,0.9999399804341174,0.00034810151580645004
-0.48122813051886626,-0.48122813051886626,0.9999328704403826,0.00038558515511740213
-0.481066079664015,-0.481066079664015,1.0002885508521813,0.00035970563222655376
-0.48082832317522844,-0.48082832317522844,0.9999123328670239,0.00039262024234267706
-0.48065616334497463,-0.48065616334497463,0.9999364625321785,0.0003821875526911698
-0.4806170079325966,-0.4806170079325966,0.9999152406009767,0.0003729040883187
-0.48055483857096987,-0.48055483857096987,0.9994553363538176,0.00038774605950837214
-0.480358791177423,-0.480358791177423,0.9993253017482153,0.0003717446521638922
-0.48023796571433197,-0.48023796571433197,1.0003909873332064,0.0003973868036119101
-0.48018122433350074,-0.48018122433350074,0.9996368222062342,0.0004937756627713198
-0.4800750518392306,-0.4800750518392306,1.000108045221355,0.000358527316607615
-0.47993887177217404,-0.47993887177217404,1.0002347159395435,0.000319459636663572
-0.47982870710184217,-0.47982870710184217,1.00010673335076,0.00037286585014396966
-0.4797217520826962,-0.4797217520826962,1.0001956912142558,0.0003929634294967838
-0.47959582339681217,-0.47959582339681217,0.999927818243273,0.0003428449680411318
-0.47943465284115516,-0.47943465284115516,0.999877017264972,0.0003728117772560091
-0.4793553923656873,-0.4793553923656873,1.0000391709919452,0.00035974452023359736
-0.4792486609789194,-0.4792486609789194,0.9999822149907285,0.0003782858101521389
-0.47915938279984405,-0.47915938279984405,1.0000184531900258,0.00038940459394610106
-0.47899890481276086,-0.47899890481276086,0.9996262642151897,0.0003871023253553079
-0.4788921119616134,-0.4788921119616134,0.999937196353873,0.00033259728309958567
-0.47878705319017173,-0.47878705319017173,1.000286343674405,0.000346563189174593
-0.47869271763483995,-0.47869271763483995,0.9997941550770679,0.00038865210943723246
-0.47860203593882034,-0.47860203593882034,0.9999325989955047,0.00040365501507287003
-0.4784850979180192,-0.4784850979180192,0.9999421498300258,0.0003697081262526114
-0.4783942390109587,-0.4783942390109587,1.0004640593144232,0.0003975974913183063
-0.4782816867380461,-0.4782816867380461,1.0000001919937542,0.0003748258842957511
-0.4781123837397899,-0.4781123837397899,0.9997020145778386,0.0003519944686832886
-0.47798845307042936,-0.47798845307042936,0.9996618011774203,0.0004010515667070393
-0.47791928922524674,-0.47791928922524674,0.9997536646974406,0.0003454747830472601
-0.4778459063956689,-0.4778459063956689,1.0002052285989405,0.00036617089234896965
-0.4777589644312684,-0.4777589644312684,0.9998613602844554,0.00038738680502690867
-0.4776510112191318,-0.4776510112191318,1.000044764239804,0.0003472024991718171
-0.4775137914082734,-0.4775137914082734,0.9993995327941759,0.00038183113837193155
-0.47737767244980206,-0.47737767244980206,1.0001730651767624,0.00035530294589294014
-0.47729689605475867,-0.47729689605475867,1.0006385017172084,0.00036094854129338825
-0.4772130712823127,-0.4772130712823127,0.9999988614615702,0.00037677000026565725
-0.4770564501108311,-0.4770564501108311,1.0000537705159604,0.00037697511589493817
-0.476927709444135,-0.476927709444135,1.000662650692818,0.0003448842347927018
-0.47683447959498154,-0.47683447959498154,1.0000899914697474,0.0003711996175654794
-0.47677719347484526,-0.47677719347484526,0.9996094352533931,0.00039066620703635075
-0.4766736716650485,-0.4766736716650485,1.0001823888830554,0.0003804563338327869
-0.4765048201326863,-0.4765048201326863,0.9995131607665078,0.00036285718902239535
-0.47638348499167477,-0.47638348499167477,1.000275160990984,0.0003654473027688146
-0.47627892776436054,-0.47627892776436054,1.0000470620530912,0.000382330841642097
-0.47617468355529124,-0.47617468355529124,0.9996903280801908,0.0003944411048565459
-0.47600266512381495,-0.47600266512381495,0.99998348609011,0.0003650959456291903
-0.4758060297463089,-0.4758060297463089,1.0005170529973237,0.0004081323122601993
-0.47568710271589226,-0.47568710271589226,1.0001154775487182,0.000378001018886296
-0.4755924335142481,-0.4755924335142481,1.0002431921232229,0.00037215840032515506
-0.47546536207446477,-0.47546536207446477,0.9994264193115361,0.0003941581268344134
-0.47534989225896424,-0.47534989225896424,0.9999644664746136,0.0003457312809263202
-0.47528333227091935,-0.47528333227091935,1.0005288992485448,0.00034961456723241115
-0.47515718921495137,-0.47515718921495137,1.000144880202499,0.00039189358974811605
-0.47508294666477013,-0.47508294666477013,1.001668319997144,0.00036691072617037646
-0.47495231583088754,-0.47495231583088754,1.0000513191588387,0.0003477516810086619
-0.4747885829739971,-0.4747885829739971,1.0001557357664932,0.0003550710330057928
-0.4746746991389955,-0.4746746991389955,1.0001291475420662,0.00039871304058096716
-0.4745557201793417,-0.4745557201793417,1.0002486394777053,0.0003480524323619668
-0.4744570902606938,-0.4744570902606938,1.000077149436322,0.00035731382907791293
-0.47442614683095596,-0.47442614683095596,0.9998313137665852,0.00037641378184053375
-0.4743624001421267,-0.4743624001421267,1.0001251367959472,0.0003808389837839044
-0.47429323594624295,-0.47429323594624295,1.0000697866037356,0.0003947722384348061
-0.47419814559034423,-0.47419814559034423,0.9999652852066486,0.0003259796893374404
-0.47410680632674485,-0.47410680632674485,1.000153769502348,0.0003783218117996455
-0.4738979058834957,-0.4738979058834957,0.9996161717852873,0.0003468519552713008
-0.4737580477776646,-0.4737580477776646,1.0000200126725025,0.00038634018277218697
-0.47363960866132404,-0.47363960866132404,1.000633496691071,0.00037566115851254186
-0.47353666666094796,-0.47353666666094796,1.000340934141089,0.00037775421350646934
-0.47340181484323696,-0.47340181484323696,0.9998166540357148,0.00038923634648171094
-0.473188003335963,-0.473188003335963,0.9999669758004226,0.00035277289054154974
-0.47304089481331174,-0.47304089481331174,1.000522011579239,0.0004026549524573382
-0.4728814912676171,-0.4728814912676171,1.0004693483171607,0.00035744163716640694
-0.4727764065333758,-0.4727764065333758,1.0005981768320544,0.00036717509177852057
-0.472583132195723,-0.472583132195723,0.999981178009727,0.0003667987295398388
-0.4724661176878726,-0.4724661176878726,0.9998547269906469,0.00038433528423009874
