time,time,flux,flux_err
-0.49987526770079665,-0.49987526770079665,0.99999202616399,6.636262875075217e-05
-0.4997491277487522,-0.4997491277487522,0.9999803964928873,6.55201187991287e-05
-0.4995799087409978,-0.4995799087409978,1.0001010202116938,6.745375791744719e-05
-0.4994214282081278,-0.4994214282081278,0.9999968201170568,6.691955161260688e-05
-0.49933757261314893,-0.49933757261314893,1.0000893525765595,6.124125256263436e-05
-0.4991917152729002,-0.4991917152729002,0.9999791929126328,6.048648297109628e-05
-0.4991071154705423,-0.4991071154705423,1.0000715873482342,6.000610557060286e-05
-0.4990208539573359,-0.4990208539573359,0.9998661571698694,6.14643863556276e-05
-0.49893375260871836,-0.49893375260871836,0.9999586780774227,6.17948953494945e-05
-0.4987485623518296,-0.4987485623518296,1.000000182096748,6.0143064528539274e-05
-0.49861573805392256,-0.49861573805392256,1.0001025281177334,5.969440885091148e-05
-0.4985125558800064,-0.4985125558800064,1.0000857821086675,6.116309149934826e-05
-0.49836399466585135,-0.49836399466585135,0.9999164302366612,6.212152054287055e-05
-0.49823330914150576,-0.49823330914150576,0.999924041400116,6.129054029653428e-05
-0.4981121099801385,-0.4981121099801385,1.0000154874226748,6.017513299846657e-05
-0.49796775535214693,-0.49796775535214693,0.9999855740458459,6.025626215276689e-05
-0.4978674545025569,-0.4978674545025569,1.000029471276601,6.166390442617558e-05
-0.4977067998974235,-0.4977067998974235,0.9999123139210161,6.167057791644755e-05
-0.4975768864460406,-0.4975768864460406,1.0000997910040161,6.22145795548422e-05
-0.4973760948814743,-0.4973760948814743,0.9999687192977994,6.169150632483972e-05
-0.4971468276009546,-0.4971468276009546,0.9999733078021418,6.0708539135453196e-05
-0.49703668542715607,-0.49703668542715607,1.0000223953776899,6.165527700295241e-05
-0.4969292583708011,-0.4969292583708011,1.0000003093892236,6.131675710343713e-05
-0.4967125678995217,-0.4967125678995217,1.0000143392554321,6.045514697582276e-05
-0.49658213799557416,-0.49658213799557416,1.0001405098965248,6.207698794402209e-05
-0.49639996206969955,-0.49639996206969955,0.9999608525601758,6.330110779875077e-05
-0.49625666689535136,-0.49625666689535136,1.0000501260807364,6.012231222622693e-05
-0.49609265160688665,-0.49609265160688665,1.0000292180848755,5.976315210377668e-05
-0.495967848780856,-0.495967848780856,1.0000347354477808,6.206876594782958e-05
-0.4958427405865223,-0.4958427405865223,1.0000394642958397,6.001956330465044e-05
-0.49568521861656334,-0.49568521861656334,0.999981220183604,6.108363595042708e-05
-0.4955383239866933,-0.4955383239866933,1.0000748029307434,5.9684802859417125e-05
-0.4953674995857,-0.4953674995857,1.0000143253512674,5.982312025311148e-05
-0.4952437253894459,-0.4952437253894459,1.0000303260545773,5.947771681875754e-05
-0.49512936813844133,-0.49512936813844133,1.0000695717429913,6.218194674694527e-05
-0.4950591392116621,-0.4950591392116621,1.0000408848800044,6.188268519791643e-05
-0.49492758185078856,-0.49492758185078856,1.0000287333102595,5.939706520563564e-05
-0.494810985809454,-0.494810985809454,0.9999794347673852,6.057993512846176e-05
-0.4947021347637929,-0.4947021347637929,1.0000300007753222,5.965651245246271e-05
-0.4945328698398953,-0.4945328698398953,1.000036309091797,6.315805646476091e-05
-0.4944210218076478,-0.4944210218076478,1.0000248349685568,5.9596259722241825e-05
-0.49437212266784625,-0.49437212266784625,1.0000000938143665,5.97059643899319e-05
-0.49428458494148797,-0.49428458494148797,1.0000984349776667,5.9913198703075695e-05
-0.494154048456403,-0.494154048456403,1.0000586605807995,6.20638513976023e-05
-0.4939759044566017,-0.4939759044566017,1.0000364694040145,6.143132074510123e-05
-0.4939033442693471,-0.4939033442693471,1.000144032045982,6.168605586300981e-05
-0.4938016231710208,-0.4938016231710208,1.0000471438280774,5.933321898649711e-05
-0.4936641751519346,-0.4936641751519346,0.999951407666593,6.15894185931335e-05
-0.4935529992850206,-0.4935529992850206,0.9999999070828606,5.995604910334208e-05
-0.4934046920272522,-0.4934046920272522,1.0000055775355605,6.18058772332508e-05
-0.4933007029001601,-0.4933007029001601,0.9999747701553134,5.989399966994122e-05
-0.4932658232290123,-0.4932658232290123,0.9999737330333984,6.153744245405316e-05
-0.4932073210249655,-0.4932073210249655,1.0001027233165605,6.012671482039984e-05
-0.4930639284364588,-0.4930639284364588,0.9998886265948881,6.002290317676395e-05
-0.4929626395023661,-0.4929626395023661,0.9999436485978844,6.00031467990364e-05
-0.4928279300816939,-0.4928279300816939,1.0000238783981943,5.978572039286509e-05
-0.492742986077792,-0.492742986077792,1.000034118313114,6.168120824986444e-05
-0.49258847780802173,-0.49258847780802173,0.9999964327679368,6.0050878199893634e-05
-0.4924923660160857,-0.4924923660160857,1.000063894566889,5.968319672485052e-05
-0.4924032381750294,-0.4924032381750294,1.0000256546528312,6.035897329476751e-05
-0.4923258034919854,-0.4923258034919854,0.9999681841973856,5.9770092793337486e-05
-0.49213687520968963,-0.49213687520968963,1.0001434411049386,6.187313212116229e-05
-0.49205549202597465,-0.49205549202597465,1.0000252159942018,6.046777233989904e-05
-0.49194907864366544,-0.49194907864366544,0.9999186070186891,6.15556724202176e-05
-0.49183266571053535,-0.49183266571053535,1.00014401954981,5.954599124439855e-05
-0.49163214617510675,-0.49163214617510675,0.999969951907471,6.031227729996995e-05
-0.4914740498919855,-0.4914740498919855,1.0000811262774125,6.006152763773471e-05
-0.4913322394793795,-0.4913322394793795,0.9999586408600131,6.383858733198393e-05
-0.49124665781346266,-0.49124665781346266,1.0000515280236166,6.006108537544418e-05
-0.49111583077610704,-0.49111583077610704,0.9999589644881816,6.180338544985964e-05
-0.4909709481173195,-0.4909709481173195,1.000023728085666,6.26929864717562e-05
-0.49077431270488886,-0.49077431270488886,1.000040673983503,6.0252867398905474e-05
-0.4905873672556481,-0.4905873672556481,1.0000652908737568,6.173865113367309e-05
-0.4904265813092934,-0.4904265813092934,0.9999680035343157,5.968625626536098e-05
-0.49026933320928945,-0.49026933320928945,1.0001416620445052,6.189463940985826e-05
-0.49016959020518697,-0.49016959020518697,1.000065099467109,6.00780646495863e-05
-0.49008856313521393,-0.49008856313521393,0.9998854749671467,6.0349037147207525e-05
-0.48992459114379017,-0.48992459114379017,0.9999332863810375,6.223187592971893e-05
-0.4897353190230206,-0.4897353190230206,0.9999371763344733,6.013540928625201e-05
-0.4896568890151684,-0.4896568890151684,1.0000607066595606,6.19411962370261e-05
-0.4895467033391469,-0.4895467033391469,0.9999818863137309,6.118805337638655e-05
-0.48942504608930903,-0.48942504608930903,1.0000275385582627,5.985032582304248e-05
-0.489292041612498,-0.489292041612498,1.0000433699663238,6.0754706452009265e-05
-0.48919139111749244,-0.48919139111749244,1.0001161704901764,6.0466063300953035e-05
-0.48907432012056234,-0.48907432012056234,0.9999831654932535,6.0385169507595404e-05
-0.48899701970804016,-0.48899701970804016,1.0001144589829007,6.091050781857157e-05
-0.4888912456204707,-0.4888912456204707,0.9999996138400338,6.142799044481974e-05
-0.48874139836916586,-0.48874139836916586,1.000102484633775,6.301889067015243e-05
-0.4886372637534805,-0.4886372637534805,1.0000437796670323,6.0232044963206066e-05
-0.48852523995083175,-0.48852523995083175,1.0000083676536238,5.9835682329479734e-05
-0.488466745770711,-0.488466745770711,0.9999904848287462,6.211210109086031e-05
-0.4883345449132321,-0.4883345449132321,0.9998932847605981,6.129252332355571e-05
-0.48822725462232486,-0.48822725462232486,1.0000974073688922,6.0183202628761687e-05
-0.4881407211207261,-0.4881407211207261,1.0000187783317906,5.9439840735203066e-05
-0.48805297310318563,-0.48805297310318563,1.0000294136338646,6.164211290086638e-05
-0.4879118087148527,-0.4879118087148527,1.000207099374951,6.000556137704978e-05
-0.48773060078237906,-0.48773060078237906,0.9999754033241744,6.113771647221437e-05
-0.4876214424308273,-0.4876214424308273,1.000026158746584,6.151106079809194e-05
-0.4875067431683419,-0.4875067431683419,1.0001241826953504,6.035870066062542e-05
-0.4873658091702964,-0.4873658091702964,0.9999591387874525,6.043210933323697e-05
-0.4872507966530975,-0.4872507966530975,0.9999992989203965,6.0365313220064064e-05
-0.4871745377116895,-0.4871745377116895,1.000053899727629,6.190327115381914e-05
-0.4870797016003053,-0.4870797016003053,0.9999497264663733,6.311049561667977e-05
-0.4869389530205808,-0.4869389530205808,0.9999353496166125,6.055151783103297e-05
-0.4867639524170954,-0.4867639524170954,0.9998949012262146,5.9261512299214444e-05
-0.4865608313797566,-0.4865608313797566,0.99995887772576,6.0242509023054966e-05
-0.4864493715489516,-0.4864493715489516,1.0000555253037733,6.163098742265692e-05
-0.48633632091950857,-0.48633632091950857,1.0000195901036943,5.987436737065843e-05
-0.4861470082869346,-0.4861470082869346,1.0001121017075014,6.203311210466907e-05
-0.48596963200179744,-0.48596963200179744,1.0001523221552155,5.985403593694115e-05
-0.48581476049730554,-0.48581476049730554,0.9999882404766932,6.054267820495715e-05
-0.4856541527311492,-0.4856541527311492,1.000151779347673,6.305407506353393e-05
-0.48556186001515017,-0.48556186001515017,1.0000412637705993,5.950923232970497e-05
-0.48546991983166665,-0.48546991983166665,1.000002736962018,6.146637773269154e-05
-0.48539437157305654,-0.48539437157305654,1.000044363134156,6.004637899667215e-05
-0.48533263657518544,-0.48533263657518544,0.9999422954871375,6.153236210060951e-05
-0.48519000774031157,-0.48519000774031157,1.0000758582182794,6.218377303138311e-05
-0.4850644620782987,-0.4850644620782987,1.00000432521853,5.990363206925228e-05
-0.4849128854453738,-0.4849128854453738,1.0000210827235108,6.125323383087352e-05
-0.4847305437004252,-0.4847305437004252,1.000118246756254,6.21942258370153e-05
-0.48460246924078093,-0.48460246924078093,1.0000250082190383,6.149089936477967e-05
-0.48448296174028654,-0.48448296174028654,1.0000540885140343,5.985425328180351e-05
-0.4843776549656468,-0.4843776549656468,1.0001122760945396,6.170074908307509e-05
-0.4843330193085421,-0.4843330193085421,1.0000177086339892,6.226589794706242e-05
-0.4841975855153578,-0.4841975855153578,0.9998997670226071,5.952149963278542e-05
-0.4840352254730533,-0.4840352254730533,0.9999928905420237,6.142269741798028e-05
-0.4838941972062457,-0.4838941972062457,0.9999345388293488,6.170986492208316e-05
-0.4838198498699057,-0.4838198498699057,1.000076062925175,6.143692131491773e-05
-0.48370423442320315,-0.48370423442320315,1.0001154193583452,6.082128175445777e-05
-0.48354376710994984,-0.48354376710994984,1.0000224089393934,6.0627333798386576e-05
-0.48337348343775377,-0.48337348343775377,1.0000122659685509,6.010497784087568e-05
-0.4832672451186227,-0.4832672451186227,0.9999591874324825,6.308127425014268e-05
-0.4831542616317165,-0.4831542616317165,0.9999159236645285,6.062418590488932e-05
-0.4830079672166903,-0.4830079672166903,1.0000369240317624,6.125929955222582e-05
-0.4829050855601963,-0.4829050855601963,0.99989401194635,6.153387456183617e-05
-0.48275983111234383,-0.48275983111234383,1.0000176163993593,6.012976625030459e-05
-0.4826825014773931,-0.4826825014773931,0.9999783738801238,6.012869456442173e-05
-0.48261740800808184,-0.48261740800808184,0.9998432631821876,6.111850409328717e-05
-0.48254326284659327,-0.48254326284659327,1.0000157597405728,6.173445870243399e-05
-0.48242495380618494,-0.48242495380618494,0.9998838602192814,5.985191402531555e-05
-0.48223956894362346,-0.48223956894362346,0.9999194731655994,6.013097117923658e-05
-0.48218032016811774,-0.48218032016811774,1.000068977514089,5.983345512143369e-05
-0.48207381348038325,-0.48207381348038325,1.0000803756974495,6.168922759638129e-05
-0.4819436524616322,-0.4819436524616322,1.0000521179722075,6.175553551948703e-05
-0.4818241631357523,-0.4818241631357523,0.9999824139009231,6.173579920322914e-05
-0.481757041484525,-0.481757041484525,1.0000584075021164,5.9712857936721225e-05
-0.48159764776355585,-0.48159764776355585,0.9999686744298497,5.951047605663432e-05
-0.48148077301957526,-0.48148077301957526,0.9999889309355385,6.0610242679964995e-05
-0.4813357338658534,-0.4813357338658534,0.9999728954214759,6.275163550970719e-05
-0.48119325009465685,-0.48119325009465685,1.0001118374235594,6.062240571939306e-05
-0.4810511418101669,-0.4810511418101669,1.0000892546793896,6.197202846477208e-05
-0.4807999061682494,-0.4807999061682494,0.99995636049704,6.147331758743721e-05
-0.48065846513054566,-0.48065846513054566,0.9999309231052381,6.245529572891947e-05
-0.4805481969851826,-0.4805481969851826,1.0001614974041164,6.119667344775576e-05
-0.4803260880842572,-0.4803260880842572,0.9999455287382759,6.0633751655542774e-05
-0.4801769948899164,-0.4801769948899164,0.9999339945722427,6.208606273351518e-05
-0.4799452654151537,-0.4799452654151537,0.9999931503782721,6.351763740759205e-05
-0.4797966545032978,-0.4797966545032978,1.0002015604188914,6.0213154812066725e-05
-0.4796140632148308,-0.4796140632148308,1.0001727857197098,5.9846379142915206e-05
-0.4795251877898409,-0.4795251877898409,1.0001586017106419,6.179466488247838e-05
-0.479415965397493,-0.479415965397493,1.0000741076529405,6.002012840458854e-05
-0.47924502806927194,-0.47924502806927194,0.9998489977162046,6.11024825934756e-05
-0.47906819159834413,-0.47906819159834413,1.0000837598766672,6.217577281344004e-05
-0.4789336842513876,-0.4789336842513876,1.000091546746454,5.988899146421962e-05
-0.47879186950522123,-0.47879186950522123,1.0000165903924274,6.166844726409758e-05
-0.47866568580429886,-0.47866568580429886,1.000013235827829,6.229862090485392e-05
-0.47859430812168285,-0.47859430812168285,1.0000247200273997,5.991451930524845e-05
-0.4784290946445253,-0.4784290946445253,0.9999713029282444,5.9997655883644056e-05
-0.4783100881468272,-0.4783100881468272,1.000018675334222,6.14960275450197e-05
-0.4781353744998341,-0.4781353744998341,1.0000861032433157,6.18630968995002e-05
-0.47802735718432815,-0.47802735718432815,1.0000074546347988,6.163046230621911e-05
-0.4779532249478507,-0.4779532249478507,0.9999386704359227,6.060194547049967e-05
-0.477908087320975,-0.477908087320975,0.9999814670009208,5.9718210619024804e-05
-0.4778218895669852,-0.4778218895669852,1.0000005085946255,6.105570545145175e-05
-0.4776442539630807,-0.4776442539630807,1.0001131816056088,6.042572752004432e-05
-0.47751383202339637,-0.47751383202339637,1.0000624894408512,6.135896799128015e-05
-0.47743820701361983,-0.47743820701361983,0.9999991405593021,5.989299732314926e-05
-0.47733001978776884,-0.47733001978776884,1.0001021249109416,6.293519057180562e-05
-0.47719609563064297,-0.47719609563064297,1.0000324463930412,6.1635679055768e-05
-0.4770699102577055,-0.4770699102577055,1.0000222624037338,5.991306597062778e-05
-0.47694254294838173,-0.47694254294838173,1.0000939022497555,6.200420442350099e-05
-0.4768510385067202,-0.4768510385067202,0.9998547890831766,6.137041671318809e-05
-0.4767876394522318,-0.4767876394522318,1.0000426344768383,6.024948117296932e-05
-0.47670343593490544,-0.47670343593490544,1.0000231596277052,6.0006966537737644e-05
-0.47655938409807275,-0.47655938409807275,1.0000443492373976,6.021197885540693e-05
-0.4764646746683866,-0.4764646746683866,1.000063092450065,5.9361977150334276e-05
-0.4763934139496996,-0.4763934139496996,1.0000647917019974,5.997344950818888e-05
-0.4762848981721618,-0.4762848981721618,0.9999568313865339,6.121647113846847e-05
-0.4761421833558416,-0.4761421833558416,1.000001881441063,6.018425724594416e-05
-0.47601922743924663,-0.47601922743924663,0.9999464880350514,5.986762052062813e-05
-0.4759439808614843,-0.4759439808614843,1.0000315920155312,6.0037592489498166e-05
-0.4758058283267019,-0.4758058283267019,1.000024079746876,5.993118717561839e-05
-0.47566068665910277,-0.47566068665910277,1.000055581452559,6.21201136769912e-05
-0.4755657270536176,-0.4755657270536176,0.9999221438387359,6.033141531763055e-05
-0.47549671746528477,-0.47549671746528477,1.0000705168137267,6.281809440357593e-05
-0.47537532296555585,-0.47537532296555585,0.9999640072647201,6.0111219275835764e-05
-0.4751593105618667,-0.4751593105618667,1.0001673561901434,6.0493980356181094e-05
-0.4749958243293804,-0.4749958243293804,0.9999501769666397,6.140025229094047e-05
-0.4748868989474431,-0.4748868989474431,0.999975518258022,6.375091656159147e-05
-0.47480852235312343,-0.47480852235312343,1.000013118048447,5.983101645909562e-05
-0.4746817336374079,-0.4746817336374079,1.0000439734468054,6.182275493274328e-05
-0.4745139321719762,-0.4745139321719762,1.0000201771307384,6.078230666731612e-05
-0.47429558093572266,-0.47429558093572266,0.9999971221757477,6.175359512098245e-05
-0.4741534072549257,-0.4741534072549257,1.0000518866532113,5.9849028196953143e-05
-0.4739565683186811,-0.4739565683186811,1.000037611134994,6.226701046770758e-05
-0.4738010653592937,-0.4738010653592937,1.0000840994122386,5.9949325133845396e-05
-0.47371206756870377,-0.47371206756870377,1.000060536390593,5.969608505857198e-05
-0.4736267441920063,-0.4736267441920063,1.0000199387109352,6.180964677510537e-05
-0.4734243296086788,-0.4734243296086788,0.9999662625109522,5.996765252911158e-05
-0.4732675077553722,-0.4732675077553722,1.0000608364572825,6.0333397444444976e-05
-0.47315707911038773,-0.47315707911038773,0.9999985013821755,6.108612213135374e-05
-0.4730671090153919,-0.4730671090153919,1.0000469217428338,6.118372423766786e-05
-0.4728956365448539,-0.4728956365448539,1.00004389133793,6.0624661440472104e-05
-0.47277263179421425,-0.47277263179421425,1.00002846021926,6.075947444074666e-05
-0.47266503613864186,-0.47266503613864186,0.9999742845081059,6.0328972799742015e-05
-0.4725813585231663,-0.4725813585231663,1.000034829606724,6.090696840522965e-05
-0.4724718403173028,-0.4724718403173028,0.9999568020215179,6.137459217808829e-05
-0.47232358679102615,-0.47232358679102615,1.0001021270529753,5.956848681074442e-05
-0.4722421184742416,-0.4722421184742416,1.0000323261903976,6.289050858745672e-05
-0.47211281859781595,-0.47211281859781595,0.9999788704781396,5.998738156616472e-05
-0.4720388868976443,-0.4720388868976443,0.9999804437101686,6.012063698504263e-05
-0.47188304900482764,-0.47188304900482764,1.0001277176990468,6.181286016484915e-05
-0.47176018105747064,-0.47176018105747064,1.0000356352336326,6.0092957236821004e-05
-0.4716399504468427,-0.4716399504468427,0.9999043923408408,5.991281425726963e-05
-0.47152425702661277,-0.47152425702661277,1.0000911406488486,5.9747488962450284e-05
-0.47135445569365403,-0.47135445569365403,0.9999102276945641,6.12810596689419e-05
-0.4711849248407816,-0.4711849248407816,1.0000950615778126,6.193539251531995e-05
-0.47108929964524576,-0.47108929964524576,1.0000065273123118,5.992562206045594e-05
-0.47099678619997576,-0.47099678619997576,0.9999598463594982,5.9716616031145626e-05
-0.4708754323095491,-0.4708754323095491,1.0000757264974685,6.0616922495300896e-05
-0.4707366392300173,-0.4707366392300173,0.9999446398750305,5.995764720923861e-05
-0.47062434791296254,-0.47062434791296254,0.9999550163606672,6.119993332985387e-05
-0.4704663421100122,-0.4704663421100122,1.0001134695355083,6.0289828033519096e-05
-0.470288176646136,-0.470288176646136,1.0000708781663712,5.9410720852948454e-05
-0.4701345072448021,-0.4701345072448021,1.000095390712398,6.042223160703243e-05
-0.4699745444508153,-0.4699745444508153,0.9999730639755999,6.209025477108799e-05
-0.46986889371473806,-0.46986889371473806,0.9998941999278255,5.992048811725555e-05
-0.4697379047211143,-0.4697379047211143,0.9999958635014984,6.197633122542302e-05
-0.4696213169627299,-0.4696213169627299,0.9999757106306459,6.001023922584744e-05
-0.4694197249773424,-0.4694197249773424,1.0000420105454728,6.134115758884144e-05
-0.4693129232742649,-0.4693129232742649,1.000003338229306,6.0286928073966905e-05
-0.4692076206745696,-0.4692076206745696,1.0000774728350594,6.109157720793787e-05
-0.4691267681169847,-0.4691267681169847,1.0000131726030514,5.975472260212756e-05
-0.4690222765035287,-0.4690222765035287,1.0000260723880798,6.177621449817648e-05
