time,time,flux,flux_err
-0.4998171679738637,-0.4998171679738637,0.9999312338575824,0.00021788538087961774
-0.4995760004421754,-0.4995760004421754,1.0000829119998829,0.0002235983783038163
-0.49938405558047333,-0.49938405558047333,0.9999258305052529,0.00022819956631274437
-0.4991456656331138,-0.4991456656331138,1.0000367163874846,0.00020271839901282265
-0.49890253939520335,-0.49890253939520335,0.999762459294565,0.00019856022534993278
-0.49866280752321474,-0.49866280752321474,1.0000681765206205,0.00021111067325406806
-0.4983839222259121,-0.4983839222259121,0.9999000204822167,0.00020554607315651603
-0.4980963849651744,-0.4980963849651744,0.9996806116220676,0.0001946293605818217
-0.497879807746358,-0.497879807746358,1.000215721157812,0.00019323251253530076
-0.4977572482639516,-0.4977572482639516,0.9998733771973836,0.0001984915076848498
-0.4975162726834242,-0.4975162726834242,1.0002008377054434,0.00019627208657699708
-0.49741044024704023,-0.49741044024704023,1.000066025738498,0.00020384292810995218
-0.4973295275856799,-0.4973295275856799,0.9999066024749075,0.00019553484180849013
-0.49716917417972584,-0.49716917417972584,1.0001705626685706,0.00019366682452424003
-0.49686641817170313,-0.49686641817170313,1.000246122242856,0.000201903415885206
-0.49666548674649674,-0.49666548674649674,1.0005636353627643,0.0002021074058397825
-0.49646951903559966,-0.49646951903559966,0.9996853924317746,0.0001985457399181368
-0.49630566290579736,-0.49630566290579736,0.9999250772524297,0.00019810397630703656
-0.4961528348692809,-0.4961528348692809,0.9999357540143882,0.0002031200581363014
-0.4959280299452075,-0.4959280299452075,1.0001343992634613,0.00020093105356966653
-0.49570156928893994,-0.49570156928893994,0.999661652532635,0.00020616118827961554
-0.4954397844347113,-0.4954397844347113,0.9999991966841464,0.00020538287207670273
-0.4951134486938827,-0.4951134486938827,1.0000668047594408,0.00020052076186601354
-0.49496714668421193,-0.49496714668421193,0.9998744964822741,0.00020855527049156068
-0.49485966111096785,-0.49485966111096785,1.000240803270899,0.00019873566536603935
-0.49466353271200203,-0.49466353271200203,1.0000211029906025,0.0001966291561415285
-0.49452007350264465,-0.49452007350264465,1.0000067932605354,0.00019760999012319587
-0.4943950882799982,-0.4943950882799982,1.0000175027914764,0.00020469989157969573
-0.4941957348892174,-0.4941957348892174,0.9998620467507189,0.00020014982482359248
-0.4940340322238626,-0.4940340322238626,1.000093435450691,0.00020132590682988197
-0.49374926156378934,-0.49374926156378934,0.9999559430448492,0.00020884273069867164
-0.49356434373767116,-0.49356434373767116,0.999852890762563,0.00020231194886878963
-0.4933811540409806,-0.4933811540409806,1.0000541695841403,0.00020130960409609123
-0.4932008715921256,-0.4932008715921256,0.999603532984555,0.00019878369547322462
-0.49298650740311134,-0.49298650740311134,1.0001709062123625,0.0001939818464973215
-0.49279077678511385,-0.49279077678511385,1.0001824917199469,0.00020519058657888128
-0.4926039562720689,-0.4926039562720689,0.9999651346258842,0.00021051189738838268
-0.49239474009955303,-0.49239474009955303,0.9997914054562903,0.00020103420444700723
-0.49218254524457733,-0.49218254524457733,1.0000260132430225,0.000199414745472357
-0.4920234374214488,-0.4920234374214488,1.0000855558444326,0.0001990730167579371
-0.4919095857323555,-0.4919095857323555,1.0002752146658842,0.00020068469723218108
-0.49171743532060647,-0.49171743532060647,1.000262500088136,0.00019958448360819143
-0.49154870277197915,-0.49154870277197915,1.0001917074897446,0.0001976095173772729
-0.49144865118578307,-0.49144865118578307,0.9996267853476078,0.00020221905047429373
-0.49132325334867344,-0.49132325334867344,1.000102281535306,0.00019588082742543264
-0.49113718662847533,-0.49113718662847533,1.0001303479910142,0.0001982883709607332
-0.49089753410808046,-0.49089753410808046,1.000373151518924,0.000200709825922825
-0.49066830673109507,-0.49066830673109507,0.9999780797865224,0.00020587887827751535
-0.49052853435641736,-0.49052853435641736,0.9999037183836247,0.00019358541051734817
-0.4903486857219832,-0.4903486857219832,1.00012998346476,0.00020541524526141846
-0.49002465474331985,-0.49002465474331985,0.9998088254653567,0.00019737683472759656
-0.48982645850410333,-0.48982645850410333,0.9998845927273319,0.00019793967951513232
-0.48969059129158266,-0.48969059129158266,1.0001875124038384,0.00020564999301966804
-0.489498476558947,-0.489498476558947,0.9997487194354482,0.00020082249402884027
-0.4892990124579228,-0.4892990124579228,1.0001101728576511,0.0001989593482418026
-0.48919584472459976,-0.48919584472459976,1.0000383881391435,0.00019981382194681488
-0.48901625433500157,-0.48901625433500157,1.0000394591867923,0.00020133140163692488
-0.48881956577388336,-0.48881956577388336,0.9997179136789054,0.00020134144532670098
-0.48860489932776546,-0.48860489932776546,1.0003188628038626,0.00019590138323342417
-0.48849648994146266,-0.48849648994146266,0.9999252531560241,0.00020839834465118437
-0.4883521204072167,-0.4883521204072167,1.0002293159133246,0.00019144404087883827
-0.4881922012900759,-0.4881922012900759,0.999769467841668,0.00019692477114124273
-0.4880449870477605,-0.4880449870477605,1.0002306155271363,0.00019964616310553032
-0.48778617400239455,-0.48778617400239455,0.9998321669983928,0.00020304498703930838
-0.4876287198108912,-0.4876287198108912,0.9998230307289091,0.0001968206073898157
-0.48744983494543703,-0.48744983494543703,1.000116760970233,0.00020474202049645365
-0.48718559513654325,-0.48718559513654325,1.0003684699022606,0.00019639384762530328
-0.4868936310595018,-0.4868936310595018,1.000033273455863,0.00020585160035408795
-0.48671098907725535,-0.48671098907725535,0.9999726420672557,0.00020592873386791945
-0.48646180314099186,-0.48646180314099186,1.000010601873877,0.00019897367937973695
-0.48630686982069166,-0.48630686982069166,1.0000187427520495,0.00020185213488033857
-0.48611430506789477,-0.48611430506789477,1.0000800394263778,0.00020731107689616436
-0.48583595273230457,-0.48583595273230457,1.0000713426447119,0.00019691679148767837
-0.4856619345526269,-0.4856619345526269,0.9997734440483758,0.0001958705162094003
-0.485550216530828,-0.485550216530828,1.0000431763076378,0.0002083566694665258
-0.48538477148322273,-0.48538477148322273,1.0001324626936434,0.00018900049643041423
-0.48518501942016884,-0.48518501942016884,0.9998644740936264,0.00020191897012767726
-0.48499582586737233,-0.48499582586737233,0.9998596057852323,0.0002010462474925664
-0.48480303544201886,-0.48480303544201886,1.0004605449543928,0.00020112768922094732
-0.4846229871000105,-0.4846229871000105,1.0000842509371115,0.0001997266128425991
-0.48447873095137767,-0.48447873095137767,1.0000061084060419,0.00020845885924119487
-0.4842261837649858,-0.4842261837649858,0.9999439648802653,0.00019737292560615538
-0.4838736445723043,-0.4838736445723043,1.0001390698916361,0.00020768465369123173
-0.48372143472151946,-0.48372143472151946,0.9998869864267033,0.00020396564245255244
-0.4835332290131191,-0.4835332290131191,0.9996652368971597,0.0002083666158777634
-0.48333223203371745,-0.48333223203371745,1.0002616241316307,0.00020029876710912203
-0.48310458313935667,-0.48310458313935667,1.0001546480289971,0.00020921368613029492
-0.4829432360573264,-0.4829432360573264,1.0001552044582573,0.0002014914008899004
-0.4827071239007637,-0.4827071239007637,0.999964455646073,0.00019604959318153292
-0.4825360051880125,-0.4825360051880125,0.9999891219764887,0.0002038396980393351
-0.48231404733014643,-0.48231404733014643,0.9998758625599307,0.00019243390124771374
-0.4821560048381798,-0.4821560048381798,1.000086497837063,0.00020432979807193073
-0.48196758528065403,-0.48196758528065403,1.0001446908250327,0.0002054247039580453
-0.48183203749431414,-0.48183203749431414,1.0000079197701222,0.00019926575031418316
-0.48172397320522575,-0.48172397320522575,1.0000545328739832,0.00020382501171647226
-0.4815159475772816,-0.4815159475772816,0.9997413237720266,0.0001944317700312966
-0.4812854817988409,-0.4812854817988409,1.0000824752759154,0.0001918165209459205
-0.481054817554832,-0.481054817554832,0.9998973024727187,0.00020110417718429693
-0.4808574144401064,-0.4808574144401064,0.9999081332558843,0.00020001294075363985
-0.4806099900015397,-0.4806099900015397,1.0004344712004494,0.00020663778600770035
-0.4804313969856594,-0.4804313969856594,1.0000214747646088,0.00019956717462542035
-0.480211133188277,-0.480211133188277,0.9999882729859124,0.00020644166333302392
-0.48003904743891324,-0.48003904743891324,0.9998424817958209,0.00019409979475713541
-0.4799299361082376,-0.4799299361082376,0.9998605704077971,0.00019708723351139008
-0.4797299808495154,-0.4797299808495154,1.0006456159623571,0.00020112711346410552
-0.4795134534018871,-0.4795134534018871,1.0003320649432752,0.00019692465921899185
-0.47934604014371873,-0.47934604014371873,1.000328063438981,0.00019445354285891166
-0.4792431345813384,-0.4792431345813384,1.0001423080177845,0.000209081449057798
-0.4790010813470872,-0.4790010813470872,0.999811020607725,0.00020092578707282946
-0.4788835788356664,-0.4788835788356664,0.9999793071822257,0.0001944749370220752
-0.4787528255918005,-0.4787528255918005,0.9999741318033479,0.00020078074711462872
-0.4784284103268874,-0.4784284103268874,1.0000073385534407,0.00020314381431558445
-0.4781651890683861,-0.4781651890683861,0.9996415770510986,0.00020191853844874565
-0.47793567556727795,-0.47793567556727795,1.0001460787277288,0.00020431268079535995
-0.47758538037451215,-0.47758538037451215,1.000052085221363,0.00020239062430078519
-0.4774522515683202,-0.4774522515683202,1.0000115142777497,0.00020090529853601327
-0.47724350055141257,-0.47724350055141257,1.00018175602371,0.00020701301553116563
-0.47707208099018317,-0.47707208099018317,0.9999795387709884,0.00019870550025311603
-0.47690746547450547,-0.47690746547450547,1.0000421973149862,0.00019717626168518494
-0.47668185055808865,-0.47668185055808865,1.0002814278955763,0.0002049730217472166
-0.47644578573163016,-0.47644578573163016,0.9994062367106243,0.0001929008872727707
-0.47631046862807125,-0.47631046862807125,1.00006381617339,0.00020129286444526615
-0.4760501554555958,-0.4760501554555958,1.0002540950805368,0.0002039488490652745
-0.4759169478609692,-0.4759169478609692,1.0003883721372255,0.00019200807470364542
-0.47572318191378143,-0.47572318191378143,0.9998709217526113,0.00019875354175469725
-0.4754653160634916,-0.4754653160634916,0.9999434787696722,0.00019399249547952024
-0.4752856427767256,-0.4752856427767256,1.000035518147594,0.0002110272869345569
-0.47519852665791407,-0.47519852665791407,1.000294823436803,0.00020224965746247874
-0.4749698554973293,-0.4749698554973293,0.9998384120759025,0.00020408941812125552
-0.4746304189240618,-0.4746304189240618,1.0000840258886772,0.000198178742088247
-0.47437574016512374,-0.47437574016512374,0.999999284705746,0.00020644570680607654
-0.47416457254148553,-0.47416457254148553,1.000311601544477,0.00020500660124952042
-0.4739395956035878,-0.4739395956035878,0.9999900614563829,0.00019908830460317665
-0.47374821011471796,-0.47374821011471796,1.0001144895231047,0.0002046247048535013
-0.4736509633839887,-0.4736509633839887,1.0000439104794272,0.00020540651471651132
-0.4734751657138986,-0.4734751657138986,0.9998534416658623,0.00019769583512038827
-0.4733014543649915,-0.4733014543649915,1.0000982654558759,0.00019899621868558473
-0.47305626955858315,-0.47305626955858315,0.999751096096538,0.00020250996499750085
-0.472957539842173,-0.472957539842173,1.0004375405104793,0.00020352085528672
-0.47270241168589566,-0.47270241168589566,0.9998981499854681,0.00019793706394282922
-0.4724849989666836,-0.4724849989666836,1.0001007295701942,0.0001987082180895761
-0.4723575535259442,-0.4723575535259442,1.0004590844836128,0.00019921787056260504
-0.47223336241659125,-0.47223336241659125,0.999841120563644,0.00020485981638299321
-0.47211216126233924,-0.47211216126233924,1.0000772066599135,0.0001954534033263969
-0.4719091758786817,-0.4719091758786817,1.000021676047044,0.00021629490081253151
-0.471720723076578,-0.471720723076578,1.000055859839745,0.000206197784407044
-0.47141966543204034,-0.47141966543204034,0.9999772578536581,0.00020614651759050256
-0.4711784564438858,-0.4711784564438858,1.0002075252003757,0.00020915306103530513
-0.47090022101983775,-0.47090022101983775,0.9999466818290863,0.00019799155404253053
-0.47073065244258033,-0.47073065244258033,1.0002824707569278,0.00021022696782468014
-0.4705728118904517,-0.4705728118904517,0.9998763795328808,0.0001977733962882767
-0.47048321438778656,-0.47048321438778656,0.9998896925450538,0.0002043314317166476
-0.470170716753637,-0.470170716753637,1.0002663726857666,0.00020243060863354767
-0.4700570011722448,-0.4700570011722448,0.9995410358444442,0.0002000503272033862
-0.4698112228688842,-0.4698112228688842,1.0000209068493044,0.00020044085996491208
-0.4695087723492179,-0.4695087723492179,1.0003632783571486,0.0002015662152153155
-0.4693217476597056,-0.4693217476597056,0.9996324867406775,0.00020126705586172641
-0.4691942068726348,-0.4691942068726348,0.9998422390190956,0.00020735775451616927
-0.4690038720880693,-0.4690038720880693,1.000152988572557,0.00020076277554850072
-0.46876829125685615,-0.46876829125685615,1.0000961803147888,0.000204785017629649
-0.4684708162589232,-0.4684708162589232,1.0000828809117723,0.00020690823339304757
-0.46822927825414806,-0.46822927825414806,0.9999746497625109,0.00020725298811019471
-0.4678769657635712,-0.4678769657635712,0.9998337586504494,0.0002023922448050024
-0.46773012669873426,-0.46773012669873426,0.9999881124781872,0.00020458763724397395
-0.46757519549137216,-0.46757519549137216,1.0002917105124,0.00020054515290344267
-0.46735384652929496,-0.46735384652929496,1.0001575302353056,0.00019893461046909845
-0.4671717894350877,-0.4671717894350877,1.0002084658914752,0.00020329595840070397
-0.467090396493586,-0.467090396493586,0.9997097974607605,0.00019553486499405325
-0.46692502650403184,-0.46692502650403184,0.9998113095303,0.00019847985604710093
-0.46668363460121326,-0.46668363460121326,1.0000294914639773,0.00019895764132440863
-0.46639230802393283,-0.46639230802393283,1.0001857303255477,0.00020308189796721136
-0.4662059445603518,-0.4662059445603518,0.9999575548854887,0.00020134636027586197
-0.466030698618124,-0.466030698618124,1.0001108395486868,0.00020140419795829247
-0.46586178059587835,-0.46586178059587835,1.000106347527891,0.0002042895360271324
-0.4656182129292574,-0.4656182129292574,1.0001867769044972,0.00020081185312200955
-0.4654266243989696,-0.4654266243989696,1.0000338078336677,0.00021247868794163063
-0.465124594115332,-0.465124594115332,0.9999578233000536,0.0002009568303014887
-0.46486182707958507,-0.46486182707958507,0.9999741653225825,0.00020259328850454295
-0.4646989876891894,-0.4646989876891894,1.0002281953702221,0.00019325829522231477
-0.4645754453493282,-0.4645754453493282,0.9999773447232816,0.00019856138966188431
-0.4643186921173765,-0.4643186921173765,1.0001212704904692,0.00019587678438595917
-0.4641938627253694,-0.4641938627253694,1.0003070461008445,0.00020176680582359988
-0.4640694435685873,-0.4640694435685873,0.999938913868009,0.0001986452213950093
-0.46382190151925895,-0.46382190151925895,0.9999383333176546,0.000196657698234319
-0.4635544408680289,-0.4635544408680289,1.0000309825519698,0.00020782552790883784
-0.4634368652346893,-0.4634368652346893,1.0004096963447389,0.00020792865796609512
-0.4632099141250364,-0.4632099141250364,0.9996639646790143,0.00019894725214774983
-0.4630323130833858,-0.4630323130833858,1.000041563776764,0.0002015247745986879
-0.4627778291076538,-0.4627778291076538,0.99982902164285,0.00019906031613650395
-0.46250478832225783,-0.46250478832225783,0.9999081783963149,0.00020609846540536026
-0.4621869973700086,-0.4621869973700086,1.0000214508589214,0.00020112791429030696
-0.4619644940336002,-0.4619644940336002,0.9999612721263933,0.00019659628651484416
-0.46178598088154105,-0.46178598088154105,1.0002690100568956,0.0001962587568062025
-0.4616767608677037,-0.4616767608677037,0.9999847122687863,0.00019620288007307852
-0.4614866749907378,-0.4614866749907378,0.9997922838514592,0.00020135980047119063
-0.4612895695419866,-0.4612895695419866,1.0000598931452374,0.0002001176491740243
-0.4611914342473028,-0.4611914342473028,1.0002464924432126,0.0002021169832335325
-0.4610772872227244,-0.4610772872227244,1.0001187177950939,0.00019121221649721933
-0.4608996781767928,-0.4608996781767928,1.0001545813591306,0.0001992429525238516
-0.46065902864284,-0.46065902864284,1.0000618871213833,0.00020062985480325248
-0.46042206019192233,-0.46042206019192233,0.9998409010731363,0.00020113256241610953
-0.46026276413467715,-0.46026276413467715,1.0001926485525106,0.00019638934272801653
-0.4600439540365187,-0.4600439540365187,1.000125874741346,0.0002048814294706508
-0.45971943696058587,-0.45971943696058587,0.9999437772055163,0.0001971678175108406
-0.4595492141532304,-0.4595492141532304,1.0001998630565048,0.00020694013046466438
-0.45943921542275346,-0.45943921542275346,1.0004168128484319,0.00020191007314720506
-0.45926110945947585,-0.45926110945947585,1.0003418095681678,0.00020602897078984768
-0.4590926742588636,-0.4590926742588636,1.000078333328966,0.0002007629090091427
-0.45895726548696986,-0.45895726548696986,1.0002033522999687,0.00019974555700135867
-0.4587769469806517,-0.4587769469806517,0.9999668707312935,0.00020105340632363072
-0.4586019427086285,-0.4586019427086285,1.0000815382444541,0.0001948436810085425
-0.4584015633139643,-0.4584015633139643,1.0000208219746003,0.0001957472783512656
-0.458279206170846,-0.458279206170846,0.9999142023736972,0.00020760244155901237
-0.4581713619088987,-0.4581713619088987,0.9999548676475708,0.00019709952406285285
-0.45800300078262807,-0.45800300078262807,1.0001378076712981,0.0001941982723488766
-0.4578502204531105,-0.4578502204531105,1.0000973958650643,0.00019676892390570796
-0.45761254478784397,-0.45761254478784397,0.9999373618785958,0.0002089995284767708
-0.4574654157033365,-0.4574654157033365,1.0003118261246011,0.00020112774935354796
-0.4573396646876063,-0.4573396646876063,0.9998587788723077,0.00019802842205875144
-0.4572077992197592,-0.4572077992197592,0.9998189866132561,0.00020448295217059348
-0.4569445343753614,-0.4569445343753614,1.0000948521408293,0.00020381043176869481
-0.4566767620155588,-0.4566767620155588,0.9997695651554382,0.0002052106379377542
-0.45651043369362015,-0.45651043369362015,1.000109887641111,0.00020618213756489395
-0.45633915793441704,-0.45633915793441704,0.9998494476309577,0.0002056377594341522
-0.4561726419102342,-0.4561726419102342,1.000308837446905,0.00019620956766668238
-0.4560458785650553,-0.4560458785650553,1.0001504692387653,0.00020284741727661756
-0.4558544296807668,-0.4558544296807668,1.000221963741172,0.0002037577089746043
-0.4556159662890423,-0.4556159662890423,0.9999493872080787,0.00019692366695805698
-0.4554047684185207,-0.4554047684185207,1.0002307368397494,0.00020034687761059824
-0.4552935174120648,-0.4552935174120648,0.9995504515596499,0.00020533909636724916
-0.455159831923811,-0.455159831923811,1.000177092340613,0.00019146469027915938
-0.4549197502201423,-0.4549197502201423,1.0003298851825668,0.00019946287128411
-0.45463622212482735,-0.45463622212482735,0.9999038352151315,0.00020278802091859782
-0.4544891408077092,-0.4544891408077092,1.0003297988039062,0.00019913931407561348
-0.4543239189442829,-0.4543239189442829,1.0003107687531356,0.0002043295687866216
-0.45415402385115156,-0.45415402385115156,1.0001413619741164,0.0002019053320975428
-0.45373472645587754,-0.45373472645587754,1.000069477568986,0.0002078807378368228
-0.4535305459292431,-0.4535305459292431,1.0001374564293632,0.0002061613066297289
-0.4533517050236696,-0.4533517050236696,0.9999552465264443,0.0002052571141310374
-0.4531714493088657,-0.4531714493088657,1.000060583651269,0.00020190113019146597
-0.4529822282631358,-0.4529822282631358,1.0000486142164735,0.0002067987949464784
-0.4527352024706488,-0.4527352024706488,1.0000159407633107,0.00020730061701453015
-0.45250034139753553,-0.45250034139753553,0.9999037173290679,0.00019396873423551688
