time,time,flux,flux_err
-0.49974719577191234,-0.49974719577191234,1.0006773612827153,0.0011049872592610514
-0.4992331758382231,-0.4992331758382231,1.0003617109176048,0.001274075868478722
-0.4987323612637435,-0.4987323612637435,0.9992523392335052,0.0012858638662846544
-0.49858955430972857,-0.49858955430972857,1.0006510586056583,0.001056537920946184
-0.49831696843793905,-0.49831696843793905,1.0004810058965075,0.0012234896792347137
-0.4980345499123359,-0.4980345499123359,0.9996956861011815,0.0008865577626647827
-0.4976915562958311,-0.4976915562958311,0.9990545727199699,0.0012038158871685585
-0.49713943936440047,-0.49713943936440047,1.0005741693821997,0.0008807927686273521
-0.4969858342927182,-0.4969858342927182,1.0005365679237639,0.0013473387829118597
-0.4967657080156641,-0.4967657080156641,0.9992538389533626,0.0012201160284442559
-0.4964704079626244,-0.4964704079626244,1.0006755663287323,0.0010456631855647188
-0.4958387677710562,-0.4958387677710562,1.0002065371679065,0.0013722105513764055
-0.4954810305371211,-0.4954810305371211,1.000123901162197,0.0010992003534897555
-0.49524189336007113,-0.49524189336007113,1.0006420631912571,0.0012214938563379547
-0.4949642504390795,-0.4949642504390795,1.0002237364212196,0.0012103388355902333
-0.49441789844277084,-0.49441789844277084,1.000153015602483,0.0011939971176974443
-0.49376546248895464,-0.49376546248895464,1.00067234492902,0.0012446707456121526
-0.4934047656679468,-0.4934047656679468,1.0000432290463253,0.0010665281059194912
-0.4929014262619603,-0.4929014262619603,1.0003541919592998,0.001379257947663439
-0.492188779074786,-0.492188779074786,0.9997618075355359,0.0009036250291824787
-0.4918497982649569,-0.4918497982649569,1.000259116019207,0.0010784740521595933
-0.4916510228311381,-0.4916510228311381,1.0007191802855426,0.0012296797431122783
-0.49104791045974705,-0.49104791045974705,0.9989961082753988,0.000808119740084993
-0.4903657027418376,-0.4903657027418376,0.9992471448072713,0.0008968469933050068
-0.4901341920824052,-0.4901341920824052,0.9996121366065319,0.0010580012557744418
-0.4899378728485317,-0.4899378728485317,0.9995129114442948,0.0012226492838135798
-0.48947890027411634,-0.48947890027411634,0.9998654455051084,0.0010887705228876771
-0.489081200077635,-0.489081200077635,0.999687403722216,0.001038049809123767
-0.4886862245381053,-0.4886862245381053,1.0004555470960945,0.0009001897261682334
-0.48843774006163587,-0.48843774006163587,0.9994724096953496,0.0012103889038166068
-0.4882317826097278,-0.4882317826097278,1.0003022454437125,0.0010692107073969133
-0.48779771778972647,-0.48779771778972647,0.9998004480932643,0.0012653339494785984
-0.487589793423831,-0.487589793423831,0.9994945889463098,0.0012424523111227996
-0.48717545721665373,-0.48717545721665373,0.9994590251541101,0.0012378037810556232
-0.48684632125623467,-0.48684632125623467,0.9984563371243784,0.0010387078594099764
-0.4866117059755197,-0.4866117059755197,1.0007047995427107,0.001237627003708688
-0.48639773231043365,-0.48639773231043365,1.0009615376000576,0.0011267544289112357
-0.48593965335894607,-0.48593965335894607,0.9998001998223502,0.0010682436138393673
-0.4856238361397118,-0.4856238361397118,0.9995989403051198,0.0010826773461281906
-0.485200170936514,-0.485200170936514,0.9997327341636841,0.001063193634182255
-0.48495529141437144,-0.48495529141437144,1.0005848198808225,0.0010589136167507547
-0.48458429756283294,-0.48458429756283294,0.999690451699222,0.0012319687501460785
-0.48420972572894244,-0.48420972572894244,1.0001590686049422,0.0010746324385522764
-0.48386271724375546,-0.48386271724375546,0.9999477697586073,0.0012544132391235914
-0.48353684621833964,-0.48353684621833964,1.0002863555501849,0.0008503625553099496
-0.4831772783101769,-0.4831772783101769,0.999826776636116,0.0012453787753917288
-0.48262989005124834,-0.48262989005124834,0.9997402989087917,0.0008675231867028832
-0.482515381027406,-0.482515381027406,0.9996384599615119,0.0011140161014949709
-0.4821238973629079,-0.4821238973629079,1.0007137460421813,0.0010959400183945679
-0.48176062525635643,-0.48176062525635643,0.9997888657254992,0.001182077870513167
-0.481444905176977,-0.481444905176977,1.0004183950529957,0.0010745691191396674
-0.48104434211199987,-0.48104434211199987,0.9997581304477613,0.0013917491001402915
-0.4808918811384501,-0.4808918811384501,0.9999327070998885,0.000912179996933956
-0.48080282152222936,-0.48080282152222936,1.0001550742257548,0.0008829655049195714
-0.4804784279276646,-0.4804784279276646,1.000047929301952,0.0012235715589038949
-0.47999774934287415,-0.47999774934287415,0.9999088487356543,0.0010344035340796914
-0.47948858000127076,-0.47948858000127076,1.0004523364054618,0.0008861852217492801
-0.4792242217808962,-0.4792242217808962,0.9996552923878987,0.0010647957386463159
-0.4790022036177106,-0.4790022036177106,1.0007650178007808,0.0012158907091219238
-0.4786617793375626,-0.4786617793375626,0.999262774089259,0.0008706778139759691
-0.4782985981164529,-0.4782985981164529,1.0000071453173942,0.0012117708337949275
-0.47796642917055576,-0.47796642917055576,0.999961575580237,0.00122296587206639
-0.4776175598406553,-0.4776175598406553,1.0011810273902122,0.0010583715055112479
-0.47748587693859007,-0.47748587693859007,0.9999906881284553,0.0013464817127775467
-0.477157150421408,-0.477157150421408,1.0004066173415782,0.001039095506302112
-0.4766563809422223,-0.4766563809422223,0.9994111919723938,0.0013582971965605119
-0.47626155858961283,-0.47626155858961283,0.999389659268511,0.0010624851528102234
-0.4759089975977986,-0.4759089975977986,1.0004054802818176,0.0013593135667980482
-0.47576851522717334,-0.47576851522717334,1.000758128352198,0.0012118507474115896
-0.47541240837927035,-0.47541240837927035,0.9991296291352171,0.00104188372063004
-0.4747756676370045,-0.4747756676370045,0.999057076639407,0.0012175801286051994
-0.47430901642364914,-0.47430901642364914,0.9988530085687399,0.0012325903324785484
-0.4740552724484587,-0.4740552724484587,0.9988015697567219,0.0013851681914217712
-0.47356631234069935,-0.47356631234069935,1.000590747541803,0.001194940473068781
-0.47264965612994275,-0.47264965612994275,0.999417648731035,0.001064235753099289
-0.4723747693129553,-0.4723747693129553,0.9994578097642556,0.0010651095499347536
-0.47217525293890505,-0.47217525293890505,1.0008904492803279,0.0012333734391790847
-0.4716166305985098,-0.4716166305985098,1.000223908380923,0.0011980248471380758
-0.4710313870738901,-0.4710313870738901,1.0001070451889356,0.0008959187413116755
-0.4707489253643871,-0.4707489253643871,0.9995549066547953,0.0010384688744459831
-0.47056835184812373,-0.47056835184812373,1.0013008117073712,0.001238872284110112
-0.4702328467174084,-0.4702328467174084,1.0012604806344592,0.0012410077787693653
-0.4697555271897727,-0.4697555271897727,0.9994117061602511,0.000808468822877813
-0.46938641258930147,-0.46938641258930147,1.0007131564381437,0.0011013837684578933
-0.4691511984561657,-0.4691511984561657,0.9995910245658939,0.0010588862059862443
-0.46893317594549444,-0.46893317594549444,1.0007663401059612,0.0010535503437557599
-0.4686821106406569,-0.4686821106406569,0.9998943748590822,0.0013493558864320176
-0.46825311631328076,-0.46825311631328076,1.000581903330153,0.0008975863976795516
-0.46804052020670495,-0.46804052020670495,0.9980311209739451,0.0013615973551643623
-0.4676496167659934,-0.4676496167659934,0.9993870122035652,0.0010915823874013734
-0.46742030071109186,-0.46742030071109186,1.0009431368336696,0.0010383177501325567
-0.46720642346335806,-0.46720642346335806,1.0001297403402376,0.0012511949213573597
-0.4669327363048069,-0.4669327363048069,1.0001407081459015,0.0013960608149982273
-0.4665523896812374,-0.4665523896812374,0.9997498883341454,0.0010596988809404495
-0.4662537478812737,-0.4662537478812737,0.9990793888623678,0.0012265574659671736
-0.46586259522591716,-0.46586259522591716,1.0013131502987753,0.0008729628384351824
-0.4656268543720216,-0.4656268543720216,0.9998182628253854,0.0012093008832983932
-0.46540316311875357,-0.46540316311875357,1.0005382548559947,0.001246051534343351
-0.4649650188468513,-0.4649650188468513,0.9996466030980591,0.001196495448199367
-0.46473799454106485,-0.46473799454106485,0.9995478598856945,0.0012434238137801613
-0.4642534772912768,-0.4642534772912768,1.0006243426415933,0.0009182267852888783
-0.4639529949323332,-0.4639529949323332,1.0008725956751485,0.0008928378553912493
-0.46351768209096916,-0.46351768209096916,1.0000155088745628,0.0010584295624552274
-0.46310285939471213,-0.46310285939471213,1.0003581669363089,0.0010923821228269726
-0.46285716090387724,-0.46285716090387724,1.001088252786687,0.001088313322600237
-0.46235044691529764,-0.46235044691529764,0.999654325047238,0.0008618086453649526
-0.46187185413800763,-0.46187185413800763,0.9996591229653349,0.0013604149749975394
-0.4614917860562855,-0.4614917860562855,0.99895026049024,0.0010503129589070665
-0.4613724130012997,-0.4613724130012997,1.0005073623859349,0.0012475255470193402
-0.46103277390466246,-0.46103277390466246,0.9999842497132132,0.0010728856343315504
-0.46068407269995076,-0.46068407269995076,1.0007987997074952,0.001028377042874871
-0.46027754468705095,-0.46027754468705095,0.999515223913168,0.0012508646676949752
-0.4598836398559797,-0.4598836398559797,0.99891766794842,0.0010721340352527011
-0.4597389892645879,-0.4597389892645879,1.000535631132427,0.0008770210912097608
-0.45949666654851173,-0.45949666654851173,1.0008464656668585,0.0012013280844408339
-0.4590823945891316,-0.4590823945891316,1.000933187242491,0.0010429145636227277
-0.4587319907535857,-0.4587319907535857,1.000441116260274,0.0012270288142208988
-0.4582933166399016,-0.4582933166399016,0.9997396888269584,0.0008820577305740081
-0.4581038352142059,-0.4581038352142059,0.9997810047052733,0.0012133878017127407
-0.4578939799299405,-0.4578939799299405,1.0002038164374834,0.0012441574046576475
-0.4576502678668476,-0.4576502678668476,0.9988557985528791,0.0012244889467443228
-0.4572527749394794,-0.4572527749394794,0.9990926984581826,0.0012205758759124019
-0.456834294228247,-0.456834294228247,1.0005383126622314,0.001072757198141068
-0.4564942451968818,-0.4564942451968818,0.9995525812800519,0.001210756993241752
-0.456362743569116,-0.456362743569116,0.9993234630603084,0.0012320897374219733
-0.45609105329349403,-0.45609105329349403,0.9996444899807202,0.0011896610379452462
-0.45563949856768887,-0.45563949856768887,0.9996781407322292,0.001325807420669039
-0.455078690303344,-0.455078690303344,1.000147215479886,0.0010637044426419873
-0.45474382683350995,-0.45474382683350995,0.9996306263732855,0.0013572565516584022
-0.454421050586825,-0.454421050586825,0.9991562531299794,0.0012161366408350782
-0.4536072392325877,-0.4536072392325877,0.9991787191603254,0.001048295398801285
-0.4529877331449825,-0.4529877331449825,0.9999611942792208,0.0012224903817745884
-0.4527129050100484,-0.4527129050100484,0.9998170498944419,0.0012075810920805774
-0.451984146229006,-0.451984146229006,1.000257048028308,0.0010565354663157611
-0.4514644179296738,-0.4514644179296738,0.9989161579859884,0.0010587167005358057
-0.45128399019995413,-0.45128399019995413,0.9994870494027868,0.0008865895140680914
-0.45112124645274887,-0.45112124645274887,0.9997437780916723,0.0011028815511602511
-0.45066086227634516,-0.45066086227634516,1.00048580362892,0.001021116037477157
-0.45002359631689615,-0.45002359631689615,1.0003058099542652,0.000872285679046865
-0.44972553608349697,-0.44972553608349697,0.9998997062159752,0.001060666879020813
-0.4495174485091411,-0.4495174485091411,1.0010162208415863,0.0010548327695907907
-0.4493281504681363,-0.4493281504681363,1.0011791321857764,0.0012223890237358565
-0.44886095873371235,-0.44886095873371235,1.0001045882926065,0.001081690921770569
-0.4486671954240592,-0.4486671954240592,0.9989518771960763,0.001217495278889612
-0.4481470769718726,-0.4481470769718726,0.9991437694824746,0.000899925904205021
-0.4478957782819634,-0.4478957782819634,0.9989176375570148,0.0012088669437991617
-0.4476885466810927,-0.4476885466810927,0.9983866898106714,0.0010709679112238472
-0.44724685792753005,-0.44724685792753005,0.9997861621497737,0.0012461072954582809
-0.4469336888330872,-0.4469336888330872,1.00031579746053,0.0013617960514518647
-0.44654311828562643,-0.44654311828562643,1.0003372744965597,0.000903351090857543
-0.4463061528877006,-0.4463061528877006,0.9987963583921274,0.0010398089917670222
-0.4460663770758401,-0.4460663770758401,0.9995588165476808,0.001241222180145715
-0.44573005913043745,-0.44573005913043745,1.0004618824552047,0.0012464628855682954
-0.44537389368088043,-0.44537389368088043,1.0008194223937763,0.0010685592538454817
-0.4447374945255433,-0.4447374945255433,0.9989423355107115,0.0009119554162041299
-0.4444115158323257,-0.4444115158323257,0.9996446872389356,0.001056324323992619
-0.4439224263205688,-0.4439224263205688,0.9988593310547487,0.0010455318541418553
-0.4436616495520866,-0.4436616495520866,1.0000644789856803,0.0010969992977118135
-0.4434928077062068,-0.4434928077062068,1.0001262206056292,0.0014031375198645633
-0.4431233918247017,-0.4431233918247017,0.9992677448809852,0.0009080008503205974
-0.44280778334868953,-0.44280778334868953,0.9985152859639139,0.0010513270418207993
-0.44242019065568455,-0.44242019065568455,0.9993687525167225,0.0012323092617037258
-0.4420295948169951,-0.4420295948169951,1.000614608861206,0.001104377124610867
-0.4418295276707795,-0.4418295276707795,0.9990645360668381,0.0012335381015312892
-0.4414845964634878,-0.4414845964634878,0.9991932743837652,0.000914184500055051
-0.4412043165833893,-0.4412043165833893,0.9997027434879857,0.000887107632382557
-0.44078115228730896,-0.44078115228730896,0.9995170437986356,0.0010841245903877737
-0.44038325234214426,-0.44038325234214426,1.0002815577416677,0.001058737089507012
-0.4402495760739839,-0.4402495760739839,0.9992032502334446,0.0010540656093588857
-0.4399831040900608,-0.4399831040900608,0.9996022224265062,0.001050931353286801
-0.43960353617840153,-0.43960353617840153,1.0002253988673186,0.0010416958177288352
-0.4390817788964341,-0.4390817788964341,0.9991751475527615,0.0010821036424184575
-0.4387149229623901,-0.4387149229623901,0.9997074156292595,0.0011954571239685646
-0.4385827191170392,-0.4385827191170392,0.9991086654499366,0.0010739998022682691
-0.4382968068563059,-0.4382968068563059,1.0002005211027003,0.0012094531761697026
-0.43800312941384617,-0.43800312941384617,0.9983526002128886,0.000887624734781155
-0.4376406609037076,-0.4376406609037076,1.0005290624190413,0.001232479737424837
-0.4371733726351522,-0.4371733726351522,0.9993334309990469,0.0008809526159260757
-0.4370195380317455,-0.4370195380317455,1.0000793695008838,0.0013494990291730408
-0.43682636692283267,-0.43682636692283267,1.00004327784115,0.0010784321497580073
-0.43656261032410837,-0.43656261032410837,0.9995455006442506,0.0011943998849745286
-0.4359799454414315,-0.4359799454414315,0.9994668651847451,0.00138867804622086
-0.43554703602312655,-0.43554703602312655,0.9997276757651339,0.001077085082042465
-0.4353189407971513,-0.4353189407971513,0.9996077825348196,0.0012242382772237417
-0.43504753096167403,-0.43504753096167403,0.9993312759111268,0.001059616509340932
-0.43446552316017917,-0.43446552316017917,0.9988545365892685,0.0013261202303404044
-0.4338550742435473,-0.4338550742435473,0.9994543569706489,0.0010947475626454858
-0.43351747630586035,-0.43351747630586035,1.0000690456142007,0.0012266735871049694
-0.4330646065547626,-0.4330646065547626,0.9996039349401823,0.0012395177191330963
-0.43230304727330804,-0.43230304727330804,0.9995678396797878,0.0010654040492234008
-0.43188380955580213,-0.43188380955580213,1.0004125201290126,0.0010800426395068923
-0.43172622788843,-0.43172622788843,1.0002009989783789,0.0012335385876375126
-0.431234453383513,-0.431234453383513,0.9999470730819173,0.0010205814159318875
-0.4306140260865504,-0.4306140260865504,1.0006753849354244,0.0009003970310366664
-0.4302518035110552,-0.4302518035110552,0.9988569072790364,0.0010628058761981622
-0.43007399723901474,-0.43007399723901474,0.9994430789574018,0.0010642185980980978
-0.42983279201289404,-0.42983279201289404,0.9992498903164033,0.0012434592110213926
-0.42929681001514836,-0.42929681001514836,0.9981071573410505,0.0010376256840297362
-0.4288275764771242,-0.4288275764771242,0.9987401012326774,0.0009057920800626784
-0.42856842669134493,-0.42856842669134493,0.9989805044241418,0.001039105217814934
-0.42835030336573254,-0.42835030336573254,0.9992016597126566,0.0012384311533200206
-0.42803705598380476,-0.42803705598380476,0.9985962482670361,0.0012596868717596036
-0.42766517167838175,-0.42766517167838175,0.9998015259750017,0.0010671608772312687
-0.4273107064360374,-0.4273107064360374,0.9985140238547736,0.0013653306062404538
-0.426922062363883,-0.426922062363883,0.9997894726781832,0.0010624585445280894
-0.42668889679189304,-0.42668889679189304,0.9991173810236331,0.0010544170139258242
-0.4265056550888403,-0.4265056550888403,0.9998813610035571,0.0012509277695957565
-0.42603115131096275,-0.42603115131096275,0.9999587818136092,0.0011070155494432349
-0.42569889433543723,-0.42569889433543723,0.9995284733987665,0.0010701034560319095
-0.4252892588312534,-0.4252892588312534,0.9987482378931027,0.0008868609234543388
-0.42503177021026206,-0.42503177021026206,0.9984290078839413,0.0012106205416588535
-0.4247405104259087,-0.4247405104259087,0.9994284621321776,0.0012283667361669209
-0.42426655126109836,-0.42426655126109836,1.0003068579994774,0.0010821867211123538
-0.4239943321335886,-0.4239943321335886,0.9990571100578224,0.001249424996025625
-0.4236200838586228,-0.4236200838586228,0.9996601393362579,0.0008744927049086883
-0.42328979526428157,-0.42328979526428157,1.000237242992088,0.0012358671948435906
-0.42275589875243896,-0.42275589875243896,0.999846390554948,0.0008828426060498013
-0.4225898586137191,-0.4225898586137191,0.9989541288069705,0.001110191199975123
-0.4223738598269847,-0.4223738598269847,0.9984510454807329,0.0011082844154016497
-0.42197754574335705,-0.42197754574335705,0.9984460677086664,0.0008426227076906092
-0.4216089561752597,-0.4216089561752597,1.0001441635185429,0.0012230350164443772
-0.4211969427389704,-0.4211969427389704,0.9978623341081694,0.0010639420141073056
-0.42093909901886944,-0.42093909901886944,0.9994349408538985,0.0010852136014087035
-0.4208611749127158,-0.4208611749127158,0.9998387509796114,0.0008854325740863039
-0.42062799579252896,-0.42062799579252896,1.0009202601934575,0.0012248884228672856
-0.42020862195786324,-0.42020862195786324,0.9978455130523975,0.0008589096648926292
-0.41967346902201824,-0.41967346902201824,0.9998513718787144,0.0010876135079840549
-0.41927657990636363,-0.41927657990636363,0.9984099110787765,0.0010626782623799377
-0.4191117107086029,-0.4191117107086029,0.9995294613468939,0.0012180157861074593
-0.4187431905185804,-0.4187431905185804,0.9994631388120092,0.0008447215588400188
-0.41845692024326125,-0.41845692024326125,1.000885891718743,0.001224781274597318
-0.4181401171630569,-0.4181401171630569,1.000359981460457,0.0012178267667916707
-0.417681262838596,-0.417681262838596,1.0004989675373945,0.0008928695869968448
-0.4175616690576135,-0.4175616690576135,1.0004896418031457,0.0013428822393224823
-0.4172486206614849,-0.4172486206614849,0.9999307726134395,0.0012096377896402299
-0.4167630357635062,-0.4167630357635062,1.0002683885879124,0.0012140102329224196
-0.41629540593312414,-0.41629540593312414,1.0004332241692975,0.0010617030369740282
-0.41594291783076187,-0.41594291783076187,1.000384266310331,0.001357489037079406
-0.4158024848522473,-0.4158024848522473,0.9997433827848952,0.001212271125669648
-0.41544626928189243,-0.41544626928189243,0.9982848320148209,0.001040991423144922
-0.4148442646364856,-0.4148442646364856,0.9981218628361004,0.0012042889183014776
-0.4144528300403181,-0.4144528300403181,0.9986295460241346,0.0010921648583816948
-0.41418606263432595,-0.41418606263432595,0.9992369435552121,0.0014956520691122735
-0.4138631713529321,-0.4138631713529321,0.999959986155863,0.001205004371876843
-0.41282028865716713,-0.41282028865716713,0.9993053271598106,0.0012163956951497525
