time,time,flux,flux_err
-0.49956631762931164,-0.49956631762931164,1.0000926415155968,0.00020832074453842414
-0.4988525590742938,-0.4988525590742938,1.0003563891835323,0.00018054975334233926
-0.49787678500433685,-0.49787678500433685,1.000091008196026,0.00018551183548352527
-0.4967146209790371,-0.4967146209790371,0.9999241147547139,0.00018114922865362473
-0.49577933566906723,-0.49577933566906723,1.00015171478146,0.00018254366035883518
-0.494718140027544,-0.494718140027544,1.0002951125787984,0.00018253014635819634
-0.49357720944099126,-0.49357720944099126,0.9998833873343583,0.00018565294528364833
-0.4926584463886684,-0.4926584463886684,0.9999258697931944,0.00017972139621355614
-0.49206112212414155,-0.49206112212414155,0.9999458244899883,0.00018260032796381785
-0.49088954893522896,-0.49088954893522896,1.0002291415569189,0.00018521443629856133
-0.48985334206518016,-0.48985334206518016,1.0000995015226528,0.00018277317586555875
-0.48927208470122424,-0.48927208470122424,1.000151249470547,0.00018558364320092217
-0.4887050118864863,-0.4887050118864863,1.0002226759875108,0.00017688112177815233
-0.48770954895735485,-0.48770954895735485,1.0001658151161184,0.00018551564102593733
-0.48641378458560214,-0.48641378458560214,1.000260575102798,0.00018265112854759264
-0.48575027684273664,-0.48575027684273664,0.9997090665597763,0.00018428997340785508
-0.4852533740137005,-0.4852533740137005,1.0000379571970848,0.00017975198413014713
-0.48487147327832647,-0.48487147327832647,0.999771024807192,0.00017975784072197712
-0.4835307344299508,-0.4835307344299508,1.0003616610755839,0.00018271925614526328
-0.48264734484400834,-0.48264734484400834,1.000209611133172,0.0001796280655719867
-0.4820748923229985,-0.4820748923229985,1.000060784704705,0.0001857261772312862
-0.4816107791441027,-0.4816107791441027,0.9998842620923561,0.00017975963048560568
-0.4811491831962485,-0.4811491831962485,1.000091480219665,0.0001797772579126535
-0.48035180790902815,-0.48035180790902815,1.0001478232609906,0.00018272933589324499
-0.4791849216708215,-0.4791849216708215,1.000130220147812,0.00017984665057315584
-0.4785469612979796,-0.4785469612979796,1.0000426946368102,0.0002019619672595386
-0.4779615510808071,-0.4779615510808071,1.0002327394417172,0.00017971114557954773
-0.4769514542436809,-0.4769514542436809,0.9997356900190075,0.0001827183280782547
-0.47561111011746104,-0.47561111011746104,0.9998737416928563,0.00018250502190987188
-0.47489208902552493,-0.47489208902552493,1.0005597003826594,0.00017994677768730507
-0.4741055286343908,-0.4741055286343908,1.0003294496279946,0.00018248161111574236
-0.47310503027256345,-0.47310503027256345,0.9998177091885043,0.00018858119957780345
-0.4722031692333985,-0.4722031692333985,1.0002521895268066,0.00018055104204399848
-0.4713421380816726,-0.4713421380816726,0.9998147600125881,0.0001824341459589583
-0.47046048502234045,-0.47046048502234045,1.0001139704715252,0.00018260331668599285
-0.4692621281996253,-0.4692621281996253,0.9997406398569672,0.00018264731151412458
-0.46836571815656497,-0.46836571815656497,1.0001089062392534,0.0001856135206132445
-0.46761311531008687,-0.46761311531008687,1.0000486993565159,0.0001769127165249642
-0.4669924358837306,-0.4669924358837306,0.9997769051725364,0.0001854234681858901
-0.46563359916908664,-0.46563359916908664,1.0000673342181923,0.0001882106637334764
-0.4647486012399895,-0.4647486012399895,0.9999367444603123,0.00018372068902161497
-0.4642203572220751,-0.4642203572220751,0.9996716344991101,0.00018268925633499193
-0.46379603404202496,-0.46379603404202496,1.000131002705104,0.00017664862683873883
-0.4626169682131149,-0.4626169682131149,0.9999317640657944,0.0001826954265685508
-0.4615280676429393,-0.4615280676429393,0.9998190852858114,0.00018259036840394716
-0.46083413121959893,-0.46083413121959893,0.9999844723758538,0.00018276756101154697
-0.460298591767787,-0.460298591767787,0.9998521804162541,0.0001768361296775426
-0.45982857403723754,-0.45982857403723754,0.9999060218316096,0.00018275226720714332
-0.4586047020449769,-0.4586047020449769,0.9999079996414855,0.0001797730834979199
-0.45776377110450994,-0.45776377110450994,0.9997209504893931,0.00018255952417598118
-0.4573088568780804,-0.4573088568780804,1.0003041060252453,0.00022326152982247847
-0.45660833115252897,-0.45660833115252897,1.0001733616466193,0.0001796295866126071
-0.4560325170692522,-0.4560325170692522,0.999917516311504,0.00018558884500385084
-0.454897376630106,-0.454897376630106,1.0000452530017045,0.00018253483491222192
-0.454035121765628,-0.454035121765628,0.9995829065909673,0.0001878381624992191
-0.45342413431062595,-0.45342413431062595,1.0000008986434217,0.00018543124039756793
-0.4524342215299839,-0.4524342215299839,0.9998313130687254,0.00018252779488795164
-0.45123773709783566,-0.45123773709783566,0.9998071715931578,0.000179860980629046
-0.4503184323766618,-0.4503184323766618,1.0004395832292512,0.00018261285058124313
-0.4492621190525824,-0.4492621190525824,1.0001111127682534,0.0001796511194345688
-0.4481094965318334,-0.4481094965318334,1.0000527585983483,0.0001855190133557897
-0.44720903839333914,-0.44720903839333914,0.9999764438407107,0.00018291224320266672
-0.44636540260835317,-0.44636540260835317,0.9998671378716694,0.00017964291074595346
-0.4455550867729471,-0.4455550867729471,0.9999054557964175,0.00018524211230186815
-0.444378275735653,-0.444378275735653,1.000087105204874,0.0001883733170437024
-0.4436188333726022,-0.4436188333726022,1.000231391500039,0.0001798279455361464
-0.44300698590814136,-0.44300698590814136,1.0001344015135554,0.00018279612539048143
-0.44235582707915455,-0.44235582707915455,0.9999255410466296,0.00018256807497184964
-0.441132120169641,-0.441132120169641,1.0003250384147009,0.0001830431661587196
-0.44015683355682994,-0.44015683355682994,1.0000917577802142,0.0001799879709077612
-0.4397144750051666,-0.4397144750051666,1.0002462155855434,0.00018482986629270596
-0.4391781078040367,-0.4391781078040367,1.0000159929871022,0.00017980359856052818
-0.43856140623393003,-0.43856140623393003,0.9998972304587515,0.00018242108952313936
-0.43721983192226616,-0.43721983192226616,0.9999761205968927,0.00017986984909556953
-0.4365212737946422,-0.4365212737946422,1.000005312620329,0.00017978714998891082
-0.4358505377516849,-0.4358505377516849,1.0002334537926443,0.00017994287855919975
-0.4353772740607383,-0.4353772740607383,1.000097094340082,0.00017968519352758004
-0.4347014461513027,-0.4347014461513027,0.9999369091179178,0.0001855256663043002
-0.43350765993673124,-0.43350765993673124,1.0001618262512944,0.0001769418673074415
-0.4327729273136356,-0.4327729273136356,1.000261404390313,0.00020651062961547857
-0.4323422655783361,-0.4323422655783361,0.999957222486626,0.00017991755800904084
-0.4314909490291029,-0.4314909490291029,0.9997053509273229,0.00018253696485047
-0.43050066469149895,-0.43050066469149895,0.9996984271201302,0.00018007502652478432
-0.4294623980953475,-0.4294623980953475,1.0001755540058674,0.0001796503072056296
-0.42871663949044886,-0.42871663949044886,0.9997879233803617,0.00018811091338436642
-0.42807002360059415,-0.42807002360059415,1.0000511978107318,0.00018299700020402883
-0.4270649476966355,-0.4270649476966355,1.000102029624586,0.00018551826932756684
-0.42595006188494156,-0.42595006188494156,0.9999420702837206,0.00018071226884017546
-0.4250137658120366,-0.4250137658120366,1.0001581855379822,0.00017968629302615578
-0.4239244126874837,-0.4239244126874837,1.0000832390280092,0.00018534328878048287
-0.42277090477145973,-0.42277090477145973,0.9999587455717869,0.000185676917860373
-0.4219371872852207,-0.4219371872852207,0.9998687004266464,0.00025867448555496936
-0.4213958331558388,-0.4213958331558388,0.9996765362102812,0.00018249848894526252
-0.42046103739121465,-0.42046103739121465,0.9999236993353181,0.00018554579449750198
-0.4191851583687821,-0.4191851583687821,1.0000595262291498,0.00018555647478435392
-0.4186657395533985,-0.4186657395533985,0.999799658329003,0.00018434209346873532
-0.4181356667453656,-0.4181356667453656,1.0001157953511786,0.00018284479756503196
-0.41757703689509074,-0.41757703689509074,1.0001048112544861,0.0001794066111635364
-0.4161324366432382,-0.4161324366432382,0.9999419389573593,0.00018263844180966543
-0.4151697354434873,-0.4151697354434873,1.0002774373223242,0.00018280468091401585
-0.4147278183372691,-0.4147278183372691,1.0000960726966572,0.00018099929893496198
-0.4142421391035896,-0.4142421391035896,0.9998821359071295,0.00017972878315201214
-0.4134230766023393,-0.4134230766023393,1.0000989214192775,0.00018261592316236351
-0.4121041944046738,-0.4121041944046738,1.0001621024020626,0.000179828852172549
-0.4116190121130785,-0.4116190121130785,1.0001561091509203,0.00023800623912269793
-0.41107104683760554,-0.41107104683760554,0.9999368630947523,0.00017693413287243887
-0.4104929855544469,-0.4104929855544469,1.0000108379367512,0.00017975589354044137
-0.4097547120589297,-0.4097547120589297,0.99976698019669,0.0001827926082350684
-0.40854214550490725,-0.40854214550490725,1.0000967806702665,0.00017966723863268818
-0.4077702447437332,-0.4077702447437332,1.000085562354478,0.0001989640682772395
-0.4072066967622959,-0.4072066967622959,1.000052845835088,0.00017971594581133067
-0.406162167894945,-0.406162167894945,1.0000410296967768,0.00018273204716085062
-0.40490402647410517,-0.40490402647410517,0.9999245386353419,0.00017779778525510266
-0.4043062130280305,-0.4043062130280305,1.000292857740127,0.00018259660427756512
-0.4033597202549572,-0.4033597202549572,1.0000104103201295,0.0001826082911134843
-0.40227083555510035,-0.40227083555510035,0.9999047932918661,0.00018837494717832898
-0.4013307695553522,-0.4013307695553522,1.000149807695998,0.00018020287835299295
-0.4004609666633769,-0.4004609666633769,0.9999913082757675,0.00018240991541367788
-0.39950233528215906,-0.39950233528215906,0.9997039247856165,0.00018244024144068404
-0.3985312108954531,-0.3985312108954531,0.9999698366469161,0.00018837273894003033
-0.3977459269182873,-0.3977459269182873,1.000069733575974,0.0001798198270801285
-0.397123980516335,-0.397123980516335,1.0000633917279127,0.00018280413854748035
-0.39648461290926207,-0.39648461290926207,0.9997473058517627,0.00018259293124835678
-0.3952781358690117,-0.3952781358690117,0.99984596350003,0.00018325748744220383
-0.39418848133209394,-0.39418848133209394,0.999840973079019,0.00018275484876313644
-0.393719949646038,-0.393719949646038,0.9997430665455633,0.0001854054897703314
-0.3932305119014927,-0.3932305119014927,0.999849807654751,0.0001768414980433263
-0.39247530212887793,-0.39247530212887793,0.999864323541586,0.0001825514511294059
-0.3911301157597336,-0.3911301157597336,1.0000372298815345,0.00018260490565889074
-0.3904862817391404,-0.3904862817391404,0.999894366672959,0.00017995436656888594
-0.38984473120217444,-0.38984473120217444,0.9997953901910404,0.00018274707811639256
-0.3892895079610753,-0.3892895079610753,0.9998661379047655,0.00017972023834782875
-0.38839273733756274,-0.38839273733756274,0.9999360688381701,0.00018272781059027214
-0.38722665610257534,-0.38722665610257534,0.9998456296297002,0.00017694624166144285
-0.3867182536894688,-0.3867182536894688,1.0000412910613663,0.0002118809596208469
-0.38617558372498023,-0.38617558372498023,1.000036000112201,0.00017971893653997262
-0.38539590654254424,-0.38539590654254424,0.9999710571218683,0.0001855240202022963
-0.3843506219855044,-0.3843506219855044,0.9999164820256242,0.0001825782995059657
-0.38346287046588257,-0.38346287046588257,0.9998068881265267,0.00017975483972501412
-0.3827309454602073,-0.3827309454602073,1.0003021246472583,0.0001893468645397565
-0.3820603045081953,-0.3820603045081953,0.9999671102698766,0.0001832175845405644
-0.3809843315219041,-0.3809843315219041,1.0000338894573961,0.00018678038690483757
-0.3798315930864192,-0.3798315930864192,1.0000360240343724,0.00017967647125907474
-0.37891560672578634,-0.37891560672578634,1.0000597070926014,0.00017966181334888337
-0.3778187213960337,-0.3778187213960337,0.9999138364434031,0.00018544060349053469
-0.3767797882348532,-0.3767797882348532,0.9996376179907711,0.0001827300064314916
-0.37585351900197567,-0.37585351900197567,1.000162134645841,0.0001797912390285159
-0.37516218803502854,-0.37516218803502854,1.0000538560834624,0.00018543880482933204
-0.3737814550215262,-0.3737814550215262,0.9999214740853507,0.00018812603380845462
-0.3729554919511429,-0.3729554919511429,1.000096428752609,0.0001799103932918808
-0.3723624022648437,-0.3723624022648437,1.0001237354390402,0.0001856061317523063
-0.37190444340521933,-0.37190444340521933,1.000029740253821,0.00018036829636965552
-0.37080571626866005,-0.37080571626866005,0.999833440763554,0.00018549913247545074
-0.36959549656894525,-0.36959549656894525,1.0000335566197165,0.0001798297154193919
-0.3690273572166916,-0.3690273572166916,1.000196377340949,0.00018405576167151693
-0.3685043645295082,-0.3685043645295082,1.0002135991985426,0.00017983549008555427
-0.368026436958462,-0.368026436958462,0.9998285357899036,0.00018257861968052827
-0.3666674230466015,-0.3666674230466015,1.0000037454388255,0.00017988439701923845
-0.36589132874069036,-0.36589132874069036,1.0001314584400869,0.00018262350314164865
-0.36528411380422765,-0.36528411380422765,1.0000565567613087,0.0001799098474072953
-0.3647322678109049,-0.3647322678109049,1.0000275129805514,0.00017973556809686408
-0.3641252753615845,-0.3641252753615845,0.999904643383472,0.0001827520559530882
-0.3629048439237522,-0.3629048439237522,1.0001091880619193,0.00017977270782333285
-0.3621289785834961,-0.3621289785834961,0.9998231394401662,0.000197090902720779
-0.36163205809716603,-0.36163205809716603,1.0000927425741408,0.0001826750039395726
-0.36070565248228376,-0.36070565248228376,1.0000118741923987,0.0001825749141900163
-0.3594835260446416,-0.3594835260446416,1.0000829824068753,0.0001798587918344854
-0.358576262704446,-0.358576262704446,0.9999202606074332,0.00018250606430637194
-0.3577403555813362,-0.3577403555813362,0.9998459851479378,0.00018537527248906567
-0.3568789021141129,-0.3568789021141129,1.0001269677894,0.00018277804636676089
-0.35585692251333967,-0.35585692251333967,0.9997779476584869,0.0001860698995841149
-0.3548506845312659,-0.3548506845312659,0.9995960402521602,0.00017957966191550998
-0.3540348451555474,-0.3540348451555474,1.000054290263329,0.00018252865802218348
-0.3531116147089051,-0.3531116147089051,1.000118102425044,0.0001853769199762991
-0.35198396073101323,-0.35198396073101323,1.0000750336127964,0.0001827441269950804
-0.35124740869214294,-0.35124740869214294,0.9999065811155017,0.00018277412367305346
-0.3506213989923708,-0.3506213989923708,1.0000310602289868,0.00018252701628730756
-0.3496555776844616,-0.3496555776844616,0.9999082777383943,0.00018546861610405668
-0.3483141792312381,-0.3483141792312381,0.9999694331629223,0.00018282734573615828
-0.34776437145628736,-0.34776437145628736,0.9998745063140232,0.00018605812855084807
-0.3472682458435884,-0.3472682458435884,1.0001905087503828,0.00017688736517448785
-0.34627366906934187,-0.34627366906934187,1.0000781487174026,0.00017960697218276562
-0.3450469662915566,-0.3450469662915566,1.0001842762073059,0.00018546413627714643
-0.3442989190720255,-0.3442989190720255,1.0001152272539182,0.00017996351327008783
-0.3437688962323591,-0.3437688962323591,1.000258023774716,0.00017979611872369008
-0.3433395769985509,-0.3433395769985509,1.0000656638151892,0.0001827216405528819
-0.3422172910315567,-0.3422172910315567,1.0000061587203066,0.00017979719090050007
-0.3412155455633183,-0.3412155455633183,0.9999101167469435,0.00017976380091566278
-0.3407723934782553,-0.3407723934782553,1.0001556152242572,0.000219813886091002
-0.3401159055705648,-0.3401159055705648,0.9999245720677177,0.00017668885558515536
-0.3393986370327184,-0.3393986370327184,1.0004187551962078,0.00018835601201755398
-0.33824332522344774,-0.33824332522344774,0.9999679379549307,0.0001825789256504318
-0.3374651224381523,-0.3374651224381523,0.9998309307408837,0.000276582283439124
-0.3368576152686728,-0.3368576152686728,0.9998256703759052,0.00019151147040583945
-0.33619923536898566,-0.33619923536898566,1.0000017310530627,0.00018345521254466946
-0.33513477883825543,-0.33513477883825543,0.9999738583659832,0.00018707399833299738
-0.3339578439044999,-0.3339578439044999,0.9997432544937359,0.00017967598251091954
-0.33303129482228544,-0.33303129482228544,0.9999917876668094,0.00018261364979773613
-0.33195978765579637,-0.33195978765579637,0.999987611178652,0.0001825757427136165
-0.3309171897359192,-0.3309171897359192,1.0000633515088775,0.00018282623125947105
-0.3299706707970472,-0.3299706707970472,0.9999699384008027,0.00017977571565305805
-0.3293700275578885,-0.3293700275578885,1.0000241315764171,0.00018246055167221725
-0.32813130402355456,-0.32813130402355456,1.0000603204370466,0.00018818724297874645
-0.32721345344325525,-0.32721345344325525,1.0000648450575695,0.00018275678034242597
-0.32662072115053886,-0.32662072115053886,0.9999232355482508,0.00018273057872618628
-0.3260378095525084,-0.3260378095525084,1.0000504795998135,0.000179796980269549
-0.3251786516557331,-0.3251786516557331,0.9999286690362925,0.00018547440598980428
-0.3238976700595231,-0.3238976700595231,0.9998818590397617,0.0001826131388598483
-0.32323307696788106,-0.32323307696788106,0.9997731961825009,0.0001845438740771157
-0.32273588493990246,-0.32273588493990246,0.9998326961589077,0.00018265044435104995
-0.32234451278927734,-0.32234451278927734,0.9998999699579428,0.00017679243842152518
-0.3210711028063088,-0.3210711028063088,0.9996810156412771,0.0001827144911586399
-0.32024529564514526,-0.32024529564514526,1.0000700145657198,0.00018257708410527682
-0.319569557440991,-0.319569557440991,1.0000968971615376,0.00018287048380425964
-0.3190415796896559,-0.3190415796896559,0.9999372533889573,0.0001797855091834056
-0.3185263434468652,-0.3185263434468652,1.0000860887525804,0.00017970289767646255
-0.31759958359762097,-0.31759958359762097,0.9997118828624769,0.00018270975222992944
-0.3164940551185282,-0.3164940551185282,0.9995461558466161,0.0001769411121507232
-0.31593126978550573,-0.31593126978550573,1.0004182805873387,0.0002038702176405596
-0.3154390906885965,-0.3154390906885965,1.000177583629378,0.0001797136957964553
-0.3144395219584112,-0.3144395219584112,0.9999572843835475,0.00018271804983979688
-0.3130975754756946,-0.3130975754756946,1.000238643567322,0.0001825796572281073
-0.3123819649947109,-0.3123819649947109,1.0002740186686547,0.00018487026103141568
-0.31173796508082885,-0.31173796508082885,0.9996757025408467,0.00018244647664177732
-0.3108146171725821,-0.3108146171725821,0.9997533647124444,0.0001858043410251406
-0.30982444151159144,-0.30982444151159144,0.9998914077872725,0.00018061988469592774
-0.3088315726738074,-0.3088315726738074,1.0000315321067268,0.00018244706454672853
-0.3079400602233363,-0.3079400602233363,0.9999611914268514,0.00018260036188700226
-0.30675112101162083,-0.30675112101162083,1.0001151991611197,0.00018267352002669128
-0.3058540413228911,-0.3058540413228911,0.9999295376181399,0.000185605840434348
-0.30508227601530963,-0.30508227601530963,1.0000992486423983,0.00017690836131948446
-0.3044873609323986,-0.3044873609323986,0.9999172532223473,0.00018543446589330446
-0.30313002862385474,-0.30313002862385474,0.9998018149368489,0.00018821237236164517
-0.30222834253363545,-0.30222834253363545,0.9999859443812225,0.0001840198733897788
-0.3017033857264323,-0.3017033857264323,1.0000133984903248,0.00018273676591017604
-0.30126684803108217,-0.30126684803108217,0.9997800182734295,0.00017661944630636685
-0.300107491138624,-0.300107491138624,0.9999133589579218,0.00018267464876658087
-0.2990079393464839,-0.2990079393464839,1.0000816139451791,0.00018260416572649432
-0.29831894404487685,-0.29831894404487685,1.0000083470471162,0.00018278114845388934
-0.2977678569252021,-0.2977678569252021,1.00021974995451,0.00017683697347891698
-0.2973152890976053,-0.2973152890976053,1.0001959324179832,0.00018275940396465234
-0.296091529300611,-0.296091529300611,0.9999015298060705,0.00017976375077542967
-0.29524502877757186,-0.29524502877757186,0.9999420277335315,0.00018254888951656892
