time,time,flux,flux_err
-0.49997032189154805,-0.49997032189154805,0.9999434472265945,7.743535287486205e-05
-0.4998430177068561,-0.4998430177068561,0.9999354290787684,7.411238503444847e-05
-0.4996394831784225,-0.4996394831784225,0.9999598933449078,7.64090543241528e-05
-0.4995131153815843,-0.4995131153815843,0.9999887560598344,7.471335539075349e-05
-0.4994305294167134,-0.4994305294167134,0.9999891155536742,6.965320160384822e-05
-0.4993452540380531,-0.4993452540380531,1.000122396358901,7.153603044479745e-05
-0.49925597908732017,-0.49925597908732017,0.9999215012630212,6.765167019237931e-05
-0.4991699934093049,-0.4991699934093049,0.9999195306465243,6.697157455117119e-05
-0.4990011508205498,-0.4990011508205498,1.0001262254772059,6.924440787891214e-05
-0.4988027853294625,-0.4988027853294625,0.9999684862024166,6.951486317392242e-05
-0.4987284011556767,-0.4987284011556767,1.0001594565932634,6.94807813788235e-05
-0.4985989544657059,-0.4985989544657059,0.999814818709965,6.690340606627599e-05
-0.4985174728644779,-0.4985174728644779,1.000051325041967,6.737914442439401e-05
-0.4983189284408581,-0.4983189284408581,0.9998998409335709,6.67539435007731e-05
-0.49812089811821353,-0.49812089811821353,0.9998438975338473,6.895540464042591e-05
-0.4979630769332289,-0.4979630769332289,0.9998580798799633,7.400510468538108e-05
-0.49787143092180486,-0.49787143092180486,1.000024917244334,6.999574868734087e-05
-0.49776853426665185,-0.49776853426665185,1.0000468159881568,7.419652636332985e-05
-0.4976601760739868,-0.4976601760739868,0.9999820130598108,6.68086087688791e-05
-0.49755896978531383,-0.49755896978531383,0.9999979776435423,6.896374580134997e-05
-0.4974815844281693,-0.4974815844281693,1.000030037370654,6.940981793816994e-05
-0.4973333968599036,-0.4973333968599036,0.9999955187290169,7.186773975775678e-05
-0.49722104094180397,-0.49722104094180397,1.0001204780992656,6.978595913052974e-05
-0.4970752641507715,-0.4970752641507715,0.9999914933593684,6.682763853592505e-05
-0.4969798532889399,-0.4969798532889399,1.0000049361958365,6.582139813922956e-05
-0.4968147796942503,-0.4968147796942503,0.9999358411990092,6.63811464744423e-05
-0.49673627269658027,-0.49673627269658027,1.0000877680846139,6.63926377363037e-05
-0.4965233328672184,-0.4965233328672184,0.9999419215731887,6.959301032039456e-05
-0.4963998529587116,-0.4963998529587116,1.0000480813475918,7.181096793797359e-05
-0.49628202117746695,-0.49628202117746695,1.0000158176434042,7.057704811288497e-05
-0.49616664326167664,-0.49616664326167664,1.00007677890897,6.897149106106146e-05
-0.49611268980588646,-0.49611268980588646,1.0000212103462853,6.631110056115104e-05
-0.4959358727930521,-0.4959358727930521,0.9999102275833875,7.189611703208066e-05
-0.49579932590204406,-0.49579932590204406,1.0000180869016575,6.869358290337973e-05
-0.4957103966640716,-0.4957103966640716,0.9999131060363503,7.379966150629324e-05
-0.49563501630182144,-0.49563501630182144,0.9999828825230779,6.748548041832508e-05
-0.4955151724498137,-0.4955151724498137,0.9999479063716533,6.73790377474238e-05
-0.49524379809081437,-0.49524379809081437,0.9999213075209991,6.573569978869239e-05
-0.4951590495809796,-0.4951590495809796,1.0000423362946094,6.940787847747719e-05
-0.49509004426217873,-0.49509004426217873,0.999910216019491,6.979539773194084e-05
-0.4950339639108279,-0.4950339639108279,0.9998509402370555,6.91454388526603e-05
-0.4948934754524089,-0.4948934754524089,0.9999330086443854,6.71287953675469e-05
-0.49480071822399624,-0.49480071822399624,0.9999381590855914,6.680874312388394e-05
-0.4946932270620891,-0.4946932270620891,1.0000064191173137,6.649598455903129e-05
-0.49449580494547263,-0.49449580494547263,0.9998988201017409,6.931741260386544e-05
-0.4943560599931516,-0.4943560599931516,1.000034153785778,7.378322756551908e-05
-0.4941849478826043,-0.4941849478826043,1.0000726256098569,7.314217899805615e-05
-0.4941044792685716,-0.4941044792685716,1.000006498949713,6.72236392495149e-05
-0.4940308139921399,-0.4940308139921399,0.9999250925965658,6.916621871005753e-05
-0.49394832348989437,-0.49394832348989437,1.0000795322238254,7.13518998623499e-05
-0.49386168029668626,-0.49386168029668626,1.0000185405186235,6.942012651274272e-05
-0.4937942961551016,-0.4937942961551016,1.000081119802107,7.215807364744315e-05
-0.4936333597128396,-0.4936333597128396,0.9999779063569406,6.772509435657578e-05
-0.4935343248100253,-0.4935343248100253,0.9999857761425768,6.969237338211102e-05
-0.49335438991256525,-0.49335438991256525,1.0000504513479769,6.925837313031857e-05
-0.4932559472908906,-0.4932559472908906,0.999999551744797,6.713351376659773e-05
-0.4931254127317516,-0.4931254127317516,1.0000137459224283,6.678962705907341e-05
-0.49304311017695,-0.49304311017695,0.9999150297777444,6.731325389815177e-05
-0.4929058643967437,-0.4929058643967437,1.0000423708788166,6.733223246810003e-05
-0.4927576781577955,-0.4927576781577955,0.9999712381319321,6.92476806567755e-05
-0.49261667446407953,-0.49261667446407953,0.9998648668292457,6.643240002263411e-05
-0.49249487816778126,-0.49249487816778126,1.0001071279342706,6.86492018594475e-05
-0.49238151192766966,-0.49238151192766966,0.9999182464891311,6.893374194621372e-05
-0.49227246008158543,-0.49227246008158543,1.000014884625847,7.125747999020665e-05
-0.4921549612110539,-0.4921549612110539,0.9999382612681877,6.6448025514754e-05
-0.49207878233937663,-0.49207878233937663,1.0000639895691568,6.942698978158678e-05
-0.49194819960321184,-0.49194819960321184,1.000013475493431,6.64287664720195e-05
-0.49176593253650935,-0.49176593253650935,0.9999685834013388,6.953874952931913e-05
-0.49154241960859507,-0.49154241960859507,1.0000864244458727,6.814426407774417e-05
-0.4914259274621145,-0.4914259274621145,1.000025569803417,7.010148796515773e-05
-0.491192134218727,-0.491192134218727,0.9999712412057986,6.652142221623769e-05
-0.4910624757503683,-0.4910624757503683,0.9999857475888441,6.646672249064824e-05
-0.49099521899188403,-0.49099521899188403,1.0000446161059562,7.153754568391085e-05
-0.4908283469711023,-0.4908283469711023,1.0000881305606115,6.64434934856218e-05
-0.49073395257873925,-0.49073395257873925,0.9999637518677315,7.129597581564603e-05
-0.4906619538232917,-0.4906619538232917,1.0001002858018946,6.689527162661241e-05
-0.490509159056819,-0.490509159056819,1.0000700577947934,7.007287839170012e-05
-0.49033015885361236,-0.49033015885361236,1.000031562677017,6.654065812094219e-05
-0.4902285385680443,-0.4902285385680443,0.9999758050666958,7.139740762196702e-05
-0.4901569943132927,-0.4901569943132927,1.0000216994002793,6.919705727390205e-05
-0.4900722193975525,-0.4900722193975525,0.999971907310256,6.937207963735609e-05
-0.4899559924619098,-0.4899559924619098,0.9999154425351033,6.81378168892359e-05
-0.4898229427963088,-0.4898229427963088,1.0000387447264372,6.62883838633222e-05
-0.4895981230583857,-0.4895981230583857,0.9998787810169795,6.949750743087824e-05
-0.48950584384219836,-0.48950584384219836,1.0000447616029604,7.173315522234734e-05
-0.4894005105103133,-0.4894005105103133,1.000025247303235,6.781404888676149e-05
-0.489291379450151,-0.489291379450151,0.9999978657032755,6.659906654209916e-05
-0.4891603018630121,-0.4891603018630121,0.9999822450904483,6.698140138417504e-05
-0.4889726516899827,-0.4889726516899827,1.0000350657587826,6.647508033980465e-05
-0.48877518873196096,-0.48877518873196096,0.999914553380129,7.631758126350356e-05
-0.4886649055762973,-0.4886649055762973,0.9999593342684883,7.02527981420515e-05
-0.48855795939452945,-0.48855795939452945,0.9999785703374446,7.138368584089e-05
-0.48837442940930487,-0.48837442940930487,1.0000181003424526,6.965494745985319e-05
-0.4883013914288313,-0.4883013914288313,0.9999329080999638,6.653795329600033e-05
-0.4882285416206287,-0.4882285416206287,1.000028368195069,7.135409883465038e-05
-0.48802927157157683,-0.48802927157157683,1.0000553638761998,6.963123906994608e-05
-0.48790004362599576,-0.48790004362599576,0.9999977175252084,6.980297306386286e-05
-0.4877409298744169,-0.4877409298744169,1.000022209124123,6.632029625143167e-05
-0.4876262537880393,-0.4876262537880393,1.0000081242333736,6.581626091115945e-05
-0.48752264431896036,-0.48752264431896036,0.9999958889474527,6.625852762941618e-05
-0.4874092564743478,-0.4874092564743478,0.999977348298428,6.936582925992726e-05
-0.4872244294259872,-0.4872244294259872,1.000089315198475,6.924644117000959e-05
-0.48712228472577407,-0.48712228472577407,1.000056235011483,6.915491497452188e-05
-0.4869796375023725,-0.4869796375023725,1.0000303174795888,7.162462187097379e-05
-0.48688599797169446,-0.48688599797169446,0.9999633256586083,6.641029934154814e-05
-0.4867987400262791,-0.4867987400262791,0.9999070686067567,6.885730657157251e-05
-0.4866001398404478,-0.4866001398404478,1.0000635659711523,7.200967088260635e-05
-0.48653030158311594,-0.48653030158311594,1.0000149119993995,7.114889501841293e-05
-0.4864312148267345,-0.4864312148267345,1.000093936363395,6.953200583495171e-05
-0.4863677574961912,-0.4863677574961912,0.9999953440903335,6.68617742826825e-05
-0.48628523802763085,-0.48628523802763085,0.9998837824921006,6.988845170906652e-05
-0.48602173694889644,-0.48602173694889644,1.0000089044579568,6.63363837413141e-05
-0.48588979203559574,-0.48588979203559574,1.0001053198258603,6.940949560914895e-05
-0.4858263011483359,-0.4858263011483359,0.9999791087398947,7.211339098886586e-05
-0.4857852114953857,-0.4857852114953857,0.9999549431393833,6.655756924604476e-05
-0.4856428637038334,-0.4856428637038334,1.000006862331711,6.748408639927637e-05
-0.4855478089455573,-0.4855478089455573,0.9999402424282255,6.602060820822361e-05
-0.4854198015338625,-0.4854198015338625,1.0000723648855527,6.684987726273687e-05
-0.4852045350213302,-0.4852045350213302,1.0001383694831392,6.902371695765581e-05
-0.48504922016945784,-0.48504922016945784,0.9998730116092034,7.404860552050092e-05
-0.48491326372604815,-0.48491326372604815,0.9999459812300182,7.062604380880298e-05
-0.4848223718254303,-0.4848223718254303,1.0002028552171378,6.917906838574646e-05
-0.48471994186693335,-0.48471994186693335,1.0000443739468938,6.925613031344614e-05
-0.4846474207421124,-0.4846474207421124,1.0000454943900527,7.204864001121903e-05
-0.48456988199905027,-0.48456988199905027,0.9999450407037831,6.912338450536943e-05
-0.4844201442167105,-0.4844201442167105,1.0000146775554115,7.02983988687069e-05
-0.48430220951777303,-0.48430220951777303,0.9999312696982905,7.000412448171251e-05
-0.48411046311011885,-0.48411046311011885,1.0000034662492605,6.889738189120392e-05
-0.4839885767047235,-0.4839885767047235,1.0000084687850148,6.617145344064773e-05
-0.4838609735219507,-0.4838609735219507,0.9997965792118935,6.680458735992732e-05
-0.48378928659440135,-0.48378928659440135,0.9999296499493999,6.731050834328449e-05
-0.48362158756426654,-0.48362158756426654,0.9999877745333766,6.707805872912628e-05
-0.4834653191639518,-0.4834653191639518,0.9999828258890749,6.896049044161851e-05
-0.4833635859460628,-0.4833635859460628,0.999960811331559,6.643555821284586e-05
-0.4831885548774153,-0.4831885548774153,1.0000410587540662,6.924979118087587e-05
-0.48307717052739463,-0.48307717052739463,1.000000408364203,6.890190692907859e-05
-0.4829744410373678,-0.4829744410373678,1.0000825495092145,7.130107362207457e-05
-0.4828719150289544,-0.4828719150289544,0.9999817262114508,6.637374563572097e-05
-0.4827985108939174,-0.4827985108939174,0.9998731129175104,7.175112222061634e-05
-0.48256511176077765,-0.48256511176077765,0.9999789414815361,6.980021733551049e-05
-0.48237375955286554,-0.48237375955286554,1.0000465655855986,6.65718975985188e-05
-0.48225798348285026,-0.48225798348285026,0.9999837632787358,6.728740130250382e-05
-0.4821859444564325,-0.4821859444564325,0.9999831303611497,7.221007406801596e-05
-0.481958457667497,-0.481958457667497,0.9999648278558324,6.68441819080532e-05
-0.48183216443721905,-0.48183216443721905,0.9999827697462249,6.661334966264046e-05
-0.4817402987777314,-0.4817402987777314,0.9999484187584573,7.1490728835617e-05
-0.4815528909704881,-0.4815528909704881,1.0000114034736598,6.916691981673838e-05
-0.4814400189934531,-0.4814400189934531,1.0000539789413987,6.920421734854296e-05
-0.48127840589149856,-0.48127840589149856,0.9999413444569715,7.005924931777958e-05
-0.48106463896037893,-0.48106463896037893,0.9999873631614447,6.642586867443038e-05
-0.4809658486025,-0.4809658486025,1.0001161384010326,7.177592947771677e-05
-0.480885139649763,-0.480885139649763,0.9999391593608868,7.141897893144511e-05
-0.4807687417574925,-0.4807687417574925,0.9999489675192222,6.860673618551667e-05
-0.48063606148643884,-0.48063606148643884,0.9999952141105434,6.727255746495746e-05
-0.480446719846077,-0.480446719846077,1.0000147361252134,6.928555080920982e-05
-0.4802980144013418,-0.4802980144013418,1.00001809902331,6.952853685045365e-05
-0.48022626307865723,-0.48022626307865723,1.0002240304336218,6.94916023388664e-05
-0.4800961161956366,-0.4800961161956366,0.9999367832999676,6.765809296487295e-05
-0.4800177432633063,-0.4800177432633063,1.000025583880137,6.906316969242236e-05
-0.4798491712841496,-0.4798491712841496,1.0000700537603837,6.635631067706189e-05
-0.47961793790454976,-0.47961793790454976,0.9999357549308344,6.893827558925005e-05
-0.47946028054648193,-0.47946028054648193,0.9999866193855255,7.438530138426784e-05
-0.4793743411777541,-0.4793743411777541,0.9998222790643124,6.953323777632395e-05
-0.4792146427906118,-0.4792146427906118,1.0001503620283045,6.938376755099334e-05
-0.47906350273187853,-0.47906350273187853,1.0000505720049992,7.196362785808741e-05
-0.47899832223920386,-0.47899832223920386,1.000011351792069,6.633555993897012e-05
-0.4788575227910769,-0.4788575227910769,1.0000034619252767,7.175745908000644e-05
-0.4787000702090154,-0.4787000702090154,0.9999884847526399,6.9826632491807e-05
-0.47851686741123556,-0.47851686741123556,1.000040653630959,6.642667305383359e-05
-0.4783777190372348,-0.4783777190372348,1.0000695941517062,6.583155201151301e-05
-0.4782530060503632,-0.4782530060503632,1.0000257863606836,6.661386322537789e-05
-0.4781131485280639,-0.4781131485280639,0.9999030362228156,6.944778868153237e-05
-0.47794112126139227,-0.47794112126139227,0.9999226696287551,6.943621224614884e-05
-0.4778151987156889,-0.4778151987156889,0.999940784027919,7.385662986412698e-05
-0.4776330777858675,-0.4776330777858675,0.9999470906255169,6.621460273784229e-05
-0.47753203925531124,-0.47753203925531124,0.9999641543502775,6.92740918780316e-05
-0.4773722582882328,-0.4773722582882328,1.0000265032021018,7.20688160607581e-05
-0.4772828625966213,-0.4772828625966213,1.000060526416171,6.85600700585124e-05
-0.4771935958357062,-0.4771935958357062,0.9999763791604328,7.234689752133807e-05
-0.4771233703817416,-0.4771233703817416,0.999834329127002,6.638474062474928e-05
-0.47700312410088375,-0.47700312410088375,1.000040020507273,6.738461384676475e-05
-0.4767672429501545,-0.4767672429501545,1.000048820001304,6.572141664747294e-05
-0.4766469183159643,-0.4766469183159643,1.00005357697172,6.898928999348003e-05
-0.4765841485015699,-0.4765841485015699,1.0000149301514965,7.222131358765388e-05
-0.47652585478135734,-0.47652585478135734,1.00000052914836,6.714462280940886e-05
-0.4763875520831789,-0.4763875520831789,0.9999261628969108,6.770070691970664e-05
-0.47627726632199485,-0.47627726632199485,0.9999982896216906,6.633568127650435e-05
-0.47616142910919734,-0.47616142910919734,1.0000106226551468,6.672985470246163e-05
-0.47599319673608986,-0.47599319673608986,1.00006904069952,6.660231183234019e-05
-0.47587219089400606,-0.47587219089400606,0.9999590689975673,7.129581584524545e-05
-0.47572620730716153,-0.47572620730716153,0.9999890804350822,7.311884054747478e-05
-0.4756171352433739,-0.4756171352433739,0.9999465297869099,6.977336763727598e-05
-0.4755198753926379,-0.4755198753926379,0.9999506697678454,6.924737947644146e-05
-0.47544503150784295,-0.47544503150784295,1.0000308131154163,7.115811686274957e-05
-0.47537915223219895,-0.47537915223219895,0.999994190900338,6.964886917108795e-05
-0.47529786823361064,-0.47529786823361064,1.0000172522134971,7.140310010809421e-05
-0.47509060869924724,-0.47509060869924724,1.0000552354739565,6.793341235926963e-05
-0.4749940569257888,-0.4749940569257888,0.9999904912160662,7.211161636759275e-05
-0.47482902943884253,-0.47482902943884253,0.9999909358347869,6.929415482699739e-05
-0.47468522371782457,-0.47468522371782457,1.0000002246707835,6.643976896079655e-05
-0.4745710836701619,-0.4745710836701619,0.999940045535198,6.681023610915967e-05
-0.4744729986647144,-0.4744729986647144,0.9999749468286945,6.653619355006447e-05
-0.47432705547471415,-0.47432705547471415,0.9999293267935002,6.952883290662846e-05
-0.4741507327467843,-0.4741507327467843,0.9999542308187215,6.708867215505471e-05
-0.4740404315511114,-0.4740404315511114,1.0000447358769546,6.864620654052918e-05
-0.4738833971270651,-0.4738833971270651,0.9999214262861154,6.91533175410863e-05
-0.47376427982817404,-0.47376427982817404,0.9999948986510916,7.097393270205353e-05
-0.47364370344075724,-0.47364370344075724,0.9998817765095007,6.61857890016413e-05
-0.47358370325964644,-0.47358370325964644,0.9999320938835936,6.955901139625639e-05
-0.47350117618771037,-0.47350117618771037,1.000000593375996,6.928327390497599e-05
-0.47334943544410635,-0.47334943544410635,0.9999716552475639,6.709995234716333e-05
-0.47314773770267493,-0.47314773770267493,1.0000853780530328,6.632015771717064e-05
-0.47304686563657017,-0.47304686563657017,1.0000449164844276,6.689401531525416e-05
-0.4728528482875845,-0.4728528482875845,0.999910438846841,7.222493469117958e-05
-0.4726402655753191,-0.4726402655753191,1.0001279129981062,6.678753458480158e-05
-0.4724925321766932,-0.4724925321766932,1.000097373728469,6.912191555108456e-05
-0.4723080893010774,-0.4723080893010774,1.000034745303465,7.183973115321866e-05
-0.47214265621223606,-0.47214265621223606,1.0000197622431737,6.682899643251986e-05
-0.4719762159395032,-0.4719762159395032,1.0000053052903222,7.005884559770996e-05
-0.4717816653821501,-0.4717816653821501,1.0000035325426702,7.171271168638863e-05
-0.4716973450907972,-0.4716973450907972,0.9999558863949014,6.65627816734087e-05
-0.47160380384302697,-0.47160380384302697,1.000042516824316,7.405277782000203e-05
-0.47145302560165875,-0.47145302560165875,1.000013067720246,6.803848131751319e-05
-0.47132770377575073,-0.47132770377575073,1.0000334182490886,6.611311264290106e-05
-0.47116134735770177,-0.47116134735770177,0.9999207461763557,6.901029473693926e-05
-0.4710301430335676,-0.4710301430335676,1.0000717094293665,7.150275414867941e-05
-0.4709428099449724,-0.4709428099449724,1.0000290431419123,6.679317124959433e-05
-0.470805607514194,-0.470805607514194,0.9999504437314162,6.727169001326076e-05
-0.47066538948201925,-0.47066538948201925,0.9999574343306836,6.63399170426818e-05
-0.4704661536299682,-0.4704661536299682,0.9999355155091806,6.623387728366812e-05
-0.47026391273975604,-0.47026391273975604,1.0000389626337083,7.354836355616017e-05
-0.47015842449472983,-0.47015842449472983,0.9999661523783452,7.034686276366908e-05
-0.4700524302177655,-0.4700524302177655,0.9999778578808989,7.163026854595917e-05
-0.46986973232706075,-0.46986973232706075,0.999956432067336,6.998886203687342e-05
-0.4697709543099336,-0.4697709543099336,0.9999962971813912,6.947829847171582e-05
-0.46964316161029274,-0.46964316161029274,0.9999444557157575,6.828595887806316e-05
-0.4694746888082591,-0.4694746888082591,0.9999006209237253,6.653642537321717e-05
-0.469297226065828,-0.469297226065828,1.0000858187166364,6.71594314918014e-05
-0.4691385258585797,-0.4691385258585797,1.0001191599584864,6.581669518268695e-05
-0.46901640980213416,-0.46901640980213416,1.0000406230104197,6.647974239080692e-05
-0.4688538036694808,-0.4688538036694808,1.000138139992463,6.94392770543004e-05
-0.4686820775787055,-0.4686820775787055,0.9999465840252947,6.932268587399007e-05
-0.468570337487472,-0.468570337487472,0.9999952074052143,7.163540130089926e-05
-0.4683718321364722,-0.4683718321364722,0.9999174698347817,6.619662635317792e-05
-0.4682506033750542,-0.4682506033750542,1.0000828402867523,6.937433071926076e-05
