time,time,flux,flux_err
-0.49982854046538705,-0.49982854046538705,1.000104333293141,0.000657680643696591
-0.4996229861547666,-0.4996229861547666,0.9999932969786068,0.0006210214356567303
-0.4994720668279721,-0.4994720668279721,0.9997641736215215,0.00066786128608779
-0.4992954351910157,-0.4992954351910157,0.9995889956153875,0.0004893822857293335
-0.49908625800162554,-0.49908625800162554,1.00014768827546,0.0005009002126085441
-0.4990109598380513,-0.4990109598380513,1.001069189098855,0.0004563503300953997
-0.4989302248985041,-0.4989302248985041,1.0000595441363807,0.0004986411072087977
-0.4988338753086282,-0.4988338753086282,0.9996963550323266,0.0004303240783617196
-0.49873927186999933,-0.49873927186999933,0.9994082634610721,0.0005777208663126482
-0.4986507667548722,-0.4986507667548722,0.9998612427237268,0.0004948583781336447
-0.49856545027869287,-0.49856545027869287,1.0002852934567887,0.00046847682034864113
-0.4984305515448796,-0.4984305515448796,1.0006544406601916,0.0005074869555148057
-0.49831261857470965,-0.49831261857470965,0.9990828758163405,0.0005628732649406528
-0.49820743266609496,-0.49820743266609496,0.9994642888046764,0.0005119532800244424
-0.49810745228896847,-0.49810745228896847,1.000030085221222,0.0005160745785503614
-0.4979877437086543,-0.4979877437086543,0.9997168161983678,0.0004781802649639814
-0.4978632977581583,-0.4978632977581583,0.9995698359072712,0.0006834980523527549
-0.4977390707732411,-0.4977390707732411,0.9995616187246359,0.0006111064911284753
-0.4975163717579562,-0.4975163717579562,1.00041224152932,0.0005779210585262174
-0.4973903893871466,-0.4973903893871466,1.0000421804846298,0.0005136506125256923
-0.49724781993427314,-0.49724781993427314,1.0007405924482713,0.0005353383579524934
-0.49712409292988013,-0.49712409292988013,0.9992934738183221,0.0006072765669143719
-0.4970167595660314,-0.4970167595660314,1.0005353337395793,0.0005130959652220903
-0.4968564154318301,-0.4968564154318301,1.0000248798079439,0.0005838148784112722
-0.4967325702833477,-0.4967325702833477,1.0001240056814642,0.0005356567975668426
-0.4966198007983621,-0.4966198007983621,0.9997810165860985,0.0008562153898256254
-0.4964274953090353,-0.4964274953090353,0.9998279078722387,0.000753477198933731
-0.49630263647413814,-0.49630263647413814,0.9995982586802977,0.000497755576413354
-0.4961477201577509,-0.4961477201577509,0.9999344947706049,0.0005215366534603933
-0.4960521696862997,-0.4960521696862997,0.9998061726134301,0.0004827751425929009
-0.4959482010715874,-0.4959482010715874,1.0002112955012066,0.0004610523357708005
-0.49585264723864386,-0.49585264723864386,0.9995901208362182,0.0006284767084543477
-0.49576152600056955,-0.49576152600056955,1.0003198772205668,0.0005773805822012819
-0.4957019021938322,-0.4957019021938322,1.0002312397316482,0.0006522661393979376
-0.49563552950858136,-0.49563552950858136,0.999749253208476,0.0004539472507515361
-0.49553893992560916,-0.49553893992560916,0.9996451539626021,0.00046690718828830223
-0.49542106612352654,-0.49542106612352654,0.9999253633443737,0.0005967729733523155
-0.4953529603197239,-0.4953529603197239,0.9999568019655021,0.00045085107557669215
-0.4952237973571755,-0.4952237973571755,0.9999498561249827,0.00047428540778966463
-0.49515306792745833,-0.49515306792745833,1.0004874453108341,0.0004836638499835993
-0.4950170161231654,-0.4950170161231654,1.000225305741568,0.0004924517345930892
-0.4948639570007799,-0.4948639570007799,1.000083993815483,0.000509252946569896
-0.4947601182968356,-0.4947601182968356,0.9995354245714871,0.0006183318994555983
-0.49455787951592356,-0.49455787951592356,1.0002449278059828,0.0005025547767617539
-0.4943371010245755,-0.4943371010245755,1.0004652596924193,0.0005221639862611405
-0.4941746040654834,-0.4941746040654834,1.0006009686178126,0.0004966067726564615
-0.4940946229267865,-0.4940946229267865,0.999690619036836,0.0005276767993945788
-0.4939609126740834,-0.4939609126740834,1.0003417570889979,0.00047774659956418295
-0.49384341697150375,-0.49384341697150375,0.9995512057233601,0.0007590805852595784
-0.4935167137766257,-0.4935167137766257,0.9997187928696978,0.0005935578316923265
-0.4932962850842159,-0.4932962850842159,1.0001184345797496,0.0005054753228984552
-0.4931685957824811,-0.4931685957824811,0.9998939984443757,0.0005328947168677415
-0.49304597727314103,-0.49304597727314103,1.0004790491553375,0.0006082038542723216
-0.4929222399165155,-0.4929222399165155,0.9997570168768934,0.0006112333964820014
-0.4927931948652258,-0.4927931948652258,0.999789297709361,0.0005220050206136595
-0.4926953044137917,-0.4926953044137917,1.0001970736435841,0.0006488509578671153
-0.4925808532803785,-0.4925808532803785,0.9999180631255082,0.0006139565899551269
-0.4924485209659906,-0.4924485209659906,0.9999675773700598,0.0005760738263137709
-0.4923858035588637,-0.4923858035588637,1.0004053663703918,0.00044898898581929424
-0.4923158757126657,-0.4923158757126657,1.0005298870248533,0.0005742128977280525
-0.4921797016984783,-0.4921797016984783,1.0001976841122082,0.0004496495806970096
-0.49210636075295044,-0.49210636075295044,1.000173863619144,0.00046197502731897596
-0.49203390546899756,-0.49203390546899756,0.9991642828701517,0.0004901627846824388
-0.4919295068073552,-0.4919295068073552,1.000828633138157,0.000534655644504166
-0.49184954494121486,-0.49184954494121486,1.0008046610874701,0.0005557677754643594
-0.49177148917515295,-0.49177148917515295,1.0009097042356319,0.0004833711507950554
-0.4916406510019442,-0.4916406510019442,1.0005596727181345,0.000693974672917724
-0.49150910588505214,-0.49150910588505214,1.0003600095242724,0.0005085683941343377
-0.4914017707284074,-0.4914017707284074,1.0002591376386039,0.0006236961103081617
-0.491299343900755,-0.491299343900755,1.0003363552012854,0.0004999079535206057
-0.4911195089924149,-0.4911195089924149,0.99977248447004,0.0005286955785394059
-0.4909543629764812,-0.4909543629764812,0.9996238623584857,0.000603384676858928
-0.49077642255579124,-0.49077642255579124,1.0004502849088264,0.0005057109741497824
-0.4905329061788507,-0.4905329061788507,0.9999028268058089,0.0005210488269751674
-0.4903072171349777,-0.4903072171349777,0.9996404973959677,0.0004951185317983317
-0.49014767663320524,-0.49014767663320524,0.9994614451993888,0.000528599222877485
-0.48992739969980903,-0.48992739969980903,1.000100044172392,0.0007317449449014131
-0.4896438392810524,-0.4896438392810524,1.000191290064063,0.0004871387356012053
-0.4894734698696993,-0.4894734698696993,0.9997735715933717,0.0005402037384144773
-0.4893456604797393,-0.4893456604797393,1.0004397320066003,0.00048123589946583775
-0.48922164818795866,-0.48922164818795866,0.9997270824921747,0.0005227439102539895
-0.48916311481734737,-0.48916311481734737,0.9997105480679807,0.0005166013982416086
-0.48914248290238904,-0.48914248290238904,0.9993236682236295,0.0004572944976769536
-0.4891026296187192,-0.4891026296187192,0.9994842774745921,0.00045842059620346715
-0.48906847222242505,-0.48906847222242505,0.9990819756379082,0.0004966333444313936
-0.48900552339327985,-0.48900552339327985,0.9994462698831951,0.0005187350108595835
-0.48891731741896366,-0.48891731741896366,0.999664532365831,0.0006067368487276693
-0.48880137962114534,-0.48880137962114534,0.9990381324850812,0.0005776842604185747
-0.48874890669249,-0.48874890669249,0.9994291272367576,0.000496484946649334
-0.48860121932812034,-0.48860121932812034,0.9997825994645961,0.00046949198677312496
-0.4884129987331107,-0.4884129987331107,0.9999123887689849,0.0006937669777908086
-0.4882451045763446,-0.4882451045763446,0.9991325081408526,0.000491598580048913
-0.4881416475516744,-0.4881416475516744,1.0002830275678387,0.0004880055314042675
-0.4880112029379234,-0.4880112029379234,0.9993816669397827,0.0004946762968469842
-0.48790185649995693,-0.48790185649995693,0.9993155889826892,0.0005032550194864426
-0.4877991854475113,-0.4877991854475113,1.000644204343629,0.0006251467206750624
-0.48772230359900276,-0.48772230359900276,0.9998455422240002,0.0005001807237108036
-0.4876461843610741,-0.4876461843610741,0.9994241931406986,0.0006794855583010931
-0.48754912604927086,-0.48754912604927086,1.0002060664709762,0.0005149752471785967
-0.4874855316185858,-0.4874855316185858,1.0005453574066414,0.0006026928887799599
-0.4873402001860086,-0.4873402001860086,1.0000375328893696,0.0005025288236701545
-0.48723447326919994,-0.48723447326919994,0.9998094071613876,0.0004892114003526395
-0.4871221582521684,-0.4871221582521684,1.0006933490204895,0.0005237587578152379
-0.4869863149768207,-0.4869863149768207,0.9999585984169347,0.0006004372312551587
-0.48683213570038786,-0.48683213570038786,1.0000473233688687,0.0005325823622280061
-0.48667473839886954,-0.48667473839886954,0.9998849033090531,0.0006731295829353802
-0.4864999580750009,-0.4864999580750009,1.0003927108615798,0.0005281349106580678
-0.4862922283296939,-0.4862922283296939,0.9993787802255053,0.0004943906424031568
-0.4862372011382831,-0.4862372011382831,1.000430461214111,0.00046484956093960025
-0.486079172466998,-0.486079172466998,0.999430072855694,0.0004861037824714703
-0.48593565449409654,-0.48593565449409654,1.000089100900139,0.00046742685124978925
-0.48584845440927893,-0.48584845440927893,1.000226451517726,0.0005620169040580473
-0.485756517801201,-0.485756517801201,1.0003506444542434,0.00047878270095946167
-0.4856944285391364,-0.4856944285391364,1.000369448177206,0.0004514670692966312
-0.4856262930319645,-0.4856262930319645,1.0000734047605944,0.0005085894401489344
-0.4855198018893134,-0.4855198018893134,1.0003027789925227,0.0004918636877826843
-0.48538564520131333,-0.48538564520131333,1.0005556041852617,0.0005432347852655218
-0.4852989686391084,-0.4852989686391084,0.999968065123727,0.0005094556646920313
-0.48518081103102306,-0.48518081103102306,0.9996726900139027,0.0005391379057161176
-0.48506888207630255,-0.48506888207630255,0.9995241956909359,0.0005727252560891905
-0.48499304027936885,-0.48499304027936885,1.0003447009975788,0.0006725024701112205
-0.48487714255170433,-0.48487714255170433,1.0003032836889836,0.0006155913458093644
-0.48465251429879574,-0.48465251429879574,0.9995034139030136,0.000472172240775608
-0.48441616524069103,-0.48441616524069103,1.0006557754601109,0.0005125678748600584
-0.48428878053382507,-0.48428878053382507,1.0001071605036953,0.0006061737690125624
-0.4841714748152299,-0.4841714748152299,1.0001221413810513,0.0005234772808014209
-0.4840512527240207,-0.4840512527240207,0.9999732052650154,0.0004962046829995109
-0.4839400410593953,-0.4839400410593953,1.0002883782649976,0.0005282197386353093
-0.48385317736538125,-0.48385317736538125,1.0005150914814347,0.00047975257327456823
-0.48375724391662517,-0.48375724391662517,0.9993178865101792,0.0006211032883676928
-0.48360714422888124,-0.48360714422888124,0.9999356558766397,0.0007697926438093997
-0.48346444812777917,-0.48346444812777917,0.999901445122032,0.0007125260399148273
-0.48332416232151443,-0.48332416232151443,0.9994390087844088,0.0004872637235905083
-0.4831945035519311,-0.4831945035519311,1.0001666727183172,0.0004916219168693322
-0.48309434775437693,-0.48309434775437693,0.9993769555156611,0.0005143128472725751
-0.4829986615193775,-0.4829986615193775,0.9994549026128074,0.0005731511804893811
-0.48291602538665757,-0.48291602538665757,0.999687616925069,0.0006362130412627633
-0.48277774831221903,-0.48277774831221903,1.0003639636555606,0.0005647259515410806
-0.4826839214569191,-0.4826839214569191,1.0005623348644481,0.00045725448725375046
-0.482584454814787,-0.482584454814787,1.0002535599994964,0.0005714297041307167
-0.4825374055886641,-0.4825374055886641,0.9998063748789295,0.00045469123001313876
-0.48239397212746554,-0.48239397212746554,0.9999309992999221,0.0004762834116636502
-0.4822206288197776,-0.4822206288197776,1.000637150004929,0.00046574241225691486
-0.4820456074317917,-0.4820456074317917,0.9996669895267132,0.0005039701275179703
-0.48192103813635184,-0.48192103813635184,1.0009437036306188,0.0006011291726484123
-0.48176135785470253,-0.48176135785470253,1.0003920919989742,0.0005322022188989304
-0.48163700150325894,-0.48163700150325894,0.9999880238330094,0.0006830199317732365
-0.48149566192005294,-0.48149566192005294,1.0000186640721311,0.0005118715149853193
-0.4813182485289872,-0.4813182485289872,0.9989760775751559,0.0005350579232988012
-0.4811951857554959,-0.4811951857554959,1.0000381809697823,0.0005060008260637034
-0.4810895285336301,-0.4810895285336301,0.9998167879295332,0.0006563825439101962
-0.4810050202795537,-0.4810050202795537,0.9997203690453256,0.0004962108501494704
-0.48092742363514845,-0.48092742363514845,0.9997588678714351,0.0006882518765715068
-0.48073442454624454,-0.48073442454624454,1.0006469383178047,0.0005398875401510621
-0.4805492551997304,-0.4805492551997304,1.000856361662965,0.0006897840231581593
-0.4803798503475264,-0.4803798503475264,1.0017917716883786,0.0007051995675351289
-0.4802977949148044,-0.4802977949148044,0.9999710618036071,0.0005172553667151071
-0.4801856130710803,-0.4801856130710803,1.0007032904429916,0.0006910924266526411
-0.4800939284119522,-0.4800939284119522,1.0001794721300306,0.0005346663821223183
-0.47998952177294996,-0.47998952177294996,0.9999833477250327,0.0006304320133626273
-0.4798538719274802,-0.4798538719274802,1.0002153017950284,0.0006109644678926924
-0.47977424873388375,-0.47977424873388375,0.9995914926774091,0.0004735808240183759
-0.4796133155061398,-0.4796133155061398,0.9996542344884165,0.0006793126880296705
-0.47954540041391736,-0.47954540041391736,1.0003836364111631,0.0006069643421507084
-0.4794683252432151,-0.4794683252432151,0.9990637031129225,0.0004584630889991318
-0.4793439652887173,-0.4793439652887173,0.9999044742258386,0.0004495955525311209
-0.47922209579555786,-0.47922209579555786,1.000442906353519,0.0004718057801735823
-0.4791277259442722,-0.4791277259442722,1.0001885991916677,0.0005064634344731528
-0.4790538516099332,-0.4790538516099332,0.999143415016766,0.000513593537440052
-0.47898167224775534,-0.47898167224775534,1.000734296775944,0.0005810801609762371
-0.4788805405405583,-0.4788805405405583,1.0000904619579418,0.0004997472073263677
-0.478826012139325,-0.478826012139325,1.0003954272388131,0.0006665111331415388
-0.4787009150837548,-0.4787009150837548,1.0000493885045878,0.0004494953426813765
-0.4785442317923298,-0.4785442317923298,0.9999919684072529,0.0006234203414595122
-0.4784277879312867,-0.4784277879312867,0.9998539536139059,0.0004963743851900376
-0.47827910638879984,-0.47827910638879984,0.9997018015887056,0.0005051815551358744
-0.4781189244124107,-0.4781189244124107,0.9989649745275297,0.0005280162381812894
-0.4779059969150694,-0.4779059969150694,1.000225209901546,0.0005079725793462438
-0.47772655143926385,-0.47772655143926385,0.9998532405306143,0.0004977812851799863
-0.4775367519323481,-0.4775367519323481,1.000457750915084,0.0005164453820143823
-0.47737562559195795,-0.47737562559195795,0.999976582094644,0.0005064586001400108
-0.47714917789562605,-0.47714917789562605,1.0000489802449866,0.0006139830903088763
-0.4769488115765853,-0.4769488115765853,0.9995688508768085,0.0008304787292450161
-0.4767716628703056,-0.4767716628703056,1.0005184644712783,0.00050783786016464
-0.4765712726250058,-0.4765712726250058,0.9999209753099733,0.0005178367602996752
-0.47645148407900706,-0.47645148407900706,1.0002356668309944,0.0005081719989304226
-0.47634934742527546,-0.47634934742527546,0.9998078798622398,0.0005055908139619181
-0.4762213606736623,-0.4762213606736623,1.0004482990471684,0.0004983987009597276
-0.4761336981173372,-0.4761336981173372,1.0004235302483675,0.0005885962135632402
-0.47610003068402873,-0.47610003068402873,1.000061173217866,0.0005107927509789795
-0.47606916874065064,-0.47606916874065064,0.9993471527741338,0.0005874279518867495
-0.47601365491573233,-0.47601365491573233,0.9997303487977721,0.00045207159316954014
-0.47593646837922277,-0.47593646837922277,1.000268035543061,0.0005010989042791702
-0.4758438829361694,-0.4758438829361694,0.999572836371925,0.0005908989349082568
-0.4756931020965567,-0.4756931020965567,0.9995801144370462,0.0004757680981753755
-0.47555647957779,-0.47555647957779,1.0002380290108641,0.00045344311288295774
-0.4754198394541163,-0.4754198394541163,1.0002252178525597,0.000702497687605265
-0.4752602849708637,-0.4752602849708637,1.0005548838050307,0.000522524623697296
-0.475095133628929,-0.475095133628929,1.0002965237139345,0.0005216298860092736
-0.4750181529932888,-0.4750181529932888,0.9999728308082203,0.00048053196601982064
-0.47498460924834945,-0.47498460924834945,0.9997388594038655,0.0006022549365948553
-0.4748574668483343,-0.4748574668483343,0.9993200069771989,0.0006175584111577644
-0.4747608097881312,-0.4747608097881312,1.0001683577675724,0.0006029358446072804
-0.47466142221528573,-0.47466142221528573,0.9994759981347567,0.0006194915795821745
-0.47446856753667815,-0.47446856753667815,0.9996303433121835,0.0005043653380196998
-0.47441267501271794,-0.47441267501271794,0.9999763331755176,0.0005695012333474941
-0.47430060904007404,-0.47430060904007404,1.0003529067186965,0.0004827370976373256
-0.4741462681151461,-0.4741462681151461,0.999137448832206,0.0006115332386865669
-0.4740114911750425,-0.4740114911750425,1.0000014071771295,0.00048257731719903417
-0.4738266553526046,-0.4738266553526046,0.999958081190252,0.0005474122141195588
-0.47369336323463357,-0.47369336323463357,0.9997408414915091,0.0005169876579210456
-0.47348654885427094,-0.47348654885427094,0.9999774504701625,0.000503297704801741
-0.4733238451561192,-0.4733238451561192,1.001286143883699,0.0005179358018986784
-0.47316688103601334,-0.47316688103601334,0.9998139642035861,0.000456743406153619
-0.47305456996837164,-0.47305456996837164,0.9998331074481349,0.000579821867549348
-0.47295637292554604,-0.47295637292554604,1.0000126064570394,0.000443351909724554
-0.4728570589242736,-0.4728570589242736,1.0001862627421025,0.000510917234038538
-0.4728058077394962,-0.4728058077394962,0.9994576035097195,0.00046573953233187016
-0.4727127382298931,-0.4727127382298931,1.000376389081262,0.00047762632964199104
-0.4726205227780156,-0.4726205227780156,1.000457386544653,0.0005227661876574137
-0.4725400157243712,-0.4725400157243712,1.0000617462348935,0.0004521590193831664
-0.47243525910307654,-0.47243525910307654,1.0002095447338295,0.0005331356267225124
-0.47236132161342537,-0.47236132161342537,0.9990976623307913,0.0005486249046700245
-0.4722735298826592,-0.4722735298826592,1.000774228736263,0.0005130771259939426
-0.4721492717595538,-0.4721492717595538,0.9999960269416197,0.0005908008720306654
-0.4720879677217454,-0.4720879677217454,0.9998643680897914,0.0005957612421004187
-0.4719894962356193,-0.4719894962356193,0.9998915149010648,0.0005971532455034564
-0.47182731848733966,-0.47182731848733966,1.0009353585423857,0.00044987933328403983
-0.4716050710820127,-0.4716050710820127,0.9993258117836709,0.0004801785395759579
-0.47147868160973305,-0.47147868160973305,0.9999129754546224,0.0005145877973903849
-0.47134352691937237,-0.47134352691937237,0.999976849235822,0.0006176161911011302
-0.4712102637247881,-0.4712102637247881,0.9999408924768417,0.0005246104035454337
-0.4710940940247383,-0.4710940940247383,0.9998740693654741,0.000492867552544806
-0.47097579771943854,-0.47097579771943854,1.0002869896300357,0.0006018661190842791
-0.47085361410863696,-0.47085361410863696,1.0002843598184952,0.0005055362444546768
-0.47072060003119987,-0.47072060003119987,0.9991068405471925,0.000760680226542685
-0.47059026421629824,-0.47059026421629824,1.0005180006201528,0.000502261928909479
-0.4704792621574597,-0.4704792621574597,1.0002443501269958,0.0005229809485858859
-0.47035405614878983,-0.47035405614878983,0.9988057030669267,0.0006911662518168295
-0.47015656765725,-0.47015656765725,0.9996522900716895,0.0005916343796688681
-0.4700586509337882,-0.4700586509337882,1.000008484271434,0.0005164874053579408
-0.4699815465777647,-0.4699815465777647,1.000311975340761,0.0005510432880533858
-0.469835130564752,-0.469835130564752,0.9999589003223935,0.0004839848621119002
-0.46968181249394547,-0.46968181249394547,0.999543072395323,0.0005804638352179395
-0.4695914442330832,-0.4695914442330832,1.000480989156001,0.0004407176334961474
