time,time,flux,flux_err
-0.499851809071212,-0.499851809071212,1.0002191497148956,0.00020873755860596863
-0.4997129885511337,-0.4997129885511337,0.9997472238576344,0.000297636279220709
-0.4995796282659285,-0.4995796282659285,0.9999262793467206,0.0002016241748654057
-0.4994542658685532,-0.4994542658685532,0.9998823800480823,0.00022062494557145953
-0.499362123584433,-0.499362123584433,1.0002037601329317,0.00018353656375151315
-0.49921395600467805,-0.49921395600467805,1.0001099485152154,0.00020019650881951235
-0.49901705822267106,-0.49901705822267106,1.0003348933520448,0.0002025207244797894
-0.49882950659957714,-0.49882950659957714,0.9995891202559595,0.00022076964553708573
-0.49873245979688363,-0.49873245979688363,1.0001055282891644,0.0001865006671083443
-0.49855883453055866,-0.49855883453055866,1.0000334682940957,0.0001845032767970778
-0.49837961457888014,-0.49837961457888014,1.0000279721992833,0.00019438816792717158
-0.498208832101227,-0.498208832101227,1.0000377334926402,0.00020035627595307463
-0.49807772972490055,-0.49807772972490055,0.9998894819671079,0.00019742428047560737
-0.4980389207608823,-0.4980389207608823,1.00020554361032,0.00020680863960478017
-0.4979266121787077,-0.4979266121787077,0.9998733785650835,0.00020849697586698598
-0.4978271083571599,-0.4978271083571599,1.0000973119175804,0.0001892633555098135
-0.497693832081859,-0.497693832081859,0.9997538129773845,0.00020170003370806436
-0.4975978878770547,-0.4975978878770547,1.0000582516452556,0.00019718787308898277
-0.4974741006102704,-0.4974741006102704,0.9997690687923415,0.00018838022950344528
-0.4973219315659662,-0.4973219315659662,1.0001400072060327,0.00019149133226295932
-0.49717686923759175,-0.49717686923759175,1.0000084246404128,0.0002061230790626484
-0.49697943723658683,-0.49697943723658683,0.9997962264055336,0.00018962910399455773
-0.49690076458864496,-0.49690076458864496,1.0000449417810597,0.00019318258446636994
-0.49680654966286963,-0.49680654966286963,0.9997505769221012,0.00020485272147214838
-0.4966964104678482,-0.4966964104678482,1.000092270413869,0.00019399852102229114
-0.4966231997459545,-0.4966231997459545,0.9997103693214241,0.00017701376296746596
-0.49654307127857467,-0.49654307127857467,0.9997679179503904,0.0001887089198754839
-0.4964583329245215,-0.4964583329245215,0.9999996634838304,0.00020836208331330222
-0.4963584806522704,-0.4963584806522704,0.9999339346893986,0.00020267064420852787
-0.49624106278497493,-0.49624106278497493,0.9994623218137038,0.00020534949166089964
-0.4961147418223845,-0.4961147418223845,1.0000858657123435,0.00018684163886619577
-0.49599305746378375,-0.49599305746378375,1.000219726598213,0.00018866581327981483
-0.49589331815586773,-0.49589331815586773,0.9998379633974182,0.00019401815070378437
-0.49579588530104957,-0.49579588530104957,0.9998478365376482,0.00019279942399450168
-0.49562309884349814,-0.49562309884349814,0.9998455948340432,0.00020252710298985073
-0.4953639163803018,-0.4953639163803018,0.9999729658944878,0.00020150049270189008
-0.4951995982453809,-0.4951995982453809,0.9997853508216327,0.0001969714358662718
-0.4950430132448673,-0.4950430132448673,1.0002861552461861,0.00018846795365404
-0.4948286282386107,-0.4948286282386107,1.0000415920329548,0.0001857610988258982
-0.49464298775274074,-0.49464298775274074,1.000153020445169,0.00019870651066453628
-0.4945513619793928,-0.4945513619793928,1.0002051203550224,0.00018826008238566298
-0.4944051608814334,-0.4944051608814334,0.999864841007106,0.00023006556156576692
-0.49429552034271185,-0.49429552034271185,0.9999805121510251,0.00019671729836358347
-0.4941889811096189,-0.4941889811096189,1.0003129162735742,0.00019119489279158242
-0.494000979118573,-0.494000979118573,1.0001209383986804,0.00019858153359603915
-0.49380694962310373,-0.49380694962310373,1.000133075059926,0.00020365990788407035
-0.493663726504019,-0.493663726504019,0.9998924320884989,0.00021508747173206743
-0.4935259179066634,-0.4935259179066634,0.9997734489679955,0.00018506179160107143
-0.493298876038898,-0.493298876038898,0.9999893634470904,0.00018856042495659183
-0.49319327383782363,-0.49319327383782363,0.9999786683982104,0.00020186239268865118
-0.49306018852075795,-0.49306018852075795,0.9998741756579115,0.0002126587162479146
-0.4929549543914618,-0.4929549543914618,1.0000668738708043,0.0001964133906016408
-0.4929226021173235,-0.4929226021173235,1.0001682626547754,0.0002066992330723257
-0.4928291220443498,-0.4928291220443498,1.0003036012901692,0.000216074055508879
-0.49274487510192555,-0.49274487510192555,1.0001291083547008,0.00019105671622829265
-0.49261295137766864,-0.49261295137766864,0.999967152986281,0.0002048702728331006
-0.49249680530410844,-0.49249680530410844,1.0000164245445096,0.00018953456626347442
-0.4923873072511924,-0.4923873072511924,0.9998770373028292,0.00019634320850014974
-0.49218187648584716,-0.49218187648584716,1.0001879734513024,0.0001907549344020089
-0.4920642228586075,-0.4920642228586075,0.9997982402718962,0.0001993380681150627
-0.49197838029358537,-0.49197838029358537,1.0002239627547456,0.0002044162001144713
-0.49180334296033834,-0.49180334296033834,1.000067725068357,0.00019616561134713946
-0.49173663327892425,-0.49173663327892425,1.0001066140331463,0.00019011504024792834
-0.4916492177340842,-0.4916492177340842,0.9997139868751216,0.00020504324409484644
-0.4915582629982964,-0.4915582629982964,1.0002385769260553,0.00019409342823228053
-0.4914507322573627,-0.4914507322573627,0.99996867032807,0.00018384901696831627
-0.4913337358106219,-0.4913337358106219,1.0001802113026155,0.00021041662901943124
-0.4911191873899952,-0.4911191873899952,1.0000114372908544,0.00020683315798570564
-0.49099071306045516,-0.49099071306045516,0.9998769204064081,0.00020228496581601324
-0.49090542399280823,-0.49090542399280823,0.999911777217599,0.00019069390820357796
-0.4908108155068476,-0.4908108155068476,1.0000104016441784,0.0001903822970396556
-0.49072970371125846,-0.49072970371125846,1.000369380704527,0.00019671138821203107
-0.4905860814411426,-0.4905860814411426,1.0001337002901227,0.00019336664009093373
-0.4904166260617785,-0.4904166260617785,0.9999533945832322,0.00020198750256912324
-0.4902391728523071,-0.4902391728523071,0.9997224909564281,0.00019937980791734808
-0.4900096511788433,-0.4900096511788433,0.9999659887395097,0.00019144295058593248
-0.48983088789100293,-0.48983088789100293,1.0001049196499645,0.0001895949174956909
-0.4896724714497395,-0.4896724714497395,1.0001340032430162,0.00017990103439175152
-0.4894854394784488,-0.4894854394784488,1.0003109300164177,0.00020186594775425888
-0.4893694475933444,-0.4893694475933444,1.0002368863303859,0.00019325513432984437
-0.4892506332944322,-0.4892506332944322,0.9999548315191754,0.00022103346950225748
-0.4891417248421931,-0.4891417248421931,1.0000828794755159,0.000203914504617351
-0.48905245342393755,-0.48905245342393755,0.9996098548452762,0.0001907579054272557
-0.48889383138739506,-0.48889383138739506,1.0001051822422882,0.00019635718395780518
-0.48880460317086544,-0.48880460317086544,0.9999746603803542,0.0001963499624254051
-0.4886311328606098,-0.4886311328606098,0.9999171157481574,0.0001953412118468494
-0.48853200848170675,-0.48853200848170675,1.0003165099467708,0.00021406120525359825
-0.4884193318051985,-0.4884193318051985,0.9999906042041251,0.0001870727185560002
-0.4882049898587866,-0.4882049898587866,1.0001262421022825,0.00019268615628604315
-0.48802309089514895,-0.48802309089514895,0.9998204647218423,0.0001948012229046647
-0.4878617272115662,-0.4878617272115662,0.9999498179070748,0.00019692842578606916
-0.4878072108207562,-0.4878072108207562,1.0000235110769125,0.00020044504512508574
-0.48775291480560556,-0.48775291480560556,0.9997261837014222,0.00021116212807064145
-0.487651219212421,-0.487651219212421,1.0000023258783166,0.00018914284262754047
-0.48755146231560503,-0.48755146231560503,1.0000887399309466,0.00018341802702690017
-0.4874227957916446,-0.4874227957916446,0.9998867011358543,0.0001989309136275623
-0.4873420514493773,-0.4873420514493773,0.999922846656081,0.00018740975571649154
-0.4872543684563425,-0.4872543684563425,0.999984093356548,0.00019426634070632197
-0.4870347857220622,-0.4870347857220622,0.9999740955506352,0.00019066181645603232
-0.4869068308988062,-0.4869068308988062,0.9998191709358549,0.00021089682895157193
-0.4867370435138582,-0.4867370435138582,1.0001951005441587,0.00019872430849247452
-0.4866353073994105,-0.4866353073994105,1.000170755207566,0.0002046466901834369
-0.4865683872376394,-0.4865683872376394,0.99980170788844,0.0001938028555935872
-0.48644370240945134,-0.48644370240945134,0.9999527206455611,0.00020390085684725227
-0.48633955850600613,-0.48633955850600613,1.0001457253770558,0.000187963301737728
-0.48623507620432066,-0.48623507620432066,0.9998547827101497,0.00018775429530025424
-0.4860880954947788,-0.4860880954947788,1.0000875456197722,0.0002167202465562132
-0.4859346443830873,-0.4859346443830873,0.9999543304227334,0.00020133318487748332
-0.48578818323658196,-0.48578818323658196,1.0000002478821084,0.00019042014843648086
-0.4856857616905472,-0.4856857616905472,0.9996366899050587,0.00019113737110620948
-0.48562507324750187,-0.48562507324750187,1.0003104289413005,0.00019202169131096275
-0.48550945452443556,-0.48550945452443556,1.0004655801469766,0.00019743727294972447
-0.4853416516038124,-0.4853416516038124,0.9998124515638118,0.00019031201119850636
-0.4851502012643323,-0.4851502012643323,0.9997610030700477,0.0002026836293074744
-0.48489919774001466,-0.48489919774001466,1.0003423745942368,0.00019334837181137268
-0.48472693077783335,-0.48472693077783335,1.0001083795730317,0.00018668217713653168
-0.48461526301616686,-0.48461526301616686,1.000129466819545,0.00019262279723469686
-0.48448666328185935,-0.48448666328185935,1.000160847399203,0.0001801973340409488
-0.48430911666946486,-0.48430911666946486,0.9999611266811396,0.00020196663074064798
-0.48421522257776817,-0.48421522257776817,0.9999286199186525,0.00020107631167750353
-0.48409811083911336,-0.48409811083911336,0.9997378495473725,0.00022075095403960608
-0.4840285032587417,-0.4840285032587417,1.0003609523686046,0.00018535315308044375
-0.4839349839341594,-0.4839349839341594,0.9997286959316574,0.00019798064655183524
-0.4838182717525342,-0.4838182717525342,0.9999414150679924,0.0001896868321649441
-0.4836534254900471,-0.4836534254900471,0.9999537179443267,0.00019088381592113841
-0.48352127836333236,-0.48352127836333236,0.9998633267093545,0.0001973329449277051
-0.48338998640028874,-0.48338998640028874,0.9996809053710487,0.00021315729958145316
-0.4832522251708724,-0.4832522251708724,0.999944548639774,0.0001941688483402277
-0.48300373549427605,-0.48300373549427605,0.9998478511432458,0.00019716069050665195
-0.48290402464263027,-0.48290402464263027,1.0001320860377059,0.00021400177053444895
-0.48275716716016176,-0.48275716716016176,0.9995622722561874,0.0001962757566436177
-0.48268244323917314,-0.48268244323917314,0.9998838429499717,0.00019610406639256886
-0.4826339097438904,-0.4826339097438904,0.9998424804158397,0.0001905925435251214
-0.48255718738000725,-0.48255718738000725,0.9999970800502261,0.00020562659389724213
-0.48250102297533887,-0.48250102297533887,0.9999713163528151,0.0001885623706320001
-0.48239147579079145,-0.48239147579079145,0.9997632874360922,0.00018293047311069234
-0.48230275690657437,-0.48230275690657437,0.999845168585162,0.00019958698256658161
-0.4822148379906139,-0.4822148379906139,0.9998133852869101,0.00019275632452282298
-0.48212360621910194,-0.48212360621910194,0.9999955339113299,0.00019413180811380645
-0.48191942873745575,-0.48191942873745575,0.9999101726006552,0.00018557599727937437
-0.4817674624660867,-0.4817674624660867,0.9997083078573608,0.00020192780923552795
-0.4817172244896938,-0.4817172244896938,0.9997882069612055,0.00021751419770356023
-0.4815671061485773,-0.4815671061485773,0.999880894481217,0.00019215018827944285
-0.4814833618773264,-0.4814833618773264,1.0000747232399898,0.0001923874942107526
-0.4813340565022372,-0.4813340565022372,1.0000017498611673,0.00020647747035403458
-0.48119024298575824,-0.48119024298575824,0.9998367548199617,0.00019009582624553183
-0.4810902082776011,-0.4810902082776011,1.000043868160604,0.00020280387226718604
-0.4809409076282464,-0.4809409076282464,1.000145639812405,0.000196308551016411
-0.4807266281444754,-0.4807266281444754,0.9999745046916528,0.00018247331910052804
-0.4806464040950232,-0.4806464040950232,0.9997452334981396,0.0001906114260809616
-0.4805410048116755,-0.4805410048116755,0.9999002769744783,0.0001925803796709909
-0.48046353191894015,-0.48046353191894015,0.9999014196233744,0.00019564209639281836
-0.4803301450876461,-0.4803301450876461,0.9998789463495641,0.00019396900129715574
-0.48021395463874794,-0.48021395463874794,1.0002883306505024,0.00019909789088089813
-0.48013179478657547,-0.48013179478657547,1.0000905161442581,0.00019892009092404786
-0.4799117710994324,-0.4799117710994324,1.0002537109542515,0.00019260633431798514
-0.47969383905729046,-0.47969383905729046,0.9998263707327372,0.0001895566261022582
-0.47952967474775504,-0.47952967474775504,1.0002593350623004,0.0002037332847965718
-0.47943389954307347,-0.47943389954307347,1.000273202780497,0.0001897483923254199
-0.4793406772725575,-0.4793406772725575,0.9997802006774734,0.00018773251633755222
-0.47920018621298366,-0.47920018621298366,0.9997972347756694,0.0001952896423431603
-0.4790879949061491,-0.4790879949061491,1.0000332197736133,0.00019850743436823073
-0.47899842412152793,-0.47899842412152793,0.9999024758237305,0.00020233605061264044
-0.47888758825865807,-0.47888758825865807,0.9998133168440955,0.00020645953249650512
-0.47879943368025124,-0.47879943368025124,0.9995832880447933,0.0001985341248831953
-0.4787184533815889,-0.4787184533815889,1.0003502722182933,0.0001954856333480658
-0.47858740311348813,-0.47858740311348813,0.9999196839349841,0.0001954814136585626
-0.47845472721091936,-0.47845472721091936,0.9999224199243152,0.00019152140221764924
-0.4783117935992777,-0.4783117935992777,0.9999660834346171,0.00019626417135367745
-0.47820169790138606,-0.47820169790138606,0.9997972408889353,0.00020405303457553644
-0.4779453526243742,-0.4779453526243742,1.0003189495645644,0.00019286527347806484
-0.47776776265673104,-0.47776776265673104,0.9998590308577743,0.0002208261742228809
-0.4776502488894039,-0.4776502488894039,0.9999970296282035,0.0001906966395652423
-0.47755551407099117,-0.47755551407099117,1.00020692462566,0.0001941739163840003
-0.47752139075091693,-0.47752139075091693,1.000153151469339,0.00019345863709272875
-0.47745962382250584,-0.47745962382250584,0.9999440291424981,0.00020749169158655457
-0.4773751871041895,-0.4773751871041895,1.0001399578043224,0.0001917037252287853
-0.4772377946253982,-0.4772377946253982,1.0000723002655314,0.0001829214449348183
-0.4771412008536572,-0.4771412008536572,0.9999044572171112,0.0002092234772469153
-0.4770739851810504,-0.4770739851810504,0.9998776802148235,0.00018668831135305484
-0.4769549228658434,-0.4769549228658434,0.9997504433434601,0.0002041223624766249
-0.4767899492268043,-0.4767899492268043,0.9999312968265798,0.00018175779573793206
-0.47664150937052907,-0.47664150937052907,0.9996633738073477,0.00019065055207364177
-0.47659571537951706,-0.47659571537951706,0.9995899722810012,0.0002085743630899437
-0.47651057397379193,-0.47651057397379193,0.9999226908759467,0.00020561200521907315
-0.4763772923346551,-0.4763772923346551,1.0001589305490313,0.0001951092441139942
-0.47624825208913535,-0.47624825208913535,1.0001082395825038,0.00019078620933908648
-0.476186355878599,-0.476186355878599,0.999942521856523,0.00019533544724324435
-0.47609215024640433,-0.47609215024640433,1.0001008191743206,0.00020052563390442175
-0.47596167578813037,-0.47596167578813037,1.0003033112364395,0.00018766726741732126
-0.47591416109207785,-0.47591416109207785,0.9996953861380525,0.00019668535363978314
-0.4757727220116067,-0.4757727220116067,0.9999215615936796,0.00020702444987732017
-0.47561864505987617,-0.47561864505987617,1.0000878507665953,0.0001922151202324265
-0.4755191012351133,-0.4755191012351133,1.0004007942454551,0.00018584807475912645
-0.4754332943943155,-0.4754332943943155,1.0001692267209505,0.00018978739596471183
-0.4753562371166481,-0.4753562371166481,1.0000138333312785,0.0001985740782272954
-0.47521524912954194,-0.47521524912954194,0.9998540786239604,0.00021187811515373492
-0.4751287078965106,-0.4751287078965106,0.9999585681751609,0.00018699512664963237
-0.4750070811533078,-0.4750070811533078,1.0002301247569219,0.00020767760893776452
-0.47489588032476604,-0.47489588032476604,1.0000765530213904,0.00020100538844202708
-0.4747385695758567,-0.4747385695758567,0.9996845560762335,0.00020154094935530918
-0.474487018045329,-0.474487018045329,0.9999848118611883,0.0001928661457407046
-0.4743725232066936,-0.4743725232066936,0.9999894028483644,0.00020738711021507525
-0.47427421558313654,-0.47427421558313654,1.0001428224089244,0.00018821416611956426
-0.4741419812482491,-0.4741419812482491,1.000116522368959,0.00018516030199082573
-0.473958128970844,-0.473958128970844,0.9998636470929085,0.00019817117788260304
-0.47389663884459876,-0.47389663884459876,1.0000615385348526,0.000198565824082596
-0.47378271878915257,-0.47378271878915257,0.999676672411745,0.00019548206742680028
-0.4736675974279933,-0.4736675974279933,1.000012627565503,0.00017705651909093198
-0.47353832397202494,-0.47353832397202494,1.0002134792218382,0.0001972807110464182
-0.4733897148973483,-0.4733897148973483,1.0002555832728786,0.00020514237939721905
-0.4732758093545272,-0.4732758093545272,1.0002526923631483,0.00019129075202595046
-0.4731698801973835,-0.4731698801973835,1.0000389039507314,0.00019634075385205097
-0.47305134408306915,-0.47305134408306915,1.000221482868271,0.00021846623843917878
-0.4728044096591475,-0.4728044096591475,0.9998732056253209,0.00019682908643302988
-0.4726367679410032,-0.4726367679410032,0.9998262098383492,0.00019018122852116438
-0.4725108671373164,-0.4725108671373164,1.000085898211601,0.00019877624439324475
-0.47242308987188153,-0.47242308987188153,1.0001054813412487,0.00020048380506719612
-0.47236456364407786,-0.47236456364407786,0.9998981496676178,0.00018788492821180018
-0.4723027163257939,-0.4723027163257939,0.9998046951778754,0.00020674186734138484
-0.47220193737302907,-0.47220193737302907,0.9999158834149459,0.00019297013242078822
-0.4720700898389623,-0.4720700898389623,1.000303507435613,0.00018739186099088766
-0.4719598342104291,-0.4719598342104291,0.9995694421461451,0.00020060807184142513
-0.4719048288257909,-0.4719048288257909,1.000102450343729,0.00019694011753249182
-0.47180830472862,-0.47180830472862,0.9996329207914583,0.00021441245516661114
-0.47167227780810206,-0.47167227780810206,1.0000488206059142,0.00018447440152253891
-0.4715015090790985,-0.4715015090790985,1.0002816439102422,0.000211866196483823
-0.4714254919366795,-0.4714254919366795,0.9998145760795569,0.00020917688826627536
-0.47131124035513494,-0.47131124035513494,0.9997742261321079,0.00020414170486367364
-0.4712200964524527,-0.4712200964524527,0.9998858583648549,0.00019217224473800897
-0.4710887830144202,-0.4710887830144202,1.000026013492907,0.00019088717723013052
-0.47103154785290824,-0.47103154785290824,1.0000371045206549,0.00020095254094073801
-0.4709213966583775,-0.4709213966583775,0.9999413844307711,0.00019372877837315266
-0.47079298276730697,-0.47079298276730697,1.0001563654030254,0.00020160106174970535
-0.47068746112126975,-0.47068746112126975,0.9997927689112297,0.0002031817603023774
-0.4705422912891663,-0.4705422912891663,0.9998941323237205,0.00020591255753396793
-0.470408551782748,-0.470408551782748,1.000098413392989,0.00019237217527331914
-0.4703390666443738,-0.4703390666443738,0.9996223895554784,0.00019007673386127588
-0.4702527954330435,-0.4702527954330435,0.9996906512502726,0.00019254275141884753
-0.47013725646829696,-0.47013725646829696,0.9997980801151473,0.00020050570417880887
-0.47000030847630114,-0.47000030847630114,0.9999187363780516,0.00019074818166894464
-0.46989586906929615,-0.46989586906929615,1.0000723755597796,0.000209535189180696
