time,time,flux,flux_err
-0.49954164517657773,-0.49954164517657773,1.0002854959756509,0.00026826622504944693
-0.49858101552975614,-0.49858101552975614,1.000041749684946,0.0002687774877383623
-0.49756402674514294,-0.49756402674514294,1.000080207940388,0.00027075116827634827
-0.49666581578640034,-0.49666581578640034,0.9999025739047397,0.0002465785121026332
-0.4956636181967042,-0.4956636181967042,1.000924004035958,0.00024482876602898725
-0.495200258649129,-0.495200258649129,0.9998586611871971,0.0002443486964948037
-0.4943536690210749,-0.4943536690210749,0.9995501044152647,0.0002462564858893531
-0.49382538355712313,-0.49382538355712313,0.9999987537081996,0.0002453005790512979
-0.4928948433509504,-0.4928948433509504,0.999773195401945,0.0002448728510766486
-0.49211085944552907,-0.49211085944552907,0.999904547382059,0.0002448621459835872
-0.49098415922489946,-0.49098415922489946,1.0001485665823389,0.0002450922855948505
-0.4903476606436016,-0.4903476606436016,0.9997097038722643,0.00024588217620941
-0.489335714270419,-0.489335714270419,0.9996458978908459,0.0002459828451904743
-0.4890412362437928,-0.4890412362437928,1.0006061852562316,0.0002444883149537121
-0.4883420371777902,-0.4883420371777902,1.000122223415873,0.0002452377707007105
-0.48765605658263667,-0.48765605658263667,1.0000689240589942,0.00024509081693583235
-0.48704494565317874,-0.48704494565317874,1.0002334592464124,0.00024526377062693527
-0.48634987693585574,-0.48634987693585574,0.9998506785032093,0.0002458651464841464
-0.4857727412454551,-0.4857727412454551,1.000038422797259,0.00024557172968407487
-0.4845010985111003,-0.4845010985111003,0.9999459015640397,0.0002445716661390352
-0.4837906869397557,-0.4837906869397557,0.999836113612092,0.00024574729887054126
-0.482868796098046,-0.482868796098046,1.000077165322384,0.0002439310343306428
-0.4823891851447115,-0.4823891851447115,0.999713970852701,0.00024325180844957917
-0.48148196823094624,-0.48148196823094624,0.999907165854547,0.0002496819164589402
-0.48099031608217047,-0.48099031608217047,0.9999623564244402,0.00024384173427005298
-0.48021925492212175,-0.48021925492212175,0.9999023609404265,0.00024619071498701916
-0.47948163274049876,-0.47948163274049876,1.000000933989101,0.00024405634053996928
-0.4781159768652287,-0.4781159768652287,1.0004041846947305,0.0002450491400340035
-0.4773743129655486,-0.4773743129655486,0.9996890917831817,0.00024482563626289155
-0.47645719425199784,-0.47645719425199784,0.9997923554962804,0.00024501063390260964
-0.4757298955402803,-0.4757298955402803,1.000148371231846,0.00024482310186103385
-0.47473437689841375,-0.47473437689841375,1.0000275105956258,0.0002512589687902095
-0.47414610274136065,-0.47414610274136065,0.9999511845128437,0.00024562262366368865
-0.4733148256018467,-0.4733148256018467,0.9999303793084546,0.0002470094854135036
-0.4727515476246481,-0.4727515476246481,1.0002314373985386,0.00024448601104500007
-0.47147066723264286,-0.47147066723264286,0.9999915320478042,0.00024531512558044087
-0.4708096481372195,-0.4708096481372195,1.0001613263166622,0.00024451226677478776
-0.4698941073125752,-0.4698941073125752,0.9997696031820732,0.00024534485778759886
-0.46931874153888203,-0.46931874153888203,0.999512977954865,0.0002443611540104731
-0.4682399511853873,-0.4682399511853873,0.9994527241819913,0.00024434761525185165
-0.4675508602209447,-0.4675508602209447,1.0000687716142598,0.00024663496594779183
-0.46657079793221784,-0.46657079793221784,0.9998484618955052,0.00024481279914400473
-0.46586077497704537,-0.46586077497704537,1.000362171735353,0.00024598285633420396
-0.46441454070663896,-0.46441454070663896,1.0000454567217205,0.00024426430614603496
-0.4639433795993682,-0.4639433795993682,0.9999081253421659,0.00024408183636701305
-0.46314969921077137,-0.46314969921077137,0.9999441586185558,0.0002473079902034415
-0.4625791729937191,-0.4625791729937191,1.0000022429963633,0.00024377308472931053
-0.46163630327937427,-0.46163630327937427,1.0003103766757246,0.0002451430052379526
-0.4608588874041743,-0.4608588874041743,0.9998031620822191,0.0002450568564470533
-0.45996149499405875,-0.45996149499405875,1.0000694774355665,0.0002486602962677816
-0.4592971301797661,-0.4592971301797661,0.9999204763544067,0.0002457193396196059
-0.45805493316511275,-0.45805493316511275,0.9999256598181221,0.0002443893078245921
-0.457683017951058,-0.457683017951058,0.999835668675589,0.00024412864742666385
-0.4567700817788136,-0.4567700817788136,0.9999739318405855,0.0002463142509669928
-0.4563077309001528,-0.4563077309001528,0.9997454005932923,0.0002450401997117839
-0.4555329903276288,-0.4555329903276288,1.0001579691667764,0.0002482706082105395
-0.45480876364235884,-0.45480876364235884,0.9999261485386125,0.00024373998172127486
-0.45381402796701875,-0.45381402796701875,0.9999130482745354,0.00024462472126418036
-0.4528892552894831,-0.4528892552894831,1.0001646479128934,0.0002435307068558303
-0.45206162611793843,-0.45206162611793843,0.9995394718153312,0.00024676258375379523
-0.45132721155532635,-0.45132721155532635,1.0003076379496734,0.000244966703207558
-0.4507296394884179,-0.4507296394884179,1.0002510376723186,0.00024337978411260016
-0.4499119412503205,-0.4499119412503205,0.9998139005031108,0.0002469438085212983
-0.44937553635973015,-0.44937553635973015,1.0002536594286338,0.00024517107078001854
-0.44864628377908955,-0.44864628377908955,0.9998803161161472,0.00024647760493716865
-0.44803398797521365,-0.44803398797521365,0.9999729398157291,0.00024485192931572055
-0.4467162465742149,-0.4467162465742149,0.9998295047364039,0.00024495494476653326
-0.4461151505129237,-0.4461151505129237,0.9999565449604717,0.0002450126099597353
-0.4452443246700568,-0.4452443246700568,0.999801997227381,0.00024498609764323523
-0.4447416129252815,-0.4447416129252815,1.0000973143031389,0.00024454843519185887
-0.443796224964899,-0.443796224964899,1.0002002758946742,0.00024928649393395416
-0.44316157836510683,-0.44316157836510683,0.9997982662168285,0.00024389443861675672
-0.44239328028124875,-0.44239328028124875,0.9997070945617879,0.00024613725722656037
-0.4416532900206221,-0.4416532900206221,0.9998174007210399,0.00024447162341893156
-0.44046405252374826,-0.44046405252374826,1.0001348027188413,0.00024568899521161216
-0.4395498559795669,-0.4395498559795669,0.9997434412698674,0.00024474140802560596
-0.4386332640082401,-0.4386332640082401,1.0004703239346493,0.0002451519409080311
-0.4379058960679686,-0.4379058960679686,1.0000146403233983,0.0002446949028478625
-0.4368183679856884,-0.4368183679856884,0.9999786067641991,0.00024585040970880284
-0.43615496271668236,-0.43615496271668236,1.0002678682397694,0.00024517190824680906
-0.43537938215449684,-0.43537938215449684,0.9998544736261366,0.0002452358804750981
-0.43462833950761703,-0.43462833950761703,0.9996479992304812,0.00024708266701035535
-0.4331533470576687,-0.4331533470576687,1.0001888675442454,0.00024326009881177582
-0.4326814730593469,-0.4326814730593469,1.0002133302577492,0.0002449086065735741
-0.4318744246840652,-0.4318744246840652,1.0001585962139534,0.00024713910336395965
-0.43132878673932284,-0.43132878673932284,1.0001485598346196,0.00024356826662820643
-0.43024670903250806,-0.43024670903250806,0.9993264554540003,0.0002455775752535127
-0.42938803534634645,-0.42938803534634645,0.9999330720428794,0.00024468330240131594
-0.4285396380480961,-0.4285396380480961,0.9998800031867694,0.0002457444367979268
-0.42757285998450245,-0.42757285998450245,1.0004643410661722,0.0002479829949441912
-0.42655134298984193,-0.42655134298984193,1.0000734536015499,0.00024345381700779765
-0.4258917946332076,-0.4258917946332076,0.9999730251335242,0.0002454277226524445
-0.4252068840403808,-0.4252068840403808,0.9998880626450569,0.0002463516356430313
-0.4245636645289778,-0.4245636645289778,1.0002990579866355,0.00024467947275513846
-0.42367593844392104,-0.42367593844392104,0.9995797400757471,0.00024524270174625725
-0.42295739627370493,-0.42295739627370493,1.0000231708667813,0.0002452521172589241
-0.42208236840961033,-0.42208236840961033,1.0003264420166003,0.00024702435778042365
-0.42141646867748933,-0.42141646867748933,0.99984404136703,0.0002455604240548542
-0.4203396406235697,-0.4203396406235697,1.0001633038022457,0.00024593519575257883
-0.41995659597305346,-0.41995659597305346,1.000207968966205,0.0002444593901000789
-0.419288717420568,-0.419288717420568,0.9998800913412138,0.00024481574674656373
-0.4186478549258027,-0.4186478549258027,1.0002479933831698,0.0002466839514626483
-0.4181214341908344,-0.4181214341908344,1.000033785527036,0.00024484674012046476
-0.4173719750062446,-0.4173719750062446,1.000228758759384,0.00024479641466444013
-0.41669076330217647,-0.41669076330217647,0.999563545866442,0.00024547684305945526
-0.4155088865532889,-0.4155088865532889,0.9999335610893303,0.0002435611691870768
-0.4148516232307884,-0.4148516232307884,1.0001514658702522,0.0002456667050914076
-0.41386107589132737,-0.41386107589132737,0.9999118704123038,0.0002468788773577906
-0.4134405422162672,-0.4134405422162672,0.9999830529444754,0.00024325752812257018
-0.41253727995572265,-0.41253727995572265,1.0000964880792889,0.0002478971978991136
-0.41200578084317385,-0.41200578084317385,1.0000092081725511,0.0002453595827248425
-0.4113966869947035,-0.4113966869947035,1.0002056292492747,0.00024616598548511903
-0.4106734125300136,-0.4106734125300136,0.9994799840769769,0.00024388074012527205
-0.40973211567543333,-0.40973211567543333,0.9999843842502031,0.00024592124006550233
-0.4085598729740013,-0.4085598729740013,1.000270621751217,0.0002445592924207708
-0.40798037794738773,-0.40798037794738773,0.9995186909413178,0.0002448340788433053
-0.40709530531967175,-0.40709530531967175,1.0001132745819663,0.0002456575193126461
-0.4065795403737866,-0.4065795403737866,1.000436619815461,0.0002451707899484669
-0.4056500293874706,-0.4056500293874706,1.0000094524481757,0.00024867964087361825
-0.4050671543249337,-0.4050671543249337,1.000083434556862,0.00024559356430456353
-0.404232284486352,-0.404232284486352,1.0002672828901478,0.0002459834125424556
-0.4034083237071172,-0.4034083237071172,1.0001430583463613,0.00024660274022000113
-0.4018563431847724,-0.4018563431847724,0.9998718944777071,0.000244468756790845
-0.40119730766891737,-0.40119730766891737,1.0000535642005777,0.0002448911038088349
-0.4004950872818881,-0.4004950872818881,1.0000678178337918,0.00024406405338069543
-0.39958622248232134,-0.39958622248232134,1.0001514849747635,0.00024553125261808216
-0.3987556913940352,-0.3987556913940352,1.0000228095335717,0.00024405814356032963
-0.3978641319248709,-0.3978641319248709,1.0000589868820557,0.0002457518925069152
-0.3970146094026859,-0.3970146094026859,1.000393217684465,0.0002459494962442467
-0.3955326757160947,-0.3955326757160947,0.9996025190681938,0.00024445107555754207
-0.3951107962850074,-0.3951107962850074,0.9999330548484224,0.00024586273635591896
-0.3942671064585738,-0.3942671064585738,0.9997832977677069,0.0002476712639529655
-0.39383644389745315,-0.39383644389745315,1.0000562035615692,0.00024235807659018612
-0.39287129184158404,-0.39287129184158404,0.999993503356996,0.0002471886831921062
-0.3921794434041658,-0.3921794434041658,0.999847583661696,0.00024376704912818832
-0.39113771525444463,-0.39113771525444463,0.9997634115916716,0.00024571091211081353
-0.3904643151487107,-0.3904643151487107,0.9999128376382542,0.0002475004096225313
-0.38916391856910193,-0.38916391856910193,1.0002066198798496,0.000247307382611339
-0.38866265843607833,-0.38866265843607833,0.9995651800004195,0.00024434790642350386
-0.38787902935146124,-0.38787902935146124,0.9998141218994896,0.00024600080493706233
-0.3873158118425636,-0.3873158118425636,1.000299902504492,0.0002448100020997315
-0.3865071372652892,-0.3865071372652892,0.9999009351217201,0.0002463937284293288
-0.3857297431837651,-0.3857297431837651,1.0001988397309687,0.00024376125949708387
-0.38473037297080737,-0.38473037297080737,0.999662548701701,0.0002447493121041838
-0.3838078452587069,-0.3838078452587069,0.9997615888414846,0.0002436708507742606
-0.38297124322198217,-0.38297124322198217,0.9999137170067552,0.00024675509017251293
-0.3822420875301759,-0.3822420875301759,1.0002533157860085,0.0002448916311976835
-0.3818230204786232,-0.3818230204786232,1.0000426087158627,0.0002443565707427269
-0.3809185249490838,-0.3809185249490838,1.000244554739079,0.00024502939211575985
-0.3804076496431662,-0.3804076496431662,1.000064692694583,0.0002469536367068293
-0.37972697626391894,-0.37972697626391894,1.0001890833176978,0.0002450815373315293
-0.37913159710005856,-0.37913159710005856,0.9997230099492235,0.000244855653574617
-0.37814566224697044,-0.37814566224697044,1.000376576645543,0.0002459660715924507
-0.37712542380031666,-0.37712542380031666,1.0001231557633834,0.00024379377671842765
-0.3762887967423012,-0.3762887967423012,1.000057346478696,0.00024464366032713673
-0.37568073913280386,-0.37568073913280386,1.0002644195771186,0.00024494538342464056
-0.37492682359588797,-0.37492682359588797,1.000169349971775,0.00024639216129665475
-0.374267809970479,-0.374267809970479,0.9995783980512897,0.0002469022813793377
-0.37364744629667257,-0.37364744629667257,0.9999529782823284,0.000244817032912757
-0.3728448094341729,-0.3728448094341729,0.9997027490165715,0.00024405974874452046
-0.37190875491942277,-0.37190875491942277,1.0000587424604512,0.00024586093154603723
-0.37059185044490733,-0.37059185044490733,1.0002391424317643,0.0002445361859269394
-0.3699418722484552,-0.3699418722484552,0.9997634687282803,0.0002426838903383282
-0.3691852922733233,-0.3691852922733233,1.000122077342992,0.00024627545384503665
-0.36835459370631723,-0.36835459370631723,1.0000660009415234,0.0002505855188326196
-0.3676288606024173,-0.3676288606024173,1.00030653578194,0.00024589320775922536
-0.36691170611884444,-0.36691170611884444,0.9997797552300891,0.0002449467935839943
-0.366143112222926,-0.366143112222926,1.000005423561554,0.00024687930752638904
-0.36540270086552484,-0.36540270086552484,0.9999866051183284,0.00024771993413999494
-0.3640691421329393,-0.3640691421329393,0.9999458833527305,0.0002431223297054534
-0.36359592959852305,-0.36359592959852305,0.9998076000628243,0.00024484421935637
-0.362724571016588,-0.362724571016588,0.9996267988337678,0.0002459041973617649
-0.36200454401114257,-0.36200454401114257,1.000091009039415,0.0002435962362233186
-0.361057626051479,-0.361057626051479,0.999639072682803,0.00024564316590652
-0.3602567883368465,-0.3602567883368465,0.9998915400640079,0.0002457510091140073
-0.3593195936125994,-0.3593195936125994,1.0002678135121374,0.00024530385296740005
-0.3580206652928609,-0.3580206652928609,1.0000738872757657,0.0002455042560355119
-0.3573374378007429,-0.3573374378007429,1.000042123181902,0.0002443265505792527
-0.35644813369217443,-0.35644813369217443,1.0001554728581192,0.0002478282108183356
-0.3560100694325229,-0.3560100694325229,0.9998418170364667,0.00024238600869337619
-0.3550457149322028,-0.3550457149322028,0.999920909594343,0.0002471403604895043
-0.3543515718141862,-0.3543515718141862,1.0000764018527284,0.00024381489724366632
-0.3533148348011309,-0.3533148348011309,0.9998080016643623,0.00024558996150480866
-0.35265290101233404,-0.35265290101233404,1.000211653155607,0.0002474872521082652
-0.35163936367753196,-0.35163936367753196,1.0000919968374302,0.00024666468307342476
-0.35090349614692967,-0.35090349614692967,1.0000583996711256,0.00024358334327951784
-0.3502468505372235,-0.3502468505372235,0.999986192121187,0.000245738896144988
-0.3495616780186538,-0.3495616780186538,0.99967877800546,0.0002465906689313378
-0.34897897976989045,-0.34897897976989045,0.9997332552710672,0.0002452346358789958
-0.3481617223871581,-0.3481617223871581,0.9998811358169475,0.00024489888869006437
-0.3473749941404094,-0.3473749941404094,0.9997930969540448,0.0002448077620805302
-0.34625458311056717,-0.34625458311056717,0.9997429156609503,0.0002448866049098981
-0.34561700275808105,-0.34561700275808105,1.0001725227639287,0.00024578814599252795
-0.34455856427521214,-0.34455856427521214,1.0000084631331039,0.0002455572845002144
-0.3441550955059938,-0.3441550955059938,0.999595489613857,0.00024186894430759128
-0.3432650298142107,-0.3432650298142107,0.9999195916226634,0.000246431080356328
-0.3426940851590189,-0.3426940851590189,0.9995998905788894,0.0002455243245004771
-0.3420551185401564,-0.3420551185401564,0.9996873500598887,0.0002462337920658048
-0.34141260306350885,-0.34141260306350885,1.0000856971891716,0.0002447247009327463
-0.34037521297577766,-0.34037521297577766,0.9999892007683517,0.0002464514364307447
-0.3393366530188359,-0.3393366530188359,1.0000359135211387,0.0002425466755285344
-0.33870231475739276,-0.33870231475739276,0.9999802231374595,0.00024688857822124976
-0.3380065479403129,-0.3380065479403129,0.9998352868429162,0.0002456225918599846
-0.33752470332401574,-0.33752470332401574,1.0001722623665057,0.00024366557305440195
-0.3365657158617978,-0.3365657158617978,0.9998685563900814,0.000247364724862107
-0.33598834412405265,-0.33598834412405265,1.0000557351148265,0.0002454979230011383
-0.335149839863152,-0.335149839863152,0.9999867290940655,0.00024535325008995484
-0.3344733978548902,-0.3344733978548902,1.0001648461631614,0.00024538936783350285
-0.3329718478365976,-0.3329718478365976,0.9999821779914848,0.0002445470951410036
-0.3323336994340934,-0.3323336994340934,1.000252026038518,0.0002448526871107289
-0.331455320600071,-0.331455320600071,0.9999523069718192,0.00024574060187159097
-0.3305064658619813,-0.3305064658619813,0.9999397283215032,0.0002455523527811386
-0.3296760228717176,-0.3296760228717176,0.9998017739237566,0.00024402678747874443
-0.3289159555439255,-0.3289159555439255,0.9997638605189028,0.00024590444499723006
-0.32805895381243316,-0.32805895381243316,1.0002149353380385,0.0002449977942157421
-0.32674466862590634,-0.32674466862590634,0.99995391520732,0.0002453444108343174
-0.3260770545050036,-0.3260770545050036,0.9998066237924066,0.0002444501469615138
-0.3251771621471562,-0.3251771621471562,0.9997778959038073,0.00024747948705227296
-0.3247547560778912,-0.3247547560778912,0.9996112149125402,0.00024216350500049711
-0.3236842851722031,-0.3236842851722031,1.0001445135378864,0.00024623493488785166
-0.3229157366717118,-0.3229157366717118,0.9997937635786058,0.00024514921544418913
-0.32190159264791873,-0.32190159264791873,0.9999394512449106,0.00024566009415913516
-0.32118224375954013,-0.32118224375954013,0.9998781801968881,0.00024687701017026134
-0.3198539472396078,-0.3198539472396078,1.0000928552422466,0.0002450728004495119
-0.31939466656986043,-0.31939466656986043,0.9998928589617163,0.00024438244376437737
-0.31845238288951805,-0.31845238288951805,0.9999786982505775,0.000245727280222923
-0.31800637523556363,-0.31800637523556363,0.9997706236945995,0.0002452715506684077
-0.3170391922285489,-0.3170391922285489,0.9997740312042298,0.0002457152706551141
-0.3163495883680298,-0.3163495883680298,1.0001973897176435,0.0002449557253046388
-0.3153329154760286,-0.3153329154760286,1.000169558892102,0.0002450347320622607
-0.3145688283781055,-0.3145688283781055,0.9998978073258964,0.0002455703104053143
-0.3134024691513332,-0.3134024691513332,0.999971653404774,0.0002443729421204825
-0.3129684694176831,-0.3129684694176831,1.0000642497843546,0.0002436479841704016
-0.3122181816950615,-0.3122181816950615,1.000161067141508,0.00024688268112514015
-0.31173923085589195,-0.31173923085589195,1.0000735417545301,0.0002466997057562439
-0.3112133368347713,-0.3112133368347713,0.9996823698038275,0.00024481049919136395
-0.3104637876058405,-0.3104637876058405,0.99998652783646,0.00024480117367273657
-0.3097825728968019,-0.3097825728968019,1.0002599260923297,0.0002455991384393901
-0.3086006124074629,-0.3086006124074629,1.0000979521846505,0.00024349339366706396
-0.3079428476121393,-0.3079428476121393,0.9999174162572118,0.0002457344969519177
-0.3069897332272376,-0.3069897332272376,0.9996415148823464,0.0002467216317887373
-0.30653243792621654,-0.30653243792621654,1.0004479984544674,0.0002432920133736181
-0.3057851223384205,-0.3057851223384205,0.9998773536906717,0.0002459181470546378
