time,time,flux,flux_err
-0.499908985363921,-0.499908985363921,0.999965796070826,0.00022863592548899141
-0.49981002042477485,-0.49981002042477485,1.0002525026961873,0.00022155807673216073
-0.49974676383717453,-0.49974676383717453,1.0000742616753686,0.00019427597211063764
-0.4996134696630179,-0.4996134696630179,1.0000075897646403,0.0002001896668361518
-0.4995009003920131,-0.4995009003920131,1.0000876277943256,0.00019001531069726287
-0.4992616191273555,-0.4992616191273555,0.9996211270795582,0.00019609250710342637
-0.49908962417248404,-0.49908962417248404,1.000132168289395,0.00018231714817088237
-0.49904223046905827,-0.49904223046905827,0.999793927728206,0.0001950900988390845
-0.498951855264022,-0.498951855264022,1.0001857098055176,0.00018273782104720547
-0.49884828394569924,-0.49884828394569924,1.0001554412920384,0.00019988837090097536
-0.4986349911574507,-0.4986349911574507,0.9998342224462347,0.00022049139490247526
-0.49852368774445494,-0.49852368774445494,1.00000489845331,0.0001976673640934028
-0.4984541879617609,-0.4984541879617609,0.9999598555959526,0.00024859077886038637
-0.49838465604989324,-0.49838465604989324,0.9997927083178721,0.00021479687778018017
-0.4982462888743612,-0.4982462888743612,0.9999801143880003,0.00020773421691890442
-0.4981555071193725,-0.4981555071193725,1.0000048408749833,0.00019311558727551717
-0.4980537622162956,-0.4980537622162956,0.9999879758968614,0.00021666239134988794
-0.49794076208927435,-0.49794076208927435,0.9997435334754655,0.00019436570147486395
-0.49783061516063754,-0.49783061516063754,0.9997923981991927,0.00019959267433389808
-0.49774161011737306,-0.49774161011737306,0.9999061734285505,0.0001936094388667505
-0.49764745360589585,-0.49764745360589585,0.9997437817065148,0.00021426720322110932
-0.497438778229116,-0.497438778229116,0.9997717555511695,0.00019765923775100675
-0.497313271999883,-0.497313271999883,1.0000802111215243,0.0002129013322225405
-0.4971985162279452,-0.4971985162279452,0.9999837647551546,0.00018558713821665418
-0.4970728050946491,-0.4970728050946491,1.0000328113390213,0.00018716400703518233
-0.49698857739713276,-0.49698857739713276,1.0003382014261466,0.00019587181405478145
-0.49691177143686216,-0.49691177143686216,0.9999904160016599,0.00020894268149346061
-0.49681603513017764,-0.49681603513017764,0.9999897333001883,0.00019720327775148535
-0.49672234884346833,-0.49672234884346833,0.999807067226629,0.00019980212147411168
-0.4966096628049854,-0.4966096628049854,0.999774391123146,0.00019518651771343882
-0.49648976467287864,-0.49648976467287864,1.0000431863343586,0.0002135083124161208
-0.49639351834048284,-0.49639351834048284,0.9998868763796906,0.00019243396065302023
-0.4963053946848959,-0.4963053946848959,1.0000053101601527,0.00021206088042102786
-0.496173328650184,-0.496173328650184,0.9998732083384938,0.00019352600229281136
-0.4960307738860138,-0.4960307738860138,0.999769848107271,0.00021445750271457644
-0.4959577716668718,-0.4959577716668718,0.9998628583403747,0.0001923991208555486
-0.4958903710648883,-0.4958903710648883,0.9999588747211947,0.0002153007056430576
-0.49571461310988524,-0.49571461310988524,1.0002430474205002,0.00019833837282608196
-0.4955180143180769,-0.4955180143180769,1.0000552435504189,0.00021275070551773234
-0.495417840826849,-0.495417840826849,1.0000816298515747,0.00018737539390027344
-0.4953067784605082,-0.4953067784605082,1.0000834972581536,0.00021089971330133178
-0.49518490247719454,-0.49518490247719454,0.9998659969063721,0.0002129842034058855
-0.4950417809348437,-0.4950417809348437,0.9998541379322786,0.00020319226623608536
-0.494806723902002,-0.494806723902002,0.9996761827466134,0.00018997628000075022
-0.4947425630001817,-0.4947425630001817,1.0003497996102486,0.00020159415498640412
-0.49467786938330394,-0.49467786938330394,1.00033659531873,0.0001954390801762189
-0.49460288238624345,-0.49460288238624345,0.9999842113271645,0.00018748621117131993
-0.49449897237791446,-0.49449897237791446,1.0004563617891187,0.00019283389740555888
-0.4944016590277897,-0.4944016590277897,0.9998528441380538,0.0001973606440222373
-0.4942930226185126,-0.4942930226185126,0.9998090993697571,0.00022943830550460213
-0.49416128195443887,-0.49416128195443887,0.9997811905383525,0.0001920897841099748
-0.49410229577770226,-0.49410229577770226,1.0000264137585617,0.00019295384056891598
-0.49400550182326697,-0.49400550182326697,0.9999167259739231,0.00020127725715896947
-0.49390356833609983,-0.49390356833609983,1.0001892049194343,0.00019701159849229923
-0.49379890493582934,-0.49379890493582934,1.0000221602422363,0.00021969053525414405
-0.4936258377318154,-0.4936258377318154,0.9998837070931523,0.00018635349310114092
-0.4934589702505036,-0.4934589702505036,0.9997813153670048,0.00021321299361885224
-0.49327694728126514,-0.49327694728126514,0.9999763850016302,0.0001920700611918858
-0.4931650534330402,-0.4931650534330402,0.9998247358922183,0.0002209933260186904
-0.49296474114089506,-0.49296474114089506,1.0000551762113736,0.00018999124211042286
-0.4928368809472886,-0.4928368809472886,0.9997892718685673,0.000193798175321476
-0.49273672176641414,-0.49273672176641414,0.9998654348135091,0.00019191108482185523
-0.4926263410539832,-0.4926263410539832,1.0001709350026338,0.00019043941703120033
-0.4925863379132352,-0.4925863379132352,0.9999003680547085,0.00020255656890839964
-0.49248422873934034,-0.49248422873934034,1.0004052402099368,0.00021906080715801516
-0.4924033905233955,-0.4924033905233955,1.000010532081646,0.00018984373387514143
-0.49232158408121907,-0.49232158408121907,1.0001309105419736,0.00019469619306879685
-0.492222484278318,-0.492222484278318,0.9997629073497423,0.00022324287329068365
-0.49212012903008145,-0.49212012903008145,1.0000706633497165,0.00023115911242279694
-0.4920035591523629,-0.4920035591523629,1.000083942810401,0.00020714197195695648
-0.49188949524541387,-0.49188949524541387,1.0001633495832778,0.00019816443796656272
-0.49181077263638145,-0.49181077263638145,1.00016405064436,0.00019362907708872357
-0.4916734276819625,-0.4916734276819625,1.000135118638323,0.00022234818041555747
-0.49158593758329516,-0.49158593758329516,0.9999179639977556,0.00021098950052837948
-0.4914214459582581,-0.4914214459582581,1.000042071430515,0.00018735706325728808
-0.49123240521585104,-0.49123240521585104,0.9999091589205127,0.000220205180569923
-0.4911521015077597,-0.4911521015077597,1.000036682893156,0.00018850306839633362
-0.4910167217050912,-0.4910167217050912,0.999913004228905,0.00021869931236846767
-0.49091235964151564,-0.49091235964151564,0.9997899402813074,0.00019368356603261555
-0.49081329002510754,-0.49081329002510754,1.0001861622895256,0.00021413199056234713
-0.4906985670982976,-0.4906985670982976,0.9999099261922849,0.00019906885330282266
-0.49057962387014414,-0.49057962387014414,0.9996398771214359,0.00019473821461480132
-0.4904465221465216,-0.4904465221465216,0.9999487765701911,0.00020067284132031975
-0.4903685596640571,-0.4903685596640571,0.9999146241758003,0.00019499804647066325
-0.4902394699063734,-0.4902394699063734,1.0001931626780067,0.0002051258478319946
-0.4901324153499445,-0.4901324153499445,1.0001296623643512,0.0001983527225040157
-0.4900169137777993,-0.4900169137777993,0.9999049722423283,0.0002178097841137834
-0.4899070893006865,-0.4899070893006865,1.000284030377524,0.00019470878252507816
-0.48978476064803544,-0.48978476064803544,0.9999536151492739,0.00019790141317129403
-0.4896483324075234,-0.4896483324075234,0.9999109654202127,0.0001946026884582746
-0.4895137315746979,-0.4895137315746979,1.0000257247096325,0.00021526272200187438
-0.48941819653846325,-0.48941819653846325,0.9997423596969851,0.00021493167626524592
-0.4893242359015858,-0.4893242359015858,0.9998407895212253,0.00019481153939330097
-0.48921317870699565,-0.48921317870699565,0.9996983942826301,0.00018390555740438133
-0.4891105692498968,-0.4891105692498968,0.9999961303962582,0.00021138020180504468
-0.4889438789337873,-0.4889438789337873,1.000014086210436,0.0001856720523185223
-0.48889046428666916,-0.48889046428666916,1.0000473082404773,0.0002071745790347236
-0.4888432688661851,-0.4888432688661851,0.9999487737440296,0.0002056272137591015
-0.4887519858239102,-0.4887519858239102,0.9999252350300782,0.00019939685254301477
-0.48866747116408077,-0.48866747116408077,1.0001745613852908,0.0002118994955123981
-0.48851411649084187,-0.48851411649084187,0.9998952417756526,0.00018855569814162315
-0.4883267063603853,-0.4883267063603853,0.9999410903495974,0.0001905387574297819
-0.4882305582825211,-0.4882305582825211,1.0004518956153272,0.00021444844271384386
-0.4880293758193147,-0.4880293758193147,1.000003021550239,0.0001981535873611003
-0.4879267492884537,-0.4879267492884537,1.0003696511277926,0.00021908088754160485
-0.4877335170414881,-0.4877335170414881,0.9999834472100051,0.00018634752690659267
-0.48763005011569477,-0.48763005011569477,0.9998958114514578,0.00019378419367192926
-0.4875567069626413,-0.4875567069626413,0.9997034434727402,0.00021619041765152182
-0.48749565381149296,-0.48749565381149296,0.9998506561592944,0.0002177946298971962
-0.48743111047224374,-0.48743111047224374,0.9997402401993931,0.000193911459271608
-0.4873669737702585,-0.4873669737702585,1.0001049803510342,0.00022083625027186695
-0.4872595210195868,-0.4872595210195868,1.0000757810207062,0.0002151256877326827
-0.4871214482554933,-0.4871214482554933,0.9997057392185885,0.0001888882253760047
-0.4870244334364543,-0.4870244334364543,1.0000648724593666,0.0001897050328018802
-0.4869394393332186,-0.4869394393332186,1.0000960960712117,0.00019643128517544644
-0.48687978621310324,-0.48687978621310324,0.9998764071311201,0.00029611319862909644
-0.48677798898279434,-0.48677798898279434,0.9999094237083461,0.00019605665219159102
-0.48668979936919643,-0.48668979936919643,1.00001068565604,0.00021257837494094217
-0.48660105956660116,-0.48660105956660116,1.0002581358455356,0.00021647830092569767
-0.48647130809695227,-0.48647130809695227,1.000002699266585,0.00020465139603126925
-0.48633203018980564,-0.48633203018980564,1.0002523994946946,0.00019179674992454216
-0.4862420435543754,-0.4862420435543754,1.00032365453608,0.00020048888151728768
-0.4861251795766293,-0.4861251795766293,0.9998431042364484,0.00019355143834109867
-0.485956263555272,-0.485956263555272,0.9997901243133323,0.000208542347087054
-0.48583603029110234,-0.48583603029110234,0.999990134224133,0.0001935579391839908
-0.48574923658161423,-0.48574923658161423,1.0002072135440212,0.00021194931863407628
-0.48563162006321364,-0.48563162006321364,1.0000088592475929,0.00019069694134170632
-0.48548938537278447,-0.48548938537278447,1.0001597126273076,0.00019708802811104696
-0.4853893258492462,-0.4853893258492462,0.9999615646499234,0.00022683367731524741
-0.48527775870024925,-0.48527775870024925,0.9997815352854001,0.00018686836560210434
-0.4852200840847217,-0.4852200840847217,1.0001427372380876,0.00019092384010304953
-0.4850842967774952,-0.4850842967774952,0.9999243237159906,0.00019303209553643276
-0.4849569250174682,-0.4849569250174682,1.000102772967921,0.00020727769038530937
-0.4848109112252132,-0.4848109112252132,0.9999965055898619,0.00019469603160163112
-0.4846514755350654,-0.4846514755350654,1.0002828817079779,0.00021087911020410745
-0.48455096994002816,-0.48455096994002816,0.9999647892906298,0.00021315976407615972
-0.4844387928431388,-0.4844387928431388,1.0000399556445627,0.00021021191230327844
-0.4842855776369106,-0.4842855776369106,1.0001117848183385,0.00019685186226960565
-0.48419298997614535,-0.48419298997614535,0.9998891950659479,0.0001979195788696978
-0.48403212502889803,-0.48403212502889803,0.9996910339073057,0.00019511433144431468
-0.4838865589670604,-0.4838865589670604,1.000002822127527,0.00019823281053332935
-0.48377172860054996,-0.48377172860054996,1.0000651929558024,0.00023128754683588777
-0.4836246875071083,-0.4836246875071083,0.9999490288800492,0.00019515018699616142
-0.483488557182136,-0.483488557182136,1.0001577016607501,0.0001976671033431274
-0.4833297985169338,-0.4833297985169338,1.0000454402571832,0.0002009502906825414
-0.483231112305657,-0.483231112305657,1.0000790904393542,0.00019161753121509423
-0.483126905503741,-0.483126905503741,1.0002672830042303,0.00019453986436109252
-0.48302223164064345,-0.48302223164064345,0.9995195143125176,0.00020429332680603672
-0.48290482976735805,-0.48290482976735805,0.9997916793857662,0.00020084542660239925
-0.4826406293490436,-0.4826406293490436,1.0000727364931494,0.00019051696817663988
-0.4824615738034481,-0.4824615738034481,1.0002893505769475,0.00019987557056775395
-0.4823731521537411,-0.4823731521537411,0.9997240873793036,0.00023604517672491145
-0.4822428218220011,-0.4822428218220011,0.9999418705406417,0.00018618532301918115
-0.4821573600478587,-0.4821573600478587,1.000230103387342,0.00018828156253011846
-0.48205719170509836,-0.48205719170509836,0.999933224418544,0.00019217532154411197
-0.4818810035023489,-0.4818810035023489,1.000320263728072,0.0002142592506837162
-0.48180644998356004,-0.48180644998356004,1.0002462699296695,0.00021570523961629253
-0.4816631158493692,-0.4816631158493692,0.9998879073357315,0.00022872052037608328
-0.48150712826027303,-0.48150712826027303,1.0000632558105598,0.00019630260139159666
-0.4814014047035016,-0.4814014047035016,1.0002592333806977,0.0001898162819947696
-0.4812736807289184,-0.4812736807289184,0.9999426034669396,0.0001875644985405035
-0.48114456419280033,-0.48114456419280033,0.9997689067100657,0.0002112346262181606
-0.4810950666957069,-0.4810950666957069,1.0000307203913879,0.00020193525285873616
-0.4810318844363792,-0.4810318844363792,0.9998467193547581,0.00019808820666327551
-0.4809009020449594,-0.4809009020449594,0.9998657715634838,0.00018951753464842156
-0.4808007962696138,-0.4808007962696138,0.9998427944242527,0.000196537616612348
-0.4806663815674256,-0.4806663815674256,1.0000460876685315,0.00019253497909832646
-0.48047558849066263,-0.48047558849066263,1.0000506732661087,0.0001907919085051148
-0.48036499944864774,-0.48036499944864774,0.9998640584672407,0.00018599651144187592
-0.48030107610538836,-0.48030107610538836,1.0003168995697282,0.00019155137196478345
-0.4802357785010827,-0.4802357785010827,1.0001775592349358,0.00019066440004879997
-0.4801210386693128,-0.4801210386693128,0.999760498982355,0.0002024716630283446
-0.47997441588086076,-0.47997441588086076,1.0004531064234108,0.0002092188103838444
-0.4798541054697125,-0.4798541054697125,1.000036243578537,0.00019941321810197274
-0.47978754487849073,-0.47978754487849073,0.9999987741927019,0.00019320305573324078
-0.4797068690546439,-0.4797068690546439,0.999610791072379,0.00025624727733508407
-0.47955760662443936,-0.47955760662443936,1.0001506336138626,0.00018427488895571273
-0.47950099858571776,-0.47950099858571776,1.0002985629790424,0.00021238488994884262
-0.47938400287530386,-0.47938400287530386,0.9999187446819786,0.00019798464409791298
-0.47927587533922633,-0.47927587533922633,0.9999237842701971,0.00021647519469094304
-0.47915646792389455,-0.47915646792389455,1.0000699958097004,0.00020101506252248862
-0.4790716170260566,-0.4790716170260566,0.999944481146753,0.00018709054822877696
-0.47898636117461135,-0.47898636117461135,1.0001224035756535,0.00021739063233454885
-0.47884548933216137,-0.47884548933216137,0.9999538350117311,0.00019747783719743485
-0.4786638475648942,-0.4786638475648942,0.9999594966332337,0.00019898304632220786
-0.4785216056377976,-0.4785216056377976,0.9999666270489257,0.00020800475356978144
-0.47839819202636136,-0.47839819202636136,0.9995673137897523,0.00018679263887383399
-0.4782825998408953,-0.4782825998408953,0.9996597223530781,0.0001944347118396289
-0.4781961413595127,-0.4781961413595127,0.9999522586837803,0.00020866942362475355
-0.47808713090926175,-0.47808713090926175,1.0001327232327506,0.00019861826554563042
-0.4780036938478588,-0.4780036938478588,0.9999701851701828,0.00019408933400975957
-0.4778936572169187,-0.4778936572169187,1.0004143693223455,0.00019386893121056169
-0.4777830192280817,-0.4777830192280817,0.9999200036248883,0.00019472752889756987
-0.47767444824421545,-0.47767444824421545,0.9998198711988284,0.0002159550199947045
-0.47756050631287505,-0.47756050631287505,1.0000609102219318,0.00022823332632791716
-0.47743173228082014,-0.47743173228082014,0.9998513154789735,0.00021417412825220912
-0.47729578208382006,-0.47729578208382006,1.0001207206569571,0.00018774579887754526
-0.4772521086139022,-0.4772521086139022,0.9999477916076269,0.00019444610069999552
-0.4771597392682452,-0.4771597392682452,0.9998602703977936,0.00021957863022085822
-0.47697264145244844,-0.47697264145244844,1.0000434572950965,0.0001980719290248565
-0.4767768158286344,-0.4767768158286344,0.9999599832469306,0.0002053191530463103
-0.47670051161549054,-0.47670051161549054,1.0003110310452512,0.000187935755951042
-0.47656600886402883,-0.47656600886402883,0.9998836552918032,0.00021140880076575363
-0.4764862275536871,-0.4764862275536871,0.9999565015927068,0.00019059937531027449
-0.4763414510191069,-0.4763414510191069,0.9999737636896657,0.00020267647613453907
-0.476155101848417,-0.476155101848417,1.00022035575054,0.00019078376472492963
-0.4760550342107308,-0.4760550342107308,1.0000920275376335,0.00019787206765550626
-0.476004453843052,-0.476004453843052,0.99977428101983,0.0001991590190088769
-0.4759009085595608,-0.4759009085595608,0.999870165957325,0.00019364147118141562
-0.47581264355103486,-0.47581264355103486,0.999846797487239,0.0001941826377107142
-0.475714450153464,-0.475714450153464,1.0002465635862756,0.00019673810491235274
-0.47555399185512215,-0.47555399185512215,0.999683518461136,0.00022622438345126566
-0.47545189622615,-0.47545189622615,0.9997777267374099,0.00019578340122996916
-0.4753762201304198,-0.4753762201304198,0.9999658554786619,0.00019225475544977537
-0.47530001947307027,-0.47530001947307027,0.9999121666949812,0.00019803729922557772
-0.4751944637551787,-0.4751944637551787,1.0000689886914729,0.0001999616963209468
-0.4750458512629848,-0.4750458512629848,1.0001116675057382,0.0002133326009528934
-0.474907209930825,-0.474907209930825,1.0000920805939122,0.000185294188138471
-0.4747531169326976,-0.4747531169326976,1.0000679666650814,0.00021418606899497244
-0.4745482988990261,-0.4745482988990261,0.9999386083445762,0.00019398167908869128
-0.4744374194182456,-0.4744374194182456,0.9998501934430737,0.00022083790706694221
-0.47422602019942134,-0.47422602019942134,1.0000621638390172,0.0001850342186486277
-0.4740958862690604,-0.4740958862690604,0.9997341821458342,0.0001972518619112375
-0.4739437631535111,-0.4739437631535111,0.9997505081500968,0.00019219773670139383
-0.47389701439387866,-0.47389701439387866,0.9999840215482662,0.00019974082345706784
-0.4737901229367708,-0.4737901229367708,0.9998974373094345,0.00020195971322959895
-0.4737062516869628,-0.4737062516869628,1.000148158168298,0.00020808608459751106
-0.47361871976172554,-0.47361871976172554,0.9998887434733591,0.00019339141884074253
-0.4735038461658405,-0.4735038461658405,1.0000568283736082,0.00023379264294454125
-0.4733957126853056,-0.4733957126853056,1.0001177390592937,0.00023450410027683758
-0.4732642836650484,-0.4732642836650484,1.0000726621386968,0.00020409415230553604
-0.473173455990036,-0.473173455990036,0.9999326446967238,0.00019631133732386351
-0.473129172839981,-0.473129172839981,0.9997942558696747,0.00019277015978064215
-0.4729754805652192,-0.4729754805652192,0.9997802522671474,0.00022296372857544543
-0.4728883874893654,-0.4728883874893654,0.9999689185854426,0.0002193019419057632
-0.47277167099382494,-0.47277167099382494,0.9998860637638891,0.00018503979343123964
-0.4726086134003708,-0.4726086134003708,0.9997542256915224,0.00019687866564631064
-0.47247170833870766,-0.47247170833870766,1.0001445618753422,0.0002213099034430235
-0.4723193809390068,-0.4723193809390068,1.0000043454757988,0.00021504315126650753
-0.47220808040583506,-0.47220808040583506,0.9997754186527903,0.00019828781529936828
-0.4721215552010108,-0.4721215552010108,0.9999039804711669,0.0002161946768948784
-0.4720360427774722,-0.4720360427774722,0.9998384270129707,0.00019931843419110454
-0.4719114775667549,-0.4719114775667549,1.0000819035111719,0.00019930995575323748
