time,time,flux,flux_err
-0.49898983904222405,-0.49898983904222405,0.9998276067940878,0.00016044266818107712
-0.4967341777970432,-0.4967341777970432,0.9998919531151247,0.0001441564056885286
-0.49457261623974774,-0.49457261623974774,0.9998736708559596,0.00014157717793989667
-0.4926450703169394,-0.4926450703169394,0.9998573756046409,0.00013970068809883535
-0.4911047683301149,-0.4911047683301149,1.0003513502491657,0.00013807413416523236
-0.48924692764194333,-0.48924692764194333,1.0002294283525979,0.00013909305181615596
-0.4876750804567564,-0.4876750804567564,0.9994509217671357,0.00013873584292841621
-0.486414041642638,-0.486414041642638,1.000059047554996,0.0001380378764070105
-0.48469130244411646,-0.48469130244411646,0.999520243604675,0.00013848850644400092
-0.48328983924729985,-0.48328983924729985,1.0003315823899477,0.00013808494938438913
-0.48199091840760955,-0.48199091840760955,1.000119183998702,0.0001385406101870656
-0.48087032766779886,-0.48087032766779886,1.0001552039136754,0.00013790824612013643
-0.4797140285718342,-0.4797140285718342,0.9999598052556784,0.00013846322649072458
-0.4786670566740213,-0.4786670566740213,1.0002623098015762,0.00013811766973182557
-0.4772255977979512,-0.4772255977979512,1.0002173314391811,0.0001385190348503583
-0.4759421260070667,-0.4759421260070667,1.0000503853611955,0.00013810618899072594
-0.47472131142676516,-0.47472131142676516,1.0002597362198131,0.00013855813513689272
-0.4734511993436172,-0.4734511993436172,0.9995577285065735,0.00013812193765003428
-0.47229993361434025,-0.47229993361434025,0.9999389518624998,0.00014984600631461333
-0.4713870199455414,-0.4713870199455414,1.0001882053160833,0.00013799128800167688
-0.4701461111235403,-0.4701461111235403,0.9996320794123253,0.00013896392818192683
-0.46916400918271395,-0.46916400918271395,1.0001884482988697,0.00014476561869186563
-0.46759460105931794,-0.46759460105931794,0.9995249495402737,0.0001391523995599841
-0.46594838479322787,-0.46594838479322787,1.000033830281632,0.00013808177507978813
-0.4643014710974967,-0.4643014710974967,0.999845055250295,0.0001641700690773203
-0.46230486222229955,-0.46230486222229955,1.0001013058924326,0.00015959830078289176
-0.4604777597793145,-0.4604777597793145,1.0002031005469527,0.00013949592501819356
-0.4583813123968866,-0.4583813123968866,1.0000543767835421,0.0001382125436117637
-0.4558170115640678,-0.4558170115640678,0.9999577231621604,0.0001381627656282541
-0.4533230665168958,-0.4533230665168958,0.9996826149131142,0.00013820411154267604
-0.4510340761902626,-0.4510340761902626,0.9997836142223729,0.00013823063253499388
-0.4488929760860628,-0.4488929760860628,1.0000186705100067,0.0001380974129077169
-0.44684356395700886,-0.44684356395700886,0.9997383726113647,0.00013819730204974384
-0.4447678939857724,-0.4447678939857724,0.9992710429934011,0.00013782703412775396
-0.44298614129984343,-0.44298614129984343,0.9995527951609707,0.00013820213191456952
-0.4414120979952713,-0.4414120979952713,1.000428156714611,0.00016684095617300546
-0.4399115073327266,-0.4399115073327266,0.9990285784861763,0.00013796822562427646
-0.4387185252031486,-0.4387185252031486,0.9998692569429458,0.00016943880494308766
-0.4375913135081646,-0.4375913135081646,0.999803533514625,0.00013803278567230622
-0.43626239726654603,-0.43626239726654603,0.9994972287840124,0.00013925509716369456
-0.43492704029013113,-0.43492704029013113,1.0003387132239343,0.00013795296122932262
-0.43340495968550385,-0.43340495968550385,0.9998770715260538,0.00013846754790048873
-0.43228379482316087,-0.43228379482316087,0.9999888658702438,0.00013784464146849562
-0.43064735636071416,-0.43064735636071416,0.9995079211412861,0.00013821383297629575
-0.42944637771579436,-0.42944637771579436,0.9992452436877868,0.00016208462221671858
-0.42797984744393036,-0.42797984744393036,0.999558567385521,0.0001484747580212769
-0.42603723369793445,-0.42603723369793445,1.0001190260076886,0.0001441696560781306
-0.4242285484662716,-0.4242285484662716,0.9996745722443003,0.00014180687086944992
-0.42210926867628584,-0.42210926867628584,1.0000622047705086,0.00013793676814087547
-0.42047042767953824,-0.42047042767953824,1.0001025585865446,0.0001399330330407504
-0.418757921951692,-0.418757921951692,0.9999880170123809,0.00013901493876920115
-0.4170241210129461,-0.4170241210129461,0.9995933580456468,0.00013807667422317097
-0.41550108249830375,-0.41550108249830375,0.9999576076913865,0.0001388774621210721
-0.41380588397914836,-0.41380588397914836,0.999208355972321,0.00013862530605069913
-0.41238084486867593,-0.41238084486867593,1.0001550064702855,0.0001380856222513972
-0.41095178656651116,-0.41095178656651116,0.9996203277104501,0.00013838281484468266
-0.409907332246803,-0.409907332246803,1.000540001200746,0.0001380780758490862
-0.40870660845612294,-0.40870660845612294,1.0000530792085203,0.00013844673805300827
-0.40755461244043545,-0.40755461244043545,0.9994798250639686,0.00013796432164148699
-0.4063327841584396,-0.4063327841584396,1.0000718835292095,0.0001386735967039044
-0.4050356699506665,-0.4050356699506665,0.9996400022474221,0.00013808980969551177
-0.40362274124308894,-0.40362274124308894,1.0000265225086082,0.00013853154893900054
-0.4025455892326136,-0.4025455892326136,1.0000002350648478,0.00013809340921654378
-0.4011300315203698,-0.4011300315203698,0.999227296129628,0.00013867948704155897
-0.40033351844795106,-0.40033351844795106,0.9999059234171697,0.0001495573864112587
-0.3991615894723509,-0.3991615894723509,0.9997937744431201,0.0001379965354648306
-0.398237957658057,-0.398237957658057,1.0000629807645691,0.000145666588218632
-0.39674222113826546,-0.39674222113826546,0.9999161727883805,0.0001380660079586281
-0.39519165612400686,-0.39519165612400686,1.000256267941089,0.00015506840134076806
-0.3935493613240396,-0.3935493613240396,1.0002052266921404,0.0001641389242901232
-0.39172042890495506,-0.39172042890495506,1.0000062233090268,0.00013947051710201704
-0.39010940469961497,-0.39010940469961497,0.9999026365058624,0.0001588872973304494
-0.38815564319374973,-0.38815564319374973,0.9998963577998534,0.00013963363348081347
-0.38556810252448487,-0.38556810252448487,0.9998463761062091,0.0001381164579834483
-0.3830740886784042,-0.3830740886784042,1.000144213788916,0.00013815631336886724
-0.3805802480703278,-0.3805802480703278,0.9995017678807034,0.00013817765557678192
-0.37851032477956326,-0.37851032477956326,1.000116183142238,0.00013817987005812374
-0.3763348115426197,-0.3763348115426197,1.000236188538444,0.00013804201741341262
-0.37423082921159223,-0.37423082921159223,0.9999990734735151,0.0001382278003661179
-0.3726207449562935,-0.3726207449562935,0.9997723378417671,0.00013796534698926093
-0.37060664749114947,-0.37060664749114947,1.0001702983922196,0.0001382318872131148
-0.3689257725363859,-0.3689257725363859,0.9991330103595366,0.00016667046420790972
-0.36766184902335225,-0.36766184902335225,0.998840862194552,0.00016658858975056274
-0.3661686375784484,-0.3661686375784484,0.9997750232137526,0.00013788947060916737
-0.3646432566958538,-0.3646432566958538,0.999873777939779,0.00013941449258933621
-0.36341596814709193,-0.36341596814709193,1.0004305205716075,0.0001379440213839682
-0.3619058795273304,-0.3619058795273304,1.0000169842609217,0.00013851150124501301
-0.36072557181432785,-0.36072557181432785,1.0002075227403477,0.00013796632233968375
-0.3591725125141238,-0.3591725125141238,1.0004071598046205,0.00013807538893064941
-0.3581822643369378,-0.3581822643369378,0.9986211963774931,0.00016181835147116436
-0.3567295625194674,-0.3567295625194674,1.000390595829614,0.0001488470526516225
-0.35485956063530466,-0.35485956063530466,1.0002457075989293,0.0001443864303497869
-0.35297817018581557,-0.35297817018581557,0.9999645032107004,0.00014196370047803785
-0.3508587515523686,-0.3508587515523686,0.9998028990896346,0.000137931068260148
-0.3492197269017197,-0.3492197269017197,0.999865736249584,0.00014006707506562915
-0.3475072074095806,-0.3475072074095806,1.000024888743774,0.00013902166230970225
-0.34577346198893794,-0.34577346198893794,0.9995150065578056,0.0001380765779497645
-0.3442507591626054,-0.3442507591626054,1.0003250299235205,0.0001389003405275615
-0.3425552590721054,-0.3425552590721054,0.9998641374767917,0.00013866085542096361
-0.34113016281735326,-0.34113016281735326,0.9993115630262279,0.00013805507036428362
-0.33970097599340077,-0.33970097599340077,0.9996095359508541,0.00013838345364275303
-0.3385127526100405,-0.3385127526100405,1.0001841005911187,0.00013810863123910595
-0.3372123871682561,-0.3372123871682561,0.9997005755844052,0.00013848299915766258
-0.335931952491228,-0.335931952491228,0.999631326051629,0.0001381361872671812
-0.3345079839094979,-0.3345079839094979,0.9996403461519922,0.00013862596805584381
-0.33332058334490283,-0.33332058334490283,1.0004121976529163,0.0001379017654271214
-0.33222015305509556,-0.33222015305509556,0.999712558893718,0.00013854303087095643
-0.33094989314849954,-0.33094989314849954,1.00023258339341,0.00013814966872200288
-0.3297995048971643,-0.3297995048971643,0.9999291487029265,0.00015068761765201088
-0.3290312408313184,-0.3290312408313184,0.9999996984439214,0.00013800267418761424
-0.3279109424591297,-0.3279109424591297,0.9994610990726139,0.00013784487046072995
-0.32698757306898185,-0.32698757306898185,0.9998722844941472,0.00014594413251811612
-0.3254915049725241,-0.3254915049725241,1.000119610929613,0.00013807776588047965
-0.32429282928060277,-0.32429282928060277,1.0001830943059526,0.00013915704123530878
-0.3222989971840434,-0.3222989971840434,0.9995839587347899,0.00016439456957208334
-0.32046994646771054,-0.32046994646771054,0.9999945742819101,0.00013945978254284138
-0.3188589593381039,-0.3188589593381039,1.0006412550895578,0.00015927996282997958
-0.3169054414011043,-0.3169054414011043,0.9999282115268349,0.00013964117944967623
-0.3143176816251071,-0.3143176816251071,1.0000899603906201,0.0001381212623004002
-0.31182365535387363,-0.31182365535387363,0.9997706820340019,0.00013816720312814226
-0.30932980252000564,-0.30932980252000564,0.9998259243885574,0.0001381525809161608
-0.307259915252871,-0.307259915252871,0.9997130480510961,0.00013819103425533952
-0.30508418118588454,-0.30508418118588454,1.0003169177149611,0.00013802146125308548
-0.3029804816949763,-0.3029804816949763,0.999856757227964,0.00013822313543994076
-0.30136963281183854,-0.30136963281183854,1.000499054220888,0.0001380014891975379
-0.29935615062458965,-0.29935615062458965,0.9999999481301994,0.0001382028154760903
-0.29741042253517663,-0.29741042253517663,0.9995697066831439,0.0001380244955413256
-0.2960445343189349,-0.2960445343189349,0.9994918900461822,0.00016675044443249012
-0.2946563306708413,-0.2946563306708413,1.0000018913135187,0.00013791799899135482
-0.2931330421310122,-0.2931330421310122,1.0000708297685112,0.00013956979376072686
-0.291871901835475,-0.291871901835475,1.0003499995167473,0.00013802144313465153
-0.2904487876581697,-0.2904487876581697,0.9997839341840418,0.0001384794012462981
-0.28916419802917515,-0.28916419802917515,1.0000429836428977,0.0001381285638558416
-0.2876065013166226,-0.2876065013166226,0.9997913969830339,0.00013801878357470475
-0.2861024730893405,-0.2861024730893405,0.9997323838858243,0.00017105467222545644
-0.28458446634940626,-0.28458446634940626,0.9999587720903236,0.00013786440934767614
-0.2829833030493319,-0.2829833030493319,1.0002418674549294,0.00014486931840872264
-0.28082067854011256,-0.28082067854011256,0.9996336916244495,0.00014202035042537922
-0.27889310423415736,-0.27889310423415736,0.9998405318001069,0.00014004835307575002
-0.27735264639850354,-0.27735264639850354,0.9998093395753065,0.00013809562637514744
-0.2754959834259353,-0.2754959834259353,0.9996879545606081,0.00013916907734547987
-0.27392309555471,-0.27392309555471,1.0001894165986154,0.0001387845663125824
-0.2722830679915205,-0.2722830679915205,0.999804673291961,0.00013810747312630476
-0.2707300170717645,-0.2707300170717645,1.0002267269351761,0.00013865885041927474
-0.2694698441289802,-0.2694698441289802,1.0001211939191514,0.00013807498719274651
-0.2682389802310354,-0.2682389802310354,0.999706869852743,0.00013852089844261785
-0.26697608713839144,-0.26697608713839144,1.0001160165023992,0.00013796784206011596
-0.26574807945980866,-0.26574807945980866,0.9996810652455042,0.00013864489844932231
-0.2643639464971784,-0.2643639464971784,0.9998578393251363,0.00013800189343879935
-0.26301951600216855,-0.26301951600216855,1.000005479315007,0.0001387170374657037
-0.2616358687519096,-0.2616358687519096,0.9996441059083996,0.0001378236893318877
-0.2605246202740091,-0.2605246202740091,1.000119311820867,0.0001388050320614205
-0.259147884983031,-0.259147884983031,0.9997954539640757,0.00013791543401493636
-0.25831606895771986,-0.25831606895771986,1.0002286587943205,0.00015104987644136257
-0.257489593921855,-0.257489593921855,0.9997403525970322,0.00013822964671430144
-0.25613639333278115,-0.25613639333278115,1.0000989714086117,0.00013877913643936928
-0.2553201337901555,-0.2553201337901555,1.0001449575006003,0.00014548575959273175
-0.25354050164642106,-0.25354050164642106,0.9996439835364772,0.00013880940781134165
-0.2517128042167315,-0.2517128042167315,1.0004348565298278,0.00013926533864908107
-0.2501023273500323,-0.2501023273500323,1.0002335774813949,0.00016382262293219033
-0.248324206946927,-0.248324206946927,1.000233294193669,0.00016078681954681624
-0.2463854567195085,-0.2463854567195085,0.999923836867725,0.0001394241840108241
-0.2440647661576804,-0.2440647661576804,1.0004184167862564,0.00013810976615939634
-0.2415706544619752,-0.2415706544619752,0.9997734434877014,0.00013815659549699358
-0.2393343705272855,-0.2393343705272855,1.000322566065128,0.0001382303328679252
-0.23707794572183047,-0.23707794572183047,1.0000791786290322,0.0001381976872543474
-0.23508883298381988,-0.23508883298381988,0.9996559567670932,0.00016630027558852675
-0.23309215123481408,-0.23309215123481408,1.0004966396863286,0.00013820850545765887
-0.2310154591152241,-0.2310154591152241,1.0003342706405933,0.00013786703777958438
-0.22923506407132663,-0.22923506407132663,0.9997658371733573,0.0001382122428653969
-0.2276689253929362,-0.2276689253929362,0.9996415413489907,0.00013820069555886994
-0.22590986259601778,-0.22590986259601778,0.9997354261297818,0.00013809697987048248
-0.22452581353318238,-0.22452581353318238,1.0005721611079497,0.0001668127182749687
-0.22311032020152197,-0.22311032020152197,0.9998415850866289,0.00013803619101925574
-0.22183258069235307,-0.22183258069235307,1.000547436179433,0.00013950859591235862
-0.2206211231794441,-0.2206211231794441,0.9994821226528104,0.00013801409723165797
-0.2191981607415073,-0.2191981607415073,0.9997423564903594,0.0001385235558381596
-0.21791345520323374,-0.21791345520323374,0.9998904529560898,0.00013815867392830112
-0.2163556941846764,-0.2163556941846764,1.0000851512029278,0.00013799676608080753
-0.2148517202302173,-0.2148517202302173,0.9999073992893044,0.00017103725188691204
-0.2133335075719515,-0.2133335075719515,1.0000181079261066,0.0001378529453127093
-0.21173301248527424,-0.21173301248527424,0.9998693888920027,0.0001451230699543881
-0.20957003366092977,-0.20957003366092977,0.9999133122918733,0.00014217346365880904
-0.2076424499919085,-0.2076424499919085,0.9997549777307478,0.00014015876763110645
-0.20610194055479952,-0.20610194055479952,1.0002695576900462,0.00013810575133685514
-0.2042456699291506,-0.2042456699291506,0.9999874119930346,0.0001391950779585738
-0.20267243528905965,-0.20267243528905965,0.9999667134667012,0.00013881732688202786
-0.201032487707198,-0.201032487707198,1.0002537260305737,0.00013810854359704814
-0.19947938165059895,-0.19947938165059895,0.999900119319323,0.0001386492995707437
-0.1979629894489335,-0.1979629894489335,0.9999599265199974,0.0001380143611110679
-0.19675852839791333,-0.19675852839791333,1.0000599945343598,0.00013861167049043354
-0.19564112670705072,-0.19564112670705072,1.0000374394963667,0.0001379519930709077
-0.19449742511678778,-0.19449742511678778,0.9996779080357099,0.00013864157841231758
-0.1931130476314138,-0.1931130476314138,0.9999104632526755,0.00013796489001404602
-0.19176915664065747,-0.19176915664065747,1.0005973739565968,0.0001387514430061491
-0.19035566807906434,-0.19035566807906434,1.0001990712429176,0.00013865169059616814
-0.18903987289450014,-0.18903987289450014,0.9996277099970987,0.00013797948783908178
-0.18763323096063686,-0.18763323096063686,1.000106837706277,0.0001388058625205903
-0.18689081135707966,-0.18689081135707966,0.999940755749803,0.0001508053709234526
-0.18565868896512255,-0.18565868896512255,0.9998260389264211,0.0001379672285920251
-0.18467396381602158,-0.18467396381602158,0.9997235226819903,0.00014638639038234817
-0.18328387464680418,-0.18328387464680418,1.0002720649961663,0.00013814446331406334
-0.1820030103895988,-0.1820030103895988,0.9998049894614646,0.00014334822193662428
-0.1801253060981253,-0.1801253060981253,1.0002410211084805,0.00013917669936784721
-0.17796898369415431,-0.17796898369415431,0.9998791414759907,0.00013944465499805624
-0.17635806890066305,-0.17635806890066305,0.9998049002483999,0.00015994647056430684
-0.174433265645348,-0.174433265645348,1.0002041957732266,0.000165284659665585
-0.17231518777043675,-0.17231518777043675,1.000204327375841,0.000138119637638514
-0.16990005987063342,-0.16990005987063342,0.9998878418973393,0.00013808580065278244
-0.16782627666507324,-0.16782627666507324,0.9999256857647243,0.0001382080649932276
-0.16533249893363972,-0.16533249893363972,0.9999912925884992,0.00013819535372947624
-0.16297503556270385,-0.16297503556270385,1.0000283424929717,0.0001381459824155088
-0.16093850344768726,-0.16093850344768726,0.9998342541834966,0.00013812337690458207
-0.15926598867808933,-0.15926598867808933,1.0003255660069423,0.00013804860614963885
-0.15716887360540568,-0.15716887360540568,1.0001015348268425,0.0001380652121788385
-0.15522293372814602,-0.15522293372814602,0.9996921276048487,0.00013815908117149824
-0.15390870398623518,-0.15390870398623518,0.9997950717016251,0.0001670255281251394
-0.1524169797583454,-0.1524169797583454,1.0000330470721277,0.00013791937034776563
-0.15113543003571978,-0.15113543003571978,1.0004858590909127,0.0001399779371674829
-0.14992478116619168,-0.14992478116619168,1.0000632236594211,0.00013789709006753123
-0.14840182135922078,-0.14840182135922078,0.9998203350170687,0.0001386355334268686
-0.14727974824818374,-0.14727974824818374,0.9997843212219315,0.00013785990546223497
-0.14564540778264928,-0.14564540778264928,0.999982897317478,0.00013826495619431926
-0.14426285542976985,-0.14426285542976985,1.000908721152535,0.00016068422069710986
-0.14270348066129374,-0.14270348066129374,1.000166474531181,0.00014988398767035033
-0.1411070467387617,-0.1411070467387617,1.000639876208723,0.00014515344650325724
-0.13943623256200227,-0.13943623256200227,1.001119696692384,0.0001378538934786484
-0.13758781511460255,-0.13758781511460255,1.0003562885859307,0.00014248969207306976
-0.13570268569346808,-0.13570268569346808,0.9999714537596761,0.0001402833022137203
-0.13415564111055572,-0.13415564111055572,0.9997388724992338,0.0001392386108954946
-0.13236118113272824,-0.13236118113272824,1.000210529093739,0.0001380927754550566
-0.13075967030927133,-0.13075967030927133,0.999959127317779,0.00013879107539819055
-0.12908061609487048,-0.12908061609487048,1.0000186380208433,0.0001380458444901692
-0.12774737879990425,-0.12774737879990425,1.0000848405095837,0.00013886430103502407
-0.1261914879174583,-0.1261914879174583,0.9995649573558636,0.00013836817275523494
-0.12501360560236208,-0.12501360560236208,1.0000688864935465,0.00013813552523914057
-0.12370322876013233,-0.12370322876013233,0.999932144934669,0.00013843453690542092
-0.12269687313382746,-0.12269687313382746,0.9999378027842727,0.00015528820568610737
-0.12133016717889404,-0.12133016717889404,0.999809909306847,0.00013865257220982327
-0.12003286568033218,-0.12003286568033218,1.0003568875420659,0.00013812088898952946
-0.11863695940483013,-0.11863695940483013,1.0002973606798506,0.00013865249627148242
-0.11754273862097761,-0.11754273862097761,0.9998431757409707,0.00013808606350923183
