time,time,flux,flux_err
-0.4998922384101346,-0.4998922384101346,0.9999883523712363,0.00016127051372080803
-0.4997270626773851,-0.4997270626773851,1.0001030193568072,0.00015381354718396536
-0.49958822214592047,-0.49958822214592047,0.999820384539303,0.00014314900088831695
-0.4994393267640106,-0.4994393267640106,0.9999109072592427,0.00014370312559292147
-0.49929547902086496,-0.49929547902086496,1.00029170634171,0.0001470514101813594
-0.4991483330204396,-0.4991483330204396,1.000093422053178,0.00014145269124423037
-0.4989954118613838,-0.4989954118613838,1.0000364726470363,0.00014268821950093926
-0.4988465172258792,-0.4988465172258792,0.9998227233018706,0.00014326153872050375
-0.4987026673355864,-0.4987026673355864,1.0003421735558284,0.0001462223954332759
-0.49855197143509783,-0.49855197143509783,0.9997514930989878,0.00014232167805018056
-0.49840615105221814,-0.49840615105221814,1.0000110175799588,0.00014095310854220097
-0.4982630433807273,-0.4982630433807273,0.9999403868999831,0.00014287165945713515
-0.49811919132737614,-0.49811919132737614,1.0000607562287673,0.00014554961616342226
-0.4979684968380219,-0.4979684968380219,1.0002065823481607,0.0001420377305535548
-0.497817736409403,-0.497817736409403,0.9999690337445276,0.00014263018727042763
-0.49767330491986855,-0.49767330491986855,1.000314669328861,0.0001406039330258051
-0.49753104745080706,-0.49753104745080706,0.999985349708145,0.00014500911536517334
-0.49738035438675465,-0.49738035438675465,0.9998585391138098,0.00014180927839015572
-0.4972314618479629,-0.4972314618479629,0.9999164089601177,0.00014240644619109856
-0.49708889492613934,-0.49708889492613934,0.9998560156206091,0.00014034304228288967
-0.49694290355761905,-0.49694290355761905,0.9999461098035844,0.00014451253528585672
-0.4967922119319539,-0.4967922119319539,1.00019295744667,0.00014154259960047938
-0.49664332014453977,-0.49664332014453977,1.000150013538477,0.0001421645518004769
-0.4964994619611133,-0.4964994619611133,0.9998917433393079,0.0001441248173241396
-0.49635138048539246,-0.49635138048539246,1.000266516816153,0.00014000970870087047
-0.49620406947504636,-0.49620406947504636,1.000080788938741,0.0001412816475464686
-0.4960551784402888,-0.4960551784402888,0.9996817940941135,0.0001418811946271587
-0.49588443769895607,-0.49588443769895607,0.9999634416808993,0.0001449627211137208
-0.49569109057831967,-0.49569109057831967,1.0001736192239203,0.0001417634734928587
-0.4955472288491677,-0.4955472288491677,0.9999075614831163,0.00014333190262906718
-0.49539654072304273,-0.49539654072304273,0.9998952318328896,0.00014093075849497982
-0.49524765074420996,-0.49524765074420996,1.0001799115397259,0.00014157782408783518
-0.4951060086132536,-0.4951060086132536,1.0000355363305513,0.00013946410263397947
-0.4949637527653984,-0.4949637527653984,1.0000320859278364,0.0001428649354359325
-0.494813066114974,-0.494813066114974,1.0001162619752242,0.00014071352305377986
-0.49466417689222125,-0.49466417689222125,0.9999159669503526,0.00014129777578842127
-0.4945225321691211,-0.4945225321691211,1.000037943783874,0.00013922588782488838
-0.4943802766738159,-0.4943802766738159,0.9998581382766247,0.00014245694662292347
-0.4942295915081033,-0.4942295915081033,1.0001464628750236,0.00014048700981780852
-0.4940807030425532,-0.4940807030425532,0.9999195015820836,0.00014111409795485632
-0.4939390557227831,-0.4939390557227831,0.9999259335839297,0.00013906171210684281
-0.49379680057549963,-0.49379680057549963,0.9999296632760514,0.00014207813018246316
-0.4936461169030892,-0.4936461169030892,1.000101360873257,0.00014032095907938992
-0.4934972291965828,-0.4934972291965828,1.0001767764891178,0.00014099883104378032
-0.49335557927511287,-0.49335557927511287,0.9998396925432674,0.0001388826291083901
-0.49321332447211785,-0.49321332447211785,0.9999171297919915,0.00014182735125751032
-0.49306264230072044,-0.49306264230072044,1.0001537935523899,0.00014017602885307119
-0.4929137553545296,-0.4929137553545296,0.9997894298804022,0.00014082351243459057
-0.4927721028272011,-0.4927721028272011,1.0000311203503325,0.00013878404130437865
-0.4926298483649042,-0.4926298483649042,1.0000609673417742,0.00014161980926556835
-0.4924791677015342,-0.4924791677015342,1.0001406287588712,0.00014010764220254846
-0.4923274808154446,-0.4923274808154446,1.0000928590606089,0.00014072883054707834
-0.49217555641265703,-0.49217555641265703,0.9999746910032232,0.00013872099518386682
-0.4920323687314422,-0.4920323687314422,0.999986342057466,0.0001414807527579843
-0.4918863574197516,-0.4918863574197516,0.9999413037396069,0.00014002749323347488
-0.4917374719989489,-0.4917374719989489,1.0000081517622976,0.00014066998783538977
-0.49158612638212984,-0.49158612638212984,1.0000387346866915,0.00014137712834382416
-0.4914417762222776,-0.4914417762222776,1.0002900931685423,0.0001386244205045255
-0.4912982149788377,-0.4912982149788377,0.9997602209507832,0.00013994767531884676
-0.49114652967606676,-0.49114652967606676,0.9998895750141366,0.00014062024615220682
-0.49099611538400223,-0.49099611538400223,1.0001219060786426,0.00014123337292181856
-0.49084823967525537,-0.49084823967525537,0.9998293552956496,0.00013988661312285789
-0.4907042621634844,-0.4907042621634844,1.000191383212269,0.00013852949563168177
-0.4905518531640546,-0.4905518531640546,1.0001056660653198,0.00014055302137984998
-0.4904079714211996,-0.4904079714211996,0.9998130786956547,0.00014109335968615238
-0.4902619643838996,-0.4902619643838996,1.000219815117841,0.0001398380375990293
-0.4901207857204284,-0.4901207857204284,1.000083633955339,0.00013846581938424215
-0.48996837935259024,-0.48996837935259024,1.0000702943207265,0.00014046120249489735
-0.489824495309054,-0.489824495309054,0.9999808630524221,0.0001409536511345733
-0.48967848980872547,-0.48967848980872547,1.0000289911728213,0.00013977405801846265
-0.489537309280135,-0.489537309280135,0.9997916804549423,0.00013838925696894175
-0.48938490554900727,-0.48938490554900727,1.0001388343275432,0.00014039935485776016
-0.48924101919846946,-0.48924101919846946,1.0000256453515464,0.00014079299365961348
-0.4890950152397743,-0.4890950152397743,1.0000644605019624,0.00013970844019833704
-0.48895383284306176,-0.48895383284306176,1.0002120057111856,0.00013835398704559808
-0.4888014317535898,-0.4888014317535898,0.9998353115135965,0.00014034421947875113
-0.48865754309020987,-0.48865754309020987,0.9998991895367378,0.00014070009024922845
-0.488511540677672,-0.488511540677672,1.0000486194375855,0.0001396358203314744
-0.488370356409564,-0.488370356409564,0.9999900266846012,0.00013826081283752962
-0.4882179579670563,-0.4882179579670563,1.0001391510124003,0.00014029037625682247
-0.48809219433956275,-0.48809219433956275,0.9997623574043656,0.00013823916405706585
-0.48797549938975704,-0.48797549938975704,1.0001029214102644,0.00013826377876063583
-0.4878588044393126,-0.4878588044393126,1.0000037489128446,0.00013825644005768751
-0.4877421094883026,-0.4877421094883026,1.000000993289269,0.0001382544741792106
-0.48762541453680797,-0.48762541453680797,0.9998110146066097,0.0001382455773964279
-0.48750871958474634,-0.48750871958474634,1.0000356804231305,0.00013821473445971045
-0.4873920246322008,-0.4873920246322008,1.000067091523078,0.00013822108657600917
-0.487275329678976,-0.487275329678976,1.0000382913531312,0.00013822578615351415
-0.48715863472538457,-0.48715863472538457,1.0002272813580064,0.00013824471572858457
-0.4870419397713128,-0.4870419397713128,1.0000565398264265,0.00013823713262352174
-0.4869252448165973,-0.4869252448165973,1.0001420267864396,0.00013821202616666207
-0.48680388202411395,-0.48680388202411395,0.9999514822821588,0.00013818879730825035
-0.4866871870686381,-0.4866871870686381,0.9998899984633368,0.00013818915811587726
-0.48657049211248377,-0.48657049211248377,1.0001962670442452,0.00013820036220528632
-0.48645379715584197,-0.48645379715584197,0.9999380784586993,0.00013818649339985596
-0.4863371021987753,-0.4863371021987753,0.9999899316874037,0.00013815915405822823
-0.48622040724134197,-0.48622040724134197,0.9999681809822697,0.00013817385744770293
-0.48609997801356997,-0.48609997801356997,0.999924298540639,0.00013815834486742917
-0.48598234948782065,-0.48598234948782065,0.999926518126262,0.00013816036468838647
-0.4858656545287623,-0.4858656545287623,1.0000269141178189,0.00013816551833716932
-0.48574895956965636,-0.48574895956965636,0.9999068358047178,0.00013812226808981463
-0.48563226460988107,-0.48563226460988107,1.0001990368124258,0.00013814658940980987
-0.48551556964986775,-0.48551556964986775,1.0000697795425504,0.00013812272065743134
-0.48539887468937976,-0.48539887468937976,1.0000186399964028,0.00013812948061653094
-0.4852821797285337,-0.4852821797285337,1.0001181544952513,0.00013810368282536023
-0.4851654847672123,-0.4851654847672123,1.0001030850814459,0.00013811257010935447
-0.4850487898055391,-0.4850487898055391,0.9998242961653843,0.0001380674466166884
-0.48493209484347444,-0.48493209484347444,0.9998542013389471,0.0001380872247834447
-0.4848153998811718,-0.4848153998811718,1.000074111512491,0.00013808294269182305
-0.48469870491832767,-0.48469870491832767,1.0001204145129194,0.00013809568106072542
-0.4845820099553272,-0.4845820099553272,0.9999383100651128,0.00013804689087598584
-0.4844634478569027,-0.4844634478569027,0.9999634948980999,0.00013806245742139557
-0.484343952190666,-0.484343952190666,1.0001080230839299,0.00013806181674732714
-0.48422725722645127,-0.48422725722645127,1.000088762838266,0.00013803951152531132
-0.4841105622621349,-0.4841105622621349,1.000009908779613,0.0001380385715078432
-0.48399386729729843,-0.48399386729729843,1.000186258798556,0.00013803788033535817
-0.48387717233220684,-0.48387717233220684,0.999926335376317,0.00013804026133764017
-0.48376047736691846,-0.48376047736691846,0.9999328404674218,0.00013805859117397234
-0.4836309710383112,-0.4836309710383112,0.9998751927831397,0.00013598581573953352
-0.48350934969080656,-0.48350934969080656,1.0000181298236739,0.00013802712506779714
-0.4833725551688858,-0.4833725551688858,0.9998455528098061,0.0001373444092728356
-0.48324982023942625,-0.48324982023942625,1.000065349448629,0.0001380428679255639
-0.48311465856432034,-0.48311465856432034,1.0000211971154063,0.00013598448622837068
-0.4829968252466948,-0.4829968252466948,0.9997517185274113,0.000138020952701663
-0.4828567915660152,-0.4828567915660152,1.0000618863453552,0.00013802402903997086
-0.4827296827295605,-0.4827296827295605,1.0003557558295069,0.0001381300005797886
-0.4826000624428907,-0.4826000624428907,1.000013514717565,0.00013804740126884067
-0.482478699732232,-0.482478699732232,1.0000658417818937,0.00013805505901439655
-0.48236013766681013,-0.48236013766681013,0.9998820013699945,0.00013805520168077383
-0.48224157560110753,-0.48224157560110753,0.9998873984416303,0.00013806697326558968
-0.48212114643857334,-0.48212114643857334,0.9999402701429208,0.0001380718542208144
-0.482000717275816,-0.482000717275816,1.0000741622221092,0.00013809841957518852
-0.4818840223066957,-0.4818840223066957,0.9999085822253756,0.00013808739406636538
-0.48176732733728045,-0.48176732733728045,0.9999593399613194,0.0001381073586715895
-0.48165063236785033,-0.48165063236785033,1.0001641982567713,0.00013809430105310314
-0.48153020320452955,-0.48153020320452955,1.0000707441016723,0.0001381051428558705
-0.48141282863037205,-0.48141282863037205,0.9998227541164754,0.0001361570690060696
-0.4812958794750294,-0.4812958794750294,1.0000690997167676,0.00013813735566868456
-0.48116611482691096,-0.48116611482691096,0.9999795582192537,0.00013812507856487288
-0.4810484863076674,-0.4810484863076674,0.9999212261929614,0.00013813401593783576
-0.4809317913366762,-0.4809317913366762,0.9999877564254585,0.0001381302325171967
-0.48081416281732314,-0.48081416281732314,1.0000400194299688,0.00013814879137068902
-0.4806937336527234,-0.4806937336527234,0.9999871252459354,0.00013812259547124302
-0.48057703868150625,-0.48057703868150625,1.000071628927921,0.0001381240015878912
-0.4804603437100816,-0.4804603437100816,0.9999785093387059,0.00013814956750589428
-0.48034364873868685,-0.48034364873868685,1.0001810917951757,0.0001381705586953212
-0.48022695376716273,-0.48022695376716273,0.9997768685122554,0.00013811967461580937
-0.4801102587954702,-0.4801102587954702,0.9998843501215194,0.0001381594870310502
-0.47999356382377273,-0.47999356382377273,0.9998675613380759,0.00013815631079929278
-0.47987686885194664,-0.47987686885194664,1.0002595002890229,0.00013816170222281498
-0.4797555061386632,-0.4797555061386632,1.0001034884845748,0.00013817785306705654
-0.4796388111668698,-0.4796388111668698,1.0000175725699996,0.00013817731222828393
-0.47952211619488383,-0.47952211619488383,1.000033591624981,0.0001381844264734805
-0.47940492074941476,-0.47940492074941476,0.9999825175035675,0.0001374685880118018
-0.4792849918959661,-0.4792849918959661,1.0000585893756968,0.0001381703801912073
-0.47916736337545485,-0.47916736337545485,0.999955236609984,0.00013820325036914934
-0.479050668403228,-0.479050668403228,0.9998702833183961,0.0001381767872943648
-0.47893117278643726,-0.47893117278643726,0.999915083827377,0.0001381868527598554
-0.4788126107177753,-0.4788126107177753,1.0000898102680973,0.00013819818634804433
-0.47869591574555487,-0.47869591574555487,1.0000353871523957,0.00013821431679716793
-0.4785792207734083,-0.4785792207734083,0.9999738742463882,0.00013820670772404488
-0.47846252580084114,-0.47846252580084114,1.000269559610573,0.0001382109069726776
-0.4783458308286967,-0.4783458308286967,0.9999211218098873,0.00013819990311049013
-0.4782291358564841,-0.4782291358564841,0.9999239108628684,0.00013820699038210894
-0.47810217185457093,-0.47810217185457093,0.9998778327941029,0.0001382028086477892
-0.47798174268987526,-0.47798174268987526,1.0000995225111642,0.00013822209358158987
-0.477865047717826,-0.477865047717826,0.9999448561505201,0.00013822017556643413
-0.47774835274574556,-0.47774835274574556,0.9999819752701186,0.0001382440388009523
-0.47763165777362887,-0.47763165777362887,1.000008830522403,0.00013822477438755202
-0.4775132738304414,-0.4775132738304414,1.0001708502292368,0.00013615646086187746
-0.47739359953880367,-0.47739359953880367,0.9998988783506924,0.00013824317665504248
-0.47727690456663724,-0.47727690456663724,0.9997613421204127,0.00013822867314205786
-0.47716020959464134,-0.47716020959464134,1.0001041280628995,0.0001382537852188956
-0.4770425810744861,-0.4770425810744861,0.9999835700939661,0.00013824804568286368
-0.47692215191027004,-0.47692215191027004,0.9999513043169003,0.0001382552944024907
-0.476805456938434,-0.476805456938434,1.0000210206205595,0.00013825065486521885
-0.47668876196654325,-0.47668876196654325,1.000311916458641,0.00013827663191794698
-0.4765720669948941,-0.4765720669948941,1.0000671027100598,0.00013825149046757106
-0.47645537202323496,-0.47645537202323496,1.0000234310511558,0.00013825924679266
-0.47633867705169874,-0.47633867705169874,0.9995869585087803,0.0001382252275794072
-0.4762219820801448,-0.4762219820801448,1.0000176867211594,0.00013824492444865742
-0.47610528710864913,-0.47610528710864913,1.0000044299002018,0.0001382539296869797
-0.4759885921374035,-0.4759885921374035,0.9999864823588794,0.00013825564472361434
-0.4758718971663001,-0.4758718971663001,1.0000951718865305,0.00013827868979862543
-0.4757552021951774,-0.4757552021951774,0.9999838948876016,0.0001382542949632816
-0.47563570658042664,-0.47563570658042664,0.9999689125458782,0.00013827877897186843
-0.4755134103218886,-0.4755134103218886,1.0002562953648595,0.00013826860006039063
-0.4753929810929442,-0.4753929810929442,0.999836913513448,0.0001382664052560409
-0.47527441898223444,-0.47527441898223444,0.9999743409017409,0.00013824525765911995
-0.475157724011887,-0.475157724011887,1.0001247936688404,0.0001382533901939364
-0.4750410290415587,-0.4750410290415587,0.9999493873323393,0.0001382724182342525
-0.4749243340714074,-0.4749243340714074,0.999959309976574,0.00013828397337734685
-0.4748057719611737,-0.4748057719611737,1.0000812254118534,0.00013828669956595093
-0.47468406647785033,-0.47468406647785033,0.9999627163043565,0.00014037304695790876
-0.474562112929263,-0.474562112929263,0.9996708625469954,0.00013824007741093663
-0.47444355081947975,-0.47444355081947975,1.000031635015453,0.0001382895706342937
-0.47432312165897556,-0.47432312165897556,1.0001471217338622,0.00013830060676871467
-0.4742054931420789,-0.4742054931420789,1.000172712766339,0.00013827886586646257
-0.47408879817311345,-0.47408879817311345,0.9999958426941926,0.00013827007420834993
-0.473972103204256,-0.473972103204256,0.9999758359288377,0.0001383005372451183
-0.47385354114025163,-0.47385354114025163,0.9999983400199,0.0001382588799971595
-0.4737340455284745,-0.4737340455284745,1.0000407261885393,0.00013828490132477444
-0.4736173505603247,-0.4736173505603247,0.9999883128279446,0.00013830791537370403
-0.47349598785361025,-0.47349598785361025,0.9999168031939739,0.00013831806931514972
-0.4733792928858193,-0.4733792928858193,0.9999354229184896,0.00013828737998345715
-0.4732625979183105,-0.4732625979183105,1.0000440071061287,0.0001382709576801916
-0.4731459029509132,-0.4731459029509132,0.9998969917531246,0.0001382580950048139
-0.4730274975761297,-0.4730274975761297,0.9999317292800567,0.00013620283798238623
-0.47290411052681663,-0.47290411052681663,1.0000493112575186,0.00013827604016129798
-0.4727864820122235,-0.4727864820122235,1.0000312669738387,0.00013828600176729413
-0.4726697870454899,-0.4726697870454899,1.0000608527144337,0.0001383181662931707
-0.4725436021363073,-0.4725436021363073,1.0002600206710057,0.00014034959431043675
-0.4724223941780181,-0.4724223941780181,1.0000415533874571,0.00013829041480765652
-0.4723056992121514,-0.4723056992121514,1.0002090948884554,0.0001382875881921536
-0.47218900424661003,-0.47218900424661003,0.9996656051308579,0.00013826655089864626
-0.47207230928118166,-0.47207230928118166,1.0000954478402657,0.00013828072424060362
-0.471955614315916,-0.471955614315916,0.9997300939780066,0.00013825554785160357
-0.4718389193509317,-0.4718389193509317,1.0001358745019275,0.0001382916297567571
-0.47172222438627076,-0.47172222438627076,0.999927115462582,0.00013829479542652734
-0.47160552942169576,-0.47160552942169576,0.999819332856822,0.00013827155454726085
-0.4714888344574682,-0.4714888344574682,1.0002721548136406,0.0001382769564092919
-0.4713721394935327,-0.4713721394935327,1.0003159406478193,0.00013829711340015904
-0.471254932392619,-0.471254932392619,1.0000441869737298,0.0001375841812568773
-0.47113408165668247,-0.47113408165668247,1.0000843386003377,0.0001382619942651182
-0.4710173866933694,-0.4710173866933694,0.9998385011534123,0.00013825676116230155
-0.47090069173029364,-0.47090069173029364,0.9999892170795441,0.00013826261746777735
-0.4707839967673785,-0.4707839967673785,1.0000446960268436,0.00013826223078437924
-0.4706654347098855,-0.4706654347098855,0.9999443653127008,0.00013826977321261224
-0.4705431384628909,-0.4705431384628909,1.0000654470795272,0.0001382678706123741
-0.47042457640609997,-0.47042457640609997,1.0000070338113998,0.00013826788511237347
-0.47030788144443675,-0.47030788144443675,0.9999552698834554,0.0001382683705633058
-0.4701911864829761,-0.4701911864829761,0.9998838825697568,0.0001382821644634826
-0.4700744915217555,-0.4700744915217555,1.000065842334026,0.0001382876416401781
-0.4699577965610203,-0.4699577965610203,0.9999744252106666,0.00013827244115427622
-0.46984110160048403,-0.46984110160048403,1.0000118465486383,0.00013826201144985558
-0.4697244066400799,-0.4697244066400799,1.0001851612388808,0.00013827959207831936
-0.46960491103803503,-0.46960491103803503,0.9998825673063434,0.00013829315862824563
-0.46948634898366703,-0.46948634898366703,1.000061291147011,0.0001383070733698447
-0.4693696540242541,-0.4693696540242541,0.9999182981912169,0.00013828092959310465
-0.46925295906515885,-0.46925295906515885,1.0000147966033868,0.0001383135085019608
-0.46913626410627457,-0.46913626410627457,1.000025397272486,0.00013829173041785185
-0.4690156418433752,-0.4690156418433752,1.0001928121854513,0.00013724763281116925
