time,time,flux,flux_err
-0.49986694246690605,-0.49986694246690605,0.9998834126967646,0.00027137074655504754
-0.4995528805178765,-0.4995528805178765,1.0003366269658218,0.00026431953317780616
-0.4987260245601647,-0.4987260245601647,1.0000604352827505,0.00026898926919877056
-0.49796603668510214,-0.49796603668510214,0.9998104391392632,0.00026864696754767933
-0.49739197657036127,-0.49739197657036127,1.0001253719397103,0.0002695871953853062
-0.49667756203052704,-0.49667756203052704,0.999710169703414,0.0002674637511036724
-0.4961197808021097,-0.4961197808021097,1.000034172652622,0.00027581833015647583
-0.495780605719483,-0.495780605719483,0.9999426946301492,0.00026469905348222675
-0.4950184758657997,-0.4950184758657997,1.000064369223637,0.0002719209689591246
-0.4945098291551403,-0.4945098291551403,1.0002960468252164,0.0002686721540078084
-0.49414243626815735,-0.49414243626815735,1.000112465045233,0.00027364756765321856
-0.49380844117695233,-0.49380844117695233,0.9998352336843574,0.00027333430973399504
-0.4931927099278255,-0.4931927099278255,1.0003240235807644,0.00026248531124963416
-0.49229097385323256,-0.49229097385323256,1.000163608783708,0.0002683029383812577
-0.4917306933159125,-0.4917306933159125,0.9998134797192749,0.0002818733599134233
-0.4910188848451071,-0.4910188848451071,0.9997771843689852,0.0002720532643238998
-0.49041773522476434,-0.49041773522476434,0.9999670433233818,0.0002738245227363324
-0.4900173927409924,-0.4900173927409924,1.000007000819809,0.0002774785442839847
-0.48970411523623625,-0.48970411523623625,1.0001206496667487,0.00026723936215272123
-0.488901274066302,-0.488901274066302,1.0003787443466656,0.00027197588556204485
-0.48846156910585703,-0.48846156910585703,0.9998624004357126,0.0002685631877073554
-0.4879751558386488,-0.4879751558386488,0.9999960335341042,0.0002720995334670656
-0.48740408848170774,-0.48740408848170774,1.000373314964817,0.00026357998142358607
-0.4864787913793407,-0.4864787913793407,1.000085106785351,0.0002683436100114708
-0.4856280707477708,-0.4856280707477708,0.9997649013749454,0.0002726287630234154
-0.4849219764153531,-0.4849219764153531,1.000024622859719,0.00027226439862861816
-0.48435964012678595,-0.48435964012678595,1.0000725687474668,0.0002777714963862983
-0.48398244225245435,-0.48398244225245435,0.9996304175532158,0.0002750365546760384
-0.4837078906217357,-0.4837078906217357,1.0000809338543295,0.0002672901578244828
-0.48291902201744963,-0.48291902201744963,1.000372148918149,0.0002720834605636129
-0.4824835489918769,-0.4824835489918769,1.000004957716963,0.00026861195445143947
-0.48202562007209054,-0.48202562007209054,0.9998189287603211,0.0002750621179703231
-0.4815657576189551,-0.4815657576189551,1.0000925690305018,0.00026318363280067634
-0.4808523171013803,-0.4808523171013803,1.0001202568004033,0.00026738825071933995
-0.48010960612809866,-0.48010960612809866,1.0003856931493424,0.0002687211743907029
-0.4793589374094154,-0.4793589374094154,1.0000946621657003,0.00027300611230264007
-0.47857333915453637,-0.47857333915453637,0.9993205611662654,0.0002681500475269708
-0.47813773959569517,-0.47813773959569517,0.9998772716897186,0.00027917785509177037
-0.4778849949070718,-0.4778849949070718,0.9998652687964864,0.000276991518575139
-0.4772445124712249,-0.4772445124712249,1.000065860848159,0.000270053218269303
-0.476666569995723,-0.476666569995723,0.999957852367427,0.0002717326993512067
-0.47631588088843274,-0.47631588088843274,1.0000911659527438,0.0002706940156230944
-0.4758706912558409,-0.4758706912558409,1.0001110419772583,0.0002664020200580906
-0.47503784943328353,-0.47503784943328353,1.0004972337652343,0.00026678235611311824
-0.4744458234905323,-0.4744458234905323,0.9996357604037795,0.0002716911628491778
-0.47383705587199076,-0.47383705587199076,0.9998030561114877,0.0002716636991285248
-0.47307765170917265,-0.47307765170917265,0.9995615251184413,0.0002716400739370602
-0.4725053202513664,-0.4725053202513664,0.9998888612039512,0.0002720739231216609
-0.47214994601745275,-0.47214994601745275,0.9998655480881042,0.0002796364039130733
-0.47188171804737067,-0.47188171804737067,0.9996375783899463,0.0002647102002087193
-0.4710960106960556,-0.4710960106960556,0.999879395024372,0.00027204902151670287
-0.4706022619080613,-0.4706022619080613,0.9999695077601753,0.00026864400873441343
-0.47028370430343786,-0.47028370430343786,0.9996549163869115,0.0002737364070352436
-0.46998824912152487,-0.46998824912152487,1.0001375508191894,0.00026944500958157576
-0.46942792880217893,-0.46942792880217893,1.0000278263993754,0.0002635085892609537
-0.46867485498587486,-0.46867485498587486,0.9997736511181616,0.00026975375000632844
-0.4680130473396275,-0.4680130473396275,0.9998789178029556,0.00027164727177750444
-0.46722869631339564,-0.46722869631339564,1.0001088620949345,0.00027577701819908774
-0.46670616452538527,-0.46670616452538527,1.0004654439598215,0.00026843580938799795
-0.4662475696670299,-0.4662475696670299,0.9999610747223663,0.00028122951437372273
-0.46597294954917745,-0.46597294954917745,0.9998551234096495,0.00026677859244068566
-0.46542406012886206,-0.46542406012886206,0.9999737390212509,0.000269313026716794
-0.4647922686810489,-0.4647922686810489,0.9998350316781298,0.00027270140677368004
-0.46442411814787193,-0.46442411814787193,0.9999930787770135,0.00026761954806645466
-0.4640720706258435,-0.4640720706258435,0.9997410762260618,0.00027169030523000696
-0.4634606848929252,-0.4634606848929252,1.0000891533534424,0.00026361466559727056
-0.4626560264499858,-0.4626560264499858,1.000194751618413,0.00027007448593853575
-0.46187426053948,-0.46187426053948,1.0003923039403584,0.00026951569814170076
-0.4610699138494965,-0.4610699138494965,1.0000769705306798,0.00027178274399329886
-0.46055578551167853,-0.46055578551167853,1.0002077348711635,0.0002723886551199707
-0.46016674291095117,-0.46016674291095117,1.0001864339783524,0.00028120540636116507
-0.45995980865700403,-0.45995980865700403,0.9999353999301442,0.0002788825449082532
-0.45955995027834434,-0.45955995027834434,1.00017889056857,0.00026570808485732947
-0.4588975293583644,-0.4588975293583644,1.000172634666922,0.0002754435633213656
-0.4585137334710453,-0.4585137334710453,1.000004138907872,0.0002686083960461613
-0.458171382862929,-0.458171382862929,0.9994030725621205,0.00026847047640772277
-0.45768967264157256,-0.45768967264157256,1.0000030129190667,0.0002667905398490983
-0.45680873983947096,-0.45680873983947096,1.0003035376422633,0.00026703448443837253
-0.4561172908637673,-0.4561172908637673,0.9998489919647007,0.0002655914240234888
-0.4554993035984808,-0.4554993035984808,1.000235107610402,0.00027493551393126145
-0.4549200234505406,-0.4549200234505406,1.0002562530029073,0.0002991698852147607
-0.45458115928049664,-0.45458115928049664,1.0001999212983474,0.00027293945238691117
-0.4541413765400648,-0.4541413765400648,1.0001318474784717,0.0002658994090387422
-0.45389783603459366,-0.45389783603459366,1.0001244729124044,0.00026428121691716175
-0.4530879574063874,-0.4530879574063874,1.0001449576375765,0.0002717251140702908
-0.45260746272761027,-0.45260746272761027,1.000005207165386,0.00026866764147427354
-0.4522842229365779,-0.4522842229365779,0.9997618151390245,0.00026771307678996614
-0.45197906162284196,-0.45197906162284196,0.9997751165398843,0.00026950867591662617
-0.4513670110565727,-0.4513670110565727,1.0004260531835125,0.0002699919435478715
-0.4507142381313315,-0.4507142381313315,0.9998839714320003,0.0002622638749238804
-0.4501032529260556,-0.4501032529260556,1.0002091742869736,0.0002669938283606262
-0.449575658057438,-0.449575658057438,1.0003304954990218,0.0002748370864879933
-0.4489951028699579,-0.4489951028699579,0.999719744983592,0.00027171609563491424
-0.44860662443606997,-0.44860662443606997,1.000339216133567,0.0002734928434937533
-0.4481462860137981,-0.4481462860137981,1.000289084149283,0.00026639163330467123
-0.44785414602447415,-0.44785414602447415,0.9997307909566105,0.0002666475957091964
-0.44710732862367875,-0.44710732862367875,1.0000326125136951,0.0002694432827093407
-0.4466318556944316,-0.4466318556944316,1.0003601038019059,0.0002708811324846743
-0.44630574247494226,-0.44630574247494226,1.000202970008103,0.00026734881551819544
-0.44605626268239573,-0.44605626268239573,0.9998044647130179,0.000283252771334732
-0.44551941574172815,-0.44551941574172815,0.9999562532042043,0.00026908105700197753
-0.44490883996186315,-0.44490883996186315,0.9999842872895061,0.00026336957628738587
-0.4442358898151724,-0.4442358898151724,0.9999880627699678,0.0002641842851308676
-0.4436844955198467,-0.4436844955198467,0.9998510904299168,0.00027489987193866656
-0.4431268193140568,-0.4431268193140568,1.0002319294358395,0.0002747240486310919
-0.4427229284097848,-0.4427229284097848,1.0002628290645772,0.0002685006936356559
-0.44222232704196357,-0.44222232704196357,1.0000468872755461,0.0002689137118286432
-0.44190377303530115,-0.44190377303530115,0.9998479052775002,0.00026436015081273626
-0.4413006727263564,-0.4413006727263564,0.9997685007153898,0.0002715765486473142
-0.4405999107650132,-0.4405999107650132,1.0002503097541293,0.00027103053477566924
-0.4402955760575423,-0.4402955760575423,1.0001884638247178,0.0002709745190222053
-0.43989425906111135,-0.43989425906111135,0.9997455514235444,0.0002667746892487593
-0.43931466849899153,-0.43931466849899153,1.0000639548186254,0.0002695987290202392
-0.4387014275242109,-0.4387014275242109,0.9992978703946749,0.00026336980814848173
-0.43816310288530075,-0.43816310288530075,0.9997858832712337,0.00026753357519888
-0.437606775182212,-0.437606775182212,0.9998001048336306,0.00027486923864037446
-0.43703068335380524,-0.43703068335380524,1.0001759546113873,0.00027180789392878315
-0.43665781750605676,-0.43665781750605676,1.0000154616841241,0.000274433386512923
-0.4362200268849847,-0.4362200268849847,0.9994378628222899,0.0002646835492480902
-0.43594101390917783,-0.43594101390917783,1.0001106708462741,0.0002644386486227933
-0.43531970990879926,-0.43531970990879926,0.9998111600255228,0.0002716178206395478
-0.43461826837956324,-0.43461826837956324,1.0002041528581351,0.0002710395799913672
-0.43432021927874304,-0.43432021927874304,1.000029117532429,0.0002717080372263558
-0.433953931229189,-0.433953931229189,1.0000563641040892,0.000269517892475112
-0.4334533510140318,-0.4334533510140318,1.0001479765743504,0.000269949418790494
-0.4328814085529302,-0.4328814085529302,0.9999373438815601,0.0002663406750404316
-0.4323586574733781,-0.4323586574733781,0.9998836809272154,0.000264772003954125
-0.4316889478519442,-0.4316889478519442,0.9995787944360002,0.00027472451123584457
-0.4310486320020573,-0.4310486320020573,0.9999928704103211,0.0002718065804850684
-0.4306835403513105,-0.4306835403513105,0.9998253428279937,0.0002748819697877242
-0.43022969253725024,-0.43022969253725024,1.0001567647906073,0.0002642946520576613
-0.42986393318205957,-0.42986393318205957,1.0002957910322696,0.0002665675186478001
-0.42901665166718883,-0.42901665166718883,1.0001311213281,0.00027196153453987073
-0.42854780599664083,-0.42854780599664083,0.9999064638388525,0.00027077716728958804
-0.4282952708010271,-0.4282952708010271,0.9995004962626922,0.00027053550289111094
-0.4278349017753499,-0.4278349017753499,1.000208117184848,0.00026706309858287754
-0.42711815551301696,-0.42711815551301696,1.000406168693042,0.0002695202333136416
-0.42650404710366274,-0.42650404710366274,1.000294557647654,0.0002624214350709849
-0.42586269188614095,-0.42586269188614095,0.999857667508104,0.00027270193199715965
-0.42517327478781225,-0.42517327478781225,0.999656398609534,0.00027472741295061766
-0.42480043637769993,-0.42480043637769993,0.9998199054147433,0.000269569735857668
-0.4243213331414154,-0.4243213331414154,1.0003071925992173,0.00026917203668557865
-0.42401261350751157,-0.42401261350751157,1.0002654673594829,0.00026428545939774815
-0.4231905971515516,-0.4231905971515516,0.999954395185827,0.0002719097680315641
-0.42255421082227257,-0.42255421082227257,0.9998548661998441,0.0002709533844349308
-0.4222980337013723,-0.4222980337013723,0.9999282520032515,0.0002697882818754674
-0.42186413835152053,-0.42186413835152053,0.9998796277587715,0.00026700660861730377
-0.42113800172592164,-0.42113800172592164,0.9997438775348979,0.00026738035758274613
-0.4205240230316122,-0.4205240230316122,1.0000833489644703,0.0002653090062430184
-0.4197241244553879,-0.4197241244553879,1.0001696203931771,0.0002749840396856891
-0.4190872636478161,-0.4190872636478161,1.0001714383435745,0.0002717878743722735
-0.41873443640361074,-0.41873443640361074,0.9996641130447206,0.00026999683675458933
-0.4183043905097293,-0.4183043905097293,1.0002165036675776,0.0002705164603781679
-0.41792518970105447,-0.41792518970105447,0.9997335802455479,0.00026656570745591033
-0.4170570534937724,-0.4170570534937724,0.9999208817615978,0.0002719731849178648
-0.41644759544942644,-0.41644759544942644,0.9998686309186742,0.0002751353653784953
-0.4160031862295,-0.4160031862295,0.9998502661751841,0.0002669386959243469
-0.4153421380840882,-0.4153421380840882,0.9995298640744238,0.00026738736857772255
-0.4146498207555851,-0.4146498207555851,0.9996919391394548,0.000266227471302966
-0.4139501073193969,-0.4139501073193969,0.9998453831770082,0.00026989385498716787
-0.4132048740844766,-0.4132048740844766,0.99991204850466,0.0002747336092786189
-0.4128525752908899,-0.4128525752908899,1.000256416154831,0.0002704795673769293
-0.4124036536763015,-0.4124036536763015,0.9998841176186604,0.00027056782774920825
-0.4122294939159474,-0.4122294939159474,0.9997537100692477,0.00027779810352065234
-0.4114025652721466,-0.4114025652721466,1.0001058511602487,0.0002690524696241785
-0.4105753788440779,-0.4105753788440779,0.9999421604383173,0.00027750314619498577
-0.4100493174701114,-0.4100493174701114,1.000314650304106,0.0002696495823419317
-0.40937565291751526,-0.40937565291751526,0.9999512564063311,0.00026711298982031167
-0.4087440589071775,-0.4087440589071775,1.0007011172825557,0.0002755667936984299
-0.4083083911027643,-0.4083083911027643,0.9998301591870025,0.00026425159720889975
-0.40750484425079775,-0.40750484425079775,1.0001284405404207,0.0002750001764075859
-0.406994153620326,-0.406994153620326,0.9996814103153955,0.0002685381017853522
-0.40660173165961166,-0.40660173165961166,0.9999491867489768,0.0002771501133232714
-0.4062683735624887,-0.4062683735624887,1.0001323597330143,0.0002650750715515166
-0.4055981785299082,-0.4055981785299082,1.0000516291581005,0.0002655494926930467
-0.404694915485743,-0.404694915485743,1.0000442646664762,0.00028139380363310614
-0.4042046079463034,-0.4042046079463034,0.9996616689889068,0.00027173919521384396
-0.40353212778209124,-0.40353212778209124,0.9999684185668253,0.00026721163997084666
-0.4028786358765501,-0.4028786358765501,1.0000097109944197,0.0002771599586439184
-0.4024383245894569,-0.4024383245894569,0.999699534127512,0.0002632836349598779
-0.40168750600132624,-0.40168750600132624,0.9998419160674084,0.00027286111870367775
-0.40108466007877724,-0.40108466007877724,1.0001514536501825,0.0002687182491404216
-0.4007192179749836,-0.4007192179749836,1.0000455047957157,0.00028029694510136525
-0.40036714642556037,-0.40036714642556037,0.9998697018803245,0.0002654022279530623
-0.3999030319166195,-0.3999030319166195,0.9996318913199197,0.00026352924062140114
-0.398966990991903,-0.398966990991903,0.9995466491912474,0.00027120879782050963
-0.3983241351750621,-0.3983241351750621,0.9999226808874788,0.00027170408470872295
-0.3977337099961005,-0.3977337099961005,1.0002257883979957,0.00026737825257646384
-0.3969848747627111,-0.3969848747627111,1.0001772454336362,0.00027345724040854144
-0.3965801868536801,-0.3965801868536801,1.0002218633188402,0.0002672412588786302
-0.3961200564503088,-0.3961200564503088,1.0000314595951107,0.000266388588936493
-0.39538544267779796,-0.39538544267779796,1.0001173526397416,0.0002750207775924521
-0.3949741533884662,-0.3949741533884662,1.0002541159081513,0.00027416752415613773
-0.3945625462765747,-0.3945625462765747,0.9996906810048761,0.00027097448797513046
-0.3942398064136796,-0.3942398064136796,1.0003544938088846,0.0002644494780460029
-0.3934223107629805,-0.3934223107629805,0.9999156472373711,0.0002659530428135763
-0.39258536297347746,-0.39258536297347746,0.9998970502112282,0.00026870112113221357
-0.39192837054142726,-0.39192837054142726,0.9999088536330024,0.00027061511123307097
-0.3912438304934767,-0.3912438304934767,1.0000911501157534,0.00027115047398898397
-0.39074269606062445,-0.39074269606062445,0.9998589585939117,0.0002762249728847742
-0.39046516911985235,-0.39046516911985235,0.9999419968594914,0.0002748223615615504
-0.3898020589098451,-0.3898020589098451,0.9998658720724742,0.00027192582993781076
-0.38920775713850164,-0.38920775713850164,1.0000591236097969,0.00026956296929136087
-0.3887834898458095,-0.3887834898458095,1.0001595896921576,0.0002650921483772815
-0.38828847004187994,-0.38828847004187994,1.000049570532774,0.0002726513179650507
-0.38744617332777126,-0.38744617332777126,0.9998713676432306,0.0002659796138210714
-0.3865582455211552,-0.3865582455211552,0.9997076084516652,0.0002717374405864311
-0.38579541993167366,-0.38579541993167366,0.9999584083356108,0.00027077930852719155
-0.385140336517361,-0.385140336517361,0.9996593984682594,0.0002680552858413079
-0.3847082903586852,-0.3847082903586852,1.0002629523336408,0.00027753721705220163
-0.38445173447835257,-0.38445173447835257,0.9998364529285693,0.000275899152367067
-0.3838221857651661,-0.3838221857651661,0.9996668324028313,0.0002719587700286179
-0.38323574673195254,-0.38323574673195254,0.9998672986986923,0.0002695596605858414
-0.3828079444952891,-0.3828079444952891,0.9998137766614276,0.00026511166653750765
-0.3823170746538381,-0.3823170746538381,0.9999528026636965,0.00027340917625893297
-0.3815745456740842,-0.3815745456740842,0.9999650883773981,0.0002664468195381761
-0.3808576430521498,-0.3808576430521498,0.9997687702434142,0.0002664571323405029
-0.3801279532170156,-0.3801279532170156,0.9998377972497352,0.0002729475281300548
-0.3792987444176106,-0.3792987444176106,1.0001131459137875,0.0002711732708662438
-0.37879375890624944,-0.37879375890624944,1.0002730127545711,0.00027815715907007055
-0.378525463425467,-0.378525463425467,1.0000385348645953,0.0002770576651530753
-0.3780269101458543,-0.3780269101458543,0.9998359333511206,0.00026984886471716527
-0.3773404710183968,-0.3773404710183968,0.9999049579718872,0.00027266447514716466
-0.376984704368806,-0.376984704368806,0.9998704299504979,0.00026758428941321276
-0.3765909858258965,-0.3765909858258965,0.9998468616900208,0.0002788805113499183
-0.37599726398693745,-0.37599726398693745,0.9997569439594644,0.00026773683823870206
-0.3752479853494151,-0.3752479853494151,0.9999712002390219,0.0002653736547269741
-0.3745935152459424,-0.3745935152459424,0.9998367384373983,0.000271716322671423
-0.37377478515772966,-0.37377478515772966,1.000446666203001,0.0002709241910965695
-0.37310280727542705,-0.37310280727542705,1.0000525958601998,0.00027209318793330694
-0.3727067037478264,-0.3727067037478264,0.9999749165722507,0.00027701451355208716
-0.3723673762993712,-0.3723673762993712,1.00004547539869,0.000267308399881931
-0.371553057309211,-0.371553057309211,1.0002833666684676,0.0002721662143661541
-0.37113210797542706,-0.37113210797542706,1.0000582487542735,0.0002685285375359498
-0.3708180188907136,-0.3708180188907136,0.9996267117324764,0.000270780079846804
-0.37035696593447937,-0.37035696593447937,1.0000579365332496,0.0002665495434639437
-0.3695061465332401,-0.3695061465332401,0.9996853924283634,0.0002676288357922578
-0.36887906040719826,-0.36887906040719826,0.9996400109087962,0.00026850392228368217
-0.3681555923569249,-0.3681555923569249,0.9999650288831223,0.00027488196609945433
-0.3674530020274688,-0.3674530020274688,0.9998961160195202,0.0002746558540502636
-0.3670325682593102,-0.3670325682593102,1.0002997516728533,0.0002819044151293213
-0.36667047715454826,-0.36667047715454826,1.0000518052373286,0.0002659755139777246
-0.36633271369792053,-0.36633271369792053,1.0000411263242204,0.00026652650437065825
