time,time,flux,flux_err
-0.49985055092547553,-0.49985055092547553,1.0000243918124605,0.00021904458587881093
-0.4997474970601615,-0.4997474970601615,0.9996816565637522,0.00021275817770773623
-0.4996348243454122,-0.4996348243454122,1.0000466662092282,0.00020263755273245885
-0.4995275087509071,-0.4995275087509071,0.9997009307748079,0.0002313612531017774
-0.49936647412687307,-0.49936647412687307,0.9999758545603736,0.00020706877012723504
-0.49923522792669245,-0.49923522792669245,1.000041512074013,0.000230206676424035
-0.4989217876638577,-0.4989217876638577,0.9999670480863834,0.00023404037847125312
-0.49877591282347566,-0.49877591282347566,0.9999447682943199,0.0002357810824683847
-0.4987135376344668,-0.4987135376344668,0.9999421917377399,0.00021959386857129277
-0.4986592146095063,-0.4986592146095063,0.9998577452629679,0.0002164500423801249
-0.49853603351002673,-0.49853603351002673,1.0001139642081254,0.00023941816924853986
-0.4984922735216969,-0.4984922735216969,1.0000918221437431,0.00023304289099804863
-0.49842076711938715,-0.49842076711938715,0.9999276072486012,0.00022997215969953083
-0.49832215963033377,-0.49832215963033377,0.999834166721685,0.00020000803253485125
-0.49821179156715517,-0.49821179156715517,1.000037043931329,0.00021284343768481392
-0.4981208911158319,-0.4981208911158319,1.0000827459172033,0.00020464907972487625
-0.49807733264024134,-0.49807733264024134,1.000026504452542,0.000232510379320141
-0.49801927281951064,-0.49801927281951064,0.9998396596268714,0.00023670564874949657
-0.49782979668088956,-0.49782979668088956,1.0000401101012555,0.00022758107587359986
-0.49772187001581186,-0.49772187001581186,0.9998234229116383,0.00020542476010708437
-0.4975899480581575,-0.4975899480581575,1.0002990377165768,0.00023567015204019104
-0.4974234041161253,-0.4974234041161253,1.0004208832930845,0.00021070827026765238
-0.4973043720914575,-0.4973043720914575,1.0001241453759129,0.00019979317318068063
-0.49719276369578436,-0.49719276369578436,0.9998870462510302,0.00022694979374799596
-0.4969333539112995,-0.4969333539112995,0.9998276448239002,0.00021358486848935778
-0.49675718956277704,-0.49675718956277704,1.000044916984391,0.00023997593783164935
-0.49669421500366295,-0.49669421500366295,1.0000671558965497,0.0002394585186760497
-0.4966557603984256,-0.4966557603984256,0.9996914242698389,0.00022191377048854066
-0.49651775258462294,-0.49651775258462294,1.000286699729338,0.00023339807250088735
-0.49643848835039533,-0.49643848835039533,1.0003406752297312,0.00024121595530048824
-0.49635437465112775,-0.49635437465112775,1.0001155995042432,0.0002165760342937367
-0.4962231237477681,-0.4962231237477681,1.0000748038714495,0.00020267555501126173
-0.4961055125655548,-0.4961055125655548,1.0001602290160791,0.00020154603503597606
-0.4960432674990443,-0.4960432674990443,1.0000083455574063,0.00023428832177656368
-0.4959840690535202,-0.4959840690535202,1.0000203092050541,0.00024303153056148607
-0.495839779623202,-0.495839779623202,0.9999723347584183,0.00023122490958453032
-0.49570897956145926,-0.49570897956145926,1.0001140129783814,0.00021086459022511892
-0.495582920913148,-0.495582920913148,0.9998583058344955,0.00021020211434668836
-0.4954190021031536,-0.4954190021031536,1.0001610183461456,0.00023065385792300536
-0.49527259355891146,-0.49527259355891146,0.9997924562626024,0.00020726226111094438
-0.49516608678677587,-0.49516608678677587,0.9996055201752057,0.00023025176386370834
-0.49495984021632466,-0.49495984021632466,0.9998570538397302,0.000208743195724296
-0.49471578151060386,-0.49471578151060386,1.0001710935024923,0.00023446385952460044
-0.494665194216941,-0.494665194216941,1.0000799022957056,0.00023916228891826752
-0.4946250600289204,-0.4946250600289204,0.9997294284725114,0.0002218895147565323
-0.49448582029071986,-0.49448582029071986,0.9999388330112948,0.0002334470114152657
-0.4943932873662561,-0.4943932873662561,0.9999730007379654,0.0002506637854904304
-0.494324851140118,-0.494324851140118,0.9998523633508573,0.0002098620350551935
-0.4942318258508749,-0.4942318258508749,0.9997494842634962,0.00019342955857080648
-0.49414246361120606,-0.49414246361120606,1.0003087099920571,0.0002031737128541781
-0.49405610859321314,-0.49405610859321314,1.0000028458617316,0.0002010716973955751
-0.49399528119247405,-0.49399528119247405,1.000246264757076,0.0002384515863118486
-0.49387679030405707,-0.49387679030405707,1.0002829307060943,0.00024785568239418137
-0.4936879720502475,-0.4936879720502475,1.0000951640272713,0.00021515580696557815
-0.4934999249540851,-0.4934999249540851,0.9998820548971359,0.00021261140195378696
-0.4933457256265683,-0.4933457256265683,0.999980459640246,0.00021015991092105448
-0.49323350127233423,-0.49323350127233423,0.9999195383899011,0.00019979250608846612
-0.4931096126267221,-0.4931096126267221,0.9997194603966241,0.0002188294757744258
-0.49289227832487087,-0.49289227832487087,0.9996363223113123,0.00021390591512225601
-0.4926684007856238,-0.4926684007856238,0.9998077893490234,0.00023819511683608076
-0.49262956679667697,-0.49262956679667697,0.9999541534619307,0.0002363382549557766
-0.4925773956354533,-0.4925773956354533,0.9998945956166455,0.0002204638464543089
-0.49246739961599817,-0.49246739961599817,0.9999558356519106,0.0002103495960366711
-0.4923714237927925,-0.4923714237927925,0.9998936235767812,0.00026427618284369887
-0.4923295948341547,-0.4923295948341547,1.0001245266091718,0.0002492055810535695
-0.4922451145561354,-0.4922451145561354,0.9998526543253841,0.0002029741398916421
-0.49213953581638636,-0.49213953581638636,1.0001349338844296,0.00020289958356930674
-0.49206335174967536,-0.49206335174967536,0.9998695657261155,0.00020148135435188878
-0.4919774831068935,-0.4919774831068935,1.0002064200162688,0.00020942692349935118
-0.4918581845893641,-0.4918581845893641,0.9999581524228034,0.00026535871914466845
-0.4916854076225718,-0.4916854076225718,0.999707952413322,0.0002168040292845968
-0.4915256558466353,-0.4915256558466353,0.9999026263277653,0.00020966030648938405
-0.49135592178135995,-0.49135592178135995,1.000233285426219,0.00020576119235250447
-0.491203475259681,-0.491203475259681,1.0000963338217805,0.00020664443336707608
-0.49107980013432095,-0.49107980013432095,0.9999641965742316,0.0002177165629436137
-0.49095217930080254,-0.49095217930080254,0.9996767431396432,0.0002047610102881558
-0.49067158065154215,-0.49067158065154215,0.9998684885074919,0.0002147394882241107
-0.4906154649164819,-0.4906154649164819,1.000041399369676,0.00024148036404745922
-0.49055932247283635,-0.49055932247283635,0.9998024930029871,0.00023491159613350573
-0.49043389896905865,-0.49043389896905865,0.9998363905408129,0.00020429184500066815
-0.4903471646066464,-0.4903471646066464,1.0000505388706846,0.00024137777443658672
-0.49030374219364603,-0.49030374219364603,0.999973957478973,0.00026198601090777546
-0.49019010948613867,-0.49019010948613867,0.9996227873520492,0.0001986612709291309
-0.49007391011618895,-0.49007391011618895,1.0000045383485339,0.00020324171614154898
-0.48996436777015334,-0.48996436777015334,1.000101701010017,0.00020468710527522018
-0.4898572986596264,-0.4898572986596264,0.999739998791512,0.00023950759460561133
-0.48973673326545397,-0.48973673326545397,0.9998136481011304,0.0002456466396482729
-0.48958219513733636,-0.48958219513733636,1.0002231686544685,0.00020631853697165961
-0.4894032001931919,-0.4894032001931919,0.9996490154109816,0.0002138290362794133
-0.4892326878238237,-0.4892326878238237,1.0002180654582327,0.0002243637965054723
-0.48915243831288535,-0.48915243831288535,0.9997095199505406,0.00019303566023058934
-0.48903336488219795,-0.48903336488219795,1.0003707334880942,0.00021961865241806717
-0.48893857935618146,-0.48893857935618146,0.9997205681276154,0.00020741794204181537
-0.48869086180784505,-0.48869086180784505,0.9997690376360842,0.00020852329414948974
-0.48860365504660874,-0.48860365504660874,0.9999117525254168,0.0002159554799842236
-0.4885449621666339,-0.4885449621666339,0.9995169687711716,0.00023764998491100932
-0.4884272279436118,-0.4884272279436118,0.9996908079425577,0.000218141643481896
-0.48833641605160666,-0.48833641605160666,0.9997954161226137,0.0002157360303840123
-0.48827613252651647,-0.48827613252651647,0.9999400596005676,0.0002615711044348481
-0.48819336716624095,-0.48819336716624095,0.9998955003930883,0.00022630569341881924
-0.4880873745227291,-0.4880873745227291,1.0001732075624177,0.00020978535870409655
-0.48796716950309926,-0.48796716950309926,1.000040570266434,0.00020268881189063824
-0.4878446413182246,-0.4878446413182246,0.9999948128960433,0.00023608332151808619
-0.4877611374402477,-0.4877611374402477,0.9998028047300966,0.00024467547940637123
-0.4875833956168208,-0.4875833956168208,0.9997640634623381,0.00021706057312730802
-0.4874287589074811,-0.4874287589074811,1.0002406122220946,0.00020900390220522804
-0.487327551504859,-0.487327551504859,1.000065365860269,0.00020976072407044268
-0.48714499608977346,-0.48714499608977346,0.9997377119271995,0.00021134187286573513
-0.4870215738817933,-0.4870215738817933,1.000365243561487,0.0002201876379068123
-0.48692948768803035,-0.48692948768803035,1.0001290742139202,0.0001972963621309529
-0.486698208560847,-0.486698208560847,0.9998815504021981,0.00021402005851406739
-0.4865730817866279,-0.4865730817866279,1.000099855480456,0.0002192280262767555
-0.48646570046475973,-0.48646570046475973,0.9996957405184116,0.00024077933009456913
-0.48633344509798915,-0.48633344509798915,1.0001839671059929,0.00021458955699733655
-0.48626381873255015,-0.48626381873255015,1.000248642899082,0.00024065504804018331
-0.4861725989219849,-0.4861725989219849,0.9998571774827354,0.00025073844149995077
-0.4860827954398701,-0.4860827954398701,1.0001438060028414,0.00020419279429906225
-0.4860036299316562,-0.4860036299316562,1.000301907993261,0.00020636189741058368
-0.48589481268427337,-0.48589481268427337,1.0000414014507788,0.00020661957640978157
-0.4858060813152406,-0.4858060813152406,1.0000514582521731,0.00023747766128234994
-0.4857329432357801,-0.4857329432357801,0.9997609323355139,0.00023754493179894482
-0.4855126758469851,-0.4855126758469851,1.00000488992095,0.0002123589503939041
-0.48532787884614664,-0.48532787884614664,1.0000460503254105,0.00021103015260349724
-0.4851686127629364,-0.4851686127629364,0.9997596841787099,0.00021910086080514072
-0.4850245291199826,-0.4850245291199826,1.0000996804883246,0.00019651270355237763
-0.484903651814966,-0.484903651814966,1.0001123288742535,0.00022703409026863836
-0.4846455173792492,-0.4846455173792492,1.0001810732747836,0.00021937400095740057
-0.48453981269558427,-0.48453981269558427,1.0001761423153546,0.00021853722371402255
-0.4844594669288199,-0.4844594669288199,0.9998398019346185,0.00023900521296756424
-0.48433266105566875,-0.48433266105566875,1.00012844749233,0.0002285798600666192
-0.4842637878995447,-0.4842637878995447,1.0000926376922146,0.00021737035452523693
-0.48417695689277024,-0.48417695689277024,1.0001914456178753,0.0002727881742460865
-0.4840538806769473,-0.4840538806769473,1.0002295535342673,0.00020106453859491954
-0.4839752013067482,-0.4839752013067482,0.9999354627825792,0.00020632487782574403
-0.4838427914030035,-0.4838427914030035,0.9997768868166185,0.0002108597888331946
-0.4837578275248234,-0.4837578275248234,0.9999296965694336,0.0002318959867505756
-0.4836669828669983,-0.4836669828669983,1.0002809434659585,0.00024693238232375875
-0.4834667486640683,-0.4834667486640683,0.9999019463179524,0.000198555296432245
-0.4832638451560342,-0.4832638451560342,1.000231175149154,0.00021645169750065385
-0.4830768562926096,-0.4830768562926096,0.9999892135865187,0.00021194924991851664
-0.4829510344701703,-0.4829510344701703,0.9999833720504394,0.0001919235029889651
-0.48277675968492983,-0.48277675968492983,1.0003392319431215,0.00023669854264839462
-0.48258317653817356,-0.48258317653817356,0.9999322110156263,0.0002164291969510295
-0.4824940685131878,-0.4824940685131878,0.9997835794909996,0.00021923505972083589
-0.48239166565181224,-0.48239166565181224,1.000165004840825,0.0002405580295465054
-0.4822714043453743,-0.4822714043453743,1.000250860129847,0.00022418190293903463
-0.4821476067525509,-0.4821476067525509,0.9997949207025725,0.0002515780319643357
-0.48201333924225764,-0.48201333924225764,1.0000379338345335,0.00020097720542854255
-0.4819222823025484,-0.4819222823025484,1.0000022395369323,0.000206201671089004
-0.48178761325252706,-0.48178761325252706,0.9999829498765248,0.00021556616444990106
-0.4817051567311864,-0.4817051567311864,0.9998582151321644,0.00022592520290025013
-0.48160988171439384,-0.48160988171439384,1.0003031743154598,0.00024738916381878133
-0.4813398884631169,-0.4813398884631169,0.9998830354298007,0.00019904454533154373
-0.4811112386400055,-0.4811112386400055,1.0003502503714947,0.00022213216153339521
-0.48096557489625413,-0.48096557489625413,1.0000786100856776,0.0002079374616779656
-0.4808770358475158,-0.4808770358475158,1.0000487471317363,0.00023051816524688492
-0.4806858703814214,-0.4806858703814214,0.9999173643715011,0.00021297173849809645
-0.4805148578205262,-0.4805148578205262,1.000158341286888,0.0002211120292354002
-0.480404113856639,-0.480404113856639,0.999985869473862,0.00021784404333075323
-0.4802953214813897,-0.4802953214813897,0.9998847152298854,0.0002194491010444624
-0.48017116640257884,-0.48017116640257884,0.9996489446960519,0.0002287236772939147
-0.4800626612675842,-0.4800626612675842,1.0000484955166418,0.0002483999246634102
-0.4799508722433529,-0.4799508722433529,0.9999222572930812,0.00020456337808827575
-0.4798251127540425,-0.4798251127540425,0.9996921401775793,0.00020573635363494558
-0.4797096157861233,-0.4797096157861233,0.9998812982069276,0.00020689071638964841
-0.4796189128188416,-0.4796189128188416,0.9997941693930643,0.0002603555454195399
-0.47933173467754386,-0.47933173467754386,1.0001479749072755,0.0002094111127516701
-0.47903036616626193,-0.47903036616626193,1.0000926010129718,0.00021272606229522464
-0.47888392547611147,-0.47888392547611147,0.9999669556402374,0.00020849227880854557
-0.4787904429809714,-0.4787904429809714,0.9998860375592148,0.00022712217946004235
-0.4785893152846256,-0.4785893152846256,1.0002466607815481,0.00021492455862790746
-0.47848600146971876,-0.47848600146971876,1.000142323698776,0.00021339874971369662
-0.4783575136352738,-0.4783575136352738,1.0000068877825083,0.00021366068639208348
-0.47823873584056853,-0.47823873584056853,1.0001435892091788,0.0002087378192446872
-0.4781162659310212,-0.4781162659310212,1.0000526960782445,0.0002236412397113653
-0.47799505044240503,-0.47799505044240503,1.000482268473646,0.00025270203324557984
-0.4778793602097721,-0.4778793602097721,0.9999586255410895,0.0002023155756466025
-0.47779039813467533,-0.47779039813467533,1.0000839236734431,0.0002008550025094829
-0.4776602347643347,-0.4776602347643347,1.0000729273284552,0.00023311179164528907
-0.47756861292364194,-0.47756861292364194,1.000271861361597,0.00025351830638402324
-0.47729196304862853,-0.47729196304862853,0.9999464356463849,0.00020806870591847838
-0.47711789104723723,-0.47711789104723723,0.9998552113949852,0.0001997635732525553
-0.476908584364719,-0.476908584364719,1.0001680734060885,0.00021323519021457056
-0.4768193351999798,-0.4768193351999798,0.999560861853646,0.0002024716399127966
-0.4766582479358476,-0.4766582479358476,0.9998558939756188,0.00023633921868122004
-0.47649556017713623,-0.47649556017713623,0.9999698295502076,0.00021029714971570798
-0.4764075244696869,-0.4764075244696869,0.9998133285317502,0.00021720471382953962
-0.4762994998629438,-0.4762994998629438,0.9998199507527248,0.00021324719065812965
-0.47620731356219037,-0.47620731356219037,1.0002986998112156,0.0002161615551226303
-0.4760794045039802,-0.4760794045039802,1.000214051980841,0.00022126200993010222
-0.4759591018446372,-0.4759591018446372,1.0003338300558395,0.00026305922165016486
-0.4758364872104721,-0.4758364872104721,0.9995831723561537,0.00020203273302284562
-0.4756716862117173,-0.4756716862117173,1.0001178529246397,0.00020500754076089255
-0.4755739676897065,-0.4755739676897065,0.9999339979099678,0.0002573271300749108
-0.4752496736320609,-0.4752496736320609,0.9996240751601999,0.00022454523718172032
-0.47500718263690944,-0.47500718263690944,0.9998529542192205,0.00021030796821979646
-0.47481903321822755,-0.47481903321822755,0.9998315851964144,0.0002180679872091851
-0.4747029246660531,-0.4747029246660531,1.0000401559635026,0.0002233656453732962
-0.474541504017543,-0.474541504017543,0.9995755985180595,0.0002149456574380538
-0.47443031202928976,-0.47443031202928976,0.9999095131553932,0.00021357629492192425
-0.4743231046166329,-0.4743231046166329,0.9998004605963606,0.00021356216920749398
-0.4742000983322214,-0.4742000983322214,0.9998077647359249,0.00021452595405467727
-0.47410065230142207,-0.47410065230142207,1.0001260543940034,0.00021301640264678392
-0.47395023111021145,-0.47395023111021145,1.0000909695481979,0.00025643145711266564
-0.473828795406007,-0.473828795406007,0.9998584816301657,0.00020083755593503693
-0.4736799967962725,-0.4736799967962725,0.9997686050461552,0.00020920721308706277
-0.47355533544832723,-0.47355533544832723,0.9998717925814331,0.00023457671131499615
-0.47338974724698346,-0.47338974724698346,1.0000918135836359,0.00024416523920984737
-0.4730786670719681,-0.4730786670719681,1.0000919741665242,0.0002018328534841765
-0.4728121450119943,-0.4728121450119943,0.9998720411920965,0.00022269810012998066
-0.47266009074883186,-0.47266009074883186,0.9998668850606636,0.00022350611154572144
-0.4725286632332427,-0.4725286632332427,1.000096004764821,0.00021193768855788106
-0.47242055973110836,-0.47242055973110836,1.0001218722568843,0.0002129978285152791
-0.47229267457078095,-0.47229267457078095,0.9999383551103813,0.00020677726521524438
-0.4721821275627008,-0.4721821275627008,0.9999984184694288,0.0002165935230318829
-0.47212119308751427,-0.47212119308751427,0.9997849346787401,0.00020992720806125805
-0.47203850677396986,-0.47203850677396986,1.000186622086827,0.00020501770322351224
-0.47191997141198955,-0.47191997141198955,1.000261924771899,0.00023523961202839713
-0.4717919587492361,-0.4717919587492361,1.0000862562166293,0.00022486532418369335
-0.4716664130886784,-0.4716664130886784,0.9995920800392637,0.00021153920682512745
-0.47149178588733776,-0.47149178588733776,0.9999956050985546,0.0002504902268118109
-0.4711769929534057,-0.4711769929534057,0.9997049589976614,0.00022691509729532285
-0.4708663882331166,-0.4708663882331166,1.0000178884150084,0.0002162638184004404
-0.4706890042747546,-0.4706890042747546,0.999931100903957,0.00022808980458325842
-0.4705580538364302,-0.4705580538364302,1.0000778698309616,0.00020840165179601507
-0.47042519245806036,-0.47042519245806036,1.0000446350264252,0.00021508626684467236
-0.4703083749394864,-0.4703083749394864,0.9998603743440639,0.00022051469012686283
-0.4701664443637128,-0.4701664443637128,0.9999905705239183,0.00020760648223555728
-0.4700706357230956,-0.4700706357230956,0.9999901927200601,0.0002051930220540327
-0.46997911913422286,-0.46997911913422286,1.0001356805520747,0.00020849078960221988
-0.46986374476691706,-0.46986374476691706,0.9998035997407516,0.00023108454286418072
-0.46975375993933993,-0.46975375993933993,0.9999640757286216,0.00022488754597529877
-0.4696619776208536,-0.4696619776208536,1.0002366842223087,0.00021556785562180098
-0.46955314387960245,-0.46955314387960245,1.0002585998499578,0.00022575710491099378
-0.4694267700506316,-0.4694267700506316,0.9998506016729912,0.00023411253105077619
-0.4691127586636867,-0.4691127586636867,0.9997398968505244,0.0002511469618122021
-0.46879931342045894,-0.46879931342045894,0.9999877823552497,0.00022225573290898115
-0.46864856598258486,-0.46864856598258486,0.9996513610084488,0.00022805315786853737
-0.46852045676205306,-0.46852045676205306,1.0000298325422796,0.0002086903949153156
-0.46839340985025046,-0.46839340985025046,0.9999027570741845,0.00021509295183101432
-0.46827775355850465,-0.46827775355850465,0.9998493211505423,0.0002203618257624809
-0.4680978298711125,-0.4680978298711125,0.9998020951891023,0.0002071650729678306
