time,time,flux,flux_err
-0.49938695043723175,-0.49938695043723175,0.9999697019204633,0.0001292938582132122
-0.49745232405742473,-0.49745232405742473,0.9998445770983396,0.00012914078265205425
-0.4951675860017228,-0.4951675860017228,1.0000819262587972,0.00012950730299989493
-0.49311722170629463,-0.49311722170629463,0.9998703046154245,0.00012945302626029534
-0.49178166316705757,-0.49178166316705757,1.0000127564614898,0.0001179255044824953
-0.4901047525636386,-0.4901047525636386,0.9997941915783788,0.00011801752774632435
-0.4880853676848346,-0.4880853676848346,1.0000111621402477,0.00011831653908955334
-0.48635049068543595,-0.48635049068543595,1.0000776528647162,0.00011822537496710119
-0.48526805625588165,-0.48526805625588165,1.000258319238182,0.00011804582753562783
-0.48351280884235165,-0.48351280884235165,0.9996275566653894,0.00011793568587789601
-0.4813081084692385,-0.4813081084692385,0.999931118485093,0.00011795286740548029
-0.4794713930401485,-0.4794713930401485,0.9999306911546947,0.00011821205348592971
-0.47839747996185905,-0.47839747996185905,0.9999247451002967,0.00011804017865542147
-0.47663953240262347,-0.47663953240262347,1.0002840876600703,0.00011795739691514078
-0.47443657056137456,-0.47443657056137456,0.9999883513638743,0.00011796783064546408
-0.4725923229183536,-0.4725923229183536,1.000037150944647,0.0001182111391065965
-0.47167517949419563,-0.47167517949419563,1.0000778351813262,0.00011804417009281685
-0.47018756044853943,-0.47018756044853943,0.9998196065028402,0.00011786722652818754
-0.4680283600871917,-0.4680283600871917,0.9999487690318289,0.00011802425371322237
-0.4659563082794193,-0.4659563082794193,1.0000349876346077,0.00011823004279865744
-0.46494617410353384,-0.46494617410353384,1.0000803702841132,0.00011791838075170449
-0.46364446652005425,-0.46364446652005425,1.0000321312684308,0.00011792960421092007
-0.4617409041209612,-0.4617409041209612,1.0001003806862812,0.00011799824343416344
-0.4593248525314266,-0.4593248525314266,0.9998631208934926,0.00011823012803619151
-0.4582473095913883,-0.4582473095913883,0.9998908821405946,0.00011804088314870419
-0.4570903789397562,-0.4570903789397562,0.9999240363353433,0.00011786465140752584
-0.4553980886703357,-0.4553980886703357,0.9998105142325013,0.00011805479272260627
-0.4527946055372013,-0.4527946055372013,1.0001849955415887,0.00011822473180098595
-0.45155209182703404,-0.45155209182703404,0.9997992333426,0.0001179988606342421
-0.4505275231640553,-0.4505275231640553,0.9998722889628429,0.00011792955765007082
-0.4488689266872825,-0.4488689266872825,1.000343266875022,0.00011795666277734828
-0.4463675801845966,-0.4463675801845966,0.9997700769378521,0.00011786969981413251
-0.444677705495269,-0.444677705495269,1.0004020375005136,0.00011800503783889877
-0.44365330374857875,-0.44365330374857875,0.9999955703854264,0.0001179554326194906
-0.44199547175085174,-0.44199547175085174,0.9999886438057268,0.00011797486524862399
-0.43949340959952676,-0.43949340959952676,0.9996802409201214,0.00011785187892741774
-0.43780335375631696,-0.43780335375631696,0.9998821564165477,0.00011795614420756224
-0.4367791402619332,-0.4367791402619332,1.0001243933770065,0.00011794628976725084
-0.4351220701035345,-0.4351220701035345,1.0000216959928252,0.00011795914347710203
-0.4326192780805286,-0.4326192780805286,0.9999392834365898,0.00011787310667147088
-0.4309290393284755,-0.4309290393284755,1.0003091437967573,0.00011799703207952456
-0.4299050256202463,-0.4299050256202463,0.9998938196415675,0.00011792844362491553
-0.42824870664044284,-0.42824870664044284,0.9998671856990521,0.00011794590046830692
-0.4257451829587808,-0.4257451829587808,0.9999324586977558,0.00011787430769113825
-0.4240547648631036,-0.4240547648631036,0.9999471580620453,0.00011797621312345779
-0.42303096159303094,-0.42303096159303094,0.9997825159747874,0.00011796031564079935
-0.4214425724610919,-0.4214425724610919,1.0000167252127685,0.00011790870671151438
-0.41946560982032677,-0.41946560982032677,1.000017240727137,0.000117946190534737
-0.4173474859271664,-0.4173474859271664,0.9997917374459033,0.00011795094262650901
-0.4164892817090731,-0.4164892817090731,1.0000229173763753,0.00011797414426813996
-0.41482054759981113,-0.41482054759981113,0.999967667267496,0.00011787481608933325
-0.4131305227521807,-0.4131305227521807,0.9999924546096081,0.00011807312088938354
-0.4107494614436291,-0.4107494614436291,0.9999062802642747,0.0001177980551919493
-0.4098224538262002,-0.4098224538262002,0.9998128030679183,0.00011802823106903698
-0.4082981388608459,-0.4082981388608459,1.0000291296371997,0.00011789449903346259
-0.40626553412002975,-0.40626553412002975,0.9997990555558914,0.00011804836184402098
-0.4038699340482708,-0.4038699340482708,1.000067659643624,0.00011782563282162559
-0.40295016385789495,-0.40295016385789495,1.000059506049954,0.0001180178131319306
-0.40142176268273033,-0.40142176268273033,1.000091931293161,0.00011792587433279976
-0.399400580135989,-0.399400580135989,0.9999744955645451,0.00011804376921201527
-0.3969904457189841,-0.3969904457189841,1.000243457488186,0.00011782626757292163
-0.39607791560993066,-0.39607791560993066,0.9999807027836265,0.0001180602029933429
-0.39454543623141947,-0.39454543623141947,0.9998828469076738,0.00011792982042301348
-0.3925356545456452,-0.3925356545456452,1.0003214417995934,0.0001180790973375485
-0.3901110017701285,-0.3901110017701285,0.9997603502981904,0.00011781348686707306
-0.38920571087801364,-0.38920571087801364,1.0000742668170595,0.00011808804823717868
-0.38766914973093664,-0.38766914973093664,1.0001108667015417,0.00011791881949081064
-0.38567075827158986,-0.38567075827158986,0.9996546659246466,0.00011806585324246806
-0.38323159780120475,-0.38323159780120475,0.9999937882878948,0.00011779385710162706
-0.3823335532011697,-0.3823335532011697,1.0000866800274224,0.00011804841358570039
-0.3807929120637709,-0.3807929120637709,1.000201080632273,0.00011793067847604888
-0.3788058921811171,-0.3788058921811171,0.9999528738506672,0.00011807003043529696
-0.3763700910640182,-0.3763700910640182,0.9998876166370299,0.00012069874563657732
-0.37570735175395387,-0.37570735175395387,1.0000107654412114,0.00011800621299988944
-0.37460202400397974,-0.37460202400397974,0.9999776941787261,0.00011797658914619866
-0.37292512991989496,-0.37292512991989496,1.0000573559951098,0.0001180240984597491
-0.370238602347672,-0.370238602347672,1.0001680599763825,0.00011794669606472592
-0.3689712257939391,-0.3689712257939391,0.9999200032074796,0.00011795976626359907
-0.3683516769640846,-0.3683516769640846,0.999997110767637,0.00011793748148023293
-0.3669633841258474,-0.3669633841258474,1.0000207057518797,0.00011796855989135728
-0.36507624791702253,-0.36507624791702253,0.9999752180216502,0.0001180793828124193
-0.36260672453499865,-0.36260672453499865,0.9998682367276519,0.00011778628834302922
-0.36187738297448957,-0.36187738297448957,0.9996981181623303,0.00011803087161579304
-0.3609122369351098,-0.3609122369351098,1.0000662524014223,0.00011797091053473132
-0.3595175643567927,-0.3595175643567927,0.9998199587938933,0.00011799902909615282
-0.3570627187204082,-0.3570627187204082,0.9998470554233119,0.00011789472357917246
-0.35533688898722177,-0.35533688898722177,0.9998901239704612,0.00011788305894678986
-0.3546233670669608,-0.3546233670669608,0.9996982678596348,0.00011806558494802851
-0.35320920224185104,-0.35320920224185104,0.9999839158323918,0.00011794914123142359
-0.35134671995183453,-0.35134671995183453,1.0003198466164642,0.00011810531084989573
-0.34907223403279203,-0.34907223403279203,1.000152688981284,0.0001180976404959586
-0.3482041458686581,-0.3482041458686581,0.99984077082706,0.00011802136856407355
-0.34715870233776513,-0.34715870233776513,0.9999612039477791,0.00011796166280486071
-0.34577185231028124,-0.34577185231028124,0.9997166700103216,0.00011801870274136088
-0.34331944044388363,-0.34331944044388363,0.9997647633697797,0.0001178958731082793
-0.341580647113733,-0.341580647113733,0.9999869648206327,0.00011788215823364393
-0.3408730023249518,-0.3408730023249518,0.9999790685199169,0.0001180620525502599
-0.3393087867734721,-0.3393087867734721,0.9999711851673568,0.00011806110513250293
-0.33707626843533944,-0.33707626843533944,1.0000217325933243,0.00011797798291708136
-0.33483146656653845,-0.33483146656653845,0.9998581161258132,0.00011786161608395382
-0.33421229278028475,-0.33421229278028475,0.9999121275232461,0.00011802499776181338
-0.33278732097533065,-0.33278732097533065,0.9999333809370758,0.00011799058075068439
-0.33075264911458363,-0.33075264911458363,1.0001547807318676,0.0001181143138913287
-0.32822016139980403,-0.32822016139980403,0.9999894599168192,0.00011787589193867744
-0.3274472704011714,-0.3274472704011714,0.999826130748908,0.00011800795671565929
-0.3263045689353021,-0.3263045689353021,1.0000159932849364,0.00011795951921027812
-0.32469031008367893,-0.32469031008367893,0.9999827879682238,0.00011801184557370785
-0.3221242580242688,-0.3221242580242688,1.0000705377656256,0.00011789260291246849
-0.3208202104578959,-0.3208202104578959,0.9997083773279851,0.00011796221780346189
-0.31995545538375153,-0.31995545538375153,0.999941726425939,0.00011795203890890397
-0.31844204487861133,-0.31844204487861133,0.9998497706335462,0.00011799406127262237
-0.31647018405201377,-0.31647018405201377,0.9998760448032267,0.00011799869727842558
-0.31420181997818875,-0.31420181997818875,1.000105784969353,0.0001178965571585183
-0.31357903317548336,-0.31357903317548336,1.0002775225360634,0.00011804641913939801
-0.31216403585276564,-0.31216403585276564,1.0000742733561827,0.00011801008839245127
-0.31052755811542737,-0.31052755811542737,0.9998628523310827,0.00011802902348235749
-0.308306281658588,-0.308306281658588,1.0000160894683172,0.00011795455392270854
-0.30706321562465744,-0.30706321562465744,0.999887388047789,0.00011799785300078889
-0.30643814377835954,-0.30643814377835954,1.000044081556879,0.00011791623062406395
-0.30516320670431013,-0.30516320670431013,0.9999409011991378,0.000117949555758998
-0.30365831021917983,-0.30365831021917983,0.9999652837805236,0.00011812854718521717
-0.3014332351071062,-0.3014332351071062,0.999864815218881,0.00011787023124958001
-0.30018479013524485,-0.30018479013524485,1.0000718645133215,0.00011802002788369789
-0.2995619096880546,-0.2995619096880546,0.999809911716417,0.00011787976198451894
-0.2982297298236517,-0.2982297298236517,1.000066590890787,0.0001179595658548464
-0.2967903097742237,-0.2967903097742237,0.9997292865183741,0.00011809292025111069
-0.29419823496136815,-0.29419823496136815,1.0002929153361273,0.00011785641401862406
-0.29320009774819483,-0.29320009774819483,1.000015141348645,0.00011802594645226629
-0.2924000057013473,-0.2924000057013473,0.9998732004324502,0.00011790189303248673
-0.29111338952789084,-0.29111338952789084,0.99991943438963,0.00011803291403014358
-0.28947716488328296,-0.28947716488328296,0.9997606579357837,0.00011801212512471064
-0.2869310715206666,-0.2869310715206666,0.9999124869061546,0.00011797158097815815
-0.2861129506956786,-0.2861129506956786,1.0000448816806375,0.00011782324988795709
-0.2850632933404995,-0.2850632933404995,1.0000469749647567,0.00011801944339372096
-0.28370006384502633,-0.28370006384502633,1.0000621832678736,0.00011793144828620193
-0.28142276348371525,-0.28142276348371525,1.0000501037891523,0.00011803850146358411
-0.279640675970586,-0.279640675970586,1.0000980636919612,0.00011800796622111193
-0.2789172502118163,-0.2789172502118163,0.9999587045620262,0.00011784456867696392
-0.277603550083586,-0.277603550083586,0.9998747890069272,0.0001179283088624685
-0.2761865748470882,-0.2761865748470882,0.9999712765066148,0.00011811477139746186
-0.27357402548659593,-0.27357402548659593,1.0000703473617492,0.00011786918078627756
-0.27245674753794447,-0.27245674753794447,1.0002307876520917,0.00011801111828947178
-0.2715238159056753,-0.2715238159056753,1.0000012952586101,0.00011802556254172263
-0.2702321455959463,-0.2702321455959463,1.0000511602781887,0.00011794265001136654
-0.26833457036991604,-0.26833457036991604,1.000121177318443,0.00011803821277193119
-0.26603178192162885,-0.26603178192162885,0.9998355776655272,0.00011805248110386738
-0.2651712766906712,-0.2651712766906712,1.000009675112606,0.00011787759459582352
-0.2638540883315727,-0.2638540883315727,0.9998720468318328,0.0001180954486447488
-0.26244995156885126,-0.26244995156885126,0.9998981757397924,0.00011792154230774816
-0.25982473690528424,-0.25982473690528424,1.000111627685295,0.00011788311146627742
-0.258629917333019,-0.258629917333019,1.0001482697584865,0.00011808062398019395
-0.2575701955356635,-0.2575701955356635,0.999964163303512,0.0001179977560606424
-0.2561882993177278,-0.2561882993177278,0.999762864424599,0.00011799458711949128
-0.2539568883599713,-0.2539568883599713,0.9998190077437308,0.00011803285347680482
-0.25216274974518454,-0.25216274974518454,0.9999404008632983,0.00011803224563172398
-0.2514114902354777,-0.2514114902354777,0.9998304294287736,0.00011790065544217954
-0.2501165353693068,-0.2501165353693068,0.9998767106398961,0.00011808799416366202
-0.2487018208426889,-0.2487018208426889,1.0000369495213794,0.00011799354616053793
-0.24607560280710458,-0.24607560280710458,0.99987606461674,0.00011787851691086665
-0.24487925335706678,-0.24487925335706678,0.999798294545329,0.00011807344943715269
-0.24382396760920527,-0.24382396760920527,0.9999150724448056,0.00011801888139907653
-0.24243272429448554,-0.24243272429448554,0.9998663979823214,0.00011798613374897335
-0.24047731138707604,-0.24047731138707604,0.999928854945078,0.00011824492516201055
-0.23840160771796945,-0.23840160771796945,0.9999926669978553,0.00011809420157764388
-0.23738092295243404,-0.23738092295243404,0.9998543347293882,0.00011794638734567088
-0.2361334203829756,-0.2361334203829756,0.9998324957039243,0.000118065992376747
-0.23452578898577486,-0.23452578898577486,0.9997983067349173,0.0001180195155536396
-0.2322034667886328,-0.2322034667886328,0.9998955467810504,0.00011808382266351844
-0.23098294377850834,-0.23098294377850834,0.9997922466713802,0.00011803246255291167
-0.22980672765115742,-0.22980672765115742,1.000078763422248,0.00011801001914113229
-0.2284537456871476,-0.2284537456871476,0.9997573408864924,0.00011805198288463352
-0.22614420613390393,-0.22614420613390393,1.0002850656653623,0.000118245529575515
-0.22444134779216257,-0.22444134779216257,0.999887265679042,0.00011803601324194822
-0.22340820565877947,-0.22340820565877947,0.9999585430140071,0.00011802716437008559
-0.2220940243510995,-0.2220940243510995,1.0000681605823734,0.00011804609037338801
-0.2204002901853528,-0.2204002901853528,0.9998665464241565,0.00011821980772765061
-0.21806583167344798,-0.21806583167344798,0.9999714046892632,0.00011811961344281477
-0.21701277883548756,-0.21701277883548756,0.9999918973943822,0.0001178853593296501
-0.21577350805455353,-0.21577350805455353,1.0002293348842923,0.00011815768497592833
-0.2143324001255678,-0.2143324001255678,1.000265456299534,0.00011795720496887292
-0.21199690364301205,-0.21199690364301205,1.0002146712592765,0.00011816924451803169
-0.2105032629246125,-0.2105032629246125,0.9998503317527628,0.00011814505343536094
-0.20945931946043855,-0.20945931946043855,1.0001468733113137,0.00011799799057137833
-0.20804465550463647,-0.20804465550463647,0.9997020191773387,0.00011802324528386492
-0.20641546465049032,-0.20641546465049032,0.9998723491497963,0.0001183027221487501
-0.20431979288114235,-0.20431979288114235,0.9997625231051437,0.00011815340024194665
-0.20325359173293692,-0.20325359173293692,1.000065701166966,0.00011787131797940203
-0.20211717391212006,-0.20211717391212006,0.999991012193109,0.00011793176382189742
-0.20095937726728152,-0.20095937726728152,0.9998526019477698,0.00011807103058593155
-0.199060788252973,-0.199060788252973,0.9999523242021976,0.00011824596166489457
-0.19715616862813476,-0.19715616862813476,1.0000330794003927,0.00011818884902986936
-0.19613114462408704,-0.19613114462408704,1.0002048009357218,0.00011797064411897217
-0.19502879987994676,-0.19502879987994676,1.0001414711592294,0.00011810098695237928
-0.19371978009876328,-0.19371978009876328,0.9997249170678357,0.00011791307780634169
-0.19181743658264166,-0.19181743658264166,0.9999655095938401,0.00011823756945440265
-0.1900601763103623,-0.1900601763103623,1.0001838544049868,0.0001181319470879565
-0.18904882907518186,-0.18904882907518186,1.0000176519649249,0.00011803250209086995
-0.18788911421142984,-0.18788911421142984,0.9999352092771788,0.00011800702677170673
-0.186539608304156,-0.186539608304156,1.000047957413798,0.00011803332102028669
-0.1846173810219625,-0.1846173810219625,1.0000639129842013,0.00012102062380753829
-0.18306074082502163,-0.18306074082502163,0.9998697862714426,0.00011815522817906728
-0.18196852492401377,-0.18196852492401377,0.9998830145997699,0.00011800947247962296
-0.18074191634950693,-0.18074191634950693,1.0003651221417333,0.00011802823659308897
-0.1793031907553086,-0.1793031907553086,1.000204313369125,0.00011800546363098429
-0.17722169071203098,-0.17722169071203098,1.0000217359086547,0.00011847429228448152
-0.17573571920511313,-0.17573571920511313,0.9999249138015317,0.00011791466471624392
-0.1744862486550119,-0.1744862486550119,1.000060119510086,0.00011792475746784186
-0.17280033899005504,-0.17280033899005504,0.9998446803339759,0.00011802560909130652
-0.170780392960296,-0.170780392960296,0.9998599450199155,0.0001181928406677236
-0.16906853615946602,-0.16906853615946602,0.9999142605222687,0.00011815218044327536
-0.16796624429698567,-0.16796624429698567,1.000112452879496,0.00011800985778034735
-0.16621731353516225,-0.16621731353516225,1.0001407399693274,0.00011797209074048822
-0.16435610879852902,-0.16435610879852902,0.9999178666766516,0.00011830006412090452
-0.16242688411439304,-0.16242688411439304,1.000014840378219,0.00011818015581987007
-0.16135094909695907,-0.16135094909695907,1.0000275890716228,0.00011804505745354314
-0.15977719974762294,-0.15977719974762294,0.9999557313451746,0.00011788795591910126
-0.15787050223734694,-0.15787050223734694,1.000023474971269,0.00011833085431892146
-0.15579294399067295,-0.15579294399067295,1.000319397770997,0.00011819864689012656
-0.1546904496208299,-0.1546904496208299,0.9998478178598287,0.00011802061526349159
-0.15322400485747495,-0.15322400485747495,1.000112525069293,0.0001179548088567814
-0.15131334709585645,-0.15131334709585645,1.0000431824647067,0.00011795436216339329
-0.14891564170829952,-0.14891564170829952,1.000115309910705,0.00011820210293937315
-0.14781889040314128,-0.14781889040314128,0.9997326399388884,0.00011805338022977794
-0.14635008200712035,-0.14635008200712035,1.000140370072591,0.00011792839717058125
-0.1444415659032529,-0.1444415659032529,1.0002898216810916,0.00011799155653310109
-0.1420383660646621,-0.1420383660646621,0.9998166794383113,0.00011817653689818989
-0.14094737380510197,-0.14094737380510197,1.0000482421935166,0.00011804258790004476
-0.13947621153492945,-0.13947621153492945,0.9998330763596914,0.0001179068193904072
-0.1375698237796314,-0.1375698237796314,0.9999757345994634,0.00011797862432616553
-0.1351611268299166,-0.1351611268299166,1.000081808654576,0.00011822569833268171
-0.13408036310283933,-0.13408036310283933,0.9999254889907568,0.00011797837215657498
-0.13292450564040337,-0.13292450564040337,1.0000687211608512,0.00011789988699678847
-0.13122270546737128,-0.13122270546737128,0.9999841216734969,0.00011804199362853828
-0.12863002032972873,-0.12863002032972873,0.9995878698570388,0.00011820895786142805
-0.1273846679396229,-0.1273846679396229,1.0001723934718307,0.00011798799959964932
-0.12635989060800057,-0.12635989060800057,1.000195134100699,0.0001179395287707709
-0.12470026857918129,-0.12470026857918129,1.0001323669331352,0.00011798292158496298
-0.12225025120715145,-0.12225025120715145,0.9999872873577497,0.00011829698650292642
-0.12070193287509028,-0.12070193287509028,0.9999900568402834,0.00011792009004448631
-0.11981040239043068,-0.11981040239043068,1.0000339809528715,0.00011794856545436952
-0.11810456572566182,-0.11810456572566182,0.9998522689923529,0.00011795499300189885
