time,time,flux,flux_err
-0.49988452760771906,-0.49988452760771906,0.9999521122226911,0.00016366810038827593
-0.4996934057156371,-0.4996934057156371,0.9998820449549516,0.00016115180666424848
-0.4995326256109062,-0.4995326256109062,1.0000753401948652,0.00016146228662138783
-0.4994342976468033,-0.4994342976468033,1.0000433218324383,0.00014513619205789365
-0.49929516065967616,-0.49929516065967616,1.0000761574916763,0.00014482602937778547
-0.499222364819434,-0.499222364819434,1.0000086665771402,0.00014959037719929427
-0.49911513673869196,-0.49911513673869196,1.0001803842424377,0.00015175485116000731
-0.49902285057250995,-0.49902285057250995,0.9998378548581467,0.00014200692241745895
-0.4989653971853841,-0.4989653971853841,0.9998650145668279,0.00014327622371851107
-0.4989190766136744,-0.4989190766136744,0.9999870017016977,0.0001473742882460018
-0.4988033106608782,-0.4988033106608782,1.0000440547686904,0.00015161195069289513
-0.498689217842184,-0.498689217842184,0.999683930565736,0.00014784620788421592
-0.49860918497724926,-0.49860918497724926,1.000176608538995,0.00015325201947626204
-0.4984660339388938,-0.4984660339388938,1.0000269631416812,0.00014401961708356378
-0.49835323431543654,-0.49835323431543654,0.9999122669637088,0.00014853235370295494
-0.49823096994659866,-0.49823096994659866,1.000000952113758,0.00014452953656221996
-0.4981114700312901,-0.4981114700312901,1.0001594331121075,0.00014675614094097818
-0.49799292749303276,-0.49799292749303276,1.000096880444643,0.00015010663539400683
-0.49782012402065445,-0.49782012402065445,0.9999747793903951,0.0001403861005123639
-0.49770372622224385,-0.49770372622224385,0.999883920725558,0.00015286911693034288
-0.4975363882898819,-0.4975363882898819,1.000010034520851,0.00015139620495795278
-0.49747307997677126,-0.49747307997677126,1.0000210907433122,0.0001455412687060372
-0.49736040181014685,-0.49736040181014685,0.9997793456236593,0.0001459230669528774
-0.497243812483066,-0.497243812483066,1.0001545109318706,0.0001560633654192547
-0.49715462172534897,-0.49715462172534897,0.9999076542416511,0.00014861106152145182
-0.497040565260977,-0.497040565260977,0.9998912465681025,0.0001487403322121634
-0.49681293717658265,-0.49681293717658265,1.0000432747723196,0.0001503498359391726
-0.4966493363623158,-0.4966493363623158,1.0001824913587438,0.00014627225010842225
-0.4966078421006387,-0.4966078421006387,0.999877914510899,0.00015383039249783494
-0.49654957002348965,-0.49654957002348965,1.0003801149261,0.00014837140452175594
-0.49639119856001346,-0.49639119856001346,0.999694749680544,0.00018367967965281551
-0.4962111739274405,-0.4962111739274405,0.9998825547409925,0.00014569579145655122
-0.49608440804950077,-0.49608440804950077,0.9999509850861623,0.00015191534490726537
-0.4959817254282825,-0.4959817254282825,0.9999552041323051,0.00014428142443376579
-0.4958869824957219,-0.4958869824957219,1.0000887645861865,0.00014681821060535464
-0.4957989351314609,-0.4957989351314609,0.9999465997525121,0.00017547601582690428
-0.49570920285113973,-0.49570920285113973,0.9999743920540679,0.00014940813939962188
-0.4956101397830935,-0.4956101397830935,0.999896136724583,0.00015284044604416916
-0.4954288558510598,-0.4954288558510598,1.0000630015608762,0.00015032381680262868
-0.4952663149299042,-0.4952663149299042,1.000150851323487,0.00014402983809742837
-0.49518484086438547,-0.49518484086438547,0.9998585528671953,0.000143919926715806
-0.49506326638438625,-0.49506326638438625,1.000047529215078,0.0001477749844218903
-0.49487176729016935,-0.49487176729016935,0.999868504600601,0.00014399103087329356
-0.4947127923471271,-0.4947127923471271,0.9997805024749926,0.00015247198184218364
-0.49451938933925704,-0.49451938933925704,0.9999990979745303,0.00015079008550882323
-0.49436164356811785,-0.49436164356811785,1.0000717841875684,0.00015027788242587948
-0.4942456769182172,-0.4942456769182172,1.0001470533069234,0.0001463502774161024
-0.49412041886607766,-0.49412041886607766,0.9999863086664229,0.0001432844897798487
-0.49382277548284037,-0.49382277548284037,1.000100639290063,0.00014645602742067494
-0.4936777730559697,-0.4936777730559697,1.0000140878874122,0.00014776513760701672
-0.4935926028410904,-0.4935926028410904,1.0003178374444384,0.0001498502596615692
-0.4935174886035384,-0.4935174886035384,1.0002486131400778,0.0001456033645183341
-0.49341815911684533,-0.49341815911684533,1.0000263973204986,0.00014548327610369377
-0.49319650649049435,-0.49319650649049435,0.9999632032068027,0.00015129982546012297
-0.4930578201652679,-0.4930578201652679,1.0000664411318971,0.00014531763412246247
-0.4929107438525534,-0.4929107438525534,0.9999965349242833,0.00015041671030507288
-0.4927737132857146,-0.4927737132857146,0.9998551594335282,0.0001439796142326708
-0.4926524950627936,-0.4926524950627936,1.0000292425922521,0.00014768983458224202
-0.49255104036274133,-0.49255104036274133,1.000028751374138,0.00015062094783156727
-0.4924493322694616,-0.4924493322694616,1.0001162178426821,0.00014484646770548555
-0.49225550583360017,-0.49225550583360017,0.9999042840822163,0.0001497057164147219
-0.4921419231963228,-0.4921419231963228,0.9998773856198777,0.00014771294546707007
-0.49202407180346197,-0.49202407180346197,0.9999552414933419,0.00016072654950462825
-0.491871227271622,-0.491871227271622,1.0001479069510533,0.00014757145185308366
-0.49178055388183567,-0.49178055388183567,0.9999701451288507,0.0001525757943083647
-0.49168403926014437,-0.49168403926014437,1.000087563916587,0.00014110049974039112
-0.49157836111699,-0.49157836111699,1.0000590983132898,0.0001516844213540372
-0.4914205310087709,-0.4914205310087709,1.000118202374443,0.00014805767612790602
-0.4912975288549205,-0.4912975288549205,0.9999533506051351,0.00014699616761267777
-0.4912051577790407,-0.4912051577790407,1.0000887198206212,0.00014900927595883076
-0.4911229820456356,-0.4911229820456356,1.0001782087166031,0.0001528691246842535
-0.49103440964536277,-0.49103440964536277,1.0001338061003637,0.0001462802498625266
-0.4909173333180661,-0.4909173333180661,1.000041985349845,0.00015319144573472382
-0.4907732638115704,-0.4907732638115704,0.9998589256541119,0.000150282324423904
-0.4906454440068046,-0.4906454440068046,1.0002453273807723,0.0001473074946561322
-0.490499507712957,-0.490499507712957,0.9998682780178398,0.0001467545455313108
-0.49038336384401193,-0.49038336384401193,0.999895200841664,0.00014836539513880773
-0.4902592263984843,-0.4902592263984843,1.0000071042455865,0.00014662617177703944
-0.49013885182430383,-0.49013885182430383,1.0000450736205235,0.00014546894600231457
-0.490023238176218,-0.490023238176218,1.000031069726582,0.00015353872778769298
-0.48990112128376495,-0.48990112128376495,0.9999278511967582,0.00014553363481032913
-0.48978543499761146,-0.48978543499761146,0.9998185789296956,0.00014326225084462183
-0.4897259387136728,-0.4897259387136728,1.0001694220941713,0.00014915307877689938
-0.4896403844220913,-0.4896403844220913,0.9999418116143503,0.0001463722249649796
-0.4895513763767667,-0.4895513763767667,1.0002192291077059,0.0001484445173354129
-0.4894735267989745,-0.4894735267989745,1.0001048873935576,0.0001508070068625624
-0.48936044499714626,-0.48936044499714626,1.0000076095810644,0.00014510796503495362
-0.4892108968604589,-0.4892108968604589,0.9999144028434296,0.00014946296577578806
-0.489102875815297,-0.489102875815297,1.0001616974151966,0.00014551949516895536
-0.4889230310473067,-0.4889230310473067,0.9998547808677285,0.00014927071291231597
-0.48872069552817266,-0.48872069552817266,0.9999798788557793,0.00014435967057738387
-0.48852016513919805,-0.48852016513919805,1.0000438314798366,0.000151488120481728
-0.4883877817184839,-0.4883877817184839,1.000049300974476,0.0001504727867346825
-0.48832021285561494,-0.48832021285561494,1.0000567971742764,0.00015015294841668364
-0.4881965066640987,-0.4881965066640987,1.0000498465545498,0.00014962035630598024
-0.488058557704062,-0.488058557704062,0.9997030432679079,0.00015608249122816032
-0.48800809882886825,-0.48800809882886825,0.9999334590107296,0.00014530431548890618
-0.48787880744057477,-0.48787880744057477,0.9999950432829318,0.00014279117540833228
-0.4876641836926865,-0.4876641836926865,1.0000048050963397,0.0001502525460281813
-0.4874975903818267,-0.4874975903818267,1.0000591110038553,0.00014503447740664172
-0.48742246828769564,-0.48742246828769564,0.9998978515706431,0.00015049397327168522
-0.48737740484648384,-0.48737740484648384,0.9998601566786007,0.00014755684635412388
-0.48724955202415005,-0.48724955202415005,0.9997094669893677,0.0001515463037380308
-0.487029210752371,-0.487029210752371,1.0001919816858906,0.00015104446526561626
-0.4868607385578798,-0.4868607385578798,0.999904489412601,0.00015231290657072248
-0.4867030370485736,-0.4867030370485736,1.0000856375260596,0.0001434269774952452
-0.4865854415613285,-0.4865854415613285,1.0000578866558243,0.00014912814944288762
-0.486501173558645,-0.486501173558645,1.0001317745694185,0.00014553489094183466
-0.4864015188206395,-0.4864015188206395,1.0001392503749031,0.00015124118736528394
-0.4861956594395451,-0.4861956594395451,1.0002236314418336,0.0001503885391344259
-0.48602695530717027,-0.48602695530717027,0.9999549682117024,0.0001467365874054644
-0.48596025400693177,-0.48596025400693177,1.000215440115678,0.00014412907809307086
-0.48578288395219715,-0.48578288395219715,1.0001191068473414,0.000149761021626954
-0.485564901422913,-0.485564901422913,1.0000404024902205,0.00014758009732499091
-0.4855129932562704,-0.4855129932562704,1.0001642094547432,0.0001456855920163444
-0.4854103791309171,-0.4854103791309171,0.9999592991251351,0.00015226021069587536
-0.48520569210886605,-0.48520569210886605,1.0000095278032604,0.00014902036722614864
-0.4850713667045056,-0.4850713667045056,1.0001155508553625,0.00014896761218944764
-0.4849590523255756,-0.4849590523255756,0.9997513725385426,0.00014840881444825801
-0.484717056658701,-0.484717056658701,1.0000984216225954,0.00014772273402443063
-0.4845898145009414,-0.4845898145009414,1.0000522371564806,0.00014677037873432052
-0.4844522300118115,-0.4844522300118115,1.0000279883525136,0.00015159135143652178
-0.4843622817097639,-0.4843622817097639,0.9998202493064907,0.0001462362822842016
-0.48421548948826965,-0.48421548948826965,1.000204511028667,0.0001456989763410441
-0.484065602067858,-0.484065602067858,1.0000434030285579,0.00014766299543363185
-0.4839133584173396,-0.4839133584173396,0.9998638450448685,0.0001535188141830771
-0.4837804150476586,-0.4837804150476586,0.9999004080009577,0.00014746427158885848
-0.4836110170879692,-0.4836110170879692,1.0000850592893253,0.00014895368584090838
-0.48346792136653677,-0.48346792136653677,0.999949487078819,0.00014572604205716392
-0.48337056599630157,-0.48337056599630157,1.0000334220364846,0.0001506664568632164
-0.48329800132632955,-0.48329800132632955,1.0001679577406128,0.00015040368134795174
-0.48320714096262235,-0.48320714096262235,0.9999595780325782,0.00014342195438373108
-0.4830575434840284,-0.4830575434840284,0.9999755275236952,0.00014681547723771867
-0.4829848246503389,-0.4829848246503389,1.0001383412452867,0.0001478440379951505
-0.4828667434048839,-0.4828667434048839,0.9999897228036172,0.0001516647666544968
-0.4827586952589627,-0.4827586952589627,0.9998178042239336,0.00014968624835539243
-0.48264073802929486,-0.48264073802929486,0.9998967419646435,0.00014862672677357276
-0.4825604591336742,-0.4825604591336742,1.0003291477174119,0.00014809399882272735
-0.4824779735747143,-0.4824779735747143,0.999969512149395,0.0001403214600818016
-0.48237539911351635,-0.48237539911351635,1.0001543537453128,0.00014446350816114823
-0.4822237089763803,-0.4822237089763803,0.9999295891124117,0.00014136079760921556
-0.48209601081398434,-0.48209601081398434,1.0000920558686173,0.00015316256473238416
-0.4820191647755564,-0.4820191647755564,1.0000969299882854,0.00015015686549062248
-0.48191054865528715,-0.48191054865528715,0.9999315308115018,0.0001454110252413045
-0.48181396272120763,-0.48181396272120763,1.0000492082407637,0.00015115591604475772
-0.48171977689271445,-0.48171977689271445,1.0001441572000735,0.00014628955638269601
-0.48151670723746065,-0.48151670723746065,1.000117335964776,0.0001433003731456871
-0.4813712226510688,-0.4813712226510688,1.0000080193557954,0.0001485474953171225
-0.48123049314672245,-0.48123049314672245,0.9999902307558427,0.0001512964128825312
-0.4811183841993625,-0.4811183841993625,0.9999088577619993,0.00014371892430988762
-0.4810070010003983,-0.4810070010003983,0.9997949681745639,0.00014764192957839872
-0.48083539040162576,-0.48083539040162576,0.9999854261340122,0.00015570928894196646
-0.4806921345159935,-0.4806921345159935,0.9999534297901855,0.00014553071250496662
-0.48057009233307324,-0.48057009233307324,0.9999131366359478,0.0001500353225787649
-0.48045485768598156,-0.48045485768598156,1.000078059163927,0.0001462365725436245
-0.4803286615402612,-0.4803286615402612,0.9998211655035332,0.0001500118942153226
-0.4802258751478803,-0.4802258751478803,1.0001168731508268,0.00014707537163457255
-0.4800735033808451,-0.4800735033808451,1.0000405111719308,0.00014604650611755983
-0.48000671124464134,-0.48000671124464134,1.0000919862856912,0.00014711301495692173
-0.47995384908499544,-0.47995384908499544,0.9998845393071963,0.00014553720538263042
-0.4798234105532174,-0.4798234105532174,1.0000872895079869,0.0001446982820164777
-0.4796670183466631,-0.4796670183466631,1.000034291294975,0.00014720728136200862
-0.47946680265959,-0.47946680265959,0.9999817438773778,0.00014327297663385187
-0.4792925317888148,-0.4792925317888148,1.0001876946870047,0.00015041154491790516
-0.47915878844141846,-0.47915878844141846,1.0000957942427062,0.00015172208459218509
-0.47907421746858747,-0.47907421746858747,1.0001566063831597,0.00014465324729488058
-0.47895458804414376,-0.47895458804414376,1.000002182135405,0.0001510372124846564
-0.4788726257713279,-0.4788726257713279,1.0001197596388327,0.00015176056114580907
-0.4787825032275578,-0.4787825032275578,1.0000122129891744,0.0001437073230495782
-0.47871236718056026,-0.47871236718056026,1.000179520234858,0.00014292484788719047
-0.4785036398090597,-0.4785036398090597,0.9999854299865898,0.0001471103161504148
-0.4783667574120045,-0.4783667574120045,1.000412709020717,0.00015134300494705076
-0.4783020193062839,-0.4783020193062839,0.9997915280179308,0.00014829424994995544
-0.4782204090981395,-0.4782204090981395,1.000158165960208,0.00014909968903916454
-0.4781767104002938,-0.4781767104002938,0.9999081123272813,0.00015016446102530842
-0.477987102032057,-0.477987102032057,1.000092722809563,0.000146131998089903
-0.4778274230782699,-0.4778274230782699,1.000132833000182,0.00015256552476034885
-0.4777087811351521,-0.4777087811351521,1.000066071315246,0.0001510976914178051
-0.47758399173471844,-0.47758399173471844,1.0001740281851295,0.00014452660499071003
-0.47740509770446804,-0.47740509770446804,0.9998518676319342,0.00015068135268668008
-0.4772855103132315,-0.4772855103132315,1.0000487617110547,0.00014638851956580158
-0.4771666563094186,-0.4771666563094186,0.9999861603387113,0.00014922993985502892
-0.47696236295450944,-0.47696236295450944,0.9998957192668637,0.00014419412228629014
-0.47678868163202426,-0.47678868163202426,0.9999154486938033,0.0001797013226932945
-0.4766743460488215,-0.4766743460488215,1.0001483772636754,0.00015049112386341312
-0.4764665830203739,-0.4764665830203739,1.000061968534225,0.000150127896201271
-0.4763434928521747,-0.4763434928521747,1.0001829403352054,0.0001450975963194695
-0.47628824956409516,-0.47628824956409516,1.000014020612031,0.00014834756455966872
-0.4760651918797521,-0.4760651918797521,0.9999118648245128,0.0001508403609842539
-0.4759171147736197,-0.4759171147736197,1.0002152597907583,0.00014896630252480013
-0.4758387166337343,-0.4758387166337343,0.9999832127016708,0.0001471819169850933
-0.4757486324153433,-0.4757486324153433,0.9998611942462479,0.0001455238302894193
-0.4755758329811215,-0.4755758329811215,0.9999542196291522,0.00014658222932805608
-0.4754663079853344,-0.4754663079853344,1.0000115445497253,0.0001445408747423375
-0.4753537017713825,-0.4753537017713825,1.0001324889548506,0.00014781261469710475
-0.475245700150117,-0.475245700150117,0.9999442320422463,0.00014901886110974498
-0.47510914056620096,-0.47510914056620096,1.000072890132813,0.00014372553532897818
-0.47492047023552003,-0.47492047023552003,1.000150125404037,0.00015163433612595554
-0.4747849816005328,-0.4747849816005328,0.9999813487022063,0.00014971410611547324
-0.47469177941820817,-0.47469177941820817,1.0001161239410714,0.00014524224562800005
-0.4746176685075625,-0.4746176685075625,1.00003297949899,0.00014836156681644
-0.47452633778157177,-0.47452633778157177,1.0000864882970721,0.00014722354948053072
-0.47442918352899144,-0.47442918352899144,0.9998952533147933,0.00014373089104960688
-0.4743518801413302,-0.4743518801413302,0.9999909131012602,0.00014571260445199992
-0.47419668615912086,-0.47419668615912086,0.999986429956324,0.00015113216308088915
-0.4740883851540275,-0.4740883851540275,1.0001438618843053,0.0001465129039551772
-0.47388516648788936,-0.47388516648788936,1.0001304231272066,0.00014702043055622575
-0.4737607402108551,-0.4737607402108551,0.9998895859605167,0.0001493601778847098
-0.47360269880809935,-0.47360269880809935,0.9999145370728082,0.00014918819183437336
-0.47343905743036885,-0.47343905743036885,0.9999656253526563,0.0001510228894923248
-0.4733013207747717,-0.4733013207747717,1.0001147247617024,0.0001409976865984426
-0.47317014982399996,-0.47317014982399996,0.9998017628868746,0.00014424113943263956
-0.47295735857915133,-0.47295735857915133,1.0000645184288683,0.0001520430062775751
-0.47287400176210215,-0.47287400176210215,0.9999436422271313,0.00014751869616738298
-0.47277788526553194,-0.47277788526553194,0.9998071151586518,0.0001499808833220889
-0.4726395501063962,-0.4726395501063962,0.9999596976643914,0.00015198096210249784
-0.4725259782811918,-0.4725259782811918,0.9998658831812687,0.00015147940404674364
-0.4723429195357312,-0.4723429195357312,1.0001238161548784,0.00014583725281040898
-0.4721937972368323,-0.4721937972368323,0.9999102870371616,0.00014602467736730566
-0.47208849149465093,-0.47208849149465093,1.0002407051912408,0.00014486968529933833
-0.4719887639541412,-0.4719887639541412,1.0001451146098725,0.00015206371607747642
-0.4718354362288665,-0.4718354362288665,1.0002113458924107,0.00014894159314293528
-0.47166084593336566,-0.47166084593336566,1.00000969838094,0.00014664600956587777
-0.4715622848547355,-0.4715622848547355,1.000035421774999,0.0001496969715293415
-0.4714054736090475,-0.4714054736090475,1.0001370911800476,0.00014792517563946714
-0.47123700621232273,-0.47123700621232273,0.9999775675851825,0.0001476167714049577
-0.47111488020673276,-0.47111488020673276,0.9999442911943077,0.0001506917056286124
-0.47105249815649586,-0.47105249815649586,0.9999973042811445,0.0001450847991223344
-0.47097146890955627,-0.47097146890955627,1.0000345554815513,0.00014948151324748192
-0.47087890722905285,-0.47087890722905285,1.0001889012889094,0.00015092779437211862
-0.4707983685839281,-0.4707983685839281,1.0000944713731048,0.00014637254717036956
-0.4706783001034637,-0.4706783001034637,0.9997958516290282,0.00014662897048147398
-0.4705571268161293,-0.4705571268161293,0.9999796200120438,0.00014461059033546715
-0.47045297743097764,-0.47045297743097764,0.9997416306315016,0.0001504168705878042
-0.4702560133715451,-0.4702560133715451,1.000120286351386,0.00014529414645117367
-0.4700999761291314,-0.4700999761291314,0.9998750124118075,0.0001487040700395837
-0.4699821511720074,-0.4699821511720074,1.0002073135831537,0.000151794993671673
-0.46985385369334837,-0.46985385369334837,0.9999153090619289,0.00014274348259963354
-0.4697452814114513,-0.4697452814114513,1.000098286294866,0.00015235048030439848
-0.46962099265801954,-0.46962099265801954,0.999930371328567,0.00014885713395593918
-0.46952404944677256,-0.46952404944677256,1.0001312264513327,0.0001418205241050354
-0.4692874120839406,-0.4692874120839406,1.0000692296975249,0.00014625698764691102
-0.46914255330411836,-0.46914255330411836,1.0001466940805863,0.00014942790491879305
