time,time,flux,flux_err
-0.4998530652428599,-0.4998530652428599,1.0000139498244327,0.00010749700173037723
-0.49970548891966854,-0.49970548891966854,1.0000844165526968,0.00010735855397911139
-0.4995903784001712,-0.4995903784001712,1.0000184110787416,0.00011389138391942035
-0.4995085775699408,-0.4995085775699408,0.9997699346796168,0.00010820387548278213
-0.499389392521698,-0.499389392521698,0.9999677481501337,0.00010541066169973737
-0.49926245005626696,-0.49926245005626696,0.9999641202278852,0.00010164936525566427
-0.4990664849181485,-0.4990664849181485,1.000172221066535,9.69127595663071e-05
-0.49894898230413676,-0.49894898230413676,0.9999000041659754,9.755354530610819e-05
-0.4987773618915526,-0.4987773618915526,1.0000633906887324,9.664892061351642e-05
-0.4986351542174816,-0.4986351542174816,1.0000460977878425,0.00010418646153162444
-0.49856742657430003,-0.49856742657430003,0.9999305700830382,0.00010177187022131352
-0.4984706422073941,-0.4984706422073941,1.000013423076149,0.00010351675304551603
-0.4984040456853108,-0.4984040456853108,0.9999709147694436,0.00010194141018220425
-0.4983304456829501,-0.4983304456829501,0.9999503129990692,0.00010328990047815516
-0.4981443919983576,-0.4981443919983576,0.999987897520556,0.00010254257155467395
-0.49799188512406545,-0.49799188512406545,1.0001925200869048,9.651496659418516e-05
-0.49784674230322706,-0.49784674230322706,0.9999278485741308,9.918656769447048e-05
-0.4976267772173742,-0.4976267772173742,0.9998153933863856,9.791237877603775e-05
-0.49749196144475716,-0.49749196144475716,1.0001056881940666,9.785800658395481e-05
-0.49740153519887825,-0.49740153519887825,1.0000431993339647,9.587870965441008e-05
-0.4973282116727205,-0.4973282116727205,0.9999996383831785,0.00010469116277001068
-0.49722759873620814,-0.49722759873620814,0.999877858850908,0.00010343033485545503
-0.4970836078719003,-0.4970836078719003,1.0000623833954125,0.00010488990094239456
-0.4969326103448111,-0.4969326103448111,0.9999922113557334,9.723225037607146e-05
-0.49683681052774775,-0.49683681052774775,1.000043823153142,9.672048448378197e-05
-0.4967298653507896,-0.4967298653507896,1.0000408391082392,9.7568840308199e-05
-0.49648475702124417,-0.49648475702124417,1.0000044361330362,9.792157141873949e-05
-0.4963643016417336,-0.4963643016417336,0.999820168102372,0.0001038281177349533
-0.4962814777791209,-0.4962814777791209,0.999997146059995,0.00010132440695998937
-0.49619998584676067,-0.49619998584676067,1.000067865226405,0.00010374684526669384
-0.49614378108090024,-0.49614378108090024,0.9999261212708396,0.00010364957295805383
-0.49607841309043577,-0.49607841309043577,0.9999721992024485,9.846978805944215e-05
-0.49598044133163055,-0.49598044133163055,1.0000351749187255,0.0001079678566942512
-0.4958861138067732,-0.4958861138067732,1.000002063575183,9.949343448594254e-05
-0.49572861157066656,-0.49572861157066656,1.000145970879725,9.782565196466489e-05
-0.49552533812311594,-0.49552533812311594,1.0001099806369815,9.696569501345684e-05
-0.4954097405534412,-0.4954097405534412,0.9999029806184346,9.863468587398528e-05
-0.4952498071004811,-0.4952498071004811,1.0000392871236223,0.00010315240680623115
-0.4951751950320613,-0.4951751950320613,0.9999315678054371,0.00010227232091830666
-0.49507088195459803,-0.49507088195459803,1.0000953241722441,9.860455770153566e-05
-0.49500747638739995,-0.49500747638739995,0.9998250716623083,0.00010372274612620999
-0.494906952582096,-0.494906952582096,0.9999607406288629,9.748752144085455e-05
-0.49486527539629604,-0.49486527539629604,0.9998004872056191,0.00010729190140260952
-0.4948024059798627,-0.4948024059798627,1.0000963894567843,9.940874750307941e-05
-0.49466929185146,-0.49466929185146,0.9999902448472534,9.886724457711109e-05
-0.4944481044971326,-0.4944481044971326,1.000006115504876,9.702867710418704e-05
-0.4942891754624725,-0.4942891754624725,1.0000844480846112,0.00010291261490787143
-0.49417387978173793,-0.49417387978173793,0.9998207499671878,0.00010301058907599948
-0.4940784864811576,-0.4940784864811576,0.9999016158404288,9.793576428476249e-05
-0.4940052585414378,-0.4940052585414378,1.0000268616258505,0.0001026935113572585
-0.49391674286162013,-0.49391674286162013,0.9999850112605007,0.0001038916703616694
-0.49381943204862183,-0.49381943204862183,1.0000585612592376,9.753030880367067e-05
-0.4937436264925054,-0.4937436264925054,0.9999492914282218,0.00010971896540167716
-0.49370200764387845,-0.49370200764387845,1.000001377548917,9.865437347047321e-05
-0.49359254833034355,-0.49359254833034355,1.0001551285348205,9.991054632165101e-05
-0.4934306825627573,-0.4934306825627573,1.0000261502464753,9.753360115154742e-05
-0.49331701915216397,-0.49331701915216397,1.00009517980833,9.648569829065758e-05
-0.49320553779180043,-0.49320553779180043,0.9999629002740379,0.0001060493742022992
-0.49308387283599586,-0.49308387283599586,0.9999458967261525,0.00010479113388800777
-0.49295713282990616,-0.49295713282990616,1.000052669903966,0.00010231623787563546
-0.4928700281365309,-0.4928700281365309,0.9999381174234017,9.869143053777745e-05
-0.4927465827902779,-0.4927465827902779,0.9998850483214898,0.00010792610827331621
-0.492607152974233,-0.492607152974233,1.0000332720625837,9.928641651767128e-05
-0.49257189444397226,-0.49257189444397226,0.999825530329242,0.00010585535809708184
-0.4925011646511848,-0.4925011646511848,1.0000516649129871,0.00010075962573321018
-0.4923501708210097,-0.4923501708210097,1.0000803936850127,9.737724750694732e-05
-0.4922101928241318,-0.4922101928241318,1.0000812861992117,9.634653371742841e-05
-0.4921180482175259,-0.4921180482175259,1.0001617876696147,0.00010359462987057594
-0.4920133753767004,-0.4920133753767004,0.9999796939228365,0.00010613888357153356
-0.4918953872023849,-0.4918953872023849,0.9999390269390803,0.00010254579410694919
-0.4917467414168641,-0.4917467414168641,1.0001507068838766,0.00010328671513627698
-0.4916229392612877,-0.4916229392612877,0.9998943364181626,0.000102575023556333
-0.4914839354118158,-0.4914839354118158,1.0000816838690345,0.00010492664735008497
-0.49144900192914065,-0.49144900192914065,1.00010142692816,9.861458842138485e-05
-0.49133811376086667,-0.49133811376086667,1.000041298157607,0.00010036704493643917
-0.4911567589821061,-0.4911567589821061,1.0000398016742478,9.713002441121781e-05
-0.4910453934367979,-0.4910453934367979,0.9999732474985283,0.00010255098724642677
-0.490944950166886,-0.490944950166886,0.9999133695125426,0.00010836256585240075
-0.4908414213969081,-0.4908414213969081,0.9999656037023698,9.880506278903282e-05
-0.4906897277636745,-0.4906897277636745,0.9999744997860203,9.834690719267845e-05
-0.4905664031204651,-0.4905664031204651,1.0000217427406959,0.00010265049638912027
-0.49042380423488796,-0.49042380423488796,1.000016690524324,0.00010791364440467816
-0.4903371702450386,-0.4903371702450386,1.0000348392395018,0.00010082554925478689
-0.49029713991403695,-0.49029713991403695,1.0000529190098544,9.799535712309154e-05
-0.4902357673730876,-0.4902357673730876,1.0000532915827516,9.833169232417979e-05
-0.4900906190654496,-0.4900906190654496,0.999970595138749,9.664939641766145e-05
-0.48992450838413787,-0.48992450838413787,0.9999516106543833,0.00010275700485286371
-0.48980430644005535,-0.48980430644005535,1.0000011977979562,0.00010657252557004844
-0.48964653901857674,-0.48964653901857674,0.9999169454612054,9.583738671394847e-05
-0.4895185653716908,-0.4895185653716908,0.9999962016546189,0.00010313995623798397
-0.48941718887072055,-0.48941718887072055,1.0001603207952248,9.87141748417878e-05
-0.48924239566113104,-0.48924239566113104,1.000250366514542,0.0001044686887850324
-0.48920620009666893,-0.48920620009666893,1.0000091823954027,0.00010068648495112759
-0.48916889836327754,-0.48916889836327754,1.0000255331687395,9.861254370515072e-05
-0.4890371290566691,-0.4890371290566691,1.000187462313915,9.725037261257825e-05
-0.4889422441541683,-0.4889422441541683,1.0000820624986642,0.00010286217574195166
-0.4888357142393943,-0.4888357142393943,0.9999822937076779,9.832554197111706e-05
-0.48875498257330036,-0.48875498257330036,1.0000640844262043,0.0001083237451862853
-0.48862609737188906,-0.48862609737188906,0.9998025973174359,0.00010648716326858292
-0.4884974290478567,-0.4884974290478567,1.0000746460584222,9.595074725923065e-05
-0.4884164799404971,-0.4884164799404971,0.9999161039147093,0.00010912822148923986
-0.48827730763659927,-0.48827730763659927,0.9999885121023062,0.00010443766091270414
-0.4881357395606756,-0.4881357395606756,1.000021852998577,0.0001043304356233321
-0.48808063219694303,-0.48808063219694303,1.0000789044497058,9.967376563726395e-05
-0.487981868191855,-0.487981868191855,0.9999475474608971,9.806207692723075e-05
-0.4878562413134205,-0.4878562413134205,0.9998578954768407,9.774206725528318e-05
-0.48771228000259725,-0.48771228000259725,0.9999950241695149,0.00010463946301538464
-0.487638328284811,-0.487638328284811,1.000052408497523,0.00010378776007425275
-0.48741863300892874,-0.48741863300892874,1.0000443983573295,9.826578504846429e-05
-0.4872821531491354,-0.4872821531491354,1.0000395164447284,0.00010251456878409095
-0.48713218876364406,-0.48713218876364406,0.9999297814990695,0.00010069360873584302
-0.4870076044615416,-0.4870076044615416,1.0000749428199778,0.00010514633273851962
-0.4869652411711286,-0.4869652411711286,0.9999726497564441,9.992575787597533e-05
-0.4868553108390188,-0.4868553108390188,1.0000038323349856,9.803993015888653e-05
-0.4867472079349682,-0.4867472079349682,1.0001362026549974,9.81095364672688e-05
-0.4865982654904656,-0.4865982654904656,0.999852527271965,0.00010245729418678451
-0.48653147195873314,-0.48653147195873314,0.9999421893500312,0.00010433425984094
-0.4863431633784785,-0.4863431633784785,1.0000179642900409,9.834135331846005e-05
-0.48615592766291227,-0.48615592766291227,0.9999501106405086,0.00010433394899233555
-0.4859681925867335,-0.4859681925867335,0.9999577004558173,0.0001042674137759821
-0.485890227357595,-0.485890227357595,1.000070558367818,9.916537566551057e-05
-0.4858490434511623,-0.4858490434511623,0.9999823809340022,9.922786726214131e-05
-0.48575501939703825,-0.48575501939703825,1.0000348412466178,9.760886810155462e-05
-0.48567489475535697,-0.48567489475535697,0.999947471174355,9.762238771984498e-05
-0.4854963739097002,-0.4854963739097002,0.9999721628495755,9.774569306396125e-05
-0.4854238366875506,-0.4854238366875506,1.0000449305353774,0.0001087070668968064
-0.48525792813597945,-0.48525792813597945,1.000015517040409,9.807491585690251e-05
-0.48510186288986007,-0.48510186288986007,1.0001014231863592,0.00010445709662664057
-0.4850332009606063,-0.4850332009606063,0.9999734109598244,9.729277459814226e-05
-0.48481810497614786,-0.48481810497614786,0.9999112043291145,0.00010436235262885145
-0.4847492295753909,-0.4847492295753909,1.0001659871320019,0.0001001934583519125
-0.48468232361847186,-0.48468232361847186,0.999883783705297,9.760058231461551e-05
-0.48458848201989896,-0.48458848201989896,1.0001107260800297,9.744198268393023e-05
-0.4845102032799332,-0.4845102032799332,1.0000113683562974,9.775083545550116e-05
-0.48436622722656464,-0.48436622722656464,0.9999043417016248,0.00010277230503191181
-0.4842760338375228,-0.4842760338375228,0.9999040795963291,0.000103263275006838
-0.4841111554902454,-0.4841111554902454,1.000002037791443,9.819467780426436e-05
-0.48397541777521835,-0.48397541777521835,1.000098315780663,0.00010428721906127522
-0.4838736451099976,-0.4838736451099976,1.0000559107032352,9.671627182980683e-05
-0.4837208846081921,-0.4837208846081921,0.999896915500349,0.00010365480139948277
-0.4836372430771007,-0.4836372430771007,1.0001401042098166,0.0001004842864538024
-0.4835102225159062,-0.4835102225159062,1.0001550413742546,9.699235513941108e-05
-0.4834180892139557,-0.4834180892139557,0.9998685296850054,0.00010091484766741796
-0.4833201974906842,-0.4833201974906842,1.0000389978983704,9.810229576905373e-05
-0.4832289616060734,-0.4832289616060734,1.000032988084588,0.00010809271449964503
-0.48313432561772063,-0.48313432561772063,1.0000237385844195,9.810185964593874e-05
-0.48301171998973585,-0.48301171998973585,0.9999432735568273,9.836895110849836e-05
-0.4828891858836869,-0.4828891858836869,1.0001028334919775,0.00010294101449119949
-0.4828202120261267,-0.4828202120261267,1.0001564885862593,9.949694697301953e-05
-0.48268961239737107,-0.48268961239737107,1.0000730052682805,9.673180773675123e-05
-0.4826024723566661,-0.4826024723566661,1.0000612183156217,0.00010291425421627407
-0.4825054618566355,-0.4825054618566355,1.0001501796002727,9.929414221869143e-05
-0.4824141337776382,-0.4824141337776382,1.0000643545026366,9.690327821576957e-05
-0.48232193770527376,-0.48232193770527376,0.9998700414353655,9.768649047607887e-05
-0.4822547486590338,-0.4822547486590338,1.0001523402263255,9.95315830783749e-05
-0.4821635934393271,-0.4821635934393271,1.0000516307010756,0.00010504122674328731
-0.4820492928811291,-0.4820492928811291,1.0000375349354444,0.00010168978644031486
-0.48192562147960416,-0.48192562147960416,1.0000642780107138,9.653922196228718e-05
-0.4818121098309348,-0.4818121098309348,1.000116749977215,9.806109582530901e-05
-0.4817236095070257,-0.4817236095070257,0.9999353247650218,9.823175347484627e-05
-0.4816229000411113,-0.4816229000411113,0.999977090115865,9.798639541415443e-05
-0.4815227452600084,-0.4815227452600084,0.9998830525664308,0.00010216084976754642
-0.4814495096281462,-0.4814495096281462,0.9999419495420758,9.958675105831709e-05
-0.48134173982398354,-0.48134173982398354,1.000031693217255,9.740160330129905e-05
-0.481233849653654,-0.481233849653654,1.0001256501598166,9.711575470208454e-05
-0.4811606224931893,-0.4811606224931893,0.9998662966068668,9.804663626880651e-05
-0.4810885873128427,-0.4810885873128427,1.0000568393141367,9.923947909657237e-05
-0.4809738941687101,-0.4809738941687101,1.0000977834754434,0.0001089348390878861
-0.4808514567535894,-0.4808514567535894,0.9999300296794136,9.718423323335849e-05
-0.4807299250438518,-0.4807299250438518,0.9998259604512565,9.768152865134448e-05
-0.48066134236505603,-0.48066134236505603,1.000040614237627,0.0001023446857610964
-0.4805466460886237,-0.4805466460886237,0.9999313708773456,9.893715213024467e-05
-0.4804285344165692,-0.4804285344165692,0.9997846646699452,0.00010298968960355208
-0.48033696860729835,-0.48033696860729835,1.0001911844130418,9.769412920815309e-05
-0.480248748610029,-0.480248748610029,0.999932916066917,9.92946476992798e-05
-0.48014580982489863,-0.48014580982489863,1.0000900849124994,9.691517667672862e-05
-0.480038004816015,-0.480038004816015,1.0001651106705203,9.66922980413918e-05
-0.4799812951714557,-0.4799812951714557,0.9999982235346805,9.876080860389369e-05
-0.47992419640213485,-0.47992419640213485,0.9999315183770005,0.00010319571205840569
-0.47980083371221555,-0.47980083371221555,0.9998571900327586,0.00010370389590340088
-0.47969096778033415,-0.47969096778033415,1.0001119508326237,9.671836245236473e-05
-0.4796075761594693,-0.4796075761594693,1.000165498115376,9.998949997989576e-05
-0.47953508179998605,-0.47953508179998605,1.0000729676146616,9.614637783842332e-05
-0.4794159919358208,-0.4794159919358208,0.9997341299903055,9.916606235900593e-05
-0.47931603769320646,-0.47931603769320646,0.9998213345717579,9.787567190727608e-05
-0.4791959441303334,-0.4791959441303334,1.0000222354494381,0.00010373522451858039
-0.47910248760599644,-0.47910248760599644,1.000100288523571,0.0001033831871991223
-0.47898694115283436,-0.47898694115283436,0.9999823713473834,9.70131325402315e-05
-0.4788745401703636,-0.4788745401703636,1.0000014495676122,9.827831328663955e-05
-0.4788173244029167,-0.4788173244029167,1.0000008299915577,0.00010402909130001044
-0.47872148292299244,-0.47872148292299244,0.9999565018016348,0.00010202292659800493
-0.47858219231275145,-0.47858219231275145,0.9999879427233214,9.664976968551948e-05
-0.4785037804831518,-0.4785037804831518,0.9998374972700214,9.99182466076791e-05
-0.4783794039889472,-0.4783794039889472,0.9999847378648556,0.00010276001882686273
-0.47829000214405826,-0.47829000214405826,1.0000544013380703,9.911663159455943e-05
-0.4781923636626743,-0.4781923636626743,0.9998777068398601,0.00010210410945487101
-0.47808172582808767,-0.47808172582808767,0.9999404876544705,0.00010361000216269952
-0.4779636859508173,-0.4779636859508173,1.000002165247252,0.00010347468413187877
-0.4778926343053172,-0.4778926343053172,1.000063086556963,9.724453943002779e-05
-0.4777895676350454,-0.4777895676350454,0.9999851534075022,9.816658717525778e-05
-0.4776840846760024,-0.4776840846760024,1.0000501419303987,0.00010305555091833895
-0.4775777760536585,-0.4775777760536585,0.999869592227957,9.708496458554546e-05
-0.47745491675304946,-0.47745491675304946,1.000049126764677,9.755952733802116e-05
-0.47737254548774216,-0.47737254548774216,0.999989097499328,9.738122944844812e-05
-0.4772442943052738,-0.4772442943052738,1.0000156675378222,0.00010344900028451019
-0.47711924539980827,-0.47711924539980827,0.9999970217222678,9.89416709326639e-05
-0.47697254175072884,-0.47697254175072884,1.0000576028736516,0.00010434013083563305
-0.4768494408875995,-0.4768494408875995,1.0001346954741301,0.00010328683875364003
-0.4767816197083448,-0.4767816197083448,0.9999734456513616,9.679890983755544e-05
-0.47668713595412554,-0.47668713595412554,0.9999697409198998,9.815564257648253e-05
-0.47660960200519187,-0.47660960200519187,1.0000108062919504,9.750558525584744e-05
-0.47649651336250826,-0.47649651336250826,1.000212124511025,0.00010208008057703887
-0.47635638187493895,-0.47635638187493895,1.0000324265250533,9.677535696376868e-05
-0.4762755121788359,-0.4762755121788359,1.0000172263435543,9.731070942715362e-05
-0.47613410254925836,-0.47613410254925836,0.9999394130506492,0.00010344206573953711
-0.47603834409601403,-0.47603834409601403,0.9999050204041241,9.928528872168406e-05
-0.47598468052819953,-0.47598468052819953,1.0001650049014075,9.826386665343716e-05
-0.475822665119631,-0.475822665119631,1.0001258605421082,0.00010814893228815138
-0.47569684911723015,-0.47569684911723015,0.9999800803291506,9.777823020582399e-05
-0.4756134834497061,-0.4756134834497061,1.0001866523016254,9.669453526732326e-05
-0.47552817243995377,-0.47552817243995377,0.9999571658806247,9.836852962068283e-05
-0.47541223908847313,-0.47541223908847313,1.000116224655777,0.00010372217691796612
-0.4752827172924299,-0.4752827172924299,1.0000996702978489,9.81694658877224e-05
-0.47518004444718825,-0.47518004444718825,1.0000855852078172,9.722148909139152e-05
-0.475035754993587,-0.475035754993587,0.9999200413584497,9.768143936345487e-05
-0.4748914228541253,-0.4748914228541253,1.0000756411152494,9.761143479373461e-05
-0.4747257991504739,-0.4747257991504739,1.0000403288511261,0.00010339835209978389
-0.4746088735286321,-0.4746088735286321,0.9998726197406039,0.00010337841744015471
-0.47448766886227534,-0.47448766886227534,0.9998745985212455,9.804008839357217e-05
-0.47440059482905783,-0.47440059482905783,0.9999503243180916,9.838910662191751e-05
-0.47426494539467967,-0.47426494539467967,1.0002971709055555,0.00010363554603204698
-0.4741153752831451,-0.4741153752831451,1.0000131914481862,9.815275551497672e-05
-0.47400276709668104,-0.47400276709668104,0.9999352163734667,9.721758720816084e-05
-0.47388673062305314,-0.47388673062305314,1.0001419198174957,9.840596605215917e-05
-0.47376301048861935,-0.47376301048861935,1.0001048436510125,9.74866534393611e-05
-0.4736689807301445,-0.4736689807301445,1.0001500960467005,0.00010472152906428873
-0.47353833735978695,-0.47353833735978695,1.0000655313598903,0.00010404685199719632
-0.47340966318297434,-0.47340966318297434,0.9999637541459508,9.808670629731758e-05
-0.4732954759601853,-0.4732954759601853,1.0000961786300397,9.91093997965328e-05
-0.47317858572787375,-0.47317858572787375,1.0001387818895275,0.00010302059048663992
-0.4730828930878488,-0.4730828930878488,1.0000060195042633,9.91387885717167e-05
-0.47295409729704263,-0.47295409729704263,0.9999974506709126,9.728002751487733e-05
-0.472856833320111,-0.472856833320111,0.9999856410185226,9.855140270863614e-05
-0.4727021084756416,-0.4727021084756416,0.9997408702676298,9.658984753091441e-05
