time,time,flux,flux_err
-0.4999226165244181,-0.4999226165244181,0.9999326973594546,7.131523728929666e-05
-0.4998207709257258,-0.4998207709257258,1.0000485841311653,6.906184945518415e-05
-0.49969706383926676,-0.49969706383926676,1.0000403732541914,7.010165048505033e-05
-0.49957025986514053,-0.49957025986514053,0.9999438484474237,7.407698699421905e-05
-0.49942666427086807,-0.49942666427086807,1.0000164886031566,7.097706299455018e-05
-0.49918122660383235,-0.49918122660383235,0.9999875067946535,7.14947490325476e-05
-0.49908724454508047,-0.49908724454508047,0.9999379425387674,7.587623863112336e-05
-0.4989180765587662,-0.4989180765587662,1.0000530709153124,7.076553534185549e-05
-0.498795348447311,-0.498795348447311,0.9999563229030846,7.555282348006112e-05
-0.4987171883112751,-0.4987171883112751,1.0000697130989862,7.101525207816799e-05
-0.4985768864498823,-0.4985768864498823,1.0000816355709021,7.207016232024082e-05
-0.498460008121765,-0.498460008121765,1.0001182018153272,7.034121151262797e-05
-0.4983635911885358,-0.4983635911885358,0.9999644939689445,7.049801385904653e-05
-0.4982886775251245,-0.4982886775251245,1.0000733720641755,7.316892242569697e-05
-0.49817076618928696,-0.49817076618928696,1.000058378820349,8.108551734667944e-05
-0.4980847192957299,-0.4980847192957299,1.0000285687672767,7.07051561435494e-05
-0.4979566572110343,-0.4979566572110343,1.0001206227013586,7.108122912341389e-05
-0.49784299163584367,-0.49784299163584367,0.9999158663519921,7.295314067038355e-05
-0.4977511907221924,-0.4977511907221924,1.0001238470203044,7.515507136399404e-05
-0.49766788951383206,-0.49766788951383206,0.9999105409186294,7.09669366370347e-05
-0.4975694145039597,-0.4975694145039597,1.0000813589495912,7.341568471647799e-05
-0.4973999171503237,-0.4973999171503237,0.9999604054071156,7.092657466840434e-05
-0.4972151328176551,-0.4972151328176551,1.0001163667248898,7.163717300786619e-05
-0.4970975808930234,-0.4970975808930234,0.9999606269851989,7.044570325761415e-05
-0.49702449210963096,-0.49702449210963096,0.9999941837192778,7.278766618386726e-05
-0.4968885491398396,-0.4968885491398396,0.9998842906655423,7.0349066150973e-05
-0.49671242579133834,-0.49671242579133834,0.9999242951475502,7.023548998279523e-05
-0.49659552911689386,-0.49659552911689386,0.9999315646215822,7.358139439199958e-05
-0.49646460617732374,-0.49646460617732374,1.0000468300910037,7.185701502645514e-05
-0.49633782863602394,-0.49633782863602394,1.00014246672682,7.121403524354514e-05
-0.49625473870546555,-0.49625473870546555,0.999959538068633,7.053964808952615e-05
-0.49620190680361703,-0.49620190680361703,1.0000965967394244,7.573963706626752e-05
-0.49613379354486825,-0.49613379354486825,0.9999492726166892,7.531427950328837e-05
-0.4960396325783222,-0.4960396325783222,0.9998708076968257,7.09804215814814e-05
-0.4959112486882077,-0.4959112486882077,0.999991842515457,7.38380191742105e-05
-0.49579761060813327,-0.49579761060813327,0.9999288981156115,7.522715370866322e-05
-0.4956490673888766,-0.4956490673888766,1.0000136210431076,6.996559132425929e-05
-0.49547426480130524,-0.49547426480130524,1.000007721619828,6.927693134644526e-05
-0.4953695351592614,-0.4953695351592614,1.0000268137373247,7.37349821561476e-05
-0.49526721686052044,-0.49526721686052044,0.999993390882984,7.642030639699404e-05
-0.49512209721724504,-0.49512209721724504,0.9999993160972286,7.029623239094556e-05
-0.4949958886041713,-0.4949958886041713,1.0000358519633603,7.260708173266844e-05
-0.49488312980902266,-0.49488312980902266,0.9999577351560056,7.367411736582211e-05
-0.4947599514867761,-0.4947599514867761,0.9999807678758412,7.071916678407819e-05
-0.4946010314728483,-0.4946010314728483,1.0000771124603793,7.108003989253456e-05
-0.49442761774844257,-0.49442761774844257,1.0000085558565979,7.166254961353886e-05
-0.49431057328620226,-0.49431057328620226,1.0000164728605667,7.040498051173547e-05
-0.49421176574614945,-0.49421176574614945,1.0000640166240478,7.11639894469066e-05
-0.4940016276166716,-0.4940016276166716,0.9999799631178259,7.046991582683207e-05
-0.49380416652857095,-0.49380416652857095,0.9999613817593465,7.385757172179917e-05
-0.4936277936853003,-0.4936277936853003,0.9999923394003695,7.119313365463396e-05
-0.4935363435768522,-0.4935363435768522,1.0000190125852728,7.009653879044794e-05
-0.4934652038245986,-0.4934652038245986,0.9999583247863686,7.019617127759533e-05
-0.4933303600191721,-0.4933303600191721,1.0001426513888165,7.621344673852425e-05
-0.49323263732076156,-0.49323263732076156,1.0001540623664682,7.017908452869728e-05
-0.49315753604096246,-0.49315753604096246,1.0000896762465719,7.105123156059684e-05
-0.4930506130389404,-0.4930506130389404,0.999876041771477,6.953160826172629e-05
-0.49287918738191366,-0.49287918738191366,1.0000167478297657,7.355001151684923e-05
-0.49277465487393785,-0.49277465487393785,0.9999736205515213,7.085609470609109e-05
-0.4927167897280015,-0.4927167897280015,0.9998786227716957,7.049192759707557e-05
-0.4925922983158671,-0.4925922983158671,1.0000930785137634,7.070067477413241e-05
-0.4924319083977025,-0.4924319083977025,0.9999970825773282,7.403257347819713e-05
-0.4922979156166548,-0.4922979156166548,0.9999111189905268,7.638914082588034e-05
-0.4921189204316761,-0.4921189204316761,1.0000252991687701,7.312643251518213e-05
-0.49199722824414494,-0.49199722824414494,1.0000625619927361,7.301515123438885e-05
-0.4918821360079164,-0.4918821360079164,1.0000633078630041,7.290746621536434e-05
-0.49181173994293204,-0.49181173994293204,0.999921469793359,7.111254918703276e-05
-0.49166943076997993,-0.49166943076997993,1.0000812339068457,7.124597950497858e-05
-0.4915646018424013,-0.4915646018424013,1.0001864034476022,7.015275182409239e-05
-0.49147905377103596,-0.49147905377103596,0.9999652472662618,7.038622589770226e-05
-0.4913431088825746,-0.4913431088825746,1.0001282526997706,7.009722430378711e-05
-0.49119380915581135,-0.49119380915581135,0.9999327367907274,7.08225458887857e-05
-0.4909851978525694,-0.4909851978525694,1.0000316479899924,7.130579505286792e-05
-0.49078530318292907,-0.49078530318292907,1.0000550272686228,6.96391096002803e-05
-0.4907330294212443,-0.4907330294212443,1.000001108050133,7.023296753533821e-05
-0.490674991562264,-0.490674991562264,0.9999200398321844,7.098779208652953e-05
-0.49060140000947283,-0.49060140000947283,1.0000424726550474,7.094480395602764e-05
-0.49045755982224365,-0.49045755982224365,1.00002934872014,7.054666088656853e-05
-0.49038036153651776,-0.49038036153651776,0.999907662464231,7.658437185798373e-05
-0.49025378116348295,-0.49025378116348295,0.9998791425746569,7.07027408718252e-05
-0.4900752801731869,-0.4900752801731869,1.0000725955118717,7.109322544515441e-05
-0.4899253595700429,-0.4899253595700429,1.0000280649219824,7.093521445063837e-05
-0.4898404888539517,-0.4898404888539517,1.0001825130905218,7.098128842875651e-05
-0.48972211895670625,-0.48972211895670625,1.0000606583130138,7.319877373620123e-05
-0.48962145063924256,-0.48962145063924256,0.9999455775413756,7.084052301098158e-05
-0.4894575306156185,-0.4894575306156185,1.0000085733442146,7.340317967445441e-05
-0.4893155672281864,-0.4893155672281864,1.000094575158008,7.032376153472441e-05
-0.48909655440584177,-0.48909655440584177,0.9999672204795653,7.065436296106923e-05
-0.48899025533974055,-0.48899025533974055,1.0000509687023964,7.278964407719484e-05
-0.4888797518098727,-0.4888797518098727,0.9999414553229476,7.216332210594753e-05
-0.48877957478835016,-0.48877957478835016,0.9999185056762459,7.076922476572415e-05
-0.48866553150946856,-0.48866553150946856,1.0000805669634738,7.079953578353953e-05
-0.4884753712954989,-0.4884753712954989,0.9999507818289068,7.040868326096497e-05
-0.4882752034784062,-0.4882752034784062,0.9999310035915261,7.072385326105611e-05
-0.4881530123369885,-0.4881530123369885,1.0000530633819242,7.03161518312008e-05
-0.48801701191259783,-0.48801701191259783,1.000083703264427,7.039517931931414e-05
-0.4878938548958104,-0.4878938548958104,1.0001302607213396,7.082931556594146e-05
-0.4877952712638944,-0.4877952712638944,1.0000403268932656,7.29669511326183e-05
-0.4876590512787516,-0.4876590512787516,1.0000859832520668,7.0995975785797e-05
-0.4875614392833086,-0.4875614392833086,1.0000784119862516,7.115087917701442e-05
-0.4874464959117176,-0.4874464959117176,1.0001320937704474,7.603221569875944e-05
-0.4872856955516909,-0.4872856955516909,0.9999441826965318,6.989434652202573e-05
-0.487169155527954,-0.487169155527954,1.0000405153950318,7.121103774752919e-05
-0.48702007470201353,-0.48702007470201353,0.9999511901100732,7.071594535674834e-05
-0.4869376078233472,-0.4869376078233472,1.000080606420544,7.6382658309067e-05
-0.4868380340951262,-0.4868380340951262,0.9999035649669251,7.278834415576154e-05
-0.48673218786279904,-0.48673218786279904,0.9999713288527742,7.092389563547265e-05
-0.48665335334371773,-0.48665335334371773,1.0001539263508552,7.31788415996192e-05
-0.4864673925032548,-0.4864673925032548,1.0000361733816185,7.255868758356619e-05
-0.4862416882540856,-0.4862416882540856,1.0000876261616676,7.355984169934123e-05
-0.4861170801130356,-0.4861170801130356,0.9998998535185706,7.381262291173073e-05
-0.48601457864424447,-0.48601457864424447,0.9999460225275684,7.146649325107166e-05
-0.48589493994077204,-0.48589493994077204,1.0000056558582187,7.222362892024579e-05
-0.4857958627064363,-0.4857958627064363,0.9999467960043678,7.375315995030448e-05
-0.4856872233431204,-0.4856872233431204,1.0000672504905619,7.111216841147551e-05
-0.4855801959129167,-0.4855801959129167,1.0000089402372683,7.008495269206592e-05
-0.48541012815694556,-0.48541012815694556,1.00010713173157,7.259340203802691e-05
-0.4853293612519337,-0.4853293612519337,0.9999870487753378,7.432147099026794e-05
-0.48521458007307955,-0.48521458007307955,0.9999522212528354,7.13347714219139e-05
-0.4850538887454604,-0.4850538887454604,0.9999575853769478,7.286631194979674e-05
-0.48491166063104174,-0.48491166063104174,1.0000293808296772,7.319899028220274e-05
-0.48483081610320367,-0.48483081610320367,1.0001702529618801,7.051890592028324e-05
-0.48477729886435555,-0.48477729886435555,1.0000942068212908,7.186657689592466e-05
-0.4846521633044176,-0.4846521633044176,1.00003565014826,7.052107647166056e-05
-0.48450400010260636,-0.48450400010260636,0.9999721194111117,7.259422350591994e-05
-0.48443298396377943,-0.48443298396377943,0.9999677381861481,7.025708663156718e-05
-0.4842900815368921,-0.4842900815368921,1.0001595099378757,7.154351499617533e-05
-0.48416001965742905,-0.48416001965742905,0.999963059779277,7.038323855572004e-05
-0.48405722622483155,-0.48405722622483155,0.9999901050433673,7.633190339227694e-05
-0.4839500543122995,-0.4839500543122995,0.9999923554691833,7.27171089916699e-05
-0.4838591373678355,-0.4838591373678355,0.9999762445655339,7.501544489729687e-05
-0.4837079771001299,-0.4837079771001299,0.9999218989505216,7.281331159700099e-05
-0.48353725776905776,-0.48353725776905776,0.9999997753758499,7.034762363600819e-05
-0.4834422332292888,-0.4834422332292888,0.9998824204050589,7.08431383129196e-05
-0.4833731143437035,-0.4833731143437035,1.0001546932998147,7.087028109010949e-05
-0.483291960087081,-0.483291960087081,0.9999387060123123,7.415344845863404e-05
-0.4831552483214182,-0.4831552483214182,0.9999822766377825,7.034056163762566e-05
-0.48303823604655916,-0.48303823604655916,1.0001520086968685,7.100683019937544e-05
-0.4829563494080503,-0.4829563494080503,1.0001491363183623,7.039927113078812e-05
-0.4828390271264652,-0.4828390271264652,1.0001157278814496,7.074340271412344e-05
-0.4826956163429713,-0.4826956163429713,0.9999900022089283,7.05229228184456e-05
-0.4826284984774247,-0.4826284984774247,1.0000419128777722,6.942960512870691e-05
-0.48248446174984566,-0.48248446174984566,0.9998054115585671,6.968924234259189e-05
-0.4823833003305481,-0.4823833003305481,1.0000315943566336,7.452028401634802e-05
-0.4821578840521397,-0.4821578840521397,0.999929001094031,7.054688167019891e-05
-0.4820104053811519,-0.4820104053811519,0.9999673770863826,7.373842525080553e-05
-0.48191883808322017,-0.48191883808322017,1.0000833638239253,7.336871793944968e-05
-0.4817263589138747,-0.4817263589138747,1.0000781881759784,7.578916262164281e-05
-0.48160662391237563,-0.48160662391237563,1.0000073285244973,7.037638958518611e-05
-0.4814904191363894,-0.4814904191363894,1.0000250385257783,7.048764779526645e-05
-0.48131617283434025,-0.48131617283434025,1.0000618161014774,7.034343726616737e-05
-0.48120494893446447,-0.48120494893446447,1.0000951376604892,6.984968366533223e-05
-0.48115065874590074,-0.48115065874590074,0.9998218383032625,7.306570987106763e-05
-0.48106553064790203,-0.48106553064790203,1.0000212689180878,7.799639736251681e-05
-0.48094431745048494,-0.48094431745048494,1.0000497008394862,7.098165104560194e-05
-0.48083214547805253,-0.48083214547805253,0.9999348854996726,7.075603282077726e-05
-0.4807420825090958,-0.4807420825090958,0.9999544174001901,7.306825837510549e-05
-0.48065317648579364,-0.48065317648579364,1.0000316908937046,7.41322722677743e-05
-0.48056217736229884,-0.48056217736229884,0.9998939947251311,7.15153053904806e-05
-0.48047889376975944,-0.48047889376975944,1.0000617951924529,7.387094468806312e-05
-0.48032399138828624,-0.48032399138828624,0.9999832568980537,7.141896910314016e-05
-0.48013493945181834,-0.48013493945181834,0.9999401082495496,7.39535388474887e-05
-0.47997969254647616,-0.47997969254647616,1.0000734980350663,7.11545925824955e-05
-0.47990273914620046,-0.47990273914620046,0.9999953145499149,7.003515974920097e-05
-0.4797690958141175,-0.4797690958141175,1.0000585888426279,7.27196075694607e-05
-0.47958562652711406,-0.47958562652711406,1.0000991599201619,7.088555258082755e-05
-0.4794535525521496,-0.4794535525521496,1.000064740720574,7.370099653419585e-05
-0.47932187039914426,-0.47932187039914426,1.0001067676728521,7.175592776791697e-05
-0.4791686140699312,-0.4791686140699312,0.9999382500550477,7.064444437688354e-05
-0.47906649828728404,-0.47906649828728404,1.0000012615622746,7.88080423232297e-05
-0.47900443476537474,-0.47900443476537474,1.000038464191204,7.083890037082617e-05
-0.47888944651422205,-0.47888944651422205,1.0000454248425235,7.099514242506799e-05
-0.4787901465970208,-0.4787901465970208,1.0000374482675738,7.090243733826184e-05
-0.47870614665371247,-0.47870614665371247,0.9999516353933295,7.331753290329471e-05
-0.4785492295661243,-0.4785492295661243,0.9999295126132619,6.96673115180203e-05
-0.4784296579666261,-0.4784296579666261,0.9999725415104017,7.073587806675158e-05
-0.4783143394961371,-0.4783143394961371,0.9999225140820887,7.036451254973641e-05
-0.47821639394387605,-0.47821639394387605,0.9998693855330139,7.410747778261894e-05
-0.4781075096143468,-0.4781075096143468,0.9999798710003829,7.871454320114955e-05
-0.47796943129505964,-0.47796943129505964,0.9999707453005902,7.030339161335297e-05
-0.4778336529554508,-0.4778336529554508,0.9998787805884684,7.324742726866596e-05
-0.47772651877530736,-0.47772651877530736,1.0000928488826133,7.352630836901918e-05
-0.4776052120469103,-0.4776052120469103,1.0000704254630466,7.123676608226533e-05
-0.4774174728016078,-0.4774174728016078,0.9999850825881312,7.229491474323316e-05
-0.4772461244392616,-0.4772461244392616,0.9999404299362524,7.116568890725867e-05
-0.4771153780107852,-0.4771153780107852,0.9999340525380742,7.120135856267407e-05
-0.476989136946213,-0.476989136946213,0.9999571623462982,7.000647177570084e-05
-0.47674628178065176,-0.47674628178065176,0.9999219715630698,7.373820374761769e-05
-0.4765406315324071,-0.4765406315324071,0.9999256087316624,7.412799877726405e-05
-0.47643395859195153,-0.47643395859195153,0.9999861171208669,7.023186390679303e-05
-0.4763353120062675,-0.4763353120062675,1.0000288020833747,6.98884515686428e-05
-0.47621482246322555,-0.47621482246322555,0.9999824473078809,7.415824549385629e-05
-0.47611168538351195,-0.47611168538351195,0.9999890776898461,7.315393544801181e-05
-0.4760322673682822,-0.4760322673682822,1.0000547661492694,7.031896702790561e-05
-0.4759210178279318,-0.4759210178279318,0.9999418358383126,7.036044457345988e-05
-0.4757422059075907,-0.4757422059075907,0.9999695644180685,7.124401924160825e-05
-0.4756222814445209,-0.4756222814445209,1.0000425687343977,7.01222728784087e-05
-0.47556472078940715,-0.47556472078940715,1.0000555433810887,7.039225288021479e-05
-0.4754411288071424,-0.4754411288071424,1.0000623381121365,7.07080066439177e-05
-0.4752950689740828,-0.4752950689740828,1.0000518841941664,7.628644647870478e-05
-0.47520582192373695,-0.47520582192373695,0.9999761929078039,7.665219559956986e-05
-0.47499926703676465,-0.47499926703676465,1.0000295057075026,7.345615093486176e-05
-0.4748603252177418,-0.4748603252177418,1.0000532219632674,7.280688127150549e-05
-0.4747349313940504,-0.4747349313940504,1.0000195517285033,7.24060247630705e-05
-0.47464851521726814,-0.47464851521726814,1.0000420417700842,7.106058887369135e-05
-0.47455200186450386,-0.47455200186450386,1.000012663542151,7.335964692583458e-05
-0.4744533183329622,-0.4744533183329622,1.0000479749302984,7.096302843809473e-05
-0.47437342109915337,-0.47437342109915337,1.0000629297688082,7.055123215793252e-05
-0.47422411775332873,-0.47422411775332873,1.0000409248013622,7.012280731535282e-05
-0.47408897591813004,-0.47408897591813004,0.9999859562973331,7.019116611965344e-05
-0.47390737738387545,-0.47390737738387545,1.0000400852772628,7.046802875587307e-05
-0.4736465738293191,-0.4736465738293191,1.00007152057263,7.05750491218865e-05
-0.47358531868594583,-0.47358531868594583,1.0000284285106003,7.008827237988832e-05
-0.4735075223215972,-0.4735075223215972,0.9999766777110389,7.402186377765895e-05
-0.4734056728200812,-0.4734056728200812,0.9998798902970829,6.987399387028632e-05
-0.47326255404623224,-0.47326255404623224,1.0001472119712402,7.278335361789404e-05
-0.47320302676089343,-0.47320302676089343,1.000151077537065,7.45066549141374e-05
-0.4730213511509646,-0.4730213511509646,0.999881178747051,7.043794256543714e-05
-0.4728670295829943,-0.4728670295829943,0.9999459081574266,7.041562462991917e-05
-0.47276597654417857,-0.47276597654417857,1.0000237469648403,7.018652562336144e-05
-0.47268344639087445,-0.47268344639087445,1.000232918055209,7.428452873686829e-05
-0.4725501124128641,-0.4725501124128641,0.9999372649371774,7.135620349889627e-05
-0.4724063494053553,-0.4724063494053553,1.0000712790986273,7.276902850568614e-05
-0.47226260878451287,-0.47226260878451287,1.0000792935722835,7.075530425451142e-05
-0.4721125539159402,-0.4721125539159402,0.999989906152124,7.301603009961439e-05
-0.47191445053103964,-0.47191445053103964,0.9999533341189701,7.342852537544068e-05
-0.4718189353312482,-0.4718189353312482,0.9999419282529807,7.086626267805915e-05
-0.47171377851918805,-0.47171377851918805,0.9999488647110656,7.164226746608462e-05
-0.47161156328729703,-0.47161156328729703,1.000016236224282,7.050792859824206e-05
-0.47151258458325174,-0.47151258458325174,1.0000072371391298,7.122833613506983e-05
-0.4713581286960107,-0.4713581286960107,0.9999727093917891,7.276557848897492e-05
-0.47117241098821977,-0.47117241098821977,0.9999568419101219,7.315271300069143e-05
-0.4710551755364577,-0.4710551755364577,0.9999404707039373,7.274021390482868e-05
-0.47098694935484675,-0.47098694935484675,0.9999459363470737,7.048514108347453e-05
-0.47086018755580883,-0.47086018755580883,0.99998114950095,7.039159531527898e-05
-0.4707356438120769,-0.4707356438120769,0.9999479729745009,7.361633932837923e-05
-0.47065285993667205,-0.47065285993667205,0.9999911265027471,7.3117543951986e-05
-0.470517268779804,-0.470517268779804,1.0001090693814647,7.100220529590116e-05
-0.4704104516633379,-0.4704104516633379,1.0000980021266197,7.116475451446245e-05
-0.4703021494235145,-0.4703021494235145,0.9998976750435533,7.604629232414533e-05
-0.47015656082803614,-0.47015656082803614,1.000145304695358,7.058570169154823e-05
-0.4700442528890562,-0.4700442528890562,0.9999676425099082,7.050036264857442e-05
-0.4699021248386998,-0.4699021248386998,1.0001566905851818,7.117492518055946e-05
-0.46980877974128815,-0.46980877974128815,1.000004722342997,7.664697055349112e-05
