time,time,flux,flux_err
-0.4988628083835162,-0.4988628083835162,1.0000170386682177,0.00011737437233362464
-0.49755875258658006,-0.49755875258658006,0.9999428485862575,0.00011733331701342899
-0.4956541692081373,-0.4956541692081373,1.000021503373645,0.00011720522099715393
-0.4942980086586128,-0.4942980086586128,1.0000157215628713,0.00011736653829914974
-0.4923263828124618,-0.4923263828124618,0.9999697626243303,0.00010737846484538765
-0.4911763319192687,-0.4911763319192687,1.0000681327205831,0.00010717689137002063
-0.4892122151039075,-0.4892122151039075,0.9999945292591758,0.00010710109173333548
-0.4880535578617128,-0.4880535578617128,1.0000443795201195,0.0001071848014719687
-0.4861169439333025,-0.4861169439333025,1.0000876837058477,0.00010708210278099273
-0.4851648238109192,-0.4851648238109192,0.9999121355549775,0.00010701261444692762
-0.48409231060068125,-0.48409231060068125,0.999897428459332,0.00010719708855929347
-0.4824927214765921,-0.4824927214765921,1.0000584374946258,0.00010728996433706748
-0.48115169766533655,-0.48115169766533655,0.9999314864131715,0.00010712853171215863
-0.47991842916817407,-0.47991842916817407,0.9998409917048259,0.00010710823947873784
-0.4783247416839004,-0.4783247416839004,1.0001948710800126,0.00010718900483050587
-0.47669358052371535,-0.47669358052371535,0.9998718554560565,0.00010712953052633967
-0.4753012695029611,-0.4753012695029611,0.9999402156912724,0.00010698203805160203
-0.47421598618384453,-0.47421598618384453,0.9998478640216917,0.0001071808797265644
-0.4726089484844124,-0.4726089484844124,0.9998375412048311,0.00010700903606792361
-0.47122044510906563,-0.47122044510906563,1.0000561689779062,0.0001073775751876619
-0.47019763840071394,-0.47019763840071394,0.9999981393331021,0.00010708786933614227
-0.4682887156086508,-0.4682887156086508,1.0000429315164925,0.00010716364261292987
-0.46703053954115603,-0.46703053954115603,0.9999630214015778,0.00010715044477877227
-0.46535848927451295,-0.46535848927451295,1.0000869579561513,0.00010703483822987357
-0.46423387549293693,-0.46423387549293693,0.9999189480971914,0.0001071002955424133
-0.462786231195787,-0.462786231195787,1.0000167798741666,0.0001070713522562994
-0.46134419851005076,-0.46134419851005076,1.00005606802022,0.00010727220622056693
-0.4604537579754833,-0.4604537579754833,1.000115572020842,0.00010714386140872603
-0.45826876046485265,-0.45826876046485265,0.999937274455393,0.00010714741547474499
-0.4573037140246015,-0.4573037140246015,1.0001287307104927,0.00010710321989888538
-0.4553795679006726,-0.4553795679006726,0.9999019618230992,0.00010708704170557144
-0.4543639506067848,-0.4543639506067848,1.0000521589733615,0.00010704116619748025
-0.45295011172420346,-0.45295011172420346,1.0000860729523515,0.00010713421366868476
-0.45146065767621624,-0.45146065767621624,1.000231727941824,0.00010725110153431453
-0.4503737252176506,-0.4503737252176506,0.9999378815396354,0.00010709871274848485
-0.44827407994598617,-0.44827407994598617,1.0000941139522204,0.00010711698078399537
-0.44716041471110657,-0.44716041471110657,1.0000220496979795,0.00010709372022226087
-0.4451192746812012,-0.4451192746812012,0.9998921586959781,0.00010708721346129747
-0.44396169268584346,-0.44396169268584346,1.0002276422632808,0.00010708506245427169
-0.44248138648399615,-0.44248138648399615,0.9999973022737791,0.00010710322596861624
-0.44104270373645704,-0.44104270373645704,1.0000154922002458,0.00010719922336308905
-0.4399740122637013,-0.4399740122637013,1.0000447169024196,0.00010708574646881857
-0.43812471606070175,-0.43812471606070175,0.9998338175945752,0.00010711382287426256
-0.43701724803540853,-0.43701724803540853,1.0000099186272293,0.00010709150871954661
-0.43495352441677826,-0.43495352441677826,1.0001793828179333,0.00010709256799134995
-0.433833150396822,-0.433833150396822,1.000091684108606,0.00010708533349708567
-0.4326231300306972,-0.4326231300306972,1.0000238284244485,0.00011039010439690497
-0.4311508888436947,-0.4311508888436947,1.0000219612829588,0.00010717820805688641
-0.43009963853110095,-0.43009963853110095,0.9999390198921688,0.0001070818489785521
-0.4282791354838992,-0.4282791354838992,0.9998872629214748,0.00010706151972297052
-0.4271211363316979,-0.4271211363316979,1.0003658299752316,0.00010717342532526226
-0.42516545359685554,-0.42516545359685554,0.9999345621693273,0.00010706100635271027
-0.4239550521655474,-0.4239550521655474,0.9998345207988304,0.0001070525969782103
-0.4227784653368872,-0.4227784653368872,1.0001074051985583,0.00011135297050067382
-0.42121935217583084,-0.42121935217583084,1.00002648576505,0.00010712980759921668
-0.4201405678089941,-0.4201405678089941,0.99994437208201,0.00010710507484670045
-0.41879825192154385,-0.41879825192154385,1.0000519636872323,0.00010715508389625314
-0.4173267646576278,-0.4173267646576278,1.0000097071133636,0.0001071603160150716
-0.41582352205878126,-0.41582352205878126,1.000221259852236,0.0001071234639160059
-0.41442889767640734,-0.41442889767640734,0.9999793571760526,0.00010706283900706922
-0.4133975693839602,-0.4133975693839602,0.9999847741701672,0.00011260280238241072
-0.41200334948080125,-0.41200334948080125,0.9998962313725069,0.00010708865636160931
-0.41059171893575697,-0.41059171893575697,0.9999530732185431,0.00010712814348256999
-0.4095333288336406,-0.4095333288336406,1.0000551756408993,0.00010709965104788426
-0.40797091273125263,-0.40797091273125263,1.0000870028361528,0.00010725143216835406
-0.40680469692742915,-0.40680469692742915,1.000074454451919,0.00010715931161674128
-0.40485630588955246,-0.40485630588955246,0.9999106621463343,0.00010705975103676315
-0.40379648757807446,-0.40379648757807446,1.0000184910793295,0.00010715230196952585
-0.4024894264381146,-0.4024894264381146,0.9999822431615046,0.00011419772464120451
-0.400904617618653,-0.400904617618653,0.9998816118765756,0.00010711101049452478
-0.39985781561699696,-0.39985781561699696,0.9999438633746165,0.0001071097426665473
-0.3985368011490209,-0.3985368011490209,0.9999807449981073,0.00010730963642060102
-0.3969954895117553,-0.3969954895117553,1.0001034703795324,0.00010717475246673074
-0.3956145976204425,-0.3956145976204425,1.0000726364189054,0.00010715049044333396
-0.39420325883256735,-0.39420325883256735,1.0001959039470931,0.00010710570994113181
-0.39314381146396044,-0.39314381146396044,1.000032514179829,0.00011617961602502963
-0.39168552118644584,-0.39168552118644584,1.0000587476850773,0.00010710833704339182
-0.39029190960281995,-0.39029190960281995,1.0001106254931753,0.00010713964469130603
-0.3892481414950453,-0.3892481414950453,1.0001873335698797,0.00010748621939471607
-0.3876979628257686,-0.3876979628257686,1.000186100900983,0.00010706903883468085
-0.3864887848467333,-0.3864887848467333,1.0000222181245633,0.00010715681433342928
-0.3846654596331064,-0.3846654596331064,1.000035875179309,0.0001070912918485854
-0.383602517619147,-0.383602517619147,1.0002359149277567,0.00010714082912274872
-0.3822004683985142,-0.3822004683985142,1.000157052361058,0.00011850008469197339
-0.3805905871937284,-0.3805905871937284,1.0000891601005808,0.00010711328155668158
-0.3795214347570436,-0.3795214347570436,1.000090376200189,0.00010708221409875491
-0.37784299099294005,-0.37784299099294005,1.0000692475615167,0.00010752148382793167
-0.3765069994085934,-0.3765069994085934,1.0001181561455836,0.00010720829108129902
-0.37491959186154417,-0.37491959186154417,1.0000178152246328,0.00010711719094884326
-0.37366233116190417,-0.37366233116190417,1.000011837926187,0.00010708480497141793
-0.37235909420705865,-0.37235909420705865,0.9998730354541691,0.0001213338004123148
-0.3709657884784974,-0.3709657884784974,0.9999327582283684,0.00010718948955862355
-0.3699250573496101,-0.3699250573496101,1.0000107573883215,0.00010733301178738011
-0.36856912008079235,-0.36856912008079235,1.0000439817938502,0.00010777699337222703
-0.36672482372378,-0.36672482372378,1.000033705373356,0.0001071256299995198
-0.3656106208625715,-0.3656106208625715,0.9999346503753699,0.00010711873486920181
-0.3638551458803704,-0.3638551458803704,0.9999790809894537,0.00010714181146473472
-0.3627748435013928,-0.3627748435013928,1.0000873604974638,0.00012451814263174884
-0.3612557652842952,-0.3612557652842952,0.9999838767510786,0.00010714611895485352
-0.3602069506159751,-0.3602069506159751,1.0000454783686303,0.00010734822363759648
-0.3591067090281285,-0.3591067090281285,1.0002450038412087,0.00010815814614821913
-0.3572637935896637,-0.3572637935896637,0.9999747865433608,0.00010705221071715726
-0.35601588180870747,-0.35601588180870747,1.0001078704805082,0.00010715446712600401
-0.3541999097447842,-0.3541999097447842,1.0000542118902127,0.00010710274706556026
-0.3531294841173803,-0.3531294841173803,0.9998830261719573,0.00010711402953679885
-0.35176698498544284,-0.35176698498544284,1.0002187448414663,0.00012737221805245245
-0.3505064268916612,-0.3505064268916612,0.9998409323406483,0.00010743486947985593
-0.3494405592733528,-0.3494405592733528,1.000039740437256,0.00010714877762878535
-0.34788477286347186,-0.34788477286347186,0.9999494351208549,0.00010839488211846133
-0.34617030211375094,-0.34617030211375094,1.0000003964818762,0.00010715824225164929
-0.34488111844984815,-0.34488111844984815,0.9999416000519469,0.00010714710743919234
-0.3433962348237401,-0.3433962348237401,1.0000607426752788,0.00010717097467490776
-0.3420261144143296,-0.3420261144143296,1.0001064692143218,0.00010711854854433432
-0.34050028926285447,-0.34050028926285447,1.0001694546651312,0.00010707002059509624
-0.33947247062460517,-0.33947247062460517,1.000020667990785,0.00010756016268790199
-0.33818938583135605,-0.33818938583135605,0.9999695414363814,0.00010891063780845453
-0.3365033622743795,-0.3365033622743795,1.0000296631999737,0.000107772334926928
-0.3352596108510625,-0.3352596108510625,1.0001376032899958,0.00010712012561823165
-0.33336669323034585,-0.33336669323034585,1.0001286463868744,0.00010715359693632345
-0.33223007383930964,-0.33223007383930964,0.9999300459835995,0.00010707032916345646
-0.3305610571231227,-0.3305610571231227,1.0000311219348186,0.00010709239596126411
-0.32937764966336547,-0.32937764966336547,0.9999200051380492,0.00010707681188250119
-0.3280462795402855,-0.3280462795402855,0.9999414594408249,0.00010945090486659671
-0.32633848545956423,-0.32633848545956423,0.9997774655439666,0.00010766551523495264
-0.32511066646839026,-0.32511066646839026,0.9999703143627843,0.00010711844081623332
-0.3232042394432938,-0.3232042394432938,0.9997920328934636,0.00010712896630941254
-0.32209223090612793,-0.32209223090612793,0.9998996178838351,0.00010706742276590338
-0.3204008063505171,-0.3204008063505171,0.9998606346933577,0.00010706444247759314
-0.3192402261891402,-0.3192402261891402,0.9999315772658003,0.0001070649112735466
-0.31775048008421436,-0.31775048008421436,0.9999679787978122,0.00010712767127333861
-0.31617620881006586,-0.31617620881006586,0.9999291693911123,0.0001075971208145608
-0.3149599213997135,-0.3149599213997135,1.0000411683034176,0.00010710286219296774
-0.3130414703424321,-0.3130414703424321,1.0000197700181273,0.00010715681671417848
-0.3119545270834351,-0.3119545270834351,1.000062082212024,0.00010706882483744234
-0.31024073568405586,-0.31024073568405586,1.000068226296523,0.00010706243219103502
-0.30910293860943056,-0.30910293860943056,0.9998747247563957,0.00010705799363155326
-0.30760072692646645,-0.30760072692646645,1.0000282263019133,0.00010713319422534855
-0.30601678406237626,-0.30601678406237626,0.9997629042357193,0.00010751695505644508
-0.30481541866320183,-0.30481541866320183,1.0000477225074584,0.00010709637995898178
-0.30287007822480516,-0.30287007822480516,1.0000127613900474,0.00010715579559994473
-0.3018169634306105,-0.3018169634306105,1.0000994528585003,0.0001070770075639694
-0.3000808494107332,-0.3000808494107332,0.9999273628042795,0.00010706061817716565
-0.29896578795742246,-0.29896578795742246,1.000025334715144,0.00010706395804819032
-0.29745114847028165,-0.29745114847028165,0.9999583546422841,0.0001071176759312648
-0.2958582298801048,-0.2958582298801048,0.9998914236940063,0.0001074388057962414
-0.29467035591951574,-0.29467035591951574,1.0000361609450512,0.00010711901771668061
-0.29269887482514606,-0.29269887482514606,1.000037973438909,0.00010716829456934635
-0.2916795367229497,-0.2916795367229497,1.0000754162300474,0.00010707820668293114
-0.2899211518350057,-0.2899211518350057,1.0001523586889685,0.00010708227573972668
-0.2890181218448561,-0.2890181218448561,1.0001646336093573,0.00010706463132340641
-0.287854296452133,-0.287854296452133,1.0000047270096222,0.0001071587751485963
-0.28623117137758525,-0.28623117137758525,1.0000863491577685,0.00010734685304014129
-0.28508169955166524,-0.28508169955166524,0.9999973595361613,0.00010716506500020617
-0.28350092310574837,-0.28350092310574837,1.0000915590127106,0.00010712982340098986
-0.28218380065518434,-0.28218380065518434,0.9999308514131636,0.00010713668650092007
-0.28038908414018804,-0.28038908414018804,1.0000829467386763,0.0001071100154571128
-0.2792818572139367,-0.2792818572139367,0.9999398643226487,0.00010702266816648389
-0.27827394621563145,-0.27827394621563145,0.999880455011352,0.00010718595807323397
-0.2766678650077665,-0.2766678650077665,1.0001130013300283,0.00010703050802124451
-0.27528300857229626,-0.27528300857229626,0.999854025757382,0.00010738445965207411
-0.2742559025384253,-0.2742559025384253,1.0000236582332007,0.00010709034289114973
-0.27235700719757006,-0.27235700719757006,1.0000777755103871,0.00010717166260960718
-0.27108933634881394,-0.27108933634881394,1.0000594226869366,0.00010715156294125532
-0.2694199700752506,-0.2694199700752506,1.0001347024516216,0.0001070480496648896
-0.26829108932288365,-0.26829108932288365,1.0000652751287646,0.00010711402066802251
-0.26684456758084707,-0.26684456758084707,0.9998996572457692,0.00010706423064248802
-0.2654045794217382,-0.2654045794217382,1.0000435738808844,0.00010728048092493042
-0.26451384448155296,-0.26451384448155296,1.0000928079001243,0.00010714569905077021
-0.26233382243080994,-0.26233382243080994,1.0001154654053088,0.00010716366242476591
-0.261361073423177,-0.261361073423177,0.9999337124372198,0.00010709277846573668
-0.25944317303947173,-0.25944317303947173,0.999896209660905,0.00010708107914804196
-0.2584185624116799,-0.2584185624116799,1.0000889002627855,0.00010704506736929553
-0.25701277546759227,-0.25701277546759227,1.000043243473209,0.00010713419037979021
-0.2555226949247299,-0.2555226949247299,0.9998393801359521,0.00010723889720988776
-0.25442860985349397,-0.25442860985349397,1.0000823600388613,0.0001071153271389097
-0.25233387206972113,-0.25233387206972113,1.0000344127112943,0.00010710578716690399
-0.25121771804406307,-0.25121771804406307,1.0001063026550603,0.00010710227004945756
-0.24918562633392866,-0.24918562633392866,1.000153268644992,0.00010709032714571402
-0.24801314821233972,-0.24801314821233972,0.999902253202546,0.00010707677362425953
-0.24654524069919717,-0.24654524069919717,0.9998817607397006,0.00010709814929287461
-0.24510295095096807,-0.24510295095096807,0.9999501475871426,0.00010721843233602484
-0.24403286516899242,-0.24403286516899242,1.000016907673807,0.00010708702724082041
-0.24218443809077145,-0.24218443809077145,0.9999230699649031,0.00010711353859771901
-0.24107449637376704,-0.24107449637376704,1.0000730913968197,0.00010710254662383594
-0.23901980273076334,-0.23901980273076334,1.0001610342625038,0.00010709809109811478
-0.23788455092872027,-0.23788455092872027,1.0001777104510654,0.00010708653346915512
-0.23668430782272482,-0.23668430782272482,0.9999290634077818,0.00011006743462347447
-0.23521278804691975,-0.23521278804691975,1.00001727657584,0.00010719184622239023
-0.23415440884709823,-0.23415440884709823,0.999972839889032,0.00010707982074830832
-0.23233740176656284,-0.23233740176656284,1.0000050067641244,0.00010706876423182863
-0.23118449667235835,-0.23118449667235835,1.0001821612654322,0.00010715963505732546
-0.2292273678962374,-0.2292273678962374,1.0001021392252198,0.00010706546076127297
-0.2280095065390924,-0.2280095065390924,0.9999896262283192,0.00010706108552453077
-0.22683628842059989,-0.22683628842059989,0.9999681290895474,0.0001109433366840294
-0.22528238580271137,-0.22528238580271137,1.0000756333996716,0.00010713331055697524
-0.22419718531309626,-0.22419718531309626,1.0000287125507925,0.00010709810625865526
-0.22261778005922678,-0.22261778005922678,1.00013189813195,0.00010704001324205406
-0.22120838005503174,-0.22120838005503174,0.9998992651086347,0.00010719585654538207
-0.21947349346010014,-0.21947349346010014,1.0001392028551082,0.00010709400610827263
-0.21800991382915527,-0.21800991382915527,1.0000705774177654,0.00010708456045469634
-0.21669174039852807,-0.21669174039852807,0.9999628753276646,0.00011205432420956598
-0.2151248578360537,-0.2151248578360537,1.0000010219800397,0.00010711876020440522
-0.21405568574846257,-0.21405568574846257,0.9999598585641414,0.00010710469369811231
-0.2127197730267653,-0.2127197730267653,1.0001002882459449,0.00010720650485247343
-0.21122731105424464,-0.21122731105424464,0.9999624995171519,0.00010716137310594184
-0.2097385947155999,-0.2097385947155999,0.999702432997992,0.00010710784289511105
-0.20826314776786603,-0.20826314776786603,1.0001289617241955,0.00010712436380727044
-0.20708173219754827,-0.20708173219754827,1.000073472585394,0.00011355705381179456
-0.20564048999513035,-0.20564048999513035,0.9998918159916975,0.00010701633692575068
-0.20422227848903277,-0.20422227848903277,0.9999564523291893,0.00010715517687844334
-0.2031768114218721,-0.2031768114218721,0.999918556436486,0.00010733566322269696
-0.2015884318650933,-0.2015884318650933,1.0000751652189481,0.00010710903710857353
-0.20050289399223403,-0.20050289399223403,0.9998532005248195,0.00010709119629254433
-0.19841071580303832,-0.19841071580303832,0.9998619684192654,0.00010713095502849349
-0.19742755992338062,-0.19742755992338062,1.0001344331662607,0.00010714293473990683
-0.19607610556122382,-0.19607610556122382,1.0001635004608977,0.00011533753286833807
-0.1945917860866757,-0.1945917860866757,1.000044666902248,0.00010715180631143435
-0.19360771923675202,-0.19360771923675202,0.9999740377230442,0.00010710092324363614
-0.1920325730665354,-0.1920325730665354,0.9999907383376934,0.000107332558440261
-0.19072983949445188,-0.19072983949445188,0.9998087896023922,0.00010720551031363785
-0.18913451048720162,-0.18913451048720162,0.9999280971783456,0.00010710962881767948
-0.18795899491815363,-0.18795899491815363,1.000143504973824,0.00010715334409565664
-0.18679243879741989,-0.18679243879741989,0.9997881281677696,0.00011754138844896553
-0.18534835302561986,-0.18534835302561986,1.0001100223370054,0.00010702706239331124
-0.18393219683493953,-0.18393219683493953,1.0000809984760033,0.00010716345885971187
-0.18288425175996964,-0.18288425175996964,0.9999847053067151,0.00010754941800676711
-0.1814292825787561,-0.1814292825787561,1.0001190030720477,0.00010998031846995294
-0.1803941114951158,-0.1803941114951158,0.999947090592349,0.00010715691332557344
-0.17857221939193552,-0.17857221939193552,1.0001222947130162,0.00010710434819684231
-0.17750780653150286,-0.17750780653150286,0.9999731271206983,0.00010713084335799866
-0.1761137844529003,-0.1761137844529003,0.9998680438128404,0.000120112407736316
-0.17463784922729247,-0.17463784922729247,1.0000006123609926,0.00010718961044208712
-0.1736039283365244,-0.1736039283365244,0.9999333396331718,0.00010717357088353267
-0.17196425982983782,-0.17196425982983782,1.0001488873120254,0.00010767212467302973
-0.1705658606661018,-0.1705658606661018,0.9999761950785221,0.00010716523559986553
-0.1692234146699775,-0.1692234146699775,1.0002019805241176,0.0001071466719412022
-0.1677924350631656,-0.1677924350631656,0.9999532764462934,0.00010710420033038445
-0.1665031454002019,-0.1665031454002019,1.0001248319484788,0.000123266151973654
-0.1651021075231256,-0.1651021075231256,0.9999966534996746,0.00010711628299451398
-0.16404499159834812,-0.16404499159834812,0.9999227998978892,0.00010737892045534309
-0.16283318468485958,-0.16283318468485958,0.9999118809103615,0.00010791085149174345
