time,time,flux,flux_err
-0.4988528398583488,-0.4988528398583488,1.000291223554209,0.000497972027562247
-0.4971609523411947,-0.4971609523411947,0.9998681404960562,0.0004992445657628652
-0.49582661131134953,-0.49582661131134953,1.0003571584369193,0.00045449191271302496
-0.49417048737523145,-0.49417048737523145,1.000263768018187,0.00045481677793312615
-0.4932650072565593,-0.4932650072565593,1.0012620094455107,0.0005736135352809365
-0.4919670040762867,-0.4919670040762867,1.0006918948336454,0.0004548718249322538
-0.4909643298866285,-0.4909643298866285,0.9999482016874955,0.00048349491296258444
-0.48976473131479,-0.48976473131479,1.0006298541721863,0.00045456896934306597
-0.4884403236392245,-0.4884403236392245,0.9998323263805059,0.00045394150734955307
-0.4870317684901238,-0.4870317684901238,1.0006689590011686,0.00045447318600412275
-0.4853136682366312,-0.4853136682366312,0.9996048440953104,0.0004543572380730364
-0.48409290760973817,-0.48409290760973817,0.9996296724709353,0.0004540449946257928
-0.48283880784001665,-0.48283880784001665,1.0002834531968479,0.0004546296428555348
-0.4809091316979902,-0.4809091316979902,1.000618528568984,0.0004544987701301416
-0.47930619916442085,-0.47930619916442085,1.0001289224033854,0.00045443935442754206
-0.4777630552183837,-0.4777630552183837,0.9995721629034758,0.00045679322533325947
-0.4761957798029471,-0.4761957798029471,0.9997148334375329,0.0004568996474868015
-0.4743966006419214,-0.4743966006419214,1.0002979449449587,0.000454495982964855
-0.47299395023073887,-0.47299395023073887,0.9995562919340477,0.00045426071612794124
-0.47178237441403326,-0.47178237441403326,0.9996807998963175,0.0004547147760760141
-0.47048966548391036,-0.47048966548391036,0.9999535868942944,0.0004695883286349002
-0.4693350821842614,-0.4693350821842614,1.000294316077922,0.00045456943269725855
-0.46756220399329324,-0.46756220399329324,1.0002223601684455,0.0004546001447174915
-0.46651147060110815,-0.46651147060110815,0.9997558995484706,0.0005525786585339403
-0.4653028845139488,-0.4653028845139488,1.0000983357948932,0.00045449784678332764
-0.46441644790393183,-0.46441644790393183,1.0002490975140208,0.00047079679621849093
-0.46327327464605333,-0.46327327464605333,0.999905434711389,0.00045470107883207906
-0.4619441040391393,-0.4619441040391393,0.9997524938985599,0.0004541763705623158
-0.4605389318508969,-0.4605389318508969,0.9999236738465885,0.0004543663239022907
-0.4588226760555699,-0.4588226760555699,1.0005226685554107,0.00045458389204665735
-0.45759583301041856,-0.45759583301041856,0.9995213787969689,0.00045425157344349736
-0.45634633254740037,-0.45634633254740037,1.0007276998887007,0.0004544300344002995
-0.45441751502949046,-0.45441751502949046,1.0002680798014831,0.00045444799113376335
-0.4528119344038714,-0.4528119344038714,1.000219362994869,0.0004542194545211676
-0.4508637154183816,-0.4508637154183816,0.9996255253486087,0.0004541743172665117
-0.44951480461022586,-0.44951480461022586,0.9999497065436213,0.0004590223050582933
-0.44779336051724383,-0.44779336051724383,1.0002122768920958,0.00045453094773216155
-0.44623618013283706,-0.44623618013283706,1.0002918058941606,0.0004540472523709041
-0.44507165707327656,-0.44507165707327656,1.0003123091200137,0.00046168228547367333
-0.44369577581746855,-0.44369577581746855,1.0002437570274216,0.00045446674991396805
-0.44225449568766634,-0.44225449568766634,1.0001287714066853,0.0004543585957123877
-0.44086170839436817,-0.44086170839436817,0.9994543586605177,0.00045446703644768207
-0.43974139133788415,-0.43974139133788415,0.999440919379525,0.0005315697529497696
-0.43864375010380174,-0.43864375010380174,1.0001662232543735,0.0004544805127357412
-0.4376720887004922,-0.4376720887004922,1.0001802139892615,0.0006113086038748383
-0.4366136431301129,-0.4366136431301129,0.9998505082695889,0.00045438827785050965
-0.4351804705649556,-0.4351804705649556,1.0004360872189235,0.00045445815538546137
-0.43404618036656756,-0.43404618036656756,0.9997357053633058,0.0004545937642159651
-0.4323317578579008,-0.4323317578579008,1.000374898494631,0.00045460736397925753
-0.431098850381386,-0.431098850381386,0.9999158980005728,0.00045439687293452575
-0.429853944444767,-0.429853944444767,1.000018383029144,0.00045460631491587883
-0.427935098612943,-0.427935098612943,1.00002716528888,0.0004546973582981974
-0.42667681801249274,-0.42667681801249274,0.9995668222374559,0.0004544354177246645
-0.42515438894624824,-0.42515438894624824,0.9996301451637913,0.00045431151516103486
-0.42350281180260935,-0.42350281180260935,0.9999049793468565,0.00046138904016069073
-0.4219184558991401,-0.4219184558991401,1.0001943310566102,0.00045423255907397076
-0.4201745930491597,-0.4201745930491597,1.0000958006276932,0.00045520054814073485
-0.4188007453063619,-0.4188007453063619,1.0002422967798712,0.0004544855903467431
-0.4172036776901223,-0.4172036776901223,1.0000202824775999,0.00045443900196512116
-0.41563918482643203,-0.41563918482643203,0.9999261324544234,0.0004544219968252069
-0.4143709277093876,-0.4143709277093876,1.0000445871699823,0.00045504908648552665
-0.4132463071240636,-0.4132463071240636,1.0000283770711578,0.0005121371054433697
-0.41215147732073093,-0.41215147732073093,0.9998006152370854,0.00045451638389862683
-0.4111738470819546,-0.4111738470819546,1.0003264583764777,0.0005983261553160629
-0.41012082361412466,-0.41012082361412466,1.0000588550025293,0.00045464777339064756
-0.40894802433685984,-0.40894802433685984,1.0002168161568783,0.0004991336198855071
-0.40792512356420046,-0.40792512356420046,1.0006786792824822,0.00045429400509408634
-0.4064059796692163,-0.4064059796692163,1.000112789813151,0.0004543774437450957
-0.40496219924170873,-0.40496219924170873,1.000203259187192,0.00045440000587254126
-0.40353781260346294,-0.40353781260346294,1.0000606605239757,0.0004544759489864083
-0.4020691452315077,-0.4020691452315077,1.0001061961668045,0.0004543528178620991
-0.40091229845129417,-0.40091229845129417,1.0003577073013439,0.0004544927173075524
-0.39914521472965137,-0.39914521472965137,1.0003799995866762,0.0004547030704036176
-0.3976092781536863,-0.3976092781536863,0.9999742029150024,0.0004642813626558941
-0.3961123333843716,-0.3961123333843716,0.999614879232074,0.00045420489240546923
-0.39452180833832245,-0.39452180833832245,1.000223626238839,0.0004560287167742992
-0.39272038646086005,-0.39272038646086005,0.9998301876104925,0.0004546439595450695
-0.39132320202479604,-0.39132320202479604,0.9998182893718713,0.00045431093063241074
-0.39010561262984994,-0.39010561262984994,1.0002496526898401,0.0004546609366494203
-0.3885713905117882,-0.3885713905117882,1.0000303878717616,0.0004559096909923825
-0.3872685526504938,-0.3872685526504938,1.0000206545884913,0.0004545297339959294
-0.38582527428807223,-0.38582527428807223,0.9999477714353242,0.00045442525696577987
-0.38483906899637077,-0.38483906899637077,1.0002336049202922,0.0005762404315559415
-0.3836280764830008,-0.3836280764830008,0.9995702952049423,0.00045416753819479754
-0.38253261573408964,-0.38253261573408964,0.9994568750924845,0.00048512239257720425
-0.38143206585882583,-0.38143206585882583,0.9995569078245994,0.000454253870944892
-0.3799137811627588,-0.3799137811627588,1.000660530870361,0.0004545477842037179
-0.37846759082603965,-0.37846759082603965,1.0001933761841135,0.00045434616898184404
-0.3770440726715606,-0.3770440726715606,0.9998357448040813,0.00045431107534085367
-0.3755747081435402,-0.3755747081435402,1.0000249479694383,0.00045417450537512977
-0.37424797306448454,-0.37424797306448454,0.9999632286287887,0.00045420714042121083
-0.3725543643995479,-0.3725543643995479,1.0000921980627968,0.0004546560111213669
-0.3706988086043566,-0.3706988086043566,0.999120457160711,0.0004545073049753333
-0.3689257879414072,-0.3689257879414072,1.0001508004562694,0.00045674529451866856
-0.36718401917387383,-0.36718401917387383,1.0000182882248292,0.00045408333418260475
-0.36581935561989665,-0.36581935561989665,1.000170888522904,0.00045458411457301753
-0.36429286704515107,-0.36429286704515107,1.0003583744574693,0.0004544798071340783
-0.36316683459444904,-0.36316683459444904,0.9993889320369155,0.0004676942219115168
-0.3618053567945026,-0.3618053567945026,1.0002409525150844,0.00045715368348279485
-0.36039168265706395,-0.36039168265706395,1.0003942692203092,0.000454449398163978
-0.3589717453971389,-0.3589717453971389,0.9998932153562843,0.0005548511230604838
-0.35782926434258117,-0.35782926434258117,0.9994918519659679,0.00045463290220467323
-0.35676678348827406,-0.35676678348827406,0.9998614611708139,0.00045445656575084385
-0.35553026445850267,-0.35553026445850267,0.9998920725673782,0.0004719074982072012
-0.354568427970662,-0.354568427970662,1.000230071784777,0.00045444619441154747
-0.35274406242679107,-0.35274406242679107,0.9997693447563281,0.0004544768409572477
-0.351271027855546,-0.351271027855546,1.0000577068663397,0.0004543470454783724
-0.3501759370476066,-0.3501759370476066,1.0006035853124742,0.00045442749011727216
-0.3484518186298374,-0.3484518186298374,1.0001626053118196,0.0004545266902603996
-0.3470079688646365,-0.3470079688646365,0.9990535779500098,0.0004539886040508541
-0.345380223486427,-0.345380223486427,0.999410758490083,0.00045434578671583694
-0.34354815181795856,-0.34354815181795856,1.0000348313235687,0.000454133726466676
-0.34180934514151884,-0.34180934514151884,1.000002111533146,0.0004586811388293722
-0.3399940259936557,-0.3399940259936557,0.9999987632544937,0.0004545450778206346
-0.33833062689518556,-0.33833062689518556,0.9999699854194498,0.0004542223751485777
-0.33712384179598304,-0.33712384179598304,1.0003504019167342,0.00045459403165450427
-0.3358248056611046,-0.3358248056611046,1.000209700168244,0.00046227721718111346
-0.3342804343701573,-0.3342804343701573,1.000565784315141,0.00045461173502807676
-0.33269402006553717,-0.33269402006553717,1.0000655724109806,0.0004545573881964307
-0.33157418141927336,-0.33157418141927336,0.9988309184356335,0.0005338571031863027
-0.33047622975936974,-0.33047622975936974,1.0002804599917698,0.0004543690077250265
-0.32926828648123774,-0.32926828648123774,1.0001044612658787,0.0004638451795911747
-0.32827866844745585,-0.32827866844745585,1.0001057068662644,0.0004544811451746499
-0.326712993872934,-0.326712993872934,0.9999338213877735,0.0004546858755351547
-0.325687458270113,-0.325687458270113,1.0003543371959258,0.0004545335746986213
-0.3241640789565281,-0.3241640789565281,1.000293593710007,0.0004546208171876738
-0.322931844132836,-0.322931844132836,1.000471284132582,0.00045417171156331615
-0.3216864277223067,-0.3216864277223067,1.0005154738182163,0.00045442561293354523
-0.3197583658271469,-0.3197583658271469,1.0001892996096273,0.0004543376452832076
-0.31815043478200095,-0.31815043478200095,1.0001133135064315,0.0004542290879347711
-0.3165724871927523,-0.3165724871927523,1.0000678322536287,0.00045432394059402765
-0.3151183241723629,-0.3151183241723629,1.0005216337453615,0.00046123476621491333
-0.31350095552261337,-0.31350095552261337,1.00007557312107,0.0004552262755256037
-0.3115720647649141,-0.3115720647649141,0.9995716305262249,0.0004542128944890841
-0.3105802397207299,-0.3105802397207299,1.000237201907022,0.00045443329406219475
-0.3093304597379756,-0.3093304597379756,1.0001290797616302,0.00045754427509329964
-0.3078145900872187,-0.3078145900872187,1.0001276923492646,0.0004544951418996106
-0.3064105555647984,-0.3064105555647984,1.000527572291007,0.00045508223251818905
-0.30535465204447976,-0.30535465204447976,0.9996457267225697,0.0005138412239212294
-0.3041502489541017,-0.3041502489541017,0.9999829406880665,0.00045431291804115786
-0.3032307885143382,-0.3032307885143382,0.9999564785180837,0.0006000945464810279
-0.30212295280798573,-0.30212295280798573,0.9996511721279733,0.00045481711055236185
-0.3010470635970705,-0.3010470635970705,0.9998419341272099,0.0005001259783412508
-0.29992106126737783,-0.29992106126737783,0.9996610590171328,0.00045468237762557077
-0.29860248316108484,-0.29860248316108484,1.0002763198428615,0.00045421173210529733
-0.2971897958072077,-0.2971897958072077,1.0001439875974236,0.00045439611654319564
-0.29546942664819653,-0.29546942664819653,0.9994486840685616,0.00045463759089469215
-0.2942561260788352,-0.2942561260788352,0.9996506443053492,0.00045406303602315456
-0.2929963951843092,-0.2929963951843092,1.0006142913276952,0.00045460155934818117
-0.2913367740249669,-0.2913367740249669,1.0000165161109298,0.00045453970454691246
-0.28970429026521743,-0.28970429026521743,1.0003435545799988,0.00045433857821661395
-0.2883613543112006,-0.2883613543112006,0.9995004957503036,0.000463947297469756
-0.2866309585653653,-0.2866309585653653,0.9998139943438151,0.0004557586176432228
-0.2848129133548355,-0.2848129133548355,1.0002569559171737,0.00045468175970928264
-0.2835080091477721,-0.2835080091477721,0.9995382048925681,0.0004542379403587757
-0.28213908407851707,-0.28213908407851707,0.9998381928825735,0.0004545897786974019
-0.2806866940562031,-0.2806866940562031,1.0003390027138057,0.00045576562753837593
-0.27949140532291494,-0.27949140532291494,0.99999405974341,0.00045459465692754655
-0.27783513595859405,-0.27783513595859405,0.9998230038268245,0.0004545783270931963
-0.2769308449111122,-0.2769308449111122,1.000277577792642,0.000578544445054329
-0.2756317140236206,-0.2756317140236206,0.9999061085018972,0.0004549538199106637
-0.2746302497886063,-0.2746302497886063,1.0000892025013137,0.0004863709620295042
-0.27342951016617006,-0.27342951016617006,0.9996963685184745,0.0004547062170824679
-0.2721061617288797,-0.2721061617288797,1.000215591230966,0.00045432983452540766
-0.270696854871494,-0.270696854871494,1.000053754736029,0.00045473169710294063
-0.26897834336705273,-0.26897834336705273,1.0000613067259858,0.00045450662058662384
-0.2677589371771319,-0.2677589371771319,0.9996617903552479,0.0004542712045052711
-0.26650381371073306,-0.26650381371073306,1.000010991625409,0.00045439151447537046
-0.2648440080411092,-0.2648440080411092,0.9999323171569611,0.0004543634019312387
-0.2633288013996207,-0.2633288013996207,0.9996448898897532,0.00045439836602268184
-0.2614491117390571,-0.2614491117390571,0.9995022370995817,0.0004538233894126445
-0.25986098121575196,-0.25986098121575196,1.0007274592016322,0.00045663268787158516
-0.25806135192906365,-0.25806135192906365,0.9997462172678702,0.0004544573065957621
-0.25665979179830173,-0.25665979179830173,0.9994464897979393,0.0004543088571801766
-0.2554470153118018,-0.2554470153118018,1.0008224799637353,0.0004544996013161946
-0.25391071011908933,-0.25391071011908933,0.9993306954515007,0.00045696957413882193
-0.2526071223626786,-0.2526071223626786,0.9995222022576209,0.00045434139222814615
-0.251017172767024,-0.251017172767024,1.0005121961617662,0.00045459675441526695
-0.25015910288493615,-0.25015910288493615,1.0008531888788017,0.000568642012342818
-0.2489679157741193,-0.2489679157741193,0.9997839979888183,0.00045447423726022347
-0.24787022006057668,-0.24787022006057668,0.9997822765093188,0.0004732209133036888
-0.24677163576780003,-0.24677163576780003,1.0006040793346709,0.0004545780086771337
-0.24525410930946237,-0.24525410930946237,1.0001993975044503,0.00045444779291338677
-0.24380579091812252,-0.24380579091812252,0.99920920221389,0.0004543383326720155
-0.2423830426094355,-0.2423830426094355,0.9997664361188001,0.00045425950185212896
-0.2409130525753426,-0.2409130525753426,0.999779151358083,0.00045413116072545907
-0.23958671800573939,-0.23958671800573939,1.0000351662114977,0.00045441466160305786
-0.2378964912990341,-0.2378964912990341,1.0000504435654698,0.0004546589784591716
-0.2360371681250399,-0.2360371681250399,1.0000793930762417,0.0004544553182893849
-0.23426389809610554,-0.23426389809610554,0.9996433011578582,0.00045828511805359637
-0.23252019073843258,-0.23252019073843258,0.999824616115404,0.0004541399734733999
-0.23098000236277585,-0.23098000236277585,0.99926866147159,0.00045446494377274075
-0.22936818773450796,-0.22936818773450796,0.9996204263445202,0.00045440339324956966
-0.22842585803664406,-0.22842585803664406,1.0003095667175932,0.000463128170341354
-0.2269994467671495,-0.2269994467671495,0.9991375738846578,0.0004547072208829779
-0.22542730000714073,-0.22542730000714073,0.9998938185499584,0.00045476950611899117
-0.22409984522382728,-0.22409984522382728,1.000645096211589,0.0005361644994715622
-0.2229321540253295,-0.2229321540253295,0.9997901582108246,0.0004547521834679314
-0.2218951934206416,-0.2218951934206416,1.0001984412841838,0.0004544504429872858
-0.2206325240287697,-0.2206325240287697,0.9996526749497707,0.00046463732807006526
-0.21954579089870094,-0.21954579089870094,0.999876928642902,0.00045458089509205256
-0.21808341242285678,-0.21808341242285678,1.0000119651300772,0.00045428314199661085
-0.21660972391910036,-0.21660972391910036,0.9997011240195292,0.0004543041286698852
-0.21551538742205595,-0.21551538742205595,0.9997534796731646,0.0004542347542536709
-0.21379294054568163,-0.21379294054568163,1.0003464159463058,0.00045435028815722265
-0.21234453368888354,-0.21234453368888354,0.9995766120474961,0.0004541129277594697
-0.2107209942099871,-0.2107209942099871,0.999726559249793,0.00045446014271684416
-0.20908408854011212,-0.20908408854011212,1.000177347759683,0.00045447197468524573
-0.20752910860537668,-0.20752910860537668,0.9999246242894403,0.00046079551416614554
-0.20585168724282993,-0.20585168724282993,0.9998425252458214,0.00045428533317050173
-0.20448760142098762,-0.20448760142098762,0.9999443247051321,0.00045486195179609954
-0.20287663750277715,-0.20287663750277715,1.0006956251084422,0.0004547083809686746
-0.20168518923528608,-0.20168518923528608,0.999244060433084,0.0004578010791323183
-0.20027965843837592,-0.20027965843837592,0.9994695864165655,0.00045450740251598364
-0.1987298807121988,-0.1987298807121988,0.9998791112539542,0.00045470053562291754
-0.19760338510313885,-0.19760338510313885,0.9999091030669485,0.0005153525152984518
-0.19644144311751005,-0.19644144311751005,0.9999241427328254,0.00045472913040984055
-0.19542234147447743,-0.19542234147447743,0.9999544083930297,0.000598658577788218
-0.19437176566207198,-0.19437176566207198,0.9996102486227911,0.00045907494925441917
-0.19341615084777003,-0.19341615084777003,0.9997138155872068,0.0004545090119398924
-0.19210779008353712,-0.19210779008353712,1.0005404779060785,0.0005018640330782893
-0.19121854253462517,-0.19121854253462517,1.0002234576922118,0.00045437606152318535
-0.1893959703760629,-0.1893959703760629,1.0000277820841128,0.00045432603298565025
-0.18792455352304388,-0.18792455352304388,1.0001976787346496,0.0004542169729845515
-0.18682761421441682,-0.18682761421441682,1.000069381460308,0.00045448539619454605
-0.18510555801258305,-0.18510555801258305,0.9995326262095144,0.0004539905691727405
-0.18384871685339021,-0.18384871685339021,0.9999488885021801,0.0004543414661606042
-0.18232653366794693,-0.18232653366794693,0.9995969555576509,0.0004543388944472591
-0.18067534296787927,-0.18067534296787927,0.9998573285292729,0.0004638518649927549
-0.17908769591667806,-0.17908769591667806,1.0003523387684972,0.00045416451252350217
-0.17734513985196826,-0.17734513985196826,1.0000884465254516,0.0004556882145081929
-0.1759746223440743,-0.1759746223440743,1.0000213962675624,0.000454593432729546
-0.17445154444721994,-0.17445154444721994,1.0001833855069615,0.0004545083541968572
-0.1731524243390595,-0.1731524243390595,1.0001738117127545,0.0004542833283119922
-0.17175102397959563,-0.17175102397959563,0.999285860065854,0.0004558329258311102
-0.17024176518243622,-0.17024176518243622,1.0001404242139498,0.0004548399194539779
-0.16912683215923607,-0.16912683215923607,0.999999091894131,0.0005810151704353571
-0.16798777717413033,-0.16798777717413033,1.0000433833655404,0.00045446434620161893
-0.1669238863301871,-0.1669238863301871,0.9999295877004943,0.00045448526512220427
-0.16569179833895759,-0.16569179833895759,1.0000788945812045,0.0004884519361064156
-0.16472594060614937,-0.16472594060614937,0.9999393012347999,0.000454543584989043
-0.1629025608955999,-0.1629025608955999,0.9995275013122058,0.00045452689962886415
-0.16143041975592495,-0.16143041975592495,1.0002145203631039,0.00045432700622776703
