time,time,flux,flux_err
-0.4998252983010995,-0.4998252983010995,0.9993988534293096,0.0010593198344251123
-0.49964813125673874,-0.49964813125673874,0.9997164043745431,0.0013103498743352218
-0.4994859525953264,-0.4994859525953264,0.9997018742394174,0.0009408901580259591
-0.49933184048277324,-0.49933184048277324,1.0000849316748723,0.0010744898091818158
-0.4991908405638242,-0.4991908405638242,0.9995901236659058,0.0009371256383887484
-0.49910338980771485,-0.49910338980771485,0.9997853593298862,0.0011925780595354054
-0.4989899248968868,-0.4989899248968868,0.9992483366672739,0.0012611658075951104
-0.49887332195648926,-0.49887332195648926,0.9992956484060802,0.0011472794486366458
-0.49879995233714,-0.49879995233714,0.9990405886919447,0.000985454478795569
-0.4985370676782622,-0.4985370676782622,1.0000707884964406,0.0009882998338750716
-0.49843679796467766,-0.49843679796467766,1.0005325049733416,0.0009574735912117934
-0.4982437852231669,-0.4982437852231669,0.9994549187923099,0.0010617608154866525
-0.49808400375113704,-0.49808400375113704,1.0007349138401205,0.0010626662111339774
-0.49795090632833305,-0.49795090632833305,1.0016730594172212,0.0010557243791271419
-0.4978045262796513,-0.4978045262796513,1.0003874021413666,0.0011087634224638898
-0.49767289972733125,-0.49767289972733125,0.9998034830434237,0.0009712914359075484
-0.49761686681158607,-0.49761686681158607,0.9999600395720659,0.0013434685601514962
-0.49736860639386576,-0.49736860639386576,1.0004527429505674,0.0010814885302557115
-0.4972101055791427,-0.4972101055791427,1.0006486913883132,0.0010447834953420435
-0.4969860026736569,-0.4969860026736569,1.000675146467977,0.0010607970638145318
-0.49673053364167574,-0.49673053364167574,0.9999644769136248,0.0011151552608971438
-0.4966361972990853,-0.4966361972990853,1.000502227135432,0.0011131595028913447
-0.49647132558457086,-0.49647132558457086,1.0005570428472403,0.0008852862336906703
-0.49623396300376044,-0.49623396300376044,0.9991663182679561,0.0008900156396929725
-0.49607566936465447,-0.49607566936465447,1.001127804594111,0.0011939613547878745
-0.4959559760005504,-0.4959559760005504,1.0011515996705973,0.0009909861813194708
-0.4958596950091305,-0.4958596950091305,0.9999195716765144,0.0011796883986070104
-0.49569114411060583,-0.49569114411060583,0.9994846623088408,0.001307312449016794
-0.49556397957057924,-0.49556397957057924,0.9995091336474102,0.0012476878348942318
-0.4954679127236886,-0.4954679127236886,0.9999921949988794,0.0010968503332008433
-0.4953628918694449,-0.4953628918694449,0.9998746108460883,0.001169392634243926
-0.49518112275545717,-0.49518112275545717,0.9999847650479055,0.0010684807514846214
-0.49492146843476803,-0.49492146843476803,1.0004298970306489,0.0009160238886036952
-0.49473760599430533,-0.49473760599430533,0.9998070692458366,0.0009062262274255456
-0.49453766728329357,-0.49453766728329357,0.999934534829152,0.0013758001746609378
-0.49445480298381883,-0.49445480298381883,0.9980026819190492,0.0011618031290049568
-0.49435450871678766,-0.49435450871678766,0.9991389776936559,0.0009533842600127074
-0.494249851215136,-0.494249851215136,0.9994262838991904,0.0008575265897270989
-0.4940368312425562,-0.4940368312425562,1.000598957662089,0.0012794406085723875
-0.49389731182091057,-0.49389731182091057,0.998379843722701,0.0009419626774103383
-0.493829726097465,-0.493829726097465,1.0002183641679219,0.0011780889560187105
-0.49374634409105056,-0.49374634409105056,1.0008623931064908,0.0009230146646131557
-0.49366017390057093,-0.49366017390057093,1.000301254324762,0.0011397840308121365
-0.4935906380858796,-0.4935906380858796,1.0002185067500697,0.0014448063781620129
-0.49330123426625505,-0.49330123426625505,0.9993145704799845,0.0009822754377846008
-0.493021898133884,-0.493021898133884,1.0008063152974649,0.000977306603959912
-0.4928314723612857,-0.4928314723612857,0.9995466488402627,0.0015302338877919127
-0.49260809845800396,-0.49260809845800396,0.9998071845052549,0.0010535966822622915
-0.49240702346651233,-0.49240702346651233,0.9997054728198211,0.0012552972283397458
-0.4922071523971681,-0.4922071523971681,1.0002784829099511,0.0011026902645975387
-0.4921025840027141,-0.4921025840027141,1.000700948460107,0.0009968919636843953
-0.4919695145807054,-0.4919695145807054,0.9995820263596549,0.000955069729877481
-0.49182476292189675,-0.49182476292189675,0.999929111374043,0.001004809087476423
-0.49174993436899966,-0.49174993436899966,0.9993232302968391,0.0012046467330857932
-0.49165773479035124,-0.49165773479035124,0.999208330773994,0.0012894097823505488
-0.4915535822241509,-0.4915535822241509,1.0008081175011787,0.001170666017023401
-0.4914318896808254,-0.4914318896808254,0.9988221302268784,0.001313377646371117
-0.4913230537589698,-0.4913230537589698,1.000305886944833,0.000977058905529763
-0.4910921377209888,-0.4910921377209888,0.9985532830578304,0.0009481639074055955
-0.4909211997211969,-0.4909211997211969,1.000645612445354,0.0009867180944117895
-0.49075577460243947,-0.49075577460243947,0.9999972100436855,0.0010580843742837899
-0.49051949461209005,-0.49051949461209005,0.9999637841792379,0.001005884078395979
-0.49033043653689673,-0.49033043653689673,0.9978676081185588,0.0008985355832408351
-0.490237819190952,-0.490237819190952,1.0015097723821327,0.000968827436534358
-0.4901399647416838,-0.4901399647416838,1.0001964799686203,0.001394994916066524
-0.490017385208921,-0.490017385208921,1.000306317786292,0.00130320611502341
-0.48977949605323373,-0.48977949605323373,0.9994306125237105,0.0008685231679857648
-0.48962183526164155,-0.48962183526164155,1.0004764038329013,0.001027308424494307
-0.4894564723908843,-0.4894564723908843,0.9992489619157091,0.0011233871252084066
-0.48933886271915983,-0.48933886271915983,1.000105657621708,0.0013516477448465081
-0.4891513973918336,-0.4891513973918336,0.9996110722704994,0.0012535410047481346
-0.4890143064447329,-0.4890143064447329,0.9994107128585723,0.0009264366652773217
-0.48874714759513155,-0.48874714759513155,0.9993237931580902,0.0010103647378035736
-0.4885522390337428,-0.4885522390337428,0.9996746662613871,0.000956323463473942
-0.4884516817859549,-0.4884516817859549,1.0001623718563188,0.0010311116357816432
-0.48836611781080136,-0.48836611781080136,1.000329406282288,0.001162991016194071
-0.4882665074401302,-0.4882665074401302,1.0003715485437525,0.0014630454094641519
-0.48810893851041326,-0.48810893851041326,0.999492448966875,0.0012490279805596359
-0.48801732149513555,-0.48801732149513555,0.9988283939383769,0.0010803242141278683
-0.48791779417733777,-0.48791779417733777,0.9995855141746446,0.0010440715084131611
-0.48776205614412904,-0.48776205614412904,1.0000880411025423,0.0011258809041677195
-0.4874825051359949,-0.4874825051359949,1.0010877141579861,0.0009165903712703413
-0.48728820242540677,-0.48728820242540677,0.9998862822328585,0.001218472942855362
-0.4870223391953914,-0.4870223391953914,1.0009458432230303,0.0009508118296305077
-0.48689865411215577,-0.48689865411215577,0.9996569090761719,0.0011080963523915138
-0.4867299007542897,-0.4867299007542897,0.9999982286695358,0.000891902799554776
-0.486611583949707,-0.486611583949707,0.9991525393651788,0.0014448603835434165
-0.4864922663437028,-0.4864922663437028,0.9995753914258891,0.0013933003610042448
-0.48635565238291745,-0.48635565238291745,0.9995224581744754,0.0011182454169056336
-0.4862806890982029,-0.4862806890982029,1.0006766360603163,0.00102466576171381
-0.48623256426581063,-0.48623256426581063,1.0004507541415681,0.0011238451107944717
-0.48616734454844845,-0.48616734454844845,1.0003314691480816,0.0009149646760938876
-0.4860760701434629,-0.4860760701434629,0.9994914319337465,0.0011046915675402438
-0.4859241616875806,-0.4859241616875806,0.9995827701147512,0.0012705121051878536
-0.48573604079356303,-0.48573604079356303,0.9996244879557699,0.0011024965482793487
-0.4855883322023146,-0.4855883322023146,0.9989686936860374,0.0008424644036415087
-0.4853954699385213,-0.4853954699385213,0.9989836234335797,0.00103527314501338
-0.48521039814513645,-0.48521039814513645,0.9997031181553414,0.001003243725686258
-0.4850404617020104,-0.4850404617020104,1.000499890461525,0.0010996044622168318
-0.48490345817772323,-0.48490345817772323,0.9991083057611405,0.0012005681093860236
-0.4847507237129321,-0.4847507237129321,1.0001660580470797,0.0011867574970280963
-0.48464475463479173,-0.48464475463479173,1.0006714318940813,0.0011554659399904054
-0.4845465145983326,-0.4845465145983326,0.9988523482273635,0.0009069956453203918
-0.4844598912561196,-0.4844598912561196,0.9994064565838542,0.0009593814437426768
-0.4842994619437377,-0.4842994619437377,1.000941992722537,0.0010392355121717825
-0.4841556124702038,-0.4841556124702038,1.0005205020732442,0.0011697701642224912
-0.48408800134275226,-0.48408800134275226,1.00041357574579,0.001250697656819204
-0.4839748691832938,-0.4839748691832938,0.999950792351289,0.0011640618327362687
-0.48385835460794624,-0.48385835460794624,1.0006173693337175,0.0012075885467145652
-0.4835914711526129,-0.4835914711526129,0.9989246777279757,0.0009777036408161208
-0.4834658193103678,-0.4834658193103678,0.9994092760696865,0.000853982424338492
-0.483357930672355,-0.483357930672355,1.000610091135146,0.0011138168654906346
-0.4831924537240411,-0.4831924537240411,0.9998312486090078,0.0010504282141064272
-0.4829093134823779,-0.4829093134823779,1.0001344491779642,0.0010415170853136859
-0.4827505833498435,-0.4827505833498435,0.9986025021168083,0.0009638427784488147
-0.48268267688399646,-0.48268267688399646,0.9999337071818081,0.0014239024901527022
-0.48253068539852395,-0.48253068539852395,0.9996822566589456,0.0011761660898068147
-0.4824051643947314,-0.4824051643947314,0.999995005630046,0.0012260807408493505
-0.48218641242347077,-0.48218641242347077,0.9991928205608576,0.0009469818697309101
-0.48202218382502904,-0.48202218382502904,0.9999530604578641,0.0011632309000025472
-0.48189312709655496,-0.48189312709655496,0.999896295853661,0.0012874633519167691
-0.48176899992467953,-0.48176899992467953,1.0008789979890473,0.0011806173197593118
-0.48159856993079303,-0.48159856993079303,1.0001287760518185,0.0009937238370899837
-0.4814940302581817,-0.4814940302581817,1.0003263602225856,0.0010806278899936205
-0.48126981662280743,-0.48126981662280743,1.000692379647602,0.0010586006670508686
-0.48104540784479466,-0.48104540784479466,0.9993739658700423,0.0010757433013917096
-0.4809400842517789,-0.4809400842517789,1.0002395229719667,0.001147859635305978
-0.48084119731283864,-0.48084119731283864,0.9988366304378022,0.0010367378612368846
-0.4807128685431962,-0.4807128685431962,1.0005863735747877,0.001305265259049972
-0.48058748048206323,-0.48058748048206323,1.000363354562451,0.0012809145223538656
-0.4804807847176562,-0.4804807847176562,0.9990105529422234,0.0012108055081951354
-0.480335371675028,-0.480335371675028,0.9999562220861506,0.0008238757629039778
-0.48014905149830156,-0.48014905149830156,1.000234256039753,0.0011558511516458355
-0.479968325405207,-0.479968325405207,1.0004128919743063,0.0007555953001363955
-0.47982039440757945,-0.47982039440757945,1.0002226488767423,0.000936573396341721
-0.4796549361068173,-0.4796549361068173,0.9997581735291187,0.001185475171108973
-0.4795180381457612,-0.4795180381457612,0.9988049436457785,0.0011525723047840421
-0.4793917079012317,-0.4793917079012317,0.9989442817093737,0.000993285703748382
-0.4791525956694386,-0.4791525956694386,1.0005378719197449,0.0008766582736490659
-0.47901230785064397,-0.47901230785064397,1.0001123958030405,0.0014387030130321135
-0.4788583316876611,-0.4788583316876611,1.0005538191047865,0.0012274673962189005
-0.4787682215806853,-0.4787682215806853,1.0001081254124424,0.0011611820348720867
-0.478704109616956,-0.478704109616956,0.9993658704019357,0.0010553211072615695
-0.47859950061683776,-0.47859950061683776,1.00068996376143,0.0010171194673862182
-0.4784386705206998,-0.4784386705206998,0.9990159689069934,0.0011114650559630019
-0.4782677453797078,-0.4782677453797078,0.9996448108221255,0.001122968523089228
-0.4780446013719484,-0.4780446013719484,0.9990895950031788,0.0009538770773636285
-0.4777758476382587,-0.4777758476382587,1.0003352984442015,0.0010052027621051034
-0.47757250117720107,-0.47757250117720107,0.9996073822100702,0.0009808309336452395
-0.4774098741858325,-0.4774098741858325,1.0001094651422449,0.0013381576256817026
-0.4772945007716771,-0.4772945007716771,0.9999655249329532,0.001296157757345267
-0.477159227716038,-0.477159227716038,0.9993414730538982,0.0009603487312548764
-0.4770441659165954,-0.4770441659165954,0.999897732483437,0.0009895694546276329
-0.47693290260140203,-0.47693290260140203,0.9992118708614223,0.0008917470828054145
-0.47685661561990855,-0.47685661561990855,0.9986017994254175,0.001211781295824148
-0.47670942083204865,-0.47670942083204865,0.9995490414437238,0.0012011631722101729
-0.4765975567541318,-0.4765975567541318,1.0004380980819945,0.0011306452703027017
-0.47652136198885275,-0.47652136198885275,1.000403170814247,0.001011079796214187
-0.47642762130271876,-0.47642762130271876,0.9995757424541598,0.0011769261636470725
-0.47609760477134844,-0.47609760477134844,0.9988415718430259,0.001329338422791444
-0.47592807046239616,-0.47592807046239616,0.999986377626368,0.0009537089062935369
-0.4757624006902915,-0.4757624006902915,0.998694947366166,0.0010715546388240485
-0.47553932735536364,-0.47553932735536364,1.0003345857003985,0.0012976085905090512
-0.47529684201654165,-0.47529684201654165,0.9993161002417146,0.001103995151218715
-0.4751790067806724,-0.4751790067806724,1.0004823358295145,0.001009039952942401
-0.47507109190773916,-0.47507109190773916,0.9998218991117207,0.0013027687746610774
-0.47489901534136153,-0.47489901534136153,1.000081221625199,0.001176477500404658
-0.4747322648123372,-0.4747322648123372,0.999400900559446,0.0010031946124704027
-0.47460614528899897,-0.47460614528899897,1.0003258173418188,0.001032596345602818
-0.47448249625667815,-0.47448249625667815,1.0001992197979015,0.0010674405978940928
-0.47435553467148567,-0.47435553467148567,1.0007863371936228,0.0012571477342620285
-0.4742180259825545,-0.4742180259825545,1.0016583237834378,0.0012303391225851731
-0.47401763714806294,-0.47401763714806294,0.9988677173039091,0.0011396111592619795
-0.47384570129142956,-0.47384570129142956,1.0004793404552916,0.0009103575270080917
-0.4736889149156923,-0.4736889149156923,1.000289030493104,0.0010683761305325167
-0.4735096555457858,-0.4735096555457858,0.9997517959772507,0.0010409787322501092
-0.47340327144411276,-0.47340327144411276,0.9997848747178313,0.0009163196319613399
-0.47329298974436823,-0.47329298974436823,0.9995913391153106,0.0012605747329271467
-0.4731442703108769,-0.4731442703108769,0.9989262473055731,0.0010726109261303607
-0.4730404478010314,-0.4730404478010314,0.9992463993653523,0.0012648206127237375
-0.47293553180643355,-0.47293553180643355,1.0002061165488738,0.00133434730951631
-0.4727607510940288,-0.4727607510940288,1.000020050240296,0.0009480891652024238
-0.4726510261098156,-0.4726510261098156,0.9992192152178306,0.0010620488417444713
-0.4725266730907606,-0.4725266730907606,0.9999397998569226,0.0011182405432588536
-0.472284489597223,-0.472284489597223,1.0007364482183918,0.00101468835702717
-0.4720657956400828,-0.4720657956400828,0.9995337220059237,0.0012110411282773134
-0.47191637083597016,-0.47191637083597016,0.9995958527169883,0.0007436514646828005
-0.4716640641730919,-0.4716640641730919,1.0000273759072607,0.0010211853236301847
-0.4715010725230968,-0.4715010725230968,0.9999237069990634,0.0007712177223891323
-0.4713562291122798,-0.4713562291122798,1.0008902661997139,0.0012684212083122809
-0.47127612215117554,-0.47127612215117554,1.0002791546930403,0.001200621175845357
-0.47117809742558164,-0.47117809742558164,0.9992405332282234,0.001175060720303356
-0.4710478648819844,-0.4710478648819844,0.9993387305086747,0.0008295284643961816
-0.47094337884918785,-0.47094337884918785,1.0014712533628456,0.0011453390438926916
-0.47086843281576873,-0.47086843281576873,0.9996743220625858,0.001043567630683295
-0.4707304269781162,-0.4707304269781162,0.9992921374321453,0.0011545682652670283
-0.47051020777435043,-0.47051020777435043,0.9991833815581433,0.0012040490596112105
-0.4702895453083329,-0.4702895453083329,1.0003382096579174,0.0009761617268498456
-0.4700628006721672,-0.4700628006721672,1.000494802814035,0.0007005479132103147
-0.46992431692342507,-0.46992431692342507,0.9994309314491735,0.0012445635500570673
-0.46981881713945767,-0.46981881713945767,0.9993903706079547,0.0011325523175329815
-0.46973003746024916,-0.46973003746024916,1.000332675555505,0.0011134331956619008
-0.46953824825613993,-0.46953824825613993,0.9993656873244182,0.0013309753051153994
-0.4693859308863466,-0.4693859308863466,0.9999199071062508,0.0008833687725735666
-0.4692815860245901,-0.4692815860245901,0.9996297556022149,0.0008698361191333242
-0.46918154766826775,-0.46918154766826775,1.0008353859122816,0.00139259412514121
-0.46908373391779606,-0.46908373391779606,1.0008433037103415,0.0011486781603294743
-0.4689826589208678,-0.4689826589208678,1.0002712199640382,0.0012787030143612606
-0.4689014368261269,-0.4689014368261269,0.9992882653585788,0.001044015798791993
-0.4686280650115805,-0.4686280650115805,1.0001933993531835,0.0009342781206435
-0.4683946279452357,-0.4683946279452357,1.0000637380353445,0.0017394540437068874
-0.46825867115549047,-0.46825867115549047,1.0009301638997168,0.001072048214535858
-0.4680610220719245,-0.4680610220719245,0.9996005800423451,0.00124810067155529
-0.46786945780404493,-0.46786945780404493,0.9993403653356351,0.001127928927110358
-0.4676125203484844,-0.4676125203484844,1.0004127825007678,0.0010098016289366712
-0.46750918802717933,-0.46750918802717933,1.0005044727947527,0.001301133270344238
-0.46733408183426944,-0.46733408183426944,1.0004883535818667,0.0009053784634652397
-0.4672007979766931,-0.4672007979766931,1.0003063302121142,0.0010296966770684157
-0.4670739192479232,-0.4670739192479232,0.999503419294413,0.001124178870650851
-0.4669881707559398,-0.4669881707559398,1.0002987704025768,0.0010358746250315452
-0.466904018776404,-0.466904018776404,0.9993382555396975,0.0013023576312510862
-0.46675766675907654,-0.46675766675907654,0.9992147892822807,0.001156500393041597
-0.4667055577272549,-0.4667055577272549,0.9999564629918719,0.0009035830498238557
-0.46650256644788896,-0.46650256644788896,0.9990075853149364,0.0008867935155873653
-0.46632818201833287,-0.46632818201833287,0.9991583684592182,0.0010407326746024437
-0.4661343063540698,-0.4661343063540698,0.9997415933115545,0.0010708620031165766
-0.46597311491932486,-0.46597311491932486,1.0002856036502386,0.001000834537834497
-0.4658706858775986,-0.4658706858775986,0.9995552826099967,0.0010519632939704842
-0.4657454138010507,-0.4657454138010507,0.9988571999157893,0.0010721861530892446
-0.4655864641390508,-0.4655864641390508,0.9988853933575964,0.000977733175922093
-0.4655332852467836,-0.4655332852467836,0.9996664010960142,0.0013459874841369344
-0.46541891875313013,-0.46541891875313013,1.0005353170084792,0.0011205149486499277
-0.4652130516959005,-0.4652130516959005,1.0000240617896599,0.0009079258702515134
-0.4650671954630525,-0.4650671954630525,0.9991609332381376,0.0009984377067740573
-0.46482959254208256,-0.46482959254208256,0.9996654383072625,0.0010088071050327317
-0.46459647978117574,-0.46459647978117574,1.0009770962502293,0.0011588442530717203
-0.46450908482365777,-0.46450908482365777,0.9995225640167378,0.0011909076009231486
-0.4643425888454658,-0.4643425888454658,0.9991647948344177,0.0008852333416876941
-0.464111275079631,-0.464111275079631,0.9995559843446762,0.0008956682531926733
-0.4639562925847713,-0.4639562925847713,1.0004616761541292,0.0009572850353027513
-0.46383378767422984,-0.46383378767422984,0.9996534631383696,0.0011782152185718286
-0.46377481032395734,-0.46377481032395734,1.0010615463959651,0.0012913144567482952
-0.46365964165815965,-0.46365964165815965,0.9995575762153136,0.0011222663732954946
-0.4635400182924059,-0.4635400182924059,1.000150884834478,0.0011555031210391535
-0.46344254786963573,-0.46344254786963573,0.9997680809593685,0.0011915401713546978
