time,time,flux,flux_err
-0.4999157178070163,-0.4999157178070163,0.9998653220193804,9.762778339719703e-05
-0.4997965640824987,-0.4997965640824987,1.0000584018050227,9.595597180026355e-05
-0.499711651483085,-0.499711651483085,1.0000165980766715,9.48030772238895e-05
-0.49956921217089983,-0.49956921217089983,0.9999298006801606,9.592560818168995e-05
-0.4995103213004768,-0.4995103213004768,0.9998824830131511,9.491139121595277e-05
-0.4994271492992993,-0.4994271492992993,1.0000101496881058,9.412375170748111e-05
-0.49932598813902584,-0.49932598813902584,1.0000136759346947,9.329417624463231e-05
-0.4991911602468463,-0.4991911602468463,0.9999312313185156,9.858853516486117e-05
-0.4990622517972952,-0.4990622517972952,0.9997770346894015,9.475886227744173e-05
-0.4989493609697092,-0.4989493609697092,0.9997370602461937,9.424210588935547e-05
-0.49880766218702777,-0.49880766218702777,1.000015796891588,9.474889840090417e-05
-0.4986501801904524,-0.4986501801904524,1.0000237614893412,9.452196975864194e-05
-0.4985608339076862,-0.4985608339076862,1.000063584802262,9.440893033268844e-05
-0.49835980991483664,-0.49835980991483664,0.9999348919008224,9.614876495654138e-05
-0.4982410531869391,-0.4982410531869391,0.9999644627929054,9.624395935201819e-05
-0.49815197407442613,-0.49815197407442613,1.000166813477098,9.639031494894043e-05
-0.4980595599481603,-0.4980595599481603,1.0000554078364527,9.642570789818507e-05
-0.4978994369215798,-0.4978994369215798,1.0000778252962246,9.397259147485461e-05
-0.49783049456891604,-0.49783049456891604,1.0001390474715464,9.727023484267244e-05
-0.49772296349983663,-0.49772296349983663,0.9999598946961985,9.620995325673264e-05
-0.49758816293033303,-0.49758816293033303,1.0001261778353043,9.735428602157801e-05
-0.49750736397108997,-0.49750736397108997,0.999983916755545,9.321219210875829e-05
-0.49735079943202437,-0.49735079943202437,1.000013108576623,9.35438895948995e-05
-0.49722934970632193,-0.49722934970632193,1.0000866207988326,9.596815317509518e-05
-0.4971706599317258,-0.4971706599317258,1.0000844125951274,9.406507690752026e-05
-0.4970966718130512,-0.4970966718130512,1.0001140032965818,9.53466098696592e-05
-0.49701456603070254,-0.49701456603070254,1.000077341767808,9.394124041135264e-05
-0.49692481152596885,-0.49692481152596885,1.0001342699611069,9.430418562240899e-05
-0.49685750512289817,-0.49685750512289817,1.0000667390514166,9.689341343681891e-05
-0.4966966312349541,-0.4966966312349541,0.9999329061420221,9.623907207236777e-05
-0.4965156486607157,-0.4965156486607157,0.9998004944101803,0.00011360055349957869
-0.49638829919567795,-0.49638829919567795,1.0000231424400106,9.63126142965748e-05
-0.4962501420377521,-0.4962501420377521,1.0001300492488285,9.532714930658609e-05
-0.49607691709534263,-0.49607691709534263,0.9999851059405322,9.610244695942769e-05
-0.4959208001557272,-0.4959208001557272,1.000115916979715,9.626628908541006e-05
-0.49581740011053627,-0.49581740011053627,0.9999082460125299,9.51654922544169e-05
-0.4957156471471535,-0.4957156471471535,1.0001116923018802,9.693963446244946e-05
-0.4956361407326767,-0.4956361407326767,0.9998201962672478,9.610639673759179e-05
-0.49553059724275955,-0.49553059724275955,0.9999915946982101,9.577741649667984e-05
-0.49543908184568863,-0.49543908184568863,1.0001386271083599,9.216809724840765e-05
-0.4953282755159307,-0.4953282755159307,1.0000754698799825,9.608729116553838e-05
-0.4952525739761768,-0.4952525739761768,0.9998757581088136,9.548358758780694e-05
-0.4951520258502569,-0.4951520258502569,0.9997674049276444,9.903568875208805e-05
-0.4950427581963595,-0.4950427581963595,0.9999605617112751,9.490498359766074e-05
-0.49492138932982926,-0.49492138932982926,0.9998933989315415,9.512664707924762e-05
-0.4948390827950789,-0.4948390827950789,0.9999259688107349,9.52026089905309e-05
-0.4947361234051641,-0.4947361234051641,0.9999273031847364,9.583092039998935e-05
-0.4945576518657617,-0.4945576518657617,1.0000296330674607,9.476230264858031e-05
-0.49450007080158687,-0.49450007080158687,0.999917015270427,9.446260040301529e-05
-0.4943647517793579,-0.4943647517793579,0.9998373635248324,9.609707708263574e-05
-0.4942915638181148,-0.4942915638181148,0.999996651575002,9.414587883278686e-05
-0.49418148637923875,-0.49418148637923875,1.0001245610066207,9.587617141828542e-05
-0.4940730907517718,-0.4940730907517718,1.00001790393694,9.579417846157108e-05
-0.4940127054142067,-0.4940127054142067,1.0000438266301184,9.750756228799136e-05
-0.49394418325973677,-0.49394418325973677,0.9999842841454256,9.68040487651279e-05
-0.493877552144113,-0.493877552144113,0.9999351491506904,9.566678579469689e-05
-0.4937350844003959,-0.4937350844003959,0.9999953793832035,9.346022242848981e-05
-0.4936267629615031,-0.4936267629615031,1.0001193029076636,9.474555756615235e-05
-0.49345951729337684,-0.49345951729337684,1.0001082668270356,9.467994100408624e-05
-0.49324631451745515,-0.49324631451745515,1.0000063736464715,9.550171283611021e-05
-0.4931003738834988,-0.4931003738834988,1.0002188035763517,9.269333797391157e-05
-0.49299016879231206,-0.49299016879231206,1.0001022865061402,9.68609576941342e-05
-0.4928927417146042,-0.4928927417146042,1.000083564419361,9.806334984535708e-05
-0.4927508278604364,-0.4927508278604364,1.0000570596164324,9.698447225505794e-05
-0.4927018914953806,-0.4927018914953806,1.0000468079461304,9.683364462734049e-05
-0.49258194298890884,-0.49258194298890884,1.0000520430414923,9.534756569341908e-05
-0.4924732325336663,-0.4924732325336663,1.0000969808406182,9.76434789588746e-05
-0.49236246216169094,-0.49236246216169094,0.9999559964981162,9.628312521102665e-05
-0.49227645758364813,-0.49227645758364813,1.000000171028721,9.658598620174265e-05
-0.49223150036705193,-0.49223150036705193,1.0000291318404124,9.664744393678546e-05
-0.4921427996974671,-0.4921427996974671,0.999953316420376,9.523660381443136e-05
-0.49198857576120647,-0.49198857576120647,1.000039138216846,9.631785748705184e-05
-0.4918819165788591,-0.4918819165788591,0.9998913170684134,9.658912903973294e-05
-0.4917531701619737,-0.4917531701619737,0.9999594117542795,9.320557093749128e-05
-0.49162899099173957,-0.49162899099173957,0.9999203681949111,9.710489345766207e-05
-0.49143738434650003,-0.49143738434650003,0.9999493566630735,9.471477260155603e-05
-0.491250344569562,-0.491250344569562,0.9998948028117443,9.339126413234147e-05
-0.49118774980306623,-0.49118774980306623,0.9999909144172351,9.460812299723838e-05
-0.4910889660794055,-0.4910889660794055,0.999982798696492,9.51659992965813e-05
-0.49087666309205813,-0.49087666309205813,0.9999374709600106,9.449839125263491e-05
-0.4908052178187063,-0.4908052178187063,0.9999290953555542,9.41237597409204e-05
-0.49065181622863746,-0.49065181622863746,0.9998667935164084,9.60611393053175e-05
-0.490496612834977,-0.490496612834977,1.0001709046623746,9.456141219181973e-05
-0.49040950678754597,-0.49040950678754597,1.000010038610565,9.646411647911034e-05
-0.4903010235459078,-0.4903010235459078,1.0000894663221163,9.3862224680103e-05
-0.49018807196698616,-0.49018807196698616,1.000101575501739,9.622476372105719e-05
-0.4900993695715442,-0.4900993695715442,0.9999922912513395,9.41964356779613e-05
-0.48992047579667997,-0.48992047579667997,0.9999901352453853,9.710530575856688e-05
-0.4898326429130975,-0.4898326429130975,1.0001040293518049,9.570940625451853e-05
-0.4897490335686598,-0.4897490335686598,1.00006357279387,9.476066702395325e-05
-0.4896350739290938,-0.4896350739290938,1.0000154452656067,9.765983679486893e-05
-0.4895212624571286,-0.4895212624571286,0.9999870810271844,9.507041345630253e-05
-0.4893118207255611,-0.4893118207255611,0.9998275292564408,9.453415339672566e-05
-0.4891364901792258,-0.4891364901792258,1.0000310893839166,9.767295297554335e-05
-0.4889553080487531,-0.4889553080487531,1.0000023036932035,9.531759638109698e-05
-0.4888796771585476,-0.4888796771585476,1.0000036924822997,9.570518254868402e-05
-0.48879267670272386,-0.48879267670272386,1.0000035304255683,9.486281281488495e-05
-0.48872698572813533,-0.48872698572813533,0.9998988773022719,9.736643346932161e-05
-0.48858992901223247,-0.48858992901223247,1.0001108880500986,9.646775864443889e-05
-0.4883535846864106,-0.4883535846864106,0.9999933151359774,9.457534357632602e-05
-0.4882540936669102,-0.4882540936669102,1.000006375118306,9.516451005246146e-05
-0.48818031750270163,-0.48818031750270163,1.0000152017893558,9.507623123779447e-05
-0.4880807228735648,-0.4880807228735648,1.0000945960307523,9.622664826510116e-05
-0.48797501749941147,-0.48797501749941147,1.0000006402736834,9.673329821792218e-05
-0.48784688600862863,-0.48784688600862863,1.0000074684967288,9.391531835883007e-05
-0.48773393183073493,-0.48773393183073493,1.0000382380272508,9.324831805170925e-05
-0.4875680128141539,-0.4875680128141539,1.000120476724843,9.462988995173343e-05
-0.48739599725813604,-0.48739599725813604,0.9999926108736993,9.720124689585372e-05
-0.48728696468751875,-0.48728696468751875,1.0000558886325963,9.636836856813673e-05
-0.48719179575855376,-0.48719179575855376,1.0000140377323181,9.449702633588409e-05
-0.48709344084491024,-0.48709344084491024,1.000175414390727,9.386528582870465e-05
-0.48701250880258157,-0.48701250880258157,0.9999803026284872,9.678210257551026e-05
-0.48696374797727915,-0.48696374797727915,1.0000576583662002,9.806295570146421e-05
-0.486870676689432,-0.486870676689432,1.0000299283435654,9.646362461670013e-05
-0.4867822124448139,-0.4867822124448139,1.0000544271728675,9.502816291754551e-05
-0.4866839454130968,-0.4866839454130968,0.9998057841322641,9.681390007727122e-05
-0.48654923601716293,-0.48654923601716293,0.9999995704254683,9.367281626302058e-05
-0.48643326640594753,-0.48643326640594753,1.0000722942050544,9.608031322824431e-05
-0.4863505674758926,-0.4863505674758926,0.9999713828169607,9.596895511026844e-05
-0.4861904629855417,-0.4861904629855417,1.0000664182043735,9.265907042647651e-05
-0.4860914744029287,-0.4860914744029287,1.000201310315055,9.473122148039872e-05
-0.48596363122342157,-0.48596363122342157,0.9998521639682773,9.820665977948833e-05
-0.48580703597399405,-0.48580703597399405,1.000091201922978,9.335066558712532e-05
-0.485650964314118,-0.485650964314118,1.000132472435793,9.415958098624294e-05
-0.48543096949579195,-0.48543096949579195,0.9999787375841299,9.617563088842704e-05
-0.48536776611872484,-0.48536776611872484,1.0000579659614883,9.499051998261988e-05
-0.4852988594386261,-0.4852988594386261,0.9997677949078584,9.52155082392644e-05
-0.4851529724081047,-0.4851529724081047,1.000030578057158,9.63450077097864e-05
-0.4850162602495402,-0.4850162602495402,1.0000912393470285,9.861162469095219e-05
-0.4849489296437241,-0.4849489296437241,0.999897590521883,9.39856222533797e-05
-0.4848659672745271,-0.4848659672745271,1.0000811130558476,9.439223614834028e-05
-0.48478847210644743,-0.48478847210644743,1.000030169985137,9.536523870965115e-05
-0.48465939494781196,-0.48465939494781196,1.0000001387062407,9.159411572998853e-05
-0.48450166010879914,-0.48450166010879914,1.0000418601942513,9.700400520232759e-05
-0.4843133828922873,-0.4843133828922873,0.9998516734406971,9.654471963964258e-05
-0.48425351453770415,-0.48425351453770415,0.9999119572212869,9.469777366664483e-05
-0.4841728553728899,-0.4841728553728899,1.0000636076631024,9.492110572062427e-05
-0.4840147172944853,-0.4840147172944853,1.0000840262425397,9.570683102494644e-05
-0.4839488671743311,-0.4839488671743311,1.000053870809726,9.312260892996778e-05
-0.48386441099573857,-0.48386441099573857,1.0001285935844935,9.442626288258776e-05
-0.483761985230376,-0.483761985230376,0.9999315511845388,9.54744348122507e-05
-0.48358990184497086,-0.48358990184497086,1.000020217019719,9.341769191559012e-05
-0.48345178257732185,-0.48345178257732185,1.0000334071637997,9.829633270853255e-05
-0.48336987224174666,-0.48336987224174666,0.9999562794172224,0.00010328051337455375
-0.48325181784457527,-0.48325181784457527,1.0000127785343944,9.586847567055467e-05
-0.4830486522143474,-0.4830486522143474,0.9999495156144356,9.541474583313464e-05
-0.48295958804956174,-0.48295958804956174,0.9999824168760135,9.698822957583893e-05
-0.4828141977050109,-0.4828141977050109,0.9999375872336083,9.56660203895681e-05
-0.4826786236691987,-0.4826786236691987,0.9999641799991181,9.409971538118289e-05
-0.4825972208636813,-0.4825972208636813,0.9999741769449899,9.744444629031292e-05
-0.4824842313537374,-0.4824842313537374,1.0000224058197005,9.72306536382024e-05
-0.48229846135363913,-0.48229846135363913,1.0000443807202772,9.664686274435561e-05
-0.48217733032652177,-0.48217733032652177,0.9999471456286397,9.721618907631832e-05
-0.48208554863813335,-0.48208554863813335,0.9999898007636074,9.634626232576512e-05
-0.48199729584448503,-0.48199729584448503,0.9999451790907044,9.545000828004754e-05
-0.4819164301996352,-0.4819164301996352,0.9998890837525248,9.484163341860563e-05
-0.48176725778903345,-0.48176725778903345,1.0001931240249342,9.915365671337597e-05
-0.4816594898875337,-0.4816594898875337,1.000040537021134,9.690392797376618e-05
-0.4814003994775703,-0.4814003994775703,1.0000760676917002,9.558882483052751e-05
-0.4812766719143838,-0.4812766719143838,1.000073297761012,9.375471657821523e-05
-0.48120809058018493,-0.48120809058018493,1.000002166608621,9.56529462440476e-05
-0.48111213026277255,-0.48111213026277255,0.9998840549943155,9.526779387283297e-05
-0.4810439711814979,-0.4810439711814979,1.0001018822514312,9.625761111456773e-05
-0.4809773399058031,-0.4809773399058031,0.9999962634873565,9.7542687112498e-05
-0.4809117474738741,-0.4809117474738741,1.0000047369299536,9.560572767214674e-05
-0.48080453551956454,-0.48080453551956454,1.0000277786740144,9.80079043421555e-05
-0.4806416898529278,-0.4806416898529278,0.9999696125093479,9.60785199767576e-05
-0.48050341424532234,-0.48050341424532234,1.0000448373704016,9.561777805932385e-05
-0.48028562193212565,-0.48028562193212565,1.000032919684347,9.56787053413166e-05
-0.4800928516051499,-0.4800928516051499,0.9998838328982249,9.588421074883667e-05
-0.4799585517786909,-0.4799585517786909,0.9999341903090404,9.390308187165363e-05
-0.4798391496500699,-0.4798391496500699,0.9999748061058501,9.356261520630433e-05
-0.47976849661790766,-0.47976849661790766,0.999973106263003,9.511263010424366e-05
-0.4796553301624954,-0.4796553301624954,0.9999829084737802,9.737524887453679e-05
-0.479529608291341,-0.479529608291341,0.9999998997395567,9.551501577340711e-05
-0.47943638448487036,-0.47943638448487036,0.9999362549537688,9.745017180769285e-05
-0.47935079626040533,-0.47935079626040533,0.9999577805425709,9.536944243481266e-05
-0.47926078249292914,-0.47926078249292914,1.0001034918784515,9.461730191656862e-05
-0.47918461220979225,-0.47918461220979225,0.9999942646386779,9.765132650568698e-05
-0.4790823788731359,-0.4790823788731359,1.0000662939367297,9.324577154497016e-05
-0.47895012568333184,-0.47895012568333184,1.0001613670139267,9.697370960741645e-05
-0.4788502421841258,-0.4788502421841258,1.0001903685984428,9.452539302759106e-05
-0.4787706956762122,-0.4787706956762122,1.0000785808152224,9.656472065622227e-05
-0.4786735455680173,-0.4786735455680173,1.0002086484013164,9.239851740171405e-05
-0.47854121892887636,-0.47854121892887636,0.9999725321802281,9.6700314955451e-05
-0.47839768504200036,-0.47839768504200036,1.000066329968893,9.49073509296154e-05
-0.4782174296386074,-0.4782174296386074,0.99985925295726,9.62310062376497e-05
-0.4779853011161322,-0.4779853011161322,0.999862450370727,9.586340994786653e-05
-0.4778537668462377,-0.4778537668462377,0.9998890036239076,9.52119688638404e-05
-0.47771620427956807,-0.47771620427956807,0.9999803039781281,9.368048722699079e-05
-0.4775623414461734,-0.4775623414461734,0.9999697079285654,9.329785970575576e-05
-0.47746049516426864,-0.47746049516426864,1.000172800393963,9.571052277537344e-05
-0.4773533388535725,-0.4773533388535725,0.9999079801114682,9.687538722518931e-05
-0.47726744902902285,-0.47726744902902285,1.0000146253156932,9.57392951778485e-05
-0.4772225753462408,-0.4772225753462408,1.0000749818951267,9.361796101118058e-05
-0.4771348310401663,-0.4771348310401663,0.9999630196579533,9.296321182507992e-05
-0.47704833357420284,-0.47704833357420284,0.9998911693800171,9.86100049070948e-05
-0.4769824586459436,-0.4769824586459436,0.9999589366619059,9.389091622674532e-05
-0.47688944058318156,-0.47688944058318156,0.9999644428403116,9.695503782050314e-05
-0.47684109575347977,-0.47684109575347977,1.0001033599921636,9.562565699270931e-05
-0.47673045229457783,-0.47673045229457783,1.0001730364775614,9.620423742874422e-05
-0.47661104369617535,-0.47661104369617535,1.0000365232096657,9.530426541636558e-05
-0.47650191248103513,-0.47650191248103513,1.0001742225789951,9.847808937784179e-05
-0.47639726984780284,-0.47639726984780284,0.9998443274113044,9.154302485727797e-05
-0.47624261675227897,-0.47624261675227897,0.9999334192078864,9.439730073948142e-05
-0.4760616073996061,-0.4760616073996061,0.9997827902627107,9.34162337147581e-05
-0.47597508218022994,-0.47597508218022994,1.000106087441809,9.804217254523462e-05
-0.47583244505804034,-0.47583244505804034,1.0001419404572742,9.573654716522729e-05
-0.47574656337092164,-0.47574656337092164,0.9999592983522054,9.618435340002168e-05
-0.4756357887323247,-0.4756357887323247,1.0001376186190165,9.743416190464348e-05
-0.4755107165023219,-0.4755107165023219,1.0000620046810196,9.488973673502908e-05
-0.47537095470470375,-0.47537095470470375,0.999945051878413,9.39000494261578e-05
-0.4752816804451868,-0.4752816804451868,0.9999231760145129,9.645816859826155e-05
-0.4751678279018961,-0.4751678279018961,0.9999194280552605,9.586056528875201e-05
-0.4750806751137134,-0.4750806751137134,0.9999743160695574,9.62382773993674e-05
-0.47495561311079654,-0.47495561311079654,1.000030416666135,9.597952744173567e-05
-0.47488984535157214,-0.47488984535157214,1.0000933083919088,9.612259481468031e-05
-0.47476303716539403,-0.47476303716539403,0.9999163109505019,9.601730852844143e-05
-0.4745255211688345,-0.4745255211688345,0.9999748781653496,9.436258919845235e-05
-0.474370103245019,-0.474370103245019,0.99978136334153,9.721897823667492e-05
-0.4742528512317222,-0.4742528512317222,0.9998401427725829,9.500071999966374e-05
-0.4741411400202196,-0.4741411400202196,1.000007455236256,9.451082782254173e-05
-0.47407096220413225,-0.47407096220413225,0.9998880532208385,9.759344545974988e-05
-0.4739921127009438,-0.4739921127009438,0.9999732519787348,9.732339239289776e-05
-0.4738720126857515,-0.4738720126857515,1.0000802516453011,9.842437682273887e-05
-0.47378892698907293,-0.47378892698907293,0.999969570718591,9.502831977764901e-05
-0.4737317547114799,-0.4737317547114799,1.000089756812225,9.486784290902203e-05
-0.4736298107309267,-0.4736298107309267,1.000064350935398,9.553796932773562e-05
-0.4735553737002192,-0.4735553737002192,1.0000381016663227,9.509888449542027e-05
-0.47343789267470127,-0.47343789267470127,0.9999601981958716,9.479918439895494e-05
-0.4732570872962242,-0.4732570872962242,0.9998639394079218,9.66546527566351e-05
-0.47311534378968645,-0.47311534378968645,0.9999322887193826,9.280515232324171e-05
-0.473010569321923,-0.473010569321923,1.000049882882098,9.245445046852943e-05
-0.47295662272372285,-0.47295662272372285,1.0000225874061432,9.36971356901015e-05
-0.4728603002498858,-0.4728603002498858,0.9998830303927662,9.859501115928621e-05
-0.47264024372852875,-0.47264024372852875,0.9998990471774662,9.267361057658416e-05
-0.47251439204846973,-0.47251439204846973,1.0000703237518604,9.728847349301984e-05
-0.47238747863448227,-0.47238747863448227,0.9999290093657967,9.404387950033704e-05
-0.4721831710980041,-0.4721831710980041,1.000026857999735,9.449989671396338e-05
-0.4720657629222842,-0.4720657629222842,1.0002143894211946,9.594422920107643e-05
-0.47198684179456907,-0.47198684179456907,1.0000972601979037,9.77352250131844e-05
-0.47191320844576695,-0.47191320844576695,1.0000897486723588,9.564970554579706e-05
-0.471809203576413,-0.471809203576413,0.9999652327669463,9.30018832622277e-05
-0.4716461623436771,-0.4716461623436771,0.9999536105442776,9.368819009109773e-05
-0.47147614254790826,-0.47147614254790826,0.9999061602112829,9.510728156094446e-05
