time,time,flux,flux_err
-0.49951440274890047,-0.49951440274890047,1.000057206218598,0.0004539654234658271
-0.49876579364354257,-0.49876579364354257,0.9998697724067658,0.0004334519193105083
-0.49794155135750773,-0.49794155135750773,0.9997306859252608,0.00038397978166323707
-0.49615965732955375,-0.49615965732955375,1.0000720169242894,0.00034691009375322705
-0.4954330626060255,-0.4954330626060255,1.000165127552745,0.0003439286680694469
-0.4945095421076985,-0.4945095421076985,1.000174867036506,0.00038426968030126087
-0.49390444019518326,-0.49390444019518326,1.0002403808570235,0.00042257098807091197
-0.49315665624744726,-0.49315665624744726,0.999799423344691,0.00042806157260656875
-0.4924791057012044,-0.4924791057012044,0.9996251599502932,0.0003647450207425422
-0.49215316502959466,-0.49215316502959466,0.9999965895720342,0.0003219377387223702
-0.4917838726832997,-0.4917838726832997,1.0002041291285964,0.00034398458205578603
-0.49134240931889506,-0.49134240931889506,1.0003085544809036,0.00036634919727794384
-0.4907425666984636,-0.4907425666984636,1.000036973659504,0.0003843032041660914
-0.49008254607615526,-0.49008254607615526,0.9999106633153936,0.0003883167977705269
-0.48928048646776007,-0.48928048646776007,1.0002560071238626,0.00043645232790706575
-0.4884877076547127,-0.4884877076547127,0.9997956420662624,0.00038662741842129843
-0.4872359262255486,-0.4872359262255486,0.9998542996782712,0.00032172817527172776
-0.4856989241496194,-0.4856989241496194,0.9998913581043378,0.00034855131981161063
-0.48509715803083964,-0.48509715803083964,0.9997813468730579,0.00036451924302388807
-0.4841032173630083,-0.4841032173630083,0.9997605153325928,0.00042171056930454616
-0.4836496741278097,-0.4836496741278097,0.9998520597730389,0.0004048493356249183
-0.48285182020918,-0.48285182020918,0.999845960177025,0.0003844986231683408
-0.4823662252078066,-0.4823662252078066,0.9999919070305276,0.00034438026573886037
-0.48200096259242853,-0.48200096259242853,1.0001989175436659,0.0003439921409040317
-0.4817809792351909,-0.4817809792351909,0.99991839659343,0.0003463152299678485
-0.4813045561284525,-0.4813045561284525,1.000010397154302,0.0003847744220741892
-0.4806952253973577,-0.4806952253973577,0.999718713755084,0.00040279155418444036
-0.47988990509766155,-0.47988990509766155,1.000234843341671,0.0004086069847196257
-0.4791188061761204,-0.4791188061761204,1.000493992183078,0.0004257964819191715
-0.47822901885374447,-0.47822901885374447,0.9997506559074377,0.00038401145301481156
-0.4771730243286584,-0.4771730243286584,0.9998548531152046,0.0003695545369413282
-0.4759278171666665,-0.4759278171666665,1.00032486813554,0.00034447980345704056
-0.4754513952560956,-0.4754513952560956,1.0000049308741985,0.0003662245354554323
-0.4744692650390789,-0.4744692650390789,0.9996299370423518,0.0004032706829043658
-0.47388732886465734,-0.47388732886465734,0.9998386943216208,0.0004072229646764434
-0.47310420115245505,-0.47310420115245505,1.0000264067521534,0.000365276737370063
-0.47241752402915155,-0.47241752402915155,0.9998387581545085,0.00034403187459610595
-0.47208948688348756,-0.47208948688348756,1.000002477440226,0.00034386374198022777
-0.47171165300242135,-0.47171165300242135,1.000225826056083,0.00037032007268718
-0.4713783120503649,-0.4713783120503649,0.9998182701594913,0.0004157505018735568
-0.4707985567947617,-0.4707985567947617,1.0001892925390574,0.0004030543556110327
-0.4699031054158695,-0.4699031054158695,1.0002347154321953,0.0004299820662445028
-0.4692194435454439,-0.4692194435454439,1.0001363692891754,0.00041450993863065435
-0.46843953262723514,-0.46843953262723514,0.9994254685739928,0.0004028060151476425
-0.4668709082354326,-0.4668709082354326,0.9998639091107911,0.00036533062967445095
-0.46584857733687385,-0.46584857733687385,1.00036101797035,0.00032490233029478904
-0.46524492524913513,-0.46524492524913513,0.9996117760047459,0.00038430409542320913
-0.4645854125963524,-0.4645854125963524,0.9998738776385595,0.0004034258449700535
-0.4640605354332365,-0.4640605354332365,0.9996910298410888,0.00042237267693108536
-0.46320378258242273,-0.46320378258242273,1.0001672964681148,0.00038451274911354956
-0.46261787503026425,-0.46261787503026425,1.0004158654718573,0.0003440596358397809
-0.4623072123824386,-0.4623072123824386,0.9998274016523027,0.00034393691730574475
-0.4618833191896556,-0.4618833191896556,0.9998061234913381,0.0003453798842597489
-0.4612944894353859,-0.4612944894353859,0.9998275892355106,0.00038478405277098343
-0.46059875302016734,-0.46059875302016734,0.9997986584354102,0.00040659040770272035
-0.45972037510655356,-0.45972037510655356,1.0002699184808002,0.00041842666992074047
-0.45897913295484616,-0.45897913295484616,1.0001188974317938,0.00038666138106733703
-0.45800356577383355,-0.45800356577383355,0.9999218832790481,0.0003642967184455595
-0.4561987999943085,-0.4561987999943085,0.9998998737944123,0.00034813250884072663
-0.45573477308789734,-0.45573477308789734,0.9999623682941532,0.00038335343936519154
-0.45467158954415937,-0.45467158954415937,0.9994295945347824,0.0004030205793185752
-0.45402509892883247,-0.45402509892883247,1.0002506107670934,0.00040521637774656744
-0.4532893424795475,-0.4532893424795475,1.000021873580888,0.0004137199009201652
-0.45280321200552864,-0.45280321200552864,0.9999061470845032,0.0003445048485069683
-0.45243861530907453,-0.45243861530907453,0.9999765249793334,0.0003219083414367298
-0.45214088988432194,-0.45214088988432194,1.0003372293663952,0.000343925250422144
-0.4517394575232174,-0.4517394575232174,0.9996749218917069,0.0003868133021312463
-0.45108109709690325,-0.45108109709690325,0.9997023973881282,0.00038435673395879075
-0.45023818499757906,-0.45023818499757906,0.9998902873214389,0.00041425314449745974
-0.4495439235586673,-0.4495439235586673,1.000176198453633,0.0004244736061923252
-0.4488190680916887,-0.4488190680916887,1.000283800115764,0.00038716737792858735
-0.4481051633338211,-0.4481051633338211,0.9999751641432258,0.00040177276249654827
-0.4466798567591468,-0.4466798567591468,1.000448979292,0.000365016643208032
-0.4459190834284527,-0.4459190834284527,1.0003481329527122,0.00032312941173815753
-0.44503504944732414,-0.44503504944732414,0.9998601619763339,0.0004031403033190062
-0.44439342025725637,-0.44439342025725637,1.000154626523979,0.0004044738992140187
-0.44374551926157435,-0.44374551926157435,1.0001425920774731,0.0004061502911765767
-0.442963832145324,-0.442963832145324,0.9998748928866942,0.0003445478152918237
-0.4425037514331052,-0.4425037514331052,1.0002489628495101,0.00032185962756126735
-0.44211837797483894,-0.44211837797483894,0.9997490535983298,0.00036886201184630456
-0.441680094046751,-0.441680094046751,0.9997468310985397,0.00036569388629186547
-0.4411118198244367,-0.4411118198244367,1.0003509543268947,0.0004029559863419151
-0.4401542181294644,-0.4401542181294644,0.9995216958222946,0.0004109696809626546
-0.43939942660799713,-0.43939942660799713,1.0001346767220987,0.00043105378231612473
-0.43855579603405204,-0.43855579603405204,1.0002264820751798,0.0003841223701728162
-0.43695942632621154,-0.43695942632621154,0.9999250439870842,0.0003850866962804173
-0.43613045824458824,-0.43613045824458824,1.0000615794468353,0.0003246271226051663
-0.4357030735729495,-0.4357030735729495,1.000173151551584,0.0003927416305871113
-0.4349793444183888,-0.4349793444183888,0.9997918292360012,0.00044656726927925345
-0.434530865054694,-0.434530865054694,1.0001923120993368,0.00040423714629931543
-0.4338014158362057,-0.4338014158362057,0.9998419104332326,0.00042328567688818734
-0.4330838198744459,-0.4330838198744459,0.999718917412997,0.00036488120124051574
-0.43273086967528795,-0.43273086967528795,1.0005525173558332,0.0003440508234915874
-0.43240550825721585,-0.43240550825721585,0.9999051550602239,0.000331025409154618
-0.4318425283476245,-0.4318425283476245,1.0000671694357053,0.0003662527592660794
-0.4311633649165742,-0.4311633649165742,0.9998650321588484,0.00038803475960900237
-0.43039462030283177,-0.43039462030283177,1.0002557359994264,0.00041658617263457627
-0.42964560441614597,-0.42964560441614597,0.999807488004399,0.00040602574159009214
-0.42867080923751927,-0.42867080923751927,0.9999327109621241,0.0003644138196779496
-0.42693091977853326,-0.42693091977853326,1.0005892056042136,0.00037374979206701196
-0.42614113228337375,-0.42614113228337375,1.0006059822122055,0.00038162803997510245
-0.4252139335178072,-0.4252139335178072,1.0001035040825796,0.0003843756617800312
-0.42448208381538277,-0.42448208381538277,0.9998349691066801,0.0004231268417194383
-0.42365913627436386,-0.42365913627436386,1.0000334409811171,0.0003843110049799937
-0.4230921579437563,-0.4230921579437563,1.00027910369956,0.0003444380100284171
-0.4227333226328483,-0.4227333226328483,1.000137105136843,0.00032183868814633914
-0.4223941224830924,-0.4223941224830924,0.9999071349114708,0.00034390215654714394
-0.4219003436213825,-0.4219003436213825,0.9997532237853379,0.0003670959934545501
-0.4212528911739355,-0.4212528911739355,1.0003891963761187,0.00040302664128533794
-0.4203486289625289,-0.4203486289625289,1.0001129712305423,0.000426359820067962
-0.41959519125521183,-0.41959519125521183,0.9999308678961739,0.000385204835477038
-0.4188394364726264,-0.4188394364726264,1.0001428229502274,0.0004057224388709168
-0.4176601824903628,-0.4176601824903628,0.9997326226408141,0.00034762611810798386
-0.4164244843093911,-0.4164244843093911,0.9998073142329134,0.00034453612304822677
-0.4158768710301956,-0.4158768710301956,1.0000591257128124,0.0003716851711506901
-0.41496656578965485,-0.41496656578965485,0.9998543841767548,0.00040322817255465415
-0.4144049354828894,-0.4144049354828894,0.9999728139386438,0.00042462278578031895
-0.413510318097542,-0.413510318097542,1.00006123398636,0.000365376112324582
-0.4129377250152174,-0.4129377250152174,1.0000298585997445,0.00032173487712156576
-0.41257918904302643,-0.41257918904302643,1.000689022982172,0.0003256586082603549
-0.41217762293235866,-0.41217762293235866,0.9998999649946025,0.0004037692901966653
-0.41166832962189803,-0.41166832962189803,0.9998406556370195,0.00036475081146704325
-0.4108502202259842,-0.4108502202259842,0.9996531970942053,0.00042803927394761184
-0.4098340270429617,-0.4098340270429617,1.0000939329876932,0.00042989360839278525
-0.4090656413231045,-0.4090656413231045,1.0001287750577288,0.0003841733918272537
-0.4074822938360739,-0.4074822938360739,0.9995959721459681,0.0003653877998137714
-0.40641955374740063,-0.40641955374740063,0.9998296003272358,0.00032171953744987544
-0.4058653132087784,-0.4058653132087784,0.9998988350469673,0.0003866294101689294
-0.4050756633281708,-0.4050756633281708,1.000444983003328,0.00040320135419186627
-0.4043627931590891,-0.4043627931590891,1.0003703938362007,0.00042193793367448695
-0.40366678735008465,-0.40366678735008465,0.9997709439345766,0.0003655885828956126
-0.4031454769137781,-0.4031454769137781,0.9998044032049336,0.00032184775503019553
-0.4028461601381423,-0.4028461601381423,1.000070897814979,0.00034390404217683827
-0.4023707119835308,-0.4023707119835308,1.0000435006989599,0.0003528053130415094
-0.4017781919043045,-0.4017781919043045,1.0001204149924845,0.0003845276466184695
-0.40105461722414476,-0.40105461722414476,1.0002233436705583,0.0004187797295506837
-0.4002487369201845,-0.4002487369201845,0.9998521321801572,0.0004038295811167841
-0.3994341082783649,-0.3994341082783649,0.99961033917895,0.00038638780928696733
-0.39844934951688626,-0.39844934951688626,0.999709279451578,0.00036430757862077696
-0.39656505807070064,-0.39656505807070064,0.9998814291569069,0.00032167221784393956
-0.39579505210276694,-0.39579505210276694,1.0005089657050352,0.0003844118149967563
-0.39490012962487525,-0.39490012962487525,1.0002057826009967,0.0004230872607241188
-0.3941339557932224,-0.3941339557932224,1.0002451498840301,0.0004030843309091608
-0.39350050090870353,-0.39350050090870353,0.9997297267160992,0.0003442900747328381
-0.39310341568198054,-0.39310341568198054,0.9999452037734295,0.0003217527952762082
-0.3927325064461911,-0.3927325064461911,0.9996611140620443,0.0003438568626346201
-0.3923562003299594,-0.3923562003299594,1.0003100297864242,0.0003666606457856725
-0.3916961897106376,-0.3916961897106376,0.9997524807668345,0.0003843937978489303
-0.39101437977515163,-0.39101437977515163,0.9997626163054945,0.0003888638283795188
-0.3901860468205996,-0.3901860468205996,0.9998312423492683,0.00042187107729769617
-0.3894501420407323,-0.3894501420407323,1.0000164458273564,0.0004054886869889718
-0.38856105736631436,-0.38856105736631436,0.9999065679531416,0.0003469336552930172
-0.38703289461845997,-0.38703289461845997,1.0004689704277083,0.0003649776102727525
-0.3864722486352548,-0.3864722486352548,0.9998632690566425,0.000350897734207664
-0.3855511101864977,-0.3855511101864977,0.9996725028800562,0.0004031216704046851
-0.3848337442585034,-0.3848337442585034,1.0000808500254095,0.00040616843881610356
-0.3841612997901393,-0.3841612997901393,1.0002005727563799,0.0003941146202351165
-0.38347371761046817,-0.38347371761046817,0.9998884836064679,0.00036453647684601
-0.3830773860827321,-0.3830773860827321,0.9999964977561767,0.0003217048072034857
-0.38276139220397454,-0.38276139220397454,0.9999688834155842,0.00036473394561893884
-0.38240227713540664,-0.38240227713540664,1.0001313970228392,0.0003682387895344897
-0.3818760145833949,-0.3818760145833949,0.9998369307497178,0.00037183503412145365
-0.38118613878905305,-0.38118613878905305,1.000280863091578,0.00042762165384623913
-0.3801504891132936,-0.3801504891132936,0.9998929499362864,0.0004293829596510421
-0.37936969769361895,-0.37936969769361895,1.0000778993121302,0.0003842080252348471
-0.3778434171050321,-0.3778434171050321,1.000576089056985,0.0003654171529587568
-0.37670972002961206,-0.37670972002961206,0.9997232397178172,0.0003216705298539484
-0.3762580476788571,-0.3762580476788571,0.9998343230942185,0.0003936854921793089
-0.3753751249692868,-0.3753751249692868,0.9995541265335326,0.0003849047787842369
-0.37469714088365436,-0.37469714088365436,0.9995855233789959,0.0004218658462049844
-0.37394134618807584,-0.37394134618807584,0.9999819461663003,0.0003446687585928741
-0.3733820548397489,-0.3733820548397489,0.9998357240248061,0.0003218907628613291
-0.3730764748121146,-0.3730764748121146,1.0001975918080095,0.00034379999814593276
-0.3725632529734867,-0.3725632529734867,1.0003454223135213,0.0003722612242351754
-0.3719180930260336,-0.3719180930260336,1.000339752263908,0.0003649798943630404
-0.37121842004708017,-0.37121842004708017,1.0001761089465782,0.0004349610494282237
-0.3705248997634044,-0.3705248997634044,0.9998954277757797,0.00041841740830232405
-0.3697980041906703,-0.3697980041906703,0.9993448162206808,0.000404916461418586
-0.3690848420665134,-0.3690848420665134,0.999910578934746,0.0003644588554892745
-0.3670426229597069,-0.3670426229597069,0.9994564450076588,0.0003215062999206022
-0.36635903341230003,-0.36635903341230003,1.0000765412774126,0.0003844970214309131
-0.365456623211503,-0.365456623211503,0.9996507401577948,0.0004028442344067842
-0.364818038282101,-0.364818038282101,1.0003768355762817,0.0004051977710391952
-0.363983018961153,-0.363983018961153,1.0000460978366599,0.00036486170518336056
-0.3635510207095649,-0.3635510207095649,1.0003230458753016,0.00034430316662785644
-0.3630999441840686,-0.3630999441840686,0.9996197529485661,0.00034393749889217236
-0.36281442837789657,-0.36281442837789657,0.9998914812439474,0.00037850394946794234
-0.3622473328490742,-0.3622473328490742,1.0002582186344462,0.0003847994977083277
-0.36162337014102375,-0.36162337014102375,1.000120624048177,0.00038852349860522785
-0.36082371886295733,-0.36082371886295733,1.0001229929279973,0.0004208546334857792
-0.3600606649706606,-0.3600606649706606,1.0001406567581985,0.0003867574108882702
-0.35925021471921353,-0.35925021471921353,0.999456652526112,0.00038419772688873347
-0.35746239697909915,-0.35746239697909915,1.0001425582626122,0.0003438472592473698
-0.35675556570640765,-0.35675556570640765,1.000042361647578,0.0003504143319586968
-0.35587408448336644,-0.35587408448336644,1.000377792598729,0.0004033587491283783
-0.35517054951633326,-0.35517054951633326,1.000291875007763,0.0004037093028410912
-0.35450707415875515,-0.35450707415875515,1.000059811715869,0.0004053247328521819
-0.35384148361044937,-0.35384148361044937,0.9999770807177182,0.0003442732498994223
-0.3533644606417511,-0.3533644606417511,1.000501977552588,0.0003217749991911202
-0.3530794082704233,-0.3530794082704233,1.0001650854885338,0.0003648668631890346
-0.35270002416800705,-0.35270002416800705,1.000253468150968,0.0003679285219409607
-0.3521593148005195,-0.3521593148005195,1.0003823933637466,0.00038446364253903216
-0.3512483914324548,-0.3512483914324548,0.9997984746837852,0.0004273009871678152
-0.35034954065631607,-0.35034954065631607,1.0003694434398305,0.0004286240319908586
-0.34945655351621097,-0.34945655351621097,0.999901431169012,0.00036437626308541307
-0.3477110766631085,-0.3477110766631085,0.9997949902306875,0.00040327841484639906
-0.3469691443548072,-0.3469691443548072,1.0002621468556885,0.0003516301642766871
-0.34635280041838995,-0.34635280041838995,0.9996784965712369,0.0003863334809633617
-0.3454573946306482,-0.3454573946306482,1.0000244968743717,0.00040425705966140775
-0.34481211854144933,-0.34481211854144933,1.0004680691690748,0.00040687027919567514
-0.3440850327402586,-0.3440850327402586,0.999706179010168,0.0003447405477357959
-0.3436312965117395,-0.3436312965117395,0.9992619486004145,0.0003438617414831314
-0.34328927435562945,-0.34328927435562945,1.00053354723446,0.00032863774919646073
-0.34273273331054954,-0.34273273331054954,1.000281361119942,0.0003660947698735559
-0.34221520157298074,-0.34221520157298074,0.9996057143850384,0.00038424944103825754
-0.34143560329684985,-0.34143560329684985,0.999776278115888,0.0004310619525468748
-0.34073935719789006,-0.34073935719789006,0.999771512483283,0.00043479769642645725
-0.34006728167296385,-0.34006728167296385,1.000060125504659,0.00039357132167131486
-0.3393791434180457,-0.3393791434180457,1.0000685974214991,0.00036432402782605674
-0.3377089882909786,-0.3377089882909786,1.0001568918988286,0.00037118356698648
-0.3369116085959831,-0.3369116085959831,1.000141711953421,0.00036474238461937366
-0.3360672941751545,-0.3360672941751545,1.0002855238230197,0.00038416247911759224
-0.33545165960968004,-0.33545165960968004,1.0002743791741897,0.00042267047271453146
-0.3346065338642802,-0.3346065338642802,1.0004676971962987,0.0003842170202511641
-0.33395983635564336,-0.33395983635564336,0.9997738823082646,0.0003443180729512151
-0.33357146724301856,-0.33357146724301856,0.9999635203502469,0.0003218583630489617
-0.33322988890868144,-0.33322988890868144,0.9998675145050162,0.00036443658394801006
-0.3326838023844175,-0.3326838023844175,1.000049826805519,0.000366917261451255
-0.3320569733652519,-0.3320569733652519,0.9994251773738625,0.0003843073389284546
-0.3313115207158262,-0.3313115207158262,1.0007765502182475,0.00042313619065145514
-0.3305553940474056,-0.3305553940474056,1.0000947472082564,0.00040646527488206183
-0.32975848752830644,-0.32975848752830644,0.9994096953830935,0.00038398371079412935
-0.3278666113183135,-0.3278666113183135,0.999691344989788,0.0003216271763194842
-0.326996270797099,-0.326996270797099,0.9995149628376255,0.0004109166155081975
-0.3261909461638425,-0.3261909461638425,1.0003323095762622,0.0003852917455556337
-0.32548998135025614,-0.32548998135025614,1.0003064437813196,0.00040366050418566053
-0.32482419430452864,-0.32482419430452864,1.000215780400266,0.00040517578382858203
-0.3241343291592784,-0.3241343291592784,1.0000210583496465,0.00034436073256403037
-0.3237283689319156,-0.3237283689319156,0.9999390695002862,0.00034442811204407457
-0.3234306286438368,-0.3234306286438368,0.9998033614536489,0.00036471779058182106
-0.3231255557911936,-0.3231255557911936,0.9999454682753889,0.00036770031791830387
-0.32254679054021834,-0.32254679054021834,0.9998533440642452,0.00038422809996260267
-0.3218494311586255,-0.3218494311586255,0.9998364832367089,0.0004093371323784194
