time,time,flux,flux_err
-0.4998531098710373,-0.4998531098710373,1.0000504294355435,0.00016095022483741855
-0.4994055813003797,-0.4994055813003797,0.9998275266166653,0.00016082905166642055
-0.49912501873332077,-0.49912501873332077,0.999970721986369,0.00015595329901018696
-0.49888703372416787,-0.49888703372416787,0.9999911733246769,0.00015087474177702246
-0.49875295535020997,-0.49875295535020997,1.000244907529683,0.0001472817144850585
-0.4986419259221293,-0.4986419259221293,1.0001921622957428,0.00014721653655852524
-0.4985549321383587,-0.4985549321383587,1.0001372572230447,0.00014774033330085747
-0.49847392514639066,-0.49847392514639066,0.9999264409937171,0.00014734358613790332
-0.4983592243224848,-0.4983592243224848,0.9999498120025085,0.00014736828620399626
-0.49825317111826734,-0.49825317111826734,0.999978950890425,0.00014783882887310474
-0.49816959015879547,-0.49816959015879547,0.9996522561397521,0.0001525708717375092
-0.4981217569336877,-0.4981217569336877,0.9999653080097854,0.000150798403308782
-0.49809283417271216,-0.49809283417271216,0.9998935230668742,0.00015004109446000227
-0.49804226848937105,-0.49804226848937105,1.0003630687602647,0.0001526455702804473
-0.49800868983438706,-0.49800868983438706,0.999790238130846,0.00015027565817661033
-0.49796537364745747,-0.49796537364745747,1.0000894912268472,0.00015262218718957354
-0.49792230895836836,-0.49792230895836836,0.9999597795906066,0.00014946588604045432
-0.4978890529760974,-0.4978890529760974,1.000088062356948,0.00015339228379089573
-0.4978445650340291,-0.4978445650340291,1.0001295298556325,0.00014915553665118816
-0.4978092623365228,-0.4978092623365228,1.0000692322466371,0.00015275064803294604
-0.49776947784848746,-0.49776947784848746,1.0001353211082304,0.00015265736742008584
-0.4977272154399543,-0.4977272154399543,1.0000781649120891,0.00014728343289359074
-0.49769834078324493,-0.49769834078324493,0.9998918082849642,0.00015573613935969375
-0.497641939955065,-0.497641939955065,0.9999635219177797,0.00015479159470052297
-0.49757610335364005,-0.49757610335364005,0.9999860475711747,0.00015755240796860983
-0.49750519293011164,-0.49750519293011164,1.0001661988254689,0.0001580734503091304
-0.4974321778776357,-0.4974321778776357,0.999913215319585,0.0001579481539995026
-0.4973394372209441,-0.4973394372209441,1.000099338352598,0.00015863899950403459
-0.49717936799133894,-0.49717936799133894,0.9998895109690679,0.0001544524538159442
-0.4970162256722688,-0.4970162256722688,0.9997826792953719,0.00015369737289131814
-0.4968612377080717,-0.4968612377080717,1.0000919735719032,0.0001564531389797542
-0.49670371128158874,-0.49670371128158874,0.9998686191760415,0.00015335175848739448
-0.49657223222602626,-0.49657223222602626,0.9998769391324057,0.00015339534548786482
-0.49647166090726386,-0.49647166090726386,1.000069517600429,0.0001523500124127881
-0.4963888222220703,-0.4963888222220703,1.0002291156858745,0.00014733395133354336
-0.4962919160127058,-0.4962919160127058,0.9999248844423505,0.00015015068362141554
-0.496209588185593,-0.496209588185593,0.9997970612435031,0.00015027976030427653
-0.4961154684075154,-0.4961154684075154,0.9998287825810458,0.00014696397421320559
-0.4959919158136472,-0.4959919158136472,0.9999378712188264,0.0001506798830541188
-0.49586652000434694,-0.49586652000434694,1.0001365313714852,0.00014851731063521487
-0.4956854367861524,-0.4956854367861524,0.9998202950685002,0.0001496160592272874
-0.4955263413969078,-0.4955263413969078,0.9999661942778767,0.00015629127531571012
-0.4954721444490133,-0.4954721444490133,0.9998121990952068,0.00015688932826220155
-0.49539848911663287,-0.49539848911663287,0.9998012433162498,0.0001552667547758522
-0.4953199562092777,-0.4953199562092777,1.0000716954934992,0.00015581023507722102
-0.4952316745868302,-0.4952316745868302,0.9998507181324413,0.00015812634707062435
-0.49512971650547116,-0.49512971650547116,0.9999052533238727,0.00015795833663136022
-0.49505274968541924,-0.49505274968541924,0.999886090546297,0.00015548933666331179
-0.494986295986746,-0.494986295986746,0.9998919759172373,0.00015448329520618547
-0.4949203284690157,-0.4949203284690157,1.0000592324908664,0.00015637690637821902
-0.49488926283665935,-0.49488926283665935,0.9998327363346802,0.00015474943126543832
-0.49483512931037693,-0.49483512931037693,1.0001343293975415,0.00015350764437263828
-0.4947911614013719,-0.4947911614013719,1.000033776801617,0.00015447061835132872
-0.494742512339144,-0.494742512339144,1.0001620710904182,0.00015639166075759298
-0.4946914834232302,-0.4946914834232302,0.9998903960612857,0.00015530802753220015
-0.4946141123538837,-0.4946141123538837,1.0000809036155291,0.00015288679214808638
-0.49453863499220463,-0.49453863499220463,1.0002088070482351,0.00015662249162230068
-0.4944765006468515,-0.4944765006468515,0.9998998336895347,0.00015885345086400754
-0.4944190543479635,-0.4944190543479635,0.9999081660409759,0.00015822178351161496
-0.49436327001894825,-0.49436327001894825,0.9999980573600833,0.0001561680039711842
-0.494302789955691,-0.494302789955691,1.0001504245365969,0.000156137713370086
-0.49425908112170874,-0.49425908112170874,0.9999160029877479,0.00015661248223926115
-0.4942220966331661,-0.4942220966331661,1.0002025758422466,0.0001572559094686287
-0.49418608974228845,-0.49418608974228845,1.0002489478543897,0.00015515142853098752
-0.49414429001772076,-0.49414429001772076,1.0000134793699242,0.0001588271068103685
-0.494093413266819,-0.494093413266819,0.9998975002155968,0.00015599160407546523
-0.49403990700811845,-0.49403990700811845,0.9999209280900674,0.00015548622860457522
-0.4939320144825615,-0.4939320144825615,0.9999042213655436,0.00015573989621455773
-0.4938722875755047,-0.4938722875755047,0.99996043762272,0.00015724460845978065
-0.49383951010677263,-0.49383951010677263,0.9997560854777212,0.0001541541781508533
-0.4937043696656474,-0.4937043696656474,0.9997313496061851,0.00015263077044298353
-0.4935630474923528,-0.4935630474923528,1.0002089213451533,0.00015116140962544112
-0.49341834018268854,-0.49341834018268854,1.000032008166619,0.00015258707072316442
-0.49329079437011386,-0.49329079437011386,0.999879287990459,0.00015247716391103425
-0.49319761008373464,-0.49319761008373464,0.999799154560273,0.00015221012011420865
-0.49315912451274924,-0.49315912451274924,0.9997004134633292,0.0001580614964492319
-0.49313392668991585,-0.49313392668991585,0.9999258356751184,0.00015803224647549448
-0.49311807424528525,-0.49311807424528525,1.0000520500254526,0.00015468100265758102
-0.4931035258079646,-0.4931035258079646,1.0002074634589797,0.00015800706907118323
-0.4930852982404758,-0.4930852982404758,0.9998412097307051,0.0001580327504471113
-0.49306998247629963,-0.49306998247629963,0.9999777220289385,0.00015803916134958342
-0.4930592843287741,-0.4930592843287741,0.9999823256383247,0.00015540660888693037
-0.49304977885331025,-0.49304977885331025,1.0000833875926107,0.00015802877988540994
-0.493043649836909,-0.493043649836909,1.0000527132280725,0.00015836191096235854
-0.49301739303627984,-0.49301739303627984,1.0000558677143345,0.0001517909398037104
-0.49289830133056967,-0.49289830133056967,1.0000030921337506,0.00015541370894366625
-0.49275122123362963,-0.49275122123362963,0.9998013487996713,0.0001511408801240933
-0.49258445712330284,-0.49258445712330284,1.0001894900216575,0.00015523846648422067
-0.49244028463435824,-0.49244028463435824,0.9999177694678292,0.00015119831227795568
-0.4922348693755339,-0.4922348693755339,1.0002009174855122,0.0001483281963469679
-0.4920860151585657,-0.4920860151585657,1.0000066789961053,0.00014924813988819645
-0.49195311155490346,-0.49195311155490346,1.0001663825688805,0.00015309290905778816
-0.4918038004849222,-0.4918038004849222,1.000277399491725,0.00015399452064408624
-0.49167490914696826,-0.49167490914696826,0.9999778606233658,0.00015400722985481227
-0.4915198144502938,-0.4915198144502938,0.9999191755663921,0.0001553169732138487
-0.49133219895884395,-0.49133219895884395,0.9999272078468955,0.00015626609929531116
-0.4909816255851183,-0.4909816255851183,1.0003052981366387,0.0001572462759262176
-0.4906270878665964,-0.4906270878665964,0.9998090943329453,0.0001547448433353854
-0.4903059233329259,-0.4903059233329259,1.0001372700616578,0.0001573391937734278
-0.4899189191244659,-0.4899189191244659,0.9998195740757142,0.00015267433659822428
-0.48966140038974115,-0.48966140038974115,0.9998776460014195,0.00015269773392331213
-0.48941558141232233,-0.48941558141232233,1.0000366351955683,0.00015451095728357197
-0.4893295390356798,-0.4893295390356798,0.9997323869102533,0.00016481645533013403
-0.48930830795143265,-0.48930830795143265,1.0001645776085553,0.00016485969208859013
-0.4892907128145453,-0.4892907128145453,1.0000831581362526,0.0001623337178707633
-0.48927755494078157,-0.48927755494078157,0.9999859529420252,0.00015993085178681428
-0.4892589183145901,-0.4892589183145901,1.0000147108722035,0.0001649053495509488
-0.48924141317838804,-0.48924141317838804,0.9999161161067821,0.000163649591197896
-0.48922368496714624,-0.48922368496714624,0.9998449479544217,0.00016491434348903528
-0.4892049734538887,-0.4892049734538887,1.0000735876902074,0.00016496200273462936
-0.4891885229386389,-0.4891885229386389,1.0000008516862608,0.00016348109569866385
-0.48917420030047654,-0.48917420030047654,0.9999869113191593,0.00016165814378163912
-0.4890982869779691,-0.4890982869779691,0.9999664059263405,0.00017556030473881766
-0.48907539243227804,-0.48907539243227804,1.00002586070506,0.00017951936509595024
-0.4890445067852852,-0.4890445067852852,1.0000220355803853,0.00016905112248153097
-0.4888998630878632,-0.4888998630878632,0.9996587072673329,0.00014920102926503984
-0.4887892370345071,-0.4887892370345071,1.000007285180441,0.00014757214657336591
-0.48868503835547017,-0.48868503835547017,1.000022176572791,0.0001484613757163405
-0.48856717822054635,-0.48856717822054635,0.9999309816124186,0.00014950866834041526
-0.4883780844975263,-0.4883780844975263,1.0000453783219245,0.00014912514110878233
-0.48819462212704823,-0.48819462212704823,1.0001265452718817,0.0001538753236656743
-0.4880748480733018,-0.4880748480733018,0.9999710664135797,0.00015961189126038
-0.4880238363810349,-0.4880238363810349,0.9995729945016254,0.00016438687431953453
-0.4879745769590954,-0.4879745769590954,0.9998198284032369,0.00015780890829351346
-0.48793206122936683,-0.48793206122936683,1.0001040474693608,0.00016433089611541665
-0.48786642300401584,-0.48786642300401584,1.0000163072340098,0.0001594128565216971
-0.4878186540387105,-0.4878186540387105,0.9999956399342114,0.00015691879123430462
-0.48776743322669064,-0.48776743322669064,1.0000500141629782,0.0001593688649824812
-0.48771895682584726,-0.48771895682584726,0.9999440949810662,0.0001568490821500492
-0.48766855874564496,-0.48766855874564496,0.9997193765517636,0.00015930678756660447
-0.4876192137700855,-0.4876192137700855,1.0000032136412393,0.00015680076598511026
-0.4875679004355334,-0.4875679004355334,0.9998465375484678,0.00015937916123759418
-0.48751849352847787,-0.48751849352847787,1.0001183398073388,0.00016261874151207487
-0.4874696688450058,-0.4874696688450058,0.9999966362744095,0.0001568084398715923
-0.487414413318038,-0.487414413318038,0.9999202380259641,0.0001619612217249469
-0.48734539823635714,-0.48734539823635714,1.0002091892449643,0.00014826110151579106
-0.4872628065379104,-0.4872628065379104,0.9999896362990164,0.00016087050180488798
-0.4872189049434382,-0.4872189049434382,1.0001236773211963,0.00016894460817289597
-0.4871888377892901,-0.4871888377892901,1.0001208393091887,0.00016725496542718677
-0.4871538045015768,-0.4871538045015768,1.000142910880205,0.00016337500326129683
-0.48711826743819986,-0.48711826743819986,0.9997459372792863,0.000162478378378142
-0.4870420209685108,-0.4870420209685108,0.9998990233586674,0.00014628476023900174
-0.4869042283549788,-0.4869042283549788,1.0003492950934307,0.00015042727394022328
-0.4867850689232,-0.4867850689232,1.000260166821357,0.0001487838138626242
-0.48668401227041613,-0.48668401227041613,0.9999207133039547,0.00015258593558625574
-0.4866354435798712,-0.4866354435798712,0.9999185329642835,0.0001590175686954128
-0.48657367671548857,-0.48657367671548857,1.0001170953331548,0.0001635859962517935
-0.4865347487517283,-0.4865347487517283,0.9999411721840211,0.00015550558166856258
-0.48648735840979496,-0.48648735840979496,0.999534039209332,0.00015938702707486127
-0.48644011103897355,-0.48644011103897355,1.0000090798696415,0.00016572149730349436
-0.4863956747227348,-0.4863956747227348,1.0000366120155528,0.00016102405691176277
-0.4863373384810984,-0.4863373384810984,0.9998058332017369,0.000162530866687928
-0.4862867162097245,-0.4862867162097245,0.9999504233101517,0.00016098716825455446
-0.48619128720310983,-0.48619128720310983,1.000007404301585,0.00015141679554693616
-0.48602823633846126,-0.48602823633846126,0.9999637440406565,0.0001471123804926572
-0.48576987282722256,-0.48576987282722256,0.9999424060508412,0.0001458192448863504
-0.48567787553038216,-0.48567787553038216,1.000149352626446,0.00015120403252599616
-0.485601816388953,-0.485601816388953,0.9999213859648892,0.0001503816771318034
-0.4855121348373359,-0.4855121348373359,0.9998262097021513,0.00015306233764956264
-0.4854140156268841,-0.4854140156268841,1.0000757898677617,0.0001500309610073836
-0.4853025383141357,-0.4853025383141357,0.999930209384633,0.0001513942215263468
-0.4851721126964549,-0.4851721126964549,0.999929809420605,0.00015119135879860274
-0.48501774268224834,-0.48501774268224834,0.9996964127661542,0.00015633251707854564
-0.4848876739953994,-0.4848876739953994,1.000271956699116,0.00015527628418714241
-0.4847301007263013,-0.4847301007263013,0.9999520486049132,0.00014738256334533383
-0.48459488050139043,-0.48459488050139043,1.0002191534264369,0.0001541583450079161
-0.48444711104675664,-0.48444711104675664,0.9998700785964125,0.00014497502858218738
-0.48431570730754175,-0.48431570730754175,1.0001659773066909,0.00014543275429884097
-0.48417756395065226,-0.48417756395065226,1.0001797176462612,0.00015087648829467058
-0.4839798262051772,-0.4839798262051772,0.9998354655049202,0.0001617410322126768
-0.48386630053428237,-0.48386630053428237,1.0000698575428286,0.00016035675772905843
-0.48377197260560934,-0.48377197260560934,1.0002105553311866,0.0001569573706215821
-0.483547084312886,-0.483547084312886,0.9998826032133042,0.0001495408353768232
-0.4833766802519676,-0.4833766802519676,0.9999522230032145,0.0001462482687132863
-0.4832305145624559,-0.4832305145624559,0.9999688928546083,0.0001467117168194614
-0.48305498927365986,-0.48305498927365986,0.9999281350790575,0.0001504062566902527
-0.4829043964127777,-0.4829043964127777,1.000041180045058,0.00015199371145695973
-0.48278071658714905,-0.48278071658714905,1.00005565673431,0.00015339886311218143
-0.4826609754949459,-0.4826609754949459,0.9999723065896428,0.0001550371706861517
-0.4825456150530954,-0.4825456150530954,0.9998162771982889,0.00015231625094577756
-0.4821865363366669,-0.4821865363366669,1.0001371645108161,0.0001440985985907771
-0.48192481881706045,-0.48192481881706045,1.0000668166925015,0.00014435236728862366
-0.48164541529258714,-0.48164541529258714,1.0000813208149837,0.00014430889288087346
-0.48147444839560194,-0.48147444839560194,1.000099518839224,0.00014391742563366018
-0.48127473410131644,-0.48127473410131644,1.0003398746957723,0.0001493956321353697
-0.4809469996689586,-0.4809469996689586,1.0000521917516463,0.00017164877500945437
-0.48061472105036956,-0.48061472105036956,0.9999220147525889,0.0001592305787787162
-0.4803118785770494,-0.4803118785770494,0.99996774118118,0.00015985430775018058
-0.48013907358399593,-0.48013907358399593,0.9999490503468655,0.00015760015899533375
-0.4797327363601653,-0.4797327363601653,0.9999467584073297,0.00015211318447659654
-0.4793486942959134,-0.4793486942959134,0.9999659755947075,0.0001496998292637453
-0.4790017332255957,-0.4790017332255957,0.9998724338779337,0.0001475434238021758
-0.47867659909534266,-0.47867659909534266,0.9999795606505595,0.0001486443508382086
-0.478563979548926,-0.478563979548926,1.0001355948164758,0.00015136010692468678
-0.47841551458550385,-0.47841551458550385,1.0000345907324266,0.00015151133746808826
-0.4781056755426107,-0.4781056755426107,0.999828558288638,0.0001478120605356317
-0.477497449493967,-0.477497449493967,0.9999154271886679,0.0001452056777891101
-0.4768723167362623,-0.4768723167362623,0.9998293249770658,0.00014459051130250237
-0.47639800082397415,-0.47639800082397415,0.9997849063375035,0.00015842363423917546
-0.4761367508996045,-0.4761367508996045,1.0000263903897886,0.0001591632277968565
-0.4760207047627773,-0.4760207047627773,0.99967640459044,0.00015799867155677643
-0.4759133907122305,-0.4759133907122305,1.0000925531863474,0.00015362649699607523
-0.47581847196706806,-0.47581847196706806,1.0001201785039557,0.00015887735192481365
-0.4757387328456389,-0.4757387328456389,0.9997374598680991,0.00015284042762171943
-0.4756243548297789,-0.4756243548297789,1.0001765465219452,0.0001575379189741121
-0.47543385334720367,-0.47543385334720367,0.9999652956651275,0.00015414041851555916
-0.4751702477238723,-0.4751702477238723,0.9999523814134672,0.00015202913133948386
-0.47490312738373175,-0.47490312738373175,0.9999733763650646,0.00015051143598345394
-0.47455775631096914,-0.47455775631096914,0.9998983619205306,0.00015301854450154882
-0.4743440728052519,-0.4743440728052519,1.0001646409890905,0.000151684907242364
-0.47414661530056035,-0.47414661530056035,1.0000576259175715,0.00014787803959835104
-0.47388632334914293,-0.47388632334914293,0.9999990970487633,0.00014972485194040289
-0.4736814376432449,-0.4736814376432449,0.9998800160165622,0.00020564225098579236
-0.4735218173940666,-0.4735218173940666,0.9999670828767471,0.00017069022709363945
-0.4731452441716101,-0.4731452441716101,0.9999195230698448,0.00015598854693750567
-0.47309786854020786,-0.47309786854020786,1.0003743101684872,0.00015804548134054115
-0.47307954491989224,-0.47307954491989224,0.9999129442431475,0.0001580259087429739
-0.4730646522031748,-0.4730646522031748,1.0001953363318108,0.00015807319144907367
-0.47305307756178083,-0.47305307756178083,0.9999278969627039,0.00015807973885784344
-0.47304472965042804,-0.47304472965042804,0.9997678269293717,0.00015803954476009007
-0.4730397938430542,-0.4730397938430542,1.000020057974159,0.00015810306907553413
-0.4730381551984465,-0.4730381551984465,0.9999536829533634,0.0001581090509438866
-0.4730373717218754,-0.4730373717218754,0.9998908104839396,0.00015807158297466396
-0.47286038716410983,-0.47286038716410983,1.0002174684287168,0.00014977458723511132
-0.4726329946090118,-0.4726329946090118,0.999857609592322,0.00014635024531541946
-0.472373280285683,-0.472373280285683,1.0000455500606749,0.00015164915943286932
-0.47217515000811544,-0.47217515000811544,1.0002663390826902,0.0001575413883393711
-0.47195961251854895,-0.47195961251854895,1.0003110653381007,0.00015057829905456026
-0.4717960706431768,-0.4717960706431768,0.9998073009561359,0.00015031095585068985
-0.47159255165897773,-0.47159255165897773,0.9998609007887442,0.00015584023736937776
-0.4713382104848279,-0.4713382104848279,0.9998664506089676,0.0001527582068065006
-0.4711803502170369,-0.4711803502170369,1.0000650599101182,0.00015315317701273748
-0.471041396902001,-0.471041396902001,0.9998886991598004,0.0001503549613046091
-0.47090023879572984,-0.47090023879572984,1.0001078920867175,0.00015316184412232693
-0.47068512290425135,-0.47068512290425135,0.9997949364951699,0.0001558247827166969
-0.4703380834020209,-0.4703380834020209,0.9999999548062671,0.00015854437136653214
-0.4699787241610466,-0.4699787241610466,1.000001701514193,0.0001567895763621812
-0.4696677445434034,-0.4696677445434034,1.000222803740634,0.00015858168692776698
-0.4694074513274245,-0.4694074513274245,1.0002760538848605,0.00016620689207069196
-0.469354340468999,-0.469354340468999,1.00042455629658,0.00018002557072276654
-0.4693205573799787,-0.4693205573799787,1.0002320322205072,0.00017994930032626377
-0.4692919940542197,-0.4692919940542197,1.0001882913157294,0.0001759066462574054
