time,time,flux,flux_err
-0.49990812087999076,-0.49990812087999076,1.000119837910992,0.0002355232268606002
-0.4997760798149102,-0.4997760798149102,0.9998156293516866,0.00023988069190132664
-0.4997151817202393,-0.4997151817202393,1.0001643362450887,0.00024183335061839592
-0.49963904369651574,-0.49963904369651574,1.0000014558955477,0.00023766648900684322
-0.4995067999981984,-0.4995067999981984,1.0001054149724415,0.00020517983826016977
-0.4992930314096157,-0.4992930314096157,1.0003765058971028,0.00020530047008063946
-0.49911107096122576,-0.49911107096122576,1.000084983521055,0.000209519034485629
-0.49901116833862036,-0.49901116833862036,0.9997033264828042,0.00021930357488983776
-0.49890820945438463,-0.49890820945438463,1.000017638409615,0.00021483418815783484
-0.4987860433488095,-0.4987860433488095,1.0003449713029833,0.00020653108722805906
-0.49871872733856437,-0.49871872733856437,1.0000135204325626,0.0002026541253672087
-0.4986345249300939,-0.4986345249300939,0.9999764857579365,0.00021523892891615244
-0.49853091953118567,-0.49853091953118567,0.999871970558998,0.00019084877251362523
-0.49840187070221875,-0.49840187070221875,1.0001232890870606,0.0002030659619635774
-0.4982743509572174,-0.4982743509572174,0.999996275798193,0.00023549687807403194
-0.49815472908885566,-0.49815472908885566,1.000089649296426,0.00020807679749289737
-0.49804347915414837,-0.49804347915414837,1.0000627634940593,0.00025848742679015157
-0.49792823508469153,-0.49792823508469153,0.9999805026883708,0.00022121573811026426
-0.4978315824439051,-0.4978315824439051,0.999971912049598,0.0002180054518308013
-0.4977582261693897,-0.4977582261693897,0.999991023334232,0.00021029232539057822
-0.4976193084301485,-0.4976193084301485,1.000051588340773,0.00021611039542291781
-0.49740023673366524,-0.49740023673366524,0.9997580046928392,0.00023398544064548652
-0.4972106631343195,-0.4972106631343195,0.9996715668288594,0.0001948029148441563
-0.4971279666002374,-0.4971279666002374,1.0000330842202885,0.00021236357260805784
-0.49705191726316117,-0.49705191726316117,0.9998719028768324,0.0002005940868083827
-0.4969358050409937,-0.4969358050409937,1.000080317768037,0.00024071759581786975
-0.49683759983308845,-0.49683759983308845,0.9999270214774862,0.00022119074171196833
-0.49677781789796427,-0.49677781789796427,0.9998957298349896,0.00022688433929612524
-0.496731704488775,-0.496731704488775,1.0000291023698176,0.0002505218276867945
-0.4966170480918663,-0.4966170480918663,1.0001568642559158,0.0002445590294752139
-0.49644373418050236,-0.49644373418050236,0.9999311871788992,0.00019981211710284132
-0.4963190092719742,-0.4963190092719742,1.000188697039367,0.00020221226184791944
-0.4960906611573591,-0.4960906611573591,0.999808891338074,0.00021998933431843212
-0.49596967580291673,-0.49596967580291673,0.9998902611756618,0.00021687285623803675
-0.49586247018014545,-0.49586247018014545,0.9999950952096068,0.0001990422562754051
-0.4957352321682265,-0.4957352321682265,0.9998015796957282,0.00018984212752103745
-0.4956769849333796,-0.4956769849333796,1.0001736794390177,0.0002290679818075425
-0.49559170832289967,-0.49559170832289967,1.000417687277648,0.00021562278467869464
-0.49542721174584586,-0.49542721174584586,0.9999902059541403,0.00021296158627580846
-0.4953650729628862,-0.4953650729628862,1.0002907695949665,0.00020459841233971078
-0.4952380180635373,-0.4952380180635373,0.9998191329194418,0.00025603437842442193
-0.49509992938183134,-0.49509992938183134,0.9997825600826016,0.0002060795420525151
-0.4949964440405893,-0.4949964440405893,1.0001049550367067,0.00020852243748038617
-0.4948702899782802,-0.4948702899782802,1.0002016389566508,0.00020103235471819863
-0.49469551024885733,-0.49469551024885733,0.999693828782131,0.0002225795152004334
-0.49455781867582116,-0.49455781867582116,1.0000496839153905,0.00021495871623695477
-0.4944778018798388,-0.4944778018798388,0.9998976019924832,0.00022505001711866239
-0.4943145625678881,-0.4943145625678881,1.0001274537491835,0.0001974339030242548
-0.49416788342859946,-0.49416788342859946,1.0000851173165175,0.00019057258754870906
-0.4941009707094054,-0.4941009707094054,0.9997414574621203,0.00019664034332214246
-0.49401477143183004,-0.49401477143183004,0.9999561335759338,0.00021580672687351366
-0.49384604049191694,-0.49384604049191694,0.9999070134826402,0.0002453870030907797
-0.49367658715491414,-0.49367658715491414,1.0000761127343276,0.0002398328150698785
-0.4935630535335804,-0.4935630535335804,0.9998132691041031,0.00022847923168789548
-0.49345724094309845,-0.49345724094309845,0.9998037869941424,0.00021558897118576534
-0.4933649614045862,-0.4933649614045862,0.9997325739949041,0.00021083318479290944
-0.4932707350657438,-0.4932707350657438,1.0003206474007662,0.00023449286777473148
-0.49314022395337814,-0.49314022395337814,1.0000029605578273,0.00020799136341709102
-0.4930301523076196,-0.4930301523076196,1.0001478203091931,0.00021294744296537012
-0.4928720677307865,-0.4928720677307865,1.0002234420411582,0.00020114258184180173
-0.4928142620206927,-0.4928142620206927,1.0002702616381576,0.00022421708002602457
-0.49276525791428866,-0.49276525791428866,0.9997758562360607,0.0002187842419750851
-0.49268400734727036,-0.49268400734727036,0.9999341524508443,0.00020291003614975362
-0.492556243983563,-0.492556243983563,0.9997878948678421,0.00021348637269049672
-0.49246895597971163,-0.49246895597971163,1.0001886692378927,0.00022635807919296535
-0.49240581676276635,-0.49240581676276635,1.0001049201078824,0.00022807277064480037
-0.4923235645488603,-0.4923235645488603,1.0000748729919355,0.000232740184591997
-0.4922587195862434,-0.4922587195862434,1.0002284171923819,0.00023771098706874878
-0.49220275546758785,-0.49220275546758785,1.0000924399452624,0.00023090998614478381
-0.49209903990486054,-0.49209903990486054,0.9997526703830012,0.00021561494939720377
-0.4918769904936198,-0.4918769904936198,1.0000371135803294,0.00020209050493495405
-0.4917655437711801,-0.4917655437711801,0.9999199129989238,0.00020232228610467365
-0.49162523940976827,-0.49162523940976827,0.9998855235287273,0.0002183657292945638
-0.49150138316035735,-0.49150138316035735,1.0000715627009018,0.00021234269744107833
-0.49125546475042936,-0.49125546475042936,1.0000035335828046,0.00020957224652529564
-0.49103304020318317,-0.49103304020318317,1.0000868734072659,0.00023660498120797437
-0.490978775050462,-0.490978775050462,1.0001233681600614,0.00021222392064049658
-0.49090411357829,-0.49090411357829,1.0000669705548462,0.00020930264971786027
-0.4907805069313326,-0.4907805069313326,1.000045407442602,0.0002270441929433059
-0.49067297492729267,-0.49067297492729267,1.0001067185127472,0.00023391909863335704
-0.4905825521716906,-0.4905825521716906,1.0003312849593367,0.00022838364095862087
-0.4904856775523513,-0.4904856775523513,1.000183034087558,0.00021526415955346948
-0.4903540281833557,-0.4903540281833557,0.999969471451022,0.00020675165526189187
-0.49019013934812394,-0.49019013934812394,0.9999300691998366,0.0002021315222659889
-0.4899909692365327,-0.4899909692365327,0.9999832973604411,0.00021147337674668815
-0.4898434656701284,-0.4898434656701284,1.0001287118475966,0.00021627676217365058
-0.4897487371395982,-0.4897487371395982,0.9998262106176291,0.00020050479594498484
-0.4896783207776025,-0.4896783207776025,1.0001597489015197,0.00019316158255241285
-0.4895902687996568,-0.4895902687996568,1.0001019943263896,0.00018926494949777242
-0.4894935480064305,-0.4894935480064305,0.9999511119382853,0.00021865935425556012
-0.48933609596351746,-0.48933609596351746,1.0002049527936117,0.00023787282250864634
-0.4892608729431231,-0.4892608729431231,0.9998042179733018,0.0002713758363711757
-0.48917982127022697,-0.48917982127022697,1.0003199526501663,0.00021884843604148314
-0.489089543523005,-0.489089543523005,1.000071069840461,0.0002411364364418033
-0.4889238955329347,-0.4889238955329347,1.000037682206889,0.00021683060566301052
-0.48873347739572637,-0.48873347739572637,1.0001433992455513,0.00021665437588210633
-0.48858285573587634,-0.48858285573587634,1.0000868447782973,0.00022074064857878416
-0.4884492607678112,-0.4884492607678112,1.0003049566473314,0.00022000257815649312
-0.48839949078464995,-0.48839949078464995,0.9997622176479929,0.000187360682929799
-0.48829926555481507,-0.48829926555481507,1.0000557712222327,0.00021312798942289558
-0.4881742006371496,-0.4881742006371496,0.9999472350009881,0.0002433793583510975
-0.4881226249475731,-0.4881226249475731,0.9999993889076755,0.0002162413085687968
-0.4879895468264294,-0.4879895468264294,0.9999789772362909,0.00022243327998835568
-0.48788108437001937,-0.48788108437001937,1.0001146678964459,0.0002283959831485433
-0.4877898352155171,-0.4877898352155171,1.000156909141927,0.00025819586005365207
-0.48772968729317656,-0.48772968729317656,1.0003244365399764,0.00024469693814251856
-0.4876471537609177,-0.4876471537609177,1.0003630873856486,0.00020536957795660608
-0.48753765260407816,-0.48753765260407816,0.9998997100509278,0.00021223313275856845
-0.48740209329116624,-0.48740209329116624,1.0000664407549844,0.00020506743616276305
-0.48713840693526433,-0.48713840693526433,1.0000930495783433,0.0002309824471022453
-0.48703651237519807,-0.48703651237519807,1.0000488189693126,0.0002108929626878021
-0.48692120211417206,-0.48692120211417206,0.99982490272968,0.00020914011072684677
-0.4868313371123804,-0.4868313371123804,0.9997073555940925,0.00021499129305422473
-0.48669357699182003,-0.48669357699182003,1.000114293794311,0.00018855007232726245
-0.48659431854102875,-0.48659431854102875,1.0002720174230437,0.00019170362233341277
-0.48647579739263164,-0.48647579739263164,0.9999084594215777,0.0002217922269899925
-0.4863869916051044,-0.4863869916051044,1.0000249786368893,0.00022403866700977174
-0.486310099309776,-0.486310099309776,0.999740723323604,0.00023605986522697036
-0.4862264344286814,-0.4862264344286814,1.0002793381619461,0.00022252203629835463
-0.48613276497490004,-0.48613276497490004,0.9998376979597143,0.00024378850336320923
-0.48606057216020415,-0.48606057216020415,1.0001305230473252,0.0002280253677746718
-0.48595605852096924,-0.48595605852096924,0.9998298561070996,0.00022319931870865345
-0.4858597941187327,-0.4858597941187327,0.9999930465092938,0.00020490741507926644
-0.48570289240888087,-0.48570289240888087,0.9999243247523246,0.00020222905929089804
-0.4855046134442091,-0.4855046134442091,0.9999019688581571,0.00021764217649438534
-0.48530729394915395,-0.48530729394915395,1.00024989591136,0.00022342803408641085
-0.48519692987465535,-0.48519692987465535,0.9996979485877201,0.00019404694586228305
-0.4851542907927069,-0.4851542907927069,1.0002532127490606,0.00020435533262976345
-0.4851151929084153,-0.4851151929084153,0.999898159571927,0.00021706883038990414
-0.4850032302012551,-0.4850032302012551,1.000089278380212,0.00022274631670996843
-0.48486738659412365,-0.48486738659412365,0.9999310559185697,0.00024019513325512234
-0.4848081865733548,-0.4848081865733548,0.9999117538697672,0.0002470125129390945
-0.48466417001764056,-0.48466417001764056,0.9999981563086585,0.00025976187543351996
-0.48452428912423784,-0.48452428912423784,1.0001624126495499,0.00020092115154058082
-0.48439489755692194,-0.48439489755692194,1.000208157916484,0.00020173392011174504
-0.4841782571420481,-0.4841782571420481,1.000188023975242,0.00021766542569766795
-0.48407935926370554,-0.48407935926370554,0.9998718991762396,0.00022545648616474536
-0.48394013237702893,-0.48394013237702893,0.9998911200559994,0.00020484718621458772
-0.48378082712733883,-0.48378082712733883,0.9998638344377833,0.00021820229796130005
-0.48369828796639924,-0.48369828796639924,1.000071045868308,0.0002124679021747726
-0.48354208001619553,-0.48354208001619553,1.000332675809171,0.00023043563267810448
-0.483436509740568,-0.483436509740568,1.0001148848280195,0.0001958239076866633
-0.4833550025672594,-0.4833550025672594,0.9999128265228828,0.00023115704635696168
-0.4832225132238818,-0.4832225132238818,1.0000012026828373,0.00023627282290992376
-0.4831391515421274,-0.4831391515421274,1.0003032227104411,0.00022446368014623178
-0.4830330183605838,-0.4830330183605838,1.0000288902125085,0.00022247827354148964
-0.4827815929478675,-0.4827815929478675,1.0001004211862778,0.00021667646176702654
-0.48264947801071684,-0.48264947801071684,1.0000193398981971,0.00021298882429052614
-0.4825616034737322,-0.4825616034737322,1.0000562201887453,0.00022652898626139505
-0.48246531339464127,-0.48246531339464127,1.0000589012046222,0.00021880113624600126
-0.48229146581797977,-0.48229146581797977,1.0000971546585664,0.0001988369839446258
-0.4822031962692563,-0.4822031962692563,1.0001877766195975,0.0002005275290035127
-0.48215437874314376,-0.48215437874314376,1.0001169521816684,0.00018744770374525327
-0.482094299524033,-0.482094299524033,1.0001462642782026,0.00021862743697318772
-0.48188433335672015,-0.48188433335672015,0.9998379368673266,0.000237148987400723
-0.48175790842287824,-0.48175790842287824,1.0001482071606183,0.00023276019288170625
-0.48163769119855715,-0.48163769119855715,0.9999763783018427,0.00025120486040230576
-0.4815490744585986,-0.4815490744585986,0.9999491078236928,0.00021848830645286357
-0.4814271661060047,-0.4814271661060047,1.0002012385943242,0.00021163975247901113
-0.48134863062514344,-0.48134863062514344,0.9998013630293541,0.00021988554484283712
-0.4812722328970267,-0.4812722328970267,1.0000842261776683,0.00021216708549450506
-0.48113927161466563,-0.48113927161466563,1.00026018939991,0.00021316585955318177
-0.4809236789085844,-0.4809236789085844,1.0001836362748713,0.00022332577993769694
-0.4808767373739101,-0.4808767373739101,0.9998280406528026,0.00022031014887448575
-0.48079759326428756,-0.48079759326428756,1.0001995305343199,0.00021022013773756474
-0.4806904018820205,-0.4806904018820205,1.0002896829862868,0.00019798546467826025
-0.48057003805879506,-0.48057003805879506,1.0000757983159478,0.0002103334665841978
-0.4804655951535096,-0.4804655951535096,1.000499206948725,0.00022667161198320946
-0.48041260783866163,-0.48041260783866163,0.9999089892839275,0.00023691646908390675
-0.48033793204740505,-0.48033793204740505,1.0000133727941005,0.00022482073402491808
-0.4802981140135671,-0.4802981140135671,1.000207282483874,0.00024122594433240475
-0.4802264306388679,-0.4802264306388679,0.9999513711692176,0.00023854016654907144
-0.48002732493769146,-0.48002732493769146,1.0002850312606628,0.00020375832743966795
-0.47991468779582647,-0.47991468779582647,0.9997743292291821,0.0001926355817336141
-0.47982298882270696,-0.47982298882270696,0.9998360089683992,0.00021160967200004686
-0.4796289720456116,-0.4796289720456116,1.0001785010244126,0.00022194296349932114
-0.47951090394417406,-0.47951090394417406,0.9994853769251334,0.0001924099197670769
-0.47929996039310935,-0.47929996039310935,0.9998250243627123,0.00020917162356337568
-0.4791491516152746,-0.4791491516152746,1.0001196446725817,0.00022550615106169147
-0.4791012240588316,-0.4791012240588316,0.9999321150533209,0.00022685473781745722
-0.4789943266121554,-0.4789943266121554,1.0003128276037594,0.00020535667213947127
-0.47890887542744165,-0.47890887542744165,0.9998652817143044,0.00021357236180425445
-0.47881212013526236,-0.47881212013526236,0.9996643098065556,0.00022639468267941364
-0.47871920959296405,-0.47871920959296405,0.9998946098938543,0.0002354846460579714
-0.47860375402015054,-0.47860375402015054,1.0004167463290163,0.00023451434992420242
-0.47847709380439485,-0.47847709380439485,1.0000834290185214,0.00018875129339292424
-0.4783601411538257,-0.4783601411538257,0.9999803997928364,0.00022434197330088176
-0.4782163373820367,-0.4782163373820367,1.0001418243633442,0.00020131945973852163
-0.4780671446096676,-0.4780671446096676,1.000028007263505,0.00022504210319886767
-0.4779139379017579,-0.4779139379017579,1.0000386282098654,0.00021073030683079803
-0.4778252084921405,-0.4778252084921405,0.9999608694381678,0.00019344304116654067
-0.477732359750371,-0.477732359750371,0.9998535362322254,0.00020179024372019336
-0.4776706712538726,-0.4776706712538726,1.0001186871204006,0.00018805754220610656
-0.4775593814432796,-0.4775593814432796,0.9997896351253581,0.00022278760829084741
-0.47741396357523624,-0.47741396357523624,1.0000024613106053,0.00023468121021071124
-0.4773291351586522,-0.4773291351586522,0.9998241878095044,0.0002515718851653166
-0.4772108500284958,-0.4772108500284958,0.9998808290465394,0.00021676685730479737
-0.4770852051093243,-0.4770852051093243,0.9999494015185206,0.00025722015321824187
-0.47693068391017734,-0.47693068391017734,1.0002223711445752,0.00021363399369643318
-0.47682365986183867,-0.47682365986183867,1.0001565894243378,0.00021750931959832977
-0.47671573256375266,-0.47671573256375266,0.9995794171697614,0.00020913577338068317
-0.47662830350818697,-0.47662830350818697,0.9998078245879984,0.00022076855913325563
-0.47650991877380877,-0.47650991877380877,1.0001023121162018,0.00020836431307815325
-0.4763428334277705,-0.4763428334277705,1.0001137375651008,0.0002120446670909073
-0.4762632659563678,-0.4762632659563678,0.9998181458036794,0.0002269703291611469
-0.47616757353753203,-0.47616757353753203,1.0000198526492525,0.00024298224678385725
-0.4760319151566364,-0.4760319151566364,0.9998559629527033,0.0002087212094083979
-0.47597648663868314,-0.47597648663868314,0.9999335878603052,0.00022397319597192844
-0.47587269854775516,-0.47587269854775516,0.9998935181889651,0.0002542588085897925
-0.4757999858367839,-0.4757999858367839,1.0000149041086377,0.00022900836575274843
-0.475747246483661,-0.475747246483661,0.9999217767576697,0.00021783899527970588
-0.4756089156282542,-0.4756089156282542,0.9999910571424037,0.0002150379119179637
-0.47550620643160074,-0.47550620643160074,0.9994518632386429,0.0002112783826797433
-0.4753870359847497,-0.4753870359847497,0.9999075380235734,0.00022620656679788045
-0.475228700345906,-0.475228700345906,0.9996020166865005,0.00022295989600230838
-0.4751020221345243,-0.4751020221345243,0.9999862984796632,0.0002132027668442406
-0.47499350342623076,-0.47499350342623076,1.000207192162865,0.0001981342736357162
-0.47491349921328946,-0.47491349921328946,0.9998655422389664,0.00020883059705716694
-0.47479484539071565,-0.47479484539071565,1.0000866823858316,0.0001925705709771186
-0.4746894909076218,-0.4746894909076218,0.9999903659963316,0.00019420111793331163
-0.47460451837905565,-0.47460451837905565,0.9998406475318324,0.00020002730755986874
-0.47450385632619146,-0.47450385632619146,0.9999069611658236,0.00021346340313561023
-0.4744550166258705,-0.4744550166258705,1.0002086148357447,0.00022208992198329545
-0.474354234837665,-0.474354234837665,0.9999926306388527,0.00021925384405831265
-0.4742836514902592,-0.4742836514902592,1.0001791962883722,0.00022427904441973625
-0.47421573248575444,-0.47421573248575444,1.0002160390244732,0.00023665272424809534
-0.4741421486804029,-0.4741421486804029,1.0001572118410915,0.00023393756154889365
-0.4740540486731334,-0.4740540486731334,0.9997756194020926,0.0002077692799031868
-0.4739338480598235,-0.4739338480598235,1.0000505347940276,0.0002069922642010704
-0.4737249696358049,-0.4737249696358049,0.9998561149129828,0.00021513915846511477
-0.47349719784397165,-0.47349719784397165,1.0000696912468876,0.0002084235891541682
-0.4733648660214385,-0.4733648660214385,0.9999945757997736,0.00020029501755104424
-0.4732658532891946,-0.4732658532891946,0.999974459424769,0.0002624255150464192
-0.47322477200141294,-0.47322477200141294,1.0002801509427277,0.00019506758355654398
-0.473149100774026,-0.473149100774026,0.9997129707450811,0.0001939489723029448
-0.4730090802120685,-0.4730090802120685,1.0001567530285465,0.00022144066783432825
-0.47289917684029203,-0.47289917684029203,1.0000828218105806,0.0002464483039092499
-0.472814506998111,-0.472814506998111,0.9999288713641576,0.0002466758690822722
-0.472668648428953,-0.472668648428953,0.9998627913895494,0.0002632413854110282
-0.4724781217853888,-0.4724781217853888,1.0000337842733853,0.00020976025843568612
-0.47234741480569936,-0.47234741480569936,1.000065652032141,0.00021076148262651716
-0.47224044951290123,-0.47224044951290123,0.9997678285745295,0.00023088792077984754
