time,time,flux,flux_err
-0.499374665760115,-0.499374665760115,0.9999844322926719,5.371219589542795e-05
-0.49865346463775495,-0.49865346463775495,1.000080884024049,5.350663415411075e-05
-0.4979722774965921,-0.4979722774965921,1.000106900152862,4.892593515811159e-05
-0.49725277672405355,-0.49725277672405355,1.000130467987122,4.917274084610656e-05
-0.49587091789289844,-0.49587091789289844,1.0000321632340043,4.8873542603581794e-05
-0.49477630568435416,-0.49477630568435416,0.999973318321586,4.894832512748119e-05
-0.4943818904241198,-0.4943818904241198,1.0000427088743191,4.893659810111886e-05
-0.49379458322946446,-0.49379458322946446,1.000001382569634,4.886845025032955e-05
-0.49330628144671207,-0.49330628144671207,1.000056521859201,4.8927232483725794e-05
-0.49263480787922165,-0.49263480787922165,0.9999834792174853,4.886456878116181e-05
-0.49156993416982003,-0.49156993416982003,1.0000378957111176,4.893870457328474e-05
-0.49077446291485105,-0.49077446291485105,1.0001053005957279,4.8895891399357186e-05
-0.48972642754233675,-0.48972642754233675,1.000061181309071,4.893794265364101e-05
-0.48907031859707784,-0.48907031859707784,0.9999732268857742,4.892519185896239e-05
-0.4884929350911989,-0.4884929350911989,0.9999958969285986,4.89266040973134e-05
-0.48763007167581235,-0.48763007167581235,0.9999645086524698,4.917347424384875e-05
-0.4862112778937444,-0.4862112778937444,1.0000102480412223,4.8936684382255295e-05
-0.48528229559160535,-0.48528229559160535,1.0000741397337727,4.893515349067375e-05
-0.48474542118783576,-0.48474542118783576,1.0000443990442076,4.893444134051763e-05
-0.4843035916361259,-0.4843035916361259,1.0000347399491887,4.886926604026207e-05
-0.48379555571737,-0.48379555571737,1.000030430879187,4.8987593392582084e-05
-0.48315014697873265,-0.48315014697873265,1.0000309438533812,4.8867806438329145e-05
-0.48197472769534216,-0.48197472769534216,0.9999880277752398,4.88776376264302e-05
-0.48121352308662607,-0.48121352308662607,1.0000044804412034,4.888523196504791e-05
-0.48045084595069054,-0.48045084595069054,1.0001088657010138,4.894036409912039e-05
-0.4798296267530532,-0.4798296267530532,1.0000211610956615,4.886773455719058e-05
-0.47931097605323886,-0.47931097605323886,1.0000316645566592,4.8919188682932136e-05
-0.4786552179328282,-0.4786552179328282,1.0000843514489355,4.924234165442469e-05
-0.4774470722855767,-0.4774470722855767,1.0000234054639765,4.8929317172320314e-05
-0.47616802338598063,-0.47616802338598063,1.0000292153992616,4.8883243469588714e-05
-0.4756164401827846,-0.4756164401827846,0.999989205141975,4.900182346024648e-05
-0.4750629816990113,-0.4750629816990113,1.0000174850082517,4.893056206460086e-05
-0.4746773881808622,-0.4746773881808622,1.0000109550497753,4.886377238132803e-05
-0.4741689584829146,-0.4741689584829146,1.0000208389888532,4.89274835361783e-05
-0.47323706094466617,-0.47323706094466617,1.0000792150491185,4.89321190280584e-05
-0.4724655085519771,-0.4724655085519771,0.9999519925177915,4.8803592906857556e-05
-0.47161653981747803,-0.47161653981747803,0.9998107948103284,4.8880150378391366e-05
-0.4709613164290204,-0.4709613164290204,1.0000609870051398,4.893353807275453e-05
-0.4703154849514249,-0.4703154849514249,0.9999596903223045,4.886458995763961e-05
-0.46984212993411345,-0.46984212993411345,0.9999600322380442,4.8921586777004794e-05
-0.4691071700231987,-0.4691071700231987,1.0000165609057161,4.9371703220708334e-05
-0.4677497998403851,-0.4677497998403851,0.9999724395776726,4.887030025430761e-05
-0.4666241444676416,-0.4666241444676416,0.9999978816756798,4.8942764249564e-05
-0.4661012517026393,-0.4661012517026393,1.000002295424417,4.8933677678696736e-05
-0.46558443734684263,-0.46558443734684263,0.9999646988822818,4.886802185829904e-05
-0.46503472235344817,-0.46503472235344817,0.9999869436622848,4.898661537961799e-05
-0.4643894293636549,-0.4643894293636549,1.000047851154201,4.886830141210719e-05
-0.46336699757375754,-0.46336699757375754,1.0000115857036473,4.902639054871127e-05
-0.46245425502129367,-0.46245425502129367,0.9999761273694627,4.88794830631656e-05
-0.4616893253478338,-0.4616893253478338,0.9999371350638457,4.893434952891683e-05
-0.4610733137349598,-0.4610733137349598,1.0000013784927924,4.886494061848764e-05
-0.46055672997026703,-0.46055672997026703,0.9999732202458134,4.891664197990236e-05
-0.45989856230589793,-0.45989856230589793,1.0000382342930696,4.938908102765205e-05
-0.45868911972938803,-0.45868911972938803,0.99992557313356,4.8928803136979254e-05
-0.4574103044709773,-0.4574103044709773,1.0000543181204506,4.8884454097646666e-05
-0.4568394099114812,-0.4568394099114812,0.9999836828297683,4.90009561889568e-05
-0.45628954863059334,-0.45628954863059334,1.000161857345652,4.887039843179845e-05
-0.4557915484008845,-0.4557915484008845,1.0000218294522285,4.892574568026274e-05
-0.4551217952350271,-0.4551217952350271,0.9999950930566645,4.886301546559455e-05
-0.4541615168709541,-0.4541615168709541,0.9999901430930628,4.904538109283474e-05
-0.45307467425300274,-0.45307467425300274,1.0000060040482286,4.888273845935015e-05
-0.4523086031433195,-0.4523086031433195,1.000052733783392,4.8936387742946997e-05
-0.4516952167250565,-0.4516952167250565,1.000087018540776,4.8867078247447406e-05
-0.4511796794948168,-0.4511796794948168,1.0000132661285914,4.8918438901256384e-05
-0.45040737488743615,-0.45040737488743615,1.000074030629205,4.892872583669959e-05
-0.4490026917512296,-0.4490026917512296,1.0000213747335396,4.8875445529936005e-05
-0.4478562300282647,-0.4478562300282647,0.9999378998805936,4.894337515682613e-05
-0.44733022216969404,-0.44733022216969404,0.9999875984715103,4.892947868736032e-05
-0.44683302112389356,-0.44683302112389356,0.9999742156109799,4.886691364306869e-05
-0.446274079856812,-0.446274079856812,0.9999708035161177,4.8985675078848934e-05
-0.44562887134816265,-0.44562887134816265,1.0000965463936167,4.886756840205454e-05
-0.4445779952191515,-0.4445779952191515,1.0000614548446332,4.895115662519537e-05
-0.44348010012618033,-0.44348010012618033,1.0000819666717093,4.8886252206589224e-05
-0.4428138354094699,-0.4428138354094699,1.0000469752351697,4.893091645943238e-05
-0.44218009755568344,-0.44218009755568344,1.0001319517938412,4.8866177288675225e-05
-0.44171241134608863,-0.44171241134608863,1.0000131489391717,4.892085165311468e-05
-0.4407854803983355,-0.4407854803983355,1.0000514821608355,4.893703041074344e-05
-0.43930547750496773,-0.43930547750496773,1.0001053801599833,4.893993027719582e-05
-0.43837022652151064,-0.43837022652151064,1.0003097801835523,4.893943971501369e-05
-0.4378320400894154,-0.4378320400894154,1.0000830729239962,4.887673781288479e-05
-0.4373673213282018,-0.4373673213282018,0.9999689309489559,4.886444751477047e-05
-0.4367632405817858,-0.4367632405817858,0.99994326603828,4.898381227421167e-05
-0.4358882668602746,-0.4358882668602746,1.000091932849847,4.899855765916379e-05
-0.4347450738583575,-0.4347450738583575,1.000012074361975,4.8880911783100945e-05
-0.4337710672072717,-0.4337710672072717,1.0000459931037553,4.8933016328404836e-05
-0.4332144498010166,-0.4332144498010166,1.000008399367963,4.887061096100223e-05
-0.4326259959168965,-0.4326259959168965,0.9999873767125447,4.8922538928907886e-05
-0.4320639858167851,-0.4320639858167851,1.0000298386080424,4.8927307250412234e-05
-0.4311795746383723,-0.4311795746383723,0.9999956865907281,4.8944393041355e-05
-0.429924472127459,-0.429924472127459,0.9999567959169257,4.893547774408159e-05
-0.42898793039494193,-0.42898793039494193,1.00009880092195,4.8933154073637685e-05
-0.4284512174475822,-0.4284512174475822,0.9999585590170668,4.887565445464562e-05
-0.42798960727232044,-0.42798960727232044,1.0000155222227494,4.886499570007309e-05
-0.427384397557762,-0.427384397557762,1.0000485417769467,4.8985725603292314e-05
-0.4265053656461532,-0.4265053656461532,0.9999868040569373,4.8981071833925294e-05
-0.4254481676471187,-0.4254481676471187,1.0000533289610434,4.887217121834096e-05
-0.42452363082411465,-0.42452363082411465,1.0000683967183595,4.894411884882833e-05
-0.42397778919694246,-0.42397778919694246,0.9999407484869381,4.886994366615861e-05
-0.4232868399762083,-0.4232868399762083,1.000028189037582,4.8925486075338864e-05
-0.4227360220378614,-0.4227360220378614,1.0001411344821352,4.886113257405584e-05
-0.4219437542793457,-0.4219437542793457,1.0000619746420873,4.893736021439688e-05
-0.4205435191368451,-0.4205435191368451,0.9999186244604147,4.893513141073446e-05
-0.4196056752873119,-0.4196056752873119,0.9998291694232113,4.893369991440128e-05
-0.41907043433602664,-0.41907043433602664,1.0000758865984118,4.887880369121566e-05
-0.41863058520684715,-0.41863058520684715,1.0000105299175184,4.892649338805964e-05
-0.4181381423826679,-0.4181381423826679,0.9999888904890495,4.8927797551937295e-05
-0.4173976005171426,-0.4173976005171426,1.0000487638463385,4.896863555794678e-05
-0.4162000916898251,-0.4162000916898251,0.9999923328080411,4.893334625923184e-05
-0.4153439636604162,-0.4153439636604162,1.0000262342680792,4.888249285022264e-05
-0.41466660848091125,-0.41466660848091125,0.9999188986562734,4.893188141045238e-05
-0.4140450619786861,-0.4140450619786861,0.9999477633724909,4.88624046432906e-05
-0.413513199526642,-0.413513199526642,1.000030751808013,4.886357201499313e-05
-0.4129089916605153,-0.4129089916605153,1.0000471945984304,4.892261375548109e-05
-0.4118662638837122,-0.4118662638837122,1.0000342103045674,4.8933039803563285e-05
-0.4106895552584319,-0.4106895552584319,1.0000080376709555,4.880860745334918e-05
-0.4101011455641128,-0.4101011455641128,1.0000931031611437,4.961146979073093e-05
-0.4095509102786309,-0.4095509102786309,0.9999337086917881,4.881041786019376e-05
-0.4090414754289668,-0.4090414754289668,1.000023658266655,4.892615798821721e-05
-0.40859759114537153,-0.40859759114537153,1.0000074596018103,4.898730165350799e-05
-0.4077396509223036,-0.4077396509223036,1.0000417188641886,4.896394155980256e-05
-0.4066975842550164,-0.4066975842550164,1.0000157270359336,4.887317545994696e-05
-0.4059136706928257,-0.4059136706928257,1.0000047405614674,4.8992060801572234e-05
-0.4053260580985807,-0.4053260580985807,1.0000628401728306,4.8930914434392296e-05
-0.40480320201604625,-0.40480320201604625,1.0001334934159014,4.893760074833931e-05
-0.4042981298131053,-0.4042981298131053,1.0000522994968644,4.880307796789749e-05
-0.40385531799402086,-0.40385531799402086,0.9999703150660416,4.892034298705575e-05
-0.4027834643246024,-0.4027834643246024,1.000090831900254,4.899345031529845e-05
-0.4015514179118327,-0.4015514179118327,0.9999824021765915,4.881590781059556e-05
-0.40071231414476643,-0.40071231414476643,1.0000473537834078,4.970528644427111e-05
-0.400175328948535,-0.400175328948535,0.9998938679590715,4.8807828534788204e-05
-0.3996575286364532,-0.3996575286364532,1.0000725974010929,4.898925968666161e-05
-0.39894397229945755,-0.39894397229945755,1.0000446298339356,4.8934504206398485e-05
-0.397968570102239,-0.397968570102239,1.0000105583450905,4.888732356807676e-05
-0.39715546513471056,-0.39715546513471056,0.9999698019288171,4.9008612478179735e-05
-0.39637757752352626,-0.39637757752352626,1.0000678021781242,4.8950822988392107e-05
-0.39591825263923963,-0.39591825263923963,1.0000214304732484,4.886030616455088e-05
-0.3954225325636799,-0.3954225325636799,0.9999006110601998,4.886786660412362e-05
-0.39492244727443904,-0.39492244727443904,0.9999330408929248,4.886795053041631e-05
-0.3944782583072083,-0.3944782583072083,0.9999485222323912,4.891635489966378e-05
-0.393397636860027,-0.393397636860027,1.0001043348790855,4.899512389734183e-05
-0.3921768553656875,-0.3921768553656875,0.9999595975901366,4.881250435783567e-05
-0.3913235045212787,-0.3913235045212787,1.000012006671883,4.9813242902617635e-05
-0.3907997875503497,-0.3907997875503497,1.0000105925268656,4.8809853979284335e-05
-0.39027547291334486,-0.39027547291334486,0.9999347528113367,4.898535440648213e-05
-0.3895642156770919,-0.3895642156770919,1.000025069823782,4.8933165990295796e-05
-0.3885071570985019,-0.3885071570985019,1.0000332578428432,4.888920771424094e-05
-0.3875969519256614,-0.3875969519256614,1.0000070055594736,4.9033352645617836e-05
-0.38687231420335594,-0.38687231420335594,1.0000561912617727,4.895582722232496e-05
-0.38649304558493897,-0.38649304558493897,1.000048495266297,4.892618280493467e-05
-0.38591037673759276,-0.38591037673759276,0.9999288832058445,4.886474232499939e-05
-0.38546231216168964,-0.38546231216168964,1.0000791065557064,4.880343700246963e-05
-0.38495679827756246,-0.38495679827756246,0.9999619010220172,4.892451609588273e-05
-0.38402703933243176,-0.38402703933243176,1.0000195020610516,4.904618643192359e-05
-0.38287205442902633,-0.38287205442902633,1.0000846188123251,4.889475339795695e-05
-0.38204382928233827,-0.38204382928233827,0.9999769717291163,4.993739951433463e-05
-0.38154769526008747,-0.38154769526008747,1.0000913814443693,4.887538019520666e-05
-0.38098558024212253,-0.38098558024212253,1.00001316348809,4.892741893987564e-05
-0.38039272498717763,-0.38039272498717763,1.0000627080312778,4.8930240473674516e-05
-0.37915252638922536,-0.37915252638922536,0.9999568229121494,4.893854426492297e-05
-0.37821664084040096,-0.37821664084040096,1.0000300508230657,4.9064437003811464e-05
-0.377488388933125,-0.377488388933125,1.0000229212308611,4.8955421507976534e-05
-0.3771090306894621,-0.3771090306894621,0.9999874249781506,4.892636757924531e-05
-0.3765322271938203,-0.3765322271938203,1.0000307313954515,4.886446176007249e-05
-0.3760886385673075,-0.3760886385673075,1.0000740238772956,4.8804214275924826e-05
-0.37557949086331066,-0.37557949086331066,0.9999032068451378,4.892279418186195e-05
-0.37447941830323545,-0.37447941830323545,1.000127914312078,4.899992935539709e-05
-0.37349769250286047,-0.37349769250286047,0.9999621895285575,4.888139773286949e-05
-0.372654422953201,-0.372654422953201,1.0000117343561694,5.00728044839893e-05
-0.3721671092294855,-0.3721671092294855,1.0000643592664125,4.8875543351048584e-05
-0.3716062696490553,-0.3716062696490553,1.0000697157235223,4.892868463560877e-05
-0.3710150052342215,-0.3710150052342215,0.9999660170164162,4.89287472247955e-05
-0.3697735600580927,-0.3697735600580927,1.000000121295465,4.8950310383975504e-05
-0.36867635042290203,-0.36867635042290203,0.999874425489649,4.8936842171617044e-05
-0.36787117433414096,-0.36787117433414096,1.0000426244700682,4.900267560585624e-05
-0.3675499172793934,-0.3675499172793934,0.9999321191381412,4.88007884261046e-05
-0.3669566448326805,-0.3669566448326805,0.9999106526687598,4.892599997162918e-05
-0.36655148896970785,-0.36655148896970785,0.9999630587307422,4.886618985725185e-05
-0.3658573143038666,-0.3658573143038666,1.0000128446661478,4.8929389141222885e-05
-0.3644593252276536,-0.3644593252276536,0.9999869604921654,4.887035405363287e-05
-0.36352285622997443,-0.36352285622997443,1.0000667303699196,5.022177108002546e-05
-0.3628741005290067,-0.3628741005290067,0.9999554518359318,4.893899958685777e-05
-0.3623592913354514,-0.3623592913354514,0.9999921439006307,4.886756013700917e-05
-0.3617355391077581,-0.3617355391077581,1.0000038619143792,4.892481895229729e-05
-0.36069092896359506,-0.36069092896359506,1.0000949364573075,4.8996895805060674e-05
-0.3593211383820744,-0.3593211383820744,1.0000342023214466,4.893857807790638e-05
-0.3585986223813961,-0.3585986223813961,0.9998915222452307,4.894340875702634e-05
-0.358180142918718,-0.358180142918718,0.9999874558080748,4.886580817987367e-05
-0.3575777211211971,-0.3575777211211971,0.9999587356845655,4.892553463866382e-05
-0.3571753941825591,-0.3571753941825591,0.9999850722139477,4.8863530579902906e-05
-0.35649327574647033,-0.35649327574647033,1.0000116302354332,4.886416414810468e-05
-0.35543396085267887,-0.35543396085267887,1.0000327204899708,4.8937901180058416e-05
-0.3545448534016032,-0.3545448534016032,1.0000699060566256,4.893211070352802e-05
-0.35367430901242186,-0.35367430901242186,1.0000199834723442,5.0314511134755574e-05
-0.3530897285454557,-0.3530897285454557,1.0000170381943083,4.88699110428053e-05
-0.35249113649188074,-0.35249113649188074,0.9999679721483755,4.892380933888853e-05
-0.35159517862339273,-0.35159517862339273,0.999905281408855,4.892826580021559e-05
-0.35015444661694345,-0.35015444661694345,1.0000899332508237,4.8928722666026416e-05
-0.3493368188937893,-0.3493368188937893,0.9999880594200443,4.89542511395195e-05
-0.3489256100045168,-0.3489256100045168,0.999983896592998,4.89303794489135e-05
-0.34826684895233484,-0.34826684895233484,1.0000710205579448,4.886875349206813e-05
-0.3478758721670602,-0.3478758721670602,1.0000597245735414,4.8864768554708974e-05
-0.3472742703423137,-0.3472742703423137,1.0000558748967623,4.8927050653296323e-05
-0.34595852534112054,-0.34595852534112054,0.9999914266184871,4.893507156410533e-05
-0.34498382451129145,-0.34498382451129145,1.0000982476960947,5.0441150889735724e-05
-0.34416671586222947,-0.34416671586222947,1.0000719751671263,4.893691360833065e-05
-0.3436022799491184,-0.3436022799491184,1.0000339399426041,4.887021418435677e-05
-0.3429814099843497,-0.3429814099843497,1.000095541622972,4.892813675656015e-05
-0.3421584890646045,-0.3421584890646045,0.9999839659971468,4.900645079042095e-05
-0.3407719500202802,-0.3407719500202802,1.0002123203542246,4.8929270781100937e-05
-0.3399540735539631,-0.3399540735539631,0.9999639329049115,4.895334384293094e-05
-0.3395420290369657,-0.3395420290369657,0.9999863818318939,4.893183554060626e-05
-0.33888895390118706,-0.33888895390118706,1.00004874747466,4.8868652928413315e-05
-0.33849927407864017,-0.33849927407864017,0.9998964084914552,4.886197271446143e-05
-0.33789521763683295,-0.33789521763683295,1.0000409548507068,4.892536770298245e-05
-0.33657733450236266,-0.33657733450236266,1.0000113769769152,4.8934359838579455e-05
-0.33560297114017884,-0.33560297114017884,1.0000544754513165,5.0526253666030594e-05
-0.33478392997494666,-0.33478392997494666,1.0002263691789053,4.893565615230292e-05
-0.33422383314464243,-0.33422383314464243,0.999965566158122,4.886726034863012e-05
-0.33360441594704754,-0.33360441594704754,1.0000453588975882,4.892403499614748e-05
-0.3329044029858778,-0.3329044029858778,1.0000510645945997,4.9028486376355646e-05
-0.33160503456456353,-0.33160503456456353,1.0000263996720793,4.893303921642762e-05
-0.3306675050203921,-0.3306675050203921,1.0001236827608335,4.8883687431350395e-05
-0.33019980747194494,-0.33019980747194494,0.9999322855395274,4.892923329830185e-05
-0.32963547407707666,-0.32963547407707666,1.0000478697222994,4.88719233069661e-05
-0.32921354957506993,-0.32921354957506993,1.0001262785171936,4.8866579580154285e-05
-0.3286784427793464,-0.3286784427793464,0.9999793562544206,4.898441108913223e-05
-0.3277171371562872,-0.3277171371562872,1.0001315257578707,4.8992731636612454e-05
-0.32662618907343133,-0.32662618907343133,1.0000010376523685,4.883832973025113e-05
-0.325661495042732,-0.325661495042732,1.000039240941359,5.0632713901641943e-05
-0.32496283591463,-0.32496283591463,0.9999977572551734,4.8805311623082215e-05
-0.3243552694810205,-0.3243552694810205,0.9999436206410925,4.898491948490951e-05
-0.3236718173022382,-0.3236718173022382,1.000007522044752,4.899916299701806e-05
-0.32255232364987024,-0.32255232364987024,1.0000234688597995,4.899746544540952e-05
-0.32134693637490275,-0.32134693637490275,1.0000370222449946,4.888742654502347e-05
-0.32081701995630285,-0.32081701995630285,1.0000004570202354,4.892892298144654e-05
-0.32026712596125434,-0.32026712596125434,1.0000330392595447,4.886593032842159e-05
-0.31987079890968745,-0.31987079890968745,1.0000621592646661,4.88080951456309e-05
-0.3192991330040968,-0.3192991330040968,1.0001003674545124,4.898729583585013e-05
-0.31848875614377903,-0.31848875614377903,0.9999916349215588,4.893670492086328e-05
-0.3174033148723538,-0.3174033148723538,1.0000766171127076,4.880792902792333e-05
-0.31638597954733994,-0.31638597954733994,1.000056910393949,4.910200826091721e-05
-0.31573590179468736,-0.31573590179468736,0.9999316258476219,4.8870277484580484e-05
-0.3150883347407216,-0.3150883347407216,1.0000708203211186,4.898657939556747e-05
-0.3144531752623152,-0.3144531752623152,1.0000832719972705,4.89695842372363e-05
