time,time,flux,flux_err
-0.49866263358575225,-0.49866263358575225,0.9994897709530783,0.0006950491428392186
-0.49775841879835525,-0.49775841879835525,1.0002371282864404,0.0007042069911051903
-0.4970435314408708,-0.4970435314408708,1.0004810467561949,0.0007124661542257151
-0.4962744953760989,-0.4962744953760989,1.0002507612279816,0.0006721664989053684
-0.49575230428688427,-0.49575230428688427,0.9998369739945087,0.0006616258478112471
-0.4947977239976581,-0.4947977239976581,0.9988708360706255,0.0006298580519841275
-0.4938291331154005,-0.4938291331154005,1.0003649180583554,0.0006324894162559671
-0.49322674088707574,-0.49322674088707574,0.9988831134970466,0.0006408734728214704
-0.4925200144859218,-0.4925200144859218,1.00049089061207,0.0006464098050553389
-0.4918607062968249,-0.4918607062968249,1.0004793689980986,0.0006130239700968517
-0.4913277346756558,-0.4913277346756558,1.0002828229338492,0.0006530696808557045
-0.4905357554748434,-0.4905357554748434,1.0007739836539316,0.0006414943594286348
-0.4898083049099114,-0.4898083049099114,1.0006893385040523,0.0006305374071855659
-0.4890170119419963,-0.4890170119419963,1.0006601237438078,0.0006398301226938536
-0.4885079835871693,-0.4885079835871693,1.0005050412933676,0.0006428006038938177
-0.48764206217445005,-0.48764206217445005,0.9993362106059424,0.0006287361574179617
-0.48717327563977053,-0.48717327563977053,1.000639439090148,0.0006404470360812172
-0.4862799708930197,-0.4862799708930197,0.9997959588646171,0.0006451698734244791
-0.48569590379181593,-0.48569590379181593,1.000500901123239,0.0006386990041414789
-0.48505790740568955,-0.48505790740568955,0.9988649152650124,0.000632364054754464
-0.48445549856187425,-0.48445549856187425,1.000264168966725,0.0006408948032892022
-0.4835749212928476,-0.4835749212928476,1.0006456550878289,0.000637819917800245
-0.4830177175765812,-0.4830177175765812,1.0006901377152706,0.0006220150017986392
-0.4824342292845813,-0.4824342292845813,1.001098843303441,0.0006493883618728152
-0.4816021636474943,-0.4816021636474943,1.0000184329039308,0.0006455053061640645
-0.4808670621631791,-0.4808670621631791,0.9990901006239259,0.0006403787740974622
-0.4802440025920077,-0.4802440025920077,1.0002707518439806,0.0006300273423217963
-0.4796121929105084,-0.4796121929105084,0.9992378978452224,0.0006479640300601258
-0.478788475640431,-0.478788475640431,0.9992917362068002,0.0006143208812727885
-0.4782579820145202,-0.4782579820145202,0.9988207532171021,0.0006488625467128058
-0.4774735465113508,-0.4774735465113508,1.0009842009693828,0.0006453966556357615
-0.47680463399854034,-0.47680463399854034,1.0008052642893375,0.0006356593559875592
-0.4759879214093644,-0.4759879214093644,0.99953461260917,0.0006361588101098746
-0.4754340117516449,-0.4754340117516449,0.9995882356860772,0.0006409339960490074
-0.4746131532112713,-0.4746131532112713,1.0000229324605623,0.0006285343781414602
-0.47415049982053004,-0.47415049982053004,0.9985653613734551,0.0006323387866830905
-0.4733860037235672,-0.4733860037235672,0.9997632928184548,0.0006489314219914253
-0.47271039246184043,-0.47271039246184043,1.000097612427481,0.0006428621915161728
-0.4719010690586856,-0.4719010690586856,1.000025240010325,0.0006324741113736499
-0.47129863530678906,-0.47129863530678906,0.9998816253690869,0.0006409968725724779
-0.4705295139113105,-0.4705295139113105,1.0002118692503328,0.0006376450639958677
-0.46986260126279833,-0.46986260126279833,1.0006322456440597,0.0006130710060286248
-0.4691981132704086,-0.4691981132704086,0.9996044512193674,0.0006495758981542738
-0.4685901195101906,-0.4685901195101906,1.000042387728763,0.0006529793282675888
-0.4678801692175284,-0.4678801692175284,1.0005798458456034,0.0006305419955213249
-0.46708884149488766,-0.46708884149488766,0.9996412368440556,0.0006401082670306113
-0.4665175926899792,-0.4665175926899792,0.9985305309571129,0.0006339185067721963
-0.4656973337696854,-0.4656973337696854,0.9994138403327673,0.0006282675062741911
-0.46499489460063614,-0.46499489460063614,1.0007551230082108,0.0006399651097957954
-0.46434703724235077,-0.46434703724235077,1.0005007091392848,0.0006426604762460578
-0.4636477018296773,-0.4636477018296773,1.0003817220743207,0.0006353826142954679
-0.46294383477452355,-0.46294383477452355,0.9999274034998351,0.0006481781407588758
-0.46241214734013736,-0.46241214734013736,1.000445840590634,0.000640580628307799
-0.4615779962025954,-0.4615779962025954,0.9999177001045343,0.0006282024131635833
-0.4608101723688378,-0.4608101723688378,1.0001215447454153,0.0006314112521614097
-0.4602082753816831,-0.4602082753816831,1.00016206090224,0.0006403906437423148
-0.459563436197368,-0.459563436197368,0.9999751635849403,0.0006414193838641697
-0.45874423098798617,-0.45874423098798617,0.9995041482330317,0.0006327867177912946
-0.45814177232218756,-0.45814177232218756,0.9999216298133031,0.0006411474277676015
-0.45742624648803487,-0.45742624648803487,1.0004133845023913,0.00064894568568366
-0.45683084189063267,-0.45683084189063267,1.0003593694740462,0.0006214412032468001
-0.45607546659252873,-0.45607546659252873,1.0001623135987407,0.0006406804947648328
-0.455463542331222,-0.455463542331222,0.9997559197783984,0.0006506579864080827
-0.4548704527694099,-0.4548704527694099,0.9994577697842786,0.0006276460799219053
-0.45405980241419003,-0.45405980241419003,1.0008054737713787,0.0006365963844305317
-0.45350587714119683,-0.45350587714119683,1.0006533472013062,0.0006413464902255553
-0.45273871812175914,-0.45273871812175914,1.0005982839752936,0.0006397668085430379
-0.45199666810067357,-0.45199666810067357,0.9998951236257717,0.0006397509072349054
-0.4513323621335076,-0.4513323621335076,1.0007694800308555,0.0006419090290563681
-0.4506162519862073,-0.4506162519862073,0.9998268719137302,0.0006300384630729808
-0.4499097798497814,-0.4499097798497814,1.0003069167033813,0.0006345719094619279
-0.44938388529931217,-0.44938388529931217,0.9985033760233379,0.0006451986875677941
-0.44880630824497986,-0.44880630824497986,0.9989120892830302,0.0006389085672271341
-0.44807028621428346,-0.44807028621428346,0.9996398644482882,0.0006270661180239003
-0.4472575080957995,-0.4472575080957995,0.9999299493546981,0.0006482864232009403
-0.4464932213584916,-0.4464932213584916,0.9993821160697982,0.0006432420146618949
-0.4459520342073347,-0.4459520342073347,0.9993280297792424,0.0006303702023546791
-0.44516067182419194,-0.44516067182419194,1.0001257866925513,0.0006404335798643223
-0.4448157878455049,-0.4448157878455049,1.0005486561707606,0.0006432041889708118
-0.44410839332438173,-0.44410839332438173,0.9994326120584323,0.0006399068974201761
-0.4433886379903697,-0.4433886379903697,1.0008426418892165,0.0006310687648558123
-0.4425233276360586,-0.4425233276360586,1.0006900994233707,0.0006412507551715655
-0.44181223136954484,-0.44181223136954484,0.9996213348472708,0.00064021758052192
-0.4412017805390178,-0.4412017805390178,0.9998917734210007,0.0006327362739377503
-0.44061259148190857,-0.44061259148190857,1.000685963793791,0.000645492402539238
-0.4400867782333989,-0.4400867782333989,1.0000798056596443,0.0006276595095971818
-0.43943725651167825,-0.43943725651167825,1.000519176550492,0.0006398206609988634
-0.43864544672987904,-0.43864544672987904,1.0004019529209685,0.0006398024389426605
-0.43783538626951213,-0.43783538626951213,1.0002447156473548,0.0006408721984099313
-0.4372160840483275,-0.4372160840483275,1.000575345469694,0.0006374494028415031
-0.436517307674535,-0.436517307674535,0.9996245758912966,0.0006367244059564749
-0.4360501234919866,-0.4360501234919866,0.9998128057967051,0.0006490418659148805
-0.4351231340274353,-0.4351231340274353,1.000299529851771,0.0006286208319827078
-0.43467174121942664,-0.43467174121942664,1.0008596953995876,0.0006344606113823867
-0.4339354330649485,-0.4339354330649485,0.9999655498956959,0.0006483214054314047
-0.4330739980921635,-0.4330739980921635,1.0003327351660691,0.0006413154592126854
-0.432519647017125,-0.432519647017125,1.0002615563049875,0.0006332930706686355
-0.4319079459311979,-0.4319079459311979,0.9998560324246835,0.0006368347427759382
-0.43132100543070917,-0.43132100543070917,1.000147820436701,0.0006498172023079642
-0.4303825109730724,-0.4303825109730724,0.9997554019746382,0.0006229682794084949
-0.42975118764868514,-0.42975118764868514,0.9991077623832773,0.0006429357277327811
-0.42909879533913226,-0.42909879533913226,0.9991915299508255,0.0006404712432146868
-0.4284447676969876,-0.4284447676969876,1.0002059467972875,0.000637458207105942
-0.4278183601173623,-0.4278183601173623,0.9996559149969609,0.0006374287742094251
-0.42738025789599304,-0.42738025789599304,1.0004613220136138,0.000639967425723444
-0.42636681362532725,-0.42636681362532725,0.9994845089539947,0.0006374156554426324
-0.425663575704948,-0.425663575704948,0.9997758340477139,0.0006321741213906665
-0.42488897267846826,-0.42488897267846826,0.9995423626594946,0.0006310435249036346
-0.42419990040991706,-0.42419990040991706,1.0011053480828274,0.0006499462559145785
-0.42357633931078453,-0.42357633931078453,1.0000989374660432,0.0006265875408269846
-0.4230422122320988,-0.4230422122320988,0.9997264675458271,0.0006409468170767206
-0.42210438850972876,-0.42210438850972876,1.0013929381373972,0.0006367279432524885
-0.42144052485191424,-0.42144052485191424,1.000027606748582,0.0006327284474611588
-0.4206251159387648,-0.4206251159387648,0.9998242952701654,0.0006386038060603925
-0.41993746836828905,-0.41993746836828905,1.0004734277535812,0.0006409572229823482
-0.4193299889312357,-0.4193299889312357,0.9995262829374381,0.0006367312692667699
-0.4187013856031626,-0.4187013856031626,1.0000193072979076,0.0006365600394863993
-0.41763541562370393,-0.41763541562370393,1.0000331999011751,0.0006323118980601252
-0.41705489602713897,-0.41705489602713897,0.9995996152562412,0.0006324618335327456
-0.41623946925883504,-0.41623946925883504,0.9995137024961676,0.0006385838340003488
-0.41549655804603847,-0.41549655804603847,0.9995211371562019,0.0006318945235899014
-0.4146965602623595,-0.4146965602623595,0.999531610529132,0.0006450196608014352
-0.41413782781928604,-0.41413782781928604,1.0009350349278212,0.0006495212556811758
-0.41324203771730483,-0.41324203771730483,0.999817786125013,0.0006319202401949681
-0.4128253109420257,-0.4128253109420257,0.999998505983618,0.0006321733740137636
-0.4120101596043696,-0.4120101596043696,1.0012291919874563,0.0006310948724055715
-0.4112422633354299,-0.4112422633354299,0.9998075755061798,0.0006412374043613759
-0.41038443056377216,-0.41038443056377216,1.0004787764116498,0.0006342672120700215
-0.40990097876613163,-0.40990097876613163,0.9996118973938188,0.0006582959137372544
-0.4089647779469942,-0.4089647779469942,0.9991346516753579,0.0006318697761271565
-0.4085197915395611,-0.4085197915395611,0.9998539174485362,0.0006227143246626518
-0.407697891844191,-0.407697891844191,0.9999485851849664,0.0006402705781318247
-0.4070535733498673,-0.4070535733498673,1.0005324379557812,0.0006320284676193199
-0.40615842965494264,-0.40615842965494264,0.9997217111873512,0.0006440589520617169
-0.40556807131556527,-0.40556807131556527,0.9993742287094085,0.0006519934848911903
-0.4048068495516645,-0.4048068495516645,1.0001283764041748,0.0006383339264013612
-0.4042134892823242,-0.4042134892823242,1.0000017840040427,0.0006233904093212192
-0.4034723436475588,-0.4034723436475588,0.9996874171727196,0.0006390808689275068
-0.4027066947628327,-0.4027066947628327,1.000042511069166,0.000632160853856568
-0.40196719400209985,-0.40196719400209985,1.0001402923327412,0.0006367151040310795
-0.40124755885510693,-0.40124755885510693,1.0011604365398419,0.0006482476070569247
-0.40063013893457083,-0.40063013893457083,1.001456186488032,0.0006460314507350515
-0.3998860318147763,-0.3998860318147763,1.0012797978357852,0.000628049786843077
-0.3992924640174806,-0.3992924640174806,1.0001880017734892,0.0006315091956757108
-0.39842763776930495,-0.39842763776930495,0.9997827494733244,0.0006391771115308527
-0.3975815537553899,-0.3975815537553899,0.9993618695526107,0.0006365513581129869
-0.396904002731344,-0.396904002731344,0.9988397589657667,0.000638500302953566
-0.39618293214180084,-0.39618293214180084,0.9990895743704284,0.0006501426390587997
-0.39545672436659063,-0.39545672436659063,0.9995321427190687,0.0006233103788220657
-0.394906832910965,-0.394906832910965,1.0000485287712564,0.0006314418459826737
-0.39410416325222286,-0.39410416325222286,1.000173617058158,0.0006391374333818439
-0.39351509517045996,-0.39351509517045996,1.0002377881341338,0.0006414425118461975
-0.3926981289093419,-0.3926981289093419,1.0003940236602449,0.0006449862879430331
-0.3921463215516269,-0.3921463215516269,0.9988523297557432,0.0006398329195245432
-0.39117992863666584,-0.39117992863666584,0.9993238862578739,0.0006412804242338855
-0.39065973115805264,-0.39065973115805264,1.0010731632751553,0.0006313155427536781
-0.38995211537094293,-0.38995211537094293,1.000037986013813,0.0006291990044007265
-0.389313977134816,-0.389313977134816,0.9998721181437118,0.0006413933271455886
-0.3884563084725414,-0.3884563084725414,1.000477779487054,0.0006344241539028845
-0.3877944996606402,-0.3877944996606402,1.00022051409429,0.0006432181073746648
-0.38692299419733445,-0.38692299419733445,0.9991115911617687,0.0006489527401449002
-0.3865195533300948,-0.3865195533300948,1.0009556638082826,0.0006221219284732153
-0.3857695867031907,-0.3857695867031907,1.0004704627437198,0.000640161959160573
-0.3849283199688898,-0.3849283199688898,0.9999781468090395,0.0006416662538751075
-0.38407068413546314,-0.38407068413546314,0.9994725385635339,0.0006342248540899072
-0.3834955009248233,-0.3834955009248233,0.9999515662180686,0.0006508002951985635
-0.3827919284750806,-0.3827919284750806,1.0008183183866597,0.0006426368901687467
-0.38222259809715525,-0.38222259809715525,0.9993582199176687,0.0006226910218921886
-0.381514426727108,-0.381514426727108,0.9992107688794128,0.0006465732778287585
-0.380824673538541,-0.380824673538541,1.0000403138685319,0.0006308772552644532
-0.37993373544038606,-0.37993373544038606,1.0003162458967256,0.000636916790795784
-0.3792948622726726,-0.3792948622726726,0.9993703665545258,0.0006494051766096593
-0.3784609186101761,-0.3784609186101761,0.9997665716887632,0.0006505372971657012
-0.3778648208025288,-0.3778648208025288,1.000646711639715,0.0006237448777790496
-0.3772882409715749,-0.3772882409715749,1.0003639304110705,0.0006383634666206844
-0.37649937044484433,-0.37649937044484433,1.0001813771866426,0.0006389514716734291
-0.3756510792505878,-0.3756510792505878,0.9989609974849945,0.0006266492776721839
-0.3749633450193187,-0.3749633450193187,0.9991181719605411,0.0006418036100369468
-0.37438453883949024,-0.37438453883949024,1.0001114391905996,0.0006640528732137442
-0.37355602967850243,-0.37355602967850243,1.000002289682659,0.0006274094456129875
-0.3728707876435237,-0.3728707876435237,0.9996800465465945,0.0006382788536196412
-0.3722263319224794,-0.3722263319224794,0.9999527252309847,0.0006311191755475256
-0.3714795092088707,-0.3714795092088707,0.9997674985621854,0.0006242348052527828
-0.37061447514038265,-0.37061447514038265,1.0002030447130315,0.0006416537002632603
-0.3701796886953389,-0.3701796886953389,0.9993583123178625,0.0006602847749501292
-0.36925181934677764,-0.36925181934677764,1.0003147478740835,0.0006412260294830398
-0.36859304685947336,-0.36859304685947336,0.9996288741544331,0.000631682137106602
-0.36778344690731046,-0.36778344690731046,1.000250216087894,0.0006377516429319728
-0.36713407925303726,-0.36713407925303726,1.0010331590820907,0.0006248016357597903
-0.3661378356197019,-0.3661378356197019,1.0006230105844995,0.0006492201438557889
-0.3654822493621168,-0.3654822493621168,0.9993770817879893,0.0006422268180281107
-0.36486829978712193,-0.36486829978712193,0.9988837568547501,0.0006285403338342574
-0.3640782315221941,-0.3640782315221941,0.9995854628684053,0.0006450823262880487
-0.36338438731970657,-0.36338438731970657,0.9996396554407043,0.0006372752418059928
-0.3625864501187607,-0.3625864501187607,0.9992997261750558,0.0006251249805143838
-0.3617521601215685,-0.3617521601215685,1.0009980214237622,0.0006495217062712849
-0.3609445940357546,-0.3609445940357546,1.0007461814183927,0.0006568822714739087
-0.3602931041990587,-0.3602931041990587,0.9993986250928228,0.0006135035314434374
-0.3594556213844953,-0.3594556213844953,1.0006605068249304,0.0006404137803875768
-0.35865092314109004,-0.35865092314109004,1.0008272763619157,0.0006436423693555196
-0.35786414054794025,-0.35786414054794025,0.9996512147759942,0.0006245042887640217
-0.357390201625185,-0.357390201625185,1.0002261504189878,0.0006436042382319487
-0.35670001519731614,-0.35670001519731614,0.9993806171321526,0.0006540320139974827
-0.3559075178764033,-0.3559075178764033,1.0006748988270036,0.0006135655807042093
-0.35516735697021884,-0.35516735697021884,0.9990436721772769,0.000650224286079454
-0.35445055965253686,-0.35445055965253686,0.9994483430809398,0.0006371595766342684
-0.35356338817389316,-0.35356338817389316,0.9997922685116674,0.0006312951974754302
-0.3530155075411585,-0.3530155075411585,1.0000271290286022,0.0006423303779567247
-0.3522889934602745,-0.3522889934602745,1.0007479095631675,0.0006502578578552697
-0.3512639349914252,-0.3512639349914252,1.0005663057516034,0.0006319416900824567
-0.3504844276654012,-0.3504844276654012,1.0000829483706153,0.0006325166548988939
-0.3499789011980283,-0.3499789011980283,1.0005258035122597,0.0006413797299101164
-0.34907378535856426,-0.34907378535856426,0.9996235340649384,0.0006277663705711946
-0.34855709251835376,-0.34855709251835376,1.0011927964652532,0.0006451784185290896
-0.3476620991948266,-0.3476620991948266,0.9997517517753692,0.0006434376985704835
-0.3468102441515839,-0.3468102441515839,1.0010078873122683,0.0006394258380100978
-0.3462036961446756,-0.3462036961446756,0.9996369291785078,0.0006310298794193863
-0.3456942339308853,-0.3456942339308853,1.0004454328420596,0.0006510610448920447
-0.34490125972674834,-0.34490125972674834,1.0003112930617513,0.0006279696623584085
-0.34410633843319827,-0.34410633843319827,0.9994938527715946,0.000635225122952004
-0.3434603804838616,-0.3434603804838616,0.9996376652919128,0.0006529447775259583
-0.342422509390758,-0.342422509390758,0.9997929420088832,0.0006320791708373723
-0.3417131328498272,-0.3417131328498272,1.0001331184189801,0.0006324148668111681
-0.3412076364156292,-0.3412076364156292,1.0002315375242283,0.0006412911722278892
-0.34049637429752694,-0.34049637429752694,1.0001534587371061,0.0006354992491525905
-0.3397207157539242,-0.3397207157539242,1.000179772938856,0.0006351690201870713
-0.33893737128091744,-0.33893737128091744,1.000282621849152,0.0006606197539025404
-0.33812861443147996,-0.33812861443147996,0.9995549726507205,0.0006242968711419123
-0.3374828423830877,-0.3374828423830877,1.0002135594493322,0.0006308040697755086
-0.33702330497324057,-0.33702330497324057,1.0002726045492965,0.0006435205592997305
-0.3363455964083187,-0.3363455964083187,0.9999769489553183,0.0006433788290940974
-0.3355190571319099,-0.3355190571319099,1.0009499913281314,0.0006257526985702391
-0.3348501991903049,-0.3348501991903049,1.0010827138625884,0.0006530003321763334
-0.333775330023559,-0.333775330023559,1.0014332090347657,0.0006322348765929656
-0.33316658402550275,-0.33316658402550275,1.001154360248036,0.0006243333283872778
-0.332807379643009,-0.332807379643009,1.0002670198195522,0.0006555175811062088
-0.33220503708528215,-0.33220503708528215,0.9999807108875446,0.0006327154611164103
-0.3312749930183827,-0.3312749930183827,1.0001919070508933,0.0006223122859828946
-0.33069919164693146,-0.33069919164693146,0.9997116567398988,0.0006588970310303485
-0.3297465933766944,-0.3297465933766944,0.9993963955648344,0.0006267073330529508
-0.3289655408499129,-0.3289655408499129,1.0008662258718644,0.0006422187047064604
-0.3285879554957319,-0.3285879554957319,0.999714198600382,0.0006319570504413923
-0.32802825837202365,-0.32802825837202365,1.000269345604519,0.0006493213546874222
-0.3270961705512946,-0.3270961705512946,0.999238401555614,0.0006303034050042754
-0.3265150341877188,-0.3265150341877188,0.9991188705161989,0.0006408685376730485
