time,time,flux,flux_err
-0.49967907067063305,-0.49967907067063305,1.0000140217969142,0.00020900836517993713
-0.4991102985156128,-0.4991102985156128,1.0000662689804616,0.00020847446962020676
-0.4985205809625768,-0.4985205809625768,0.9981061855085521,0.00020861279995858955
-0.49798447168795973,-0.49798447168795973,1.0000491034531427,0.00019109090880943687
-0.49758533008644007,-0.49758533008644007,1.000317452006639,0.00019090877954350982
-0.4967577445837378,-0.4967577445837378,0.9988119565702471,0.00019279131138951003
-0.4957186081090185,-0.4957186081090185,0.9999626909878092,0.0001904563512045958
-0.495032747136429,-0.495032747136429,1.0002527547836402,0.00019016368234545445
-0.494569786201464,-0.494569786201464,0.9977799157173358,0.00019185528173328137
-0.49401225334440824,-0.49401225334440824,0.9997207299365194,0.00019178641673319791
-0.4936016846637358,-0.4936016846637358,1.0002556565535765,0.0001923472023576129
-0.4926365480350796,-0.4926365480350796,0.9998923481655912,0.00018884925983695032
-0.49125709146101143,-0.49125709146101143,0.9987985525095466,0.0001910968995039108
-0.4908815332215454,-0.4908815332215454,1.000009263576218,0.00018975857496119323
-0.4905138558940962,-0.4905138558940962,0.9986136789856387,0.00019086648071806476
-0.4899068008788163,-0.4899068008788163,0.9985556465629506,0.00018837863928693692
-0.4894706838480488,-0.4894706838480488,1.000306970402905,0.00019025201209588866
-0.48889337689324747,-0.48889337689324747,1.000113086640505,0.00018786284482602526
-0.48801426977879603,-0.48801426977879603,1.0001434614229976,0.00018758967100778056
-0.487239524188044,-0.487239524188044,0.9996446218297267,0.0001891316934212389
-0.4866523393757234,-0.4866523393757234,0.9996602251847448,0.00019412006149662555
-0.48612658811180154,-0.48612658811180154,1.0000715041917645,0.0001901994804279198
-0.4856084829036263,-0.4856084829036263,1.000160918244147,0.00019086886480247428
-0.485169377992861,-0.485169377992861,0.9998702672174101,0.0001919979431476941
-0.48451953372205026,-0.48451953372205026,0.9992139069745141,0.00019293935612899854
-0.48409034747237456,-0.48409034747237456,1.0001230232244258,0.0001912910410584549
-0.4832439083787904,-0.4832439083787904,1.000235896586555,0.00019036997347378668
-0.4825870490865782,-0.4825870490865782,0.999546406353975,0.00018918956645609525
-0.48204156550054905,-0.48204156550054905,1.0001346219246867,0.00019057872537341422
-0.4813452409427555,-0.4813452409427555,0.9989894284770735,0.00019109914191743128
-0.4804536681578611,-0.4804536681578611,1.0001293367601654,0.00018874535210211418
-0.4794747148596798,-0.4794747148596798,1.000152972161723,0.0001922508200219811
-0.4787580592164886,-0.4787580592164886,1.0003737583231138,0.00018980976686811915
-0.4782380345619458,-0.4782380345619458,0.9987727654128647,0.0001927451336682568
-0.4779005813317781,-0.4779005813317781,0.9985335764632971,0.00019043977868340667
-0.4775971422044677,-0.4775971422044677,0.9976088156427958,0.00018858246569069257
-0.47695819755535923,-0.47695819755535923,1.0001221983257884,0.00019033438938630059
-0.47612421953963346,-0.47612421953963346,0.9999891135127534,0.0001902906501266924
-0.47517968184038184,-0.47517968184038184,0.9999313098940295,0.00018684229199017788
-0.47455702639344965,-0.47455702639344965,1.0001172169433343,0.0001911819603027309
-0.4737367075678776,-0.4737367075678776,0.9997867836243787,0.0001888824132134595
-0.4732127147646679,-0.4732127147646679,0.9986987667947982,0.00019036418518902129
-0.4727458595734788,-0.4727458595734788,0.9989353339407572,0.0001923594630162871
-0.4720195491303457,-0.4720195491303457,0.9999123611601606,0.00018959129385082252
-0.4715958794186008,-0.4715958794186008,0.9998990299622766,0.00019253057571856738
-0.47074636641773393,-0.47074636641773393,0.9999597214424835,0.0001886564668149299
-0.4700213809403067,-0.4700213809403067,0.9990135282406776,0.0001899246645707666
-0.4693367657950148,-0.4693367657950148,0.9988980899098474,0.00019217572092910992
-0.468484347917547,-0.468484347917547,1.0001202992386946,0.00018836454880037036
-0.46783820577256846,-0.46783820577256846,0.998955696522145,0.00019057529252529165
-0.4671325589028129,-0.4671325589028129,1.000140953289928,0.00019291971451513938
-0.4664368875826767,-0.4664368875826767,0.9998075839785898,0.0001884632061663148
-0.4658739087455615,-0.4658739087455615,0.9998455402741042,0.0001900206420619729
-0.4653160338901216,-0.4653160338901216,1.0000038960719089,0.0001899039904501002
-0.46444118126746614,-0.46444118126746614,0.9991803060607222,0.00019015530157918598
-0.46363911220614684,-0.46363911220614684,0.9991938336357183,0.00018972855202173974
-0.4628138026979286,-0.4628138026979286,0.9991355083892051,0.00018837642283565676
-0.46201844373572387,-0.46201844373572387,0.9997350556948458,0.00019144236654200609
-0.4614257527893642,-0.4614257527893642,0.9999566294245892,0.00019004942248184857
-0.46082075750891816,-0.46082075750891816,0.9991856667525664,0.0001887007159022442
-0.46034675941846215,-0.46034675941846215,1.0001976769705976,0.00019231010116042916
-0.4598406043347495,-0.4598406043347495,0.998920944645671,0.00019154069778250016
-0.45936451584784666,-0.45936451584784666,0.998583514534561,0.00018781694707388475
-0.45869158739224075,-0.45869158739224075,0.9999072795379806,0.0001914297003375454
-0.45799914636227185,-0.45799914636227185,0.9999838062427365,0.00019121519328337192
-0.4572847161674872,-0.4572847161674872,1.0000341454859023,0.0001920883438576345
-0.4566180147172417,-0.4566180147172417,0.9998556845372694,0.00019264760589296967
-0.45608274356636685,-0.45608274356636685,1.0003988154757963,0.00019007104038732536
-0.4552928409531887,-0.4552928409531887,0.9990058601255836,0.00019191692898454783
-0.4547068414212845,-0.4547068414212845,0.9999998043145792,0.0001908917739665219
-0.45381762576580514,-0.45381762576580514,1.000142513700108,0.00018999102753470084
-0.4530428928155743,-0.4530428928155743,0.9999622795831925,0.00019053594119510715
-0.45188979582453614,-0.45188979582453614,1.000104343418736,0.00019105423506781777
-0.4510293175495462,-0.4510293175495462,0.9999411194563219,0.00018794206658823083
-0.4500857271465065,-0.4500857271465065,0.9998342797733397,0.00018858705600875825
-0.44934881485023653,-0.44934881485023653,1.0002303886296633,0.00019125185443105393
-0.44876881874442914,-0.44876881874442914,0.9999241117322601,0.00018765498611893753
-0.44798234670743114,-0.44798234670743114,1.0003365717921293,0.00019298567109526701
-0.4471919363459165,-0.4471919363459165,0.9980087796091691,0.0001903677886904225
-0.4464795438478177,-0.4464795438478177,1.0002591031506065,0.00019006685832947463
-0.4453980342499563,-0.4453980342499563,0.9986852971743396,0.00018926944327535172
-0.44467142859648445,-0.44467142859648445,1.0000429508022635,0.0001918572900768906
-0.44412824205719514,-0.44412824205719514,1.0000104039376536,0.00019177068847178426
-0.4437172307429137,-0.4437172307429137,0.9998450563048268,0.00018949865987625988
-0.4429273507841572,-0.4429273507841572,0.9996920003209946,0.00018965252572180632
-0.44228501700781636,-0.44228501700781636,0.999866660305781,0.0001913560986007039
-0.4415268990880577,-0.4415268990880577,0.9997247852884129,0.00018972490509611766
-0.44055813697195845,-0.44055813697195845,0.9990211698377749,0.00019074363502823082
-0.43974088768227376,-0.43974088768227376,0.9998171508904026,0.00019180381873900053
-0.4387088588286133,-0.4387088588286133,1.000159011172069,0.000187878894133039
-0.4375261531713477,-0.4375261531713477,0.9999513963431486,0.0001906614407622229
-0.4368809334046091,-0.4368809334046091,1.0000648672900745,0.00019176924119453743
-0.4364185924474441,-0.4364185924474441,0.9999928563722612,0.00019124011438857318
-0.4353517041316081,-0.4353517041316081,1.0000323188878852,0.0001897983738489744
-0.4343856120714918,-0.4343856120714918,0.9999548732411038,0.00019180968579830192
-0.43335256561695135,-0.43335256561695135,0.999661860019134,0.00019026653206881847
-0.4326494063840073,-0.4326494063840073,0.9999111650667803,0.00018894671578275244
-0.43187784806432317,-0.43187784806432317,0.9994641138840945,0.00019191156384902312
-0.43145569122352756,-0.43145569122352756,0.9989593278408808,0.00019112167428893796
-0.430962143465149,-0.430962143465149,0.9993465975394841,0.00019052528096716044
-0.4304635539010633,-0.4304635539010633,0.9993640346549801,0.0001895081253556781
-0.42987362812564245,-0.42987362812564245,0.9995065628936391,0.0001912672012278211
-0.42923527583407123,-0.42923527583407123,1.0000699106015478,0.00019020915318068994
-0.42825430013181176,-0.42825430013181176,1.0001288802885113,0.00019040011280361757
-0.42782322933198885,-0.42782322933198885,0.9999635002911644,0.00019100755137702044
-0.42700165583955824,-0.42700165583955824,0.9997195438976745,0.0001927098295636021
-0.426057174171001,-0.426057174171001,0.9996271387860214,0.00018700310146955917
-0.42503767345115195,-0.42503767345115195,0.9993607516285081,0.00019220515909776833
-0.42451014700418455,-0.42451014700418455,1.0001219715082557,0.00018924371088004202
-0.42375876862206496,-0.42375876862206496,0.9998384270879541,0.00018994027066267545
-0.4231157906448061,-0.4231157906448061,0.9998597147146953,0.00019009752484924622
-0.42231765586911935,-0.42231765586911935,1.0005001054664686,0.00019022224009160402
-0.42159672252091696,-0.42159672252091696,0.9999714331178208,0.0001913027686557971
-0.42044298701439403,-0.42044298701439403,0.9991023113262057,0.0001865816325922444
-0.4198618922215246,-0.4198618922215246,0.9992063361858994,0.00019029872245664652
-0.4191882250284834,-0.4191882250284834,0.9998469890994477,0.0001935582919643955
-0.4188840750131931,-0.4188840750131931,1.0001836491707998,0.00018954651017248067
-0.41825920158298685,-0.41825920158298685,0.9997441645880933,0.0001909173470627593
-0.41774945807846964,-0.41774945807846964,0.9989210205018217,0.0001916208013957597
-0.4171277302200906,-0.4171277302200906,1.0001052885562531,0.0001900075651483851
-0.41674551199030246,-0.41674551199030246,0.999336115115414,0.00019118193286491228
-0.41586075578816234,-0.41586075578816234,0.9999780412950268,0.00019296456539605336
-0.4152886509837117,-0.4152886509837117,0.9987993595398175,0.00019174903797551266
-0.4145446794624149,-0.4145446794624149,0.9999859942042322,0.00019452136098749293
-0.4140538933737844,-0.4140538933737844,1.0000043969211667,0.00019197819694673158
-0.4134038301177497,-0.4134038301177497,0.9989189820720904,0.00018781468267060894
-0.41242184557922884,-0.41242184557922884,1.00014612039149,0.00018948339000400465
-0.4115094333421439,-0.4115094333421439,1.0002282162071725,0.000189557512468356
-0.41111544578816395,-0.41111544578816395,0.9998188588545883,0.00018925376749733992
-0.4105570156651083,-0.4105570156651083,0.9993236943326608,0.0001920376132908175
-0.410067461708968,-0.410067461708968,0.9992575163219645,0.00018711562698259785
-0.40941070230473997,-0.40941070230473997,0.9997428294879807,0.0001909134608078935
-0.4082549413382367,-0.4082549413382367,0.9983864101890683,0.0001883500820819182
-0.4075123076865566,-0.4075123076865566,1.0000106021141537,0.00019182718167359234
-0.4069229917244229,-0.4069229917244229,0.9996880376281041,0.00019064963955305172
-0.4065012859638955,-0.4065012859638955,0.9990174184893604,0.00018997614974789785
-0.4060703935807396,-0.4060703935807396,0.9998474585654284,0.00019033906494340543
-0.40564100351766685,-0.40564100351766685,0.9998344623927842,0.00019186329335911406
-0.40492535189769113,-0.40492535189769113,0.9999847758897463,0.00019168840194641376
-0.40432926462744945,-0.40432926462744945,1.0002128701152948,0.0001921034158064221
-0.40358368499510106,-0.40358368499510106,1.0001175263369844,0.00018930533724032217
-0.4029950784795801,-0.4029950784795801,0.9999902525586748,0.00019016739970307948
-0.4025313563142845,-0.4025313563142845,0.9989753209576705,0.00019194181818687442
-0.40189867121735007,-0.40189867121735007,1.0000957075180055,0.00019282701370752382
-0.4011763292750402,-0.4011763292750402,1.000209028301894,0.00018749929137163219
-0.39962449075028417,-0.39962449075028417,0.9995414372185822,0.00018897375768453644
-0.39895376116692205,-0.39895376116692205,0.9999727725371865,0.00019022497709303323
-0.3986856748109858,-0.3986856748109858,1.0001521781895792,0.00019075633609185702
-0.39822848116309617,-0.39822848116309617,0.9995303062687364,0.00019192919577235641
-0.3976454749936238,-0.3976454749936238,0.9992065442532245,0.00018740403628080213
-0.3973429580059019,-0.3973429580059019,0.9999462278156337,0.0001908837821029109
-0.39650568471552106,-0.39650568471552106,1.0001600178251657,0.00018783315813643875
-0.3955617597021046,-0.3955617597021046,1.0002330260182994,0.00018651129361665716
-0.39506915746678717,-0.39506915746678717,1.0000209213448168,0.0001916614530836575
-0.39440059553817264,-0.39440059553817264,1.000095737815164,0.0001921219662704733
-0.3938061048356758,-0.3938061048356758,0.9999598087197938,0.00018997539870490568
-0.3932986012499896,-0.3932986012499896,1.0000286385067272,0.0001921738226800262
-0.39264040665948413,-0.39264040665948413,0.9999179749095287,0.00019220624597396314
-0.3920313205853745,-0.3920313205853745,0.9998332552500161,0.00019175124048575402
-0.39120657180828855,-0.39120657180828855,1.0001314705084416,0.00019037283376710667
-0.39051322076193173,-0.39051322076193173,0.9994121554104571,0.00018791459531929228
-0.38996890881317087,-0.38996890881317087,0.9994943592658073,0.00019139049900406406
-0.3893075129883073,-0.3893075129883073,0.9999935271512695,0.0001911675024250565
-0.3885373692079156,-0.3885373692079156,0.9998812589166096,0.00018789847696757634
-0.3876703931411612,-0.3876703931411612,1.0001667268354333,0.00019220460065546202
-0.38674721496354325,-0.38674721496354325,0.9997689774431112,0.00019054103834620017
-0.38620535468144224,-0.38620535468144224,0.9992373272411907,0.00019131123919954128
-0.385821411699726,-0.385821411699726,0.9994517275190156,0.0001897156895092235
-0.3853212813672144,-0.3853212813672144,0.9990556543161697,0.00018732622062580948
-0.3844553490773251,-0.3844553490773251,0.9996640999823232,0.0001900503886360884
-0.38326488937746034,-0.38326488937746034,1.0000355258957399,0.0001865018850129468
-0.38251963236325537,-0.38251963236325537,0.9995530927917862,0.000191163924223102
-0.381775266747718,-0.381775266747718,0.9993253735106329,0.0001896135256621813
-0.381302133101417,-0.381302133101417,0.9995729971607122,0.0001890038763363411
-0.38083293753297764,-0.38083293753297764,0.9998388767883272,0.00019338439250173863
-0.3802693594821903,-0.3802693594821903,1.0003337042996754,0.0001911517711666568
-0.37975909811939346,-0.37975909811939346,0.9998910593312452,0.00018741080500723234
-0.379374900705443,-0.379374900705443,0.9998625018669957,0.00019425930278485834
-0.3784999049181351,-0.3784999049181351,0.9997917479169376,0.00018996862314555322
-0.3777530897561519,-0.3777530897561519,1.0000524315828847,0.00019099677063368097
-0.37715300757699877,-0.37715300757699877,0.9993762135427995,0.00019057216308371138
-0.3762656689228606,-0.3762656689228606,1.000190658514196,0.00018850738642863586
-0.37566923301055793,-0.37566923301055793,1.0000364610875847,0.00019222012579842194
-0.3750433564564446,-0.3750433564564446,1.000064718246233,0.0001937861000676267
-0.3743839258320804,-0.3743839258320804,0.9998632825281595,0.00018807369266096735
-0.37376707986186375,-0.37376707986186375,1.0004558935733756,0.00019044962508895556
-0.37316581803388543,-0.37316581803388543,1.0001917177672892,0.00019246785328634128
-0.3725392711727181,-0.3725392711727181,1.0000594743767097,0.0001913933475272852
-0.37207923824316824,-0.37207923824316824,0.9998563112611366,0.0001941354374879903
-0.37129573822239764,-0.37129573822239764,0.9996878184940178,0.00018724917852201264
-0.37044996154509136,-0.37044996154509136,0.9994555560099894,0.00019045747512124004
-0.36969930017367003,-0.36969930017367003,1.0003694579393585,0.00018897053901285415
-0.3689379906390968,-0.3689379906390968,0.999411118645065,0.00018876081331072346
-0.3683083887081011,-0.3683083887081011,1.0001186061141198,0.00019232641173623255
-0.3677561651544238,-0.3677561651544238,1.000040099751549,0.0001896440759057841
-0.3672495355873252,-0.3672495355873252,0.9993694487813354,0.00018898875281388132
-0.36670805249959815,-0.36670805249959815,0.9996010337182947,0.0001901403730967863
-0.365831358833384,-0.365831358833384,0.9997502820252804,0.00018941734456365614
-0.36519668469554745,-0.36519668469554745,0.9997748302375353,0.00019294416928670606
-0.3647377169254469,-0.3647377169254469,0.9999517076682956,0.00019201376980219393
-0.36410956933468697,-0.36410956933468697,0.999878465810716,0.0001907891289487839
-0.36325511251270654,-0.36325511251270654,0.9994862243741334,0.0001919539467432968
-0.3625570642856474,-0.3625570642856474,0.999760060474211,0.00019057416343371743
-0.3615758385036315,-0.3615758385036315,0.9996789089443838,0.00019234646072741323
-0.36097589387209156,-0.36097589387209156,0.9998730703831885,0.0001883684031653584
-0.3598519625717017,-0.3598519625717017,1.0003033873020226,0.00019103967077734472
-0.35893871805310484,-0.35893871805310484,1.0001287667425802,0.00018731844246260528
-0.35786912926123476,-0.35786912926123476,0.9992244110389258,0.00018889651158149416
-0.3572355562668236,-0.3572355562668236,0.9997126002304336,0.00019301438320500113
-0.35682561418580006,-0.35682561418580006,1.0001362774538125,0.00019021781303159134
-0.356284232235339,-0.356284232235339,1.0002717237406222,0.00019066999116174288
-0.3556434191625158,-0.3556434191625158,0.9998958703321087,0.00019180749059596875
-0.35480853580666005,-0.35480853580666005,1.000185273254203,0.0001907686845743305
-0.3539703243339318,-0.3539703243339318,0.9999516347653689,0.00019270509839834678
-0.35310024677310137,-0.35310024677310137,0.9995627503578227,0.0001894369056178972
-0.3525784727666178,-0.3525784727666178,0.9997676882321107,0.00019189640025605656
-0.3520897834394418,-0.3520897834394418,1.0001870386817489,0.00019177525732641963
-0.3517063147221052,-0.3517063147221052,0.9999110715527906,0.00019087605619232058
-0.3511347134823154,-0.3511347134823154,1.0003049688532006,0.00019003481258932667
-0.3505289324784826,-0.3505289324784826,1.0001592569365447,0.00019100009557904818
-0.34972677444311556,-0.34972677444311556,1.0003433411070528,0.0001881112018046566
-0.34887132922012826,-0.34887132922012826,0.9998922875044268,0.00019193887150206686
-0.3482873969442153,-0.3482873969442153,1.00002846019242,0.00018964481153502553
-0.34747951081517386,-0.34747951081517386,0.9999516011819882,0.0001923868388763908
-0.34667309896394727,-0.34667309896394727,1.000128863811118,0.00018967146832183607
-0.3456587881431915,-0.3456587881431915,0.9998495833373514,0.00019063226299601157
-0.34493006391567177,-0.34493006391567177,0.9997773918505146,0.00019096620326301082
-0.34444594115775545,-0.34444594115775545,0.9997776945454397,0.00018943847497390672
-0.3436022414076433,-0.3436022414076433,0.9998193717420026,0.0001893783205271244
-0.34255087201963763,-0.34255087201963763,0.9999504675846825,0.0001913570910969548
-0.3413447485792858,-0.3413447485792858,0.9997076347896492,0.00018882669250787544
-0.3404778492069454,-0.3404778492069454,0.9999130228040547,0.00019004691017724686
-0.3397273569004028,-0.3397273569004028,0.9995161257193453,0.00019062235000481305
-0.3393331677667447,-0.3393331677667447,1.0000540317401765,0.00019259560601241483
-0.3387988422597118,-0.3387988422597118,0.9999638427054226,0.0001891519753604653
-0.3383372770229471,-0.3383372770229471,1.0000967668281942,0.000189543558494436
-0.3378243317551096,-0.3378243317551096,1.0003250028950075,0.00019275240638812676
-0.33729032001210724,-0.33729032001210724,1.000149664551288,0.00019261100519643785
-0.3365011671514367,-0.3365011671514367,1.0000950172603047,0.00018979223519362512
-0.33599598161745237,-0.33599598161745237,1.0002967819648412,0.0001904102050195806
-0.33528645110709476,-0.33528645110709476,1.0000588254792908,0.00019188719461520206
-0.33451284584298263,-0.33451284584298263,0.9997933751403766,0.00018967248713557477
