time,time,flux,flux_err
-0.4994980619419948,-0.4994980619419948,0.9999746309793558,2.5874913334137246e-05
-0.49870056036597815,-0.49870056036597815,0.9998924265144215,2.5897141035358752e-05
-0.4976317670334538,-0.4976317670334538,1.0000034291397528,2.586885684619301e-05
-0.4964989149419125,-0.4964989149419125,1.0000378408136297,2.5868461394916736e-05
-0.49523276673644434,-0.49523276673644434,0.9999924868898956,2.5909969993097422e-05
-0.4935888142681506,-0.4935888142681506,1.0000413931164107,2.586353663003122e-05
-0.4918319683922164,-0.4918319683922164,0.9999858665735128,2.591936787192513e-05
-0.490730943626113,-0.490730943626113,0.9999850853415613,2.582832676976617e-05
-0.48871326588123337,-0.48871326588123337,0.9999807136687563,2.5856305909779415e-05
-0.48754878768886556,-0.48754878768886556,1.000028241011178,2.589789559378439e-05
-0.486681954015512,-0.486681954015512,1.0000593920844496,2.588323342464779e-05
-0.4857708602488856,-0.4857708602488856,1.000008967953578,2.5851907913515647e-05
-0.48432926060049797,-0.48432926060049797,0.9999888613641463,2.587944092212682e-05
-0.48160488005087243,-0.48160488005087243,1.0000057860357,2.5867109265862385e-05
-0.47970426379542913,-0.47970426379542913,1.0000147645511925,2.586926796028841e-05
-0.47884354506823,-0.47884354506823,0.9999972345573755,2.5876206196039787e-05
-0.4778506730443041,-0.4778506730443041,0.9999953151270239,2.5875539182865665e-05
-0.4767007484741043,-0.4767007484741043,0.9999813533172688,2.5912195271921722e-05
-0.4751592851156602,-0.4751592851156602,0.9999991629005329,2.5879601379932053e-05
-0.47380024109443186,-0.47380024109443186,0.9999952064520133,2.589261131559173e-05
-0.47258364620283827,-0.47258364620283827,0.9999618141713469,2.586866846904586e-05
-0.4711981412532623,-0.4711981412532623,1.000008035981093,2.5851667022415424e-05
-0.46958222374451,-0.46958222374451,1.0000170406707458,2.5876024150969552e-05
-0.46815626248135234,-0.46815626248135234,1.0000235152696881,2.588392764745657e-05
-0.4654938688938273,-0.4654938688938273,0.9999783542380035,2.5922618381529756e-05
-0.463788031754666,-0.463788031754666,0.9999484217411153,2.5875480109475124e-05
-0.4621296796554816,-0.4621296796554816,1.0000050981758,2.589757834131267e-05
-0.46069737981888464,-0.46069737981888464,1.0000211692123762,2.587042977791979e-05
-0.4598292709255475,-0.4598292709255475,1.0001211557802754,2.5892754600635764e-05
-0.4586882853131101,-0.4586882853131101,0.9999825848831918,2.5875792689333903e-05
-0.4570493080325832,-0.4570493080325832,0.9999972065459641,2.5875971308188938e-05
-0.45531737878191053,-0.45531737878191053,0.9999541374932421,2.5871280588267204e-05
-0.45465591573301933,-0.45465591573301933,1.0000199205766849,2.5880316489338097e-05
-0.4535835550064803,-0.4535835550064803,0.9998979680498022,2.5832773746566736e-05
-0.45197674174632996,-0.45197674174632996,0.9999898792045707,2.587586362836623e-05
-0.4508446352017927,-0.4508446352017927,1.0000429126849508,2.5865246759404773e-05
-0.4498801115463721,-0.4498801115463721,0.9999827650596054,2.5900564721569254e-05
-0.44806299959891477,-0.44806299959891477,0.9999459095003089,2.5887955999484584e-05
-0.4465292540662631,-0.4465292540662631,1.0000141190544884,2.586710969060281e-05
-0.44510663328765077,-0.44510663328765077,0.9999488832595731,2.5843697515480128e-05
-0.44297210672448273,-0.44297210672448273,0.9999039240852541,2.5909173182151646e-05
-0.44142879941719004,-0.44142879941719004,0.9999914607971299,2.5878612738984726e-05
-0.44060521849169165,-0.44060521849169165,0.99999995216559,2.5890281481350304e-05
-0.4400542343726556,-0.4400542343726556,1.0000023809275294,2.5871376406391994e-05
-0.4388416957066511,-0.4388416957066511,1.0000037074254002,2.5873512787725156e-05
-0.4368881479596894,-0.4368881479596894,0.9999949777391002,2.5906049617063237e-05
-0.43551668092768525,-0.43551668092768525,0.9999617667502573,2.5870809106603224e-05
-0.43393062519899106,-0.43393062519899106,0.9999562851143834,2.5856079352571353e-05
-0.4329584545630496,-0.4329584545630496,0.9999945359489505,2.587879333246445e-05
-0.4318810502467386,-0.4318810502467386,1.0000317951098172,2.5881658513816713e-05
-0.4307090939051704,-0.4307090939051704,1.0000189942939064,2.5913251811941383e-05
-0.42808924173004925,-0.42808924173004925,0.9999934247125918,2.5855174527403403e-05
-0.4264299031172413,-0.4264299031172413,0.9999969090347905,2.5847889372325028e-05
-0.4249257557290548,-0.4249257557290548,0.9999586974316195,2.5869446720628858e-05
-0.4233234456129139,-0.4233234456129139,1.000006000217411,2.5863643172175793e-05
-0.42244138909009055,-0.42244138909009055,0.9999995298545643,2.588890156031546e-05
-0.4208201915062091,-0.4208201915062091,1.0000693468727295,2.5898259387301536e-05
-0.4195098258125654,-0.4195098258125654,0.9999396204941476,2.5858138160395094e-05
-0.4185313335954561,-0.4185313335954561,0.9999066753213743,2.586723530251515e-05
-0.4176723736745771,-0.4176723736745771,0.9996852931511938,2.589307306784237e-05
-0.41598552448849657,-0.41598552448849657,0.9999850693961461,2.583050195865674e-05
-0.414121445017372,-0.414121445017372,0.9999726572506775,2.587719119982795e-05
-0.4130740092710766,-0.4130740092710766,1.00003150226425,2.5889658062718933e-05
-0.4119392840701039,-0.4119392840701039,0.9999449811941752,2.5909670397144704e-05
-0.41002353212898013,-0.41002353212898013,1.0000402573626592,2.5881978773839984e-05
-0.40806717627274336,-0.40806717627274336,0.9999725711878092,2.5879730830402754e-05
-0.4067439566948451,-0.4067439566948451,0.999979019028047,2.589421567552709e-05
-0.4058405453695741,-0.4058405453695741,1.0000676852251584,2.58696299796241e-05
-0.40464200425412855,-0.40464200425412855,0.9999990985511923,2.5913482049015733e-05
-0.4037779093407153,-0.4037779093407153,1.0000332991982692,2.588061556387347e-05
-0.40199075542914214,-0.40199075542914214,0.9999721503480309,2.5893451369985426e-05
-0.4005734452221077,-0.4005734452221077,0.9998807048666064,2.588391746576273e-05
-0.3990401984250639,-0.3990401984250639,1.0000047526119196,2.5856909333489276e-05
-0.3981346739958099,-0.3981346739958099,1.0000329452551688,2.58985057022321e-05
-0.3972552289822488,-0.3972552289822488,0.9999383967935955,2.5880467376857918e-05
-0.39584834054330714,-0.39584834054330714,1.0001493379402215,2.5864494441877298e-05
-0.39499138714309084,-0.39499138714309084,0.9999855001620883,2.592597378639106e-05
-0.39313188336600435,-0.39313188336600435,0.9999804778314008,2.5888890490221316e-05
-0.3912355236978328,-0.3912355236978328,0.9999538826438167,2.5883449103901013e-05
-0.38998240914952476,-0.38998240914952476,0.9999726140797998,2.5849042810081966e-05
-0.3885555526110693,-0.3885555526110693,1.0000105111046411,2.5879405803233014e-05
-0.38726680930994917,-0.38726680930994917,0.9999948412934806,2.5867646427550172e-05
-0.3866266375662235,-0.3866266375662235,0.9999710885832076,2.6362148683924113e-05
-0.38584747916975176,-0.38584747916975176,0.9999214886871804,2.5890997274441784e-05
-0.38511343827922245,-0.38511343827922245,0.9999393664663735,2.587916813551224e-05
-0.38338314096836257,-0.38338314096836257,0.9999962035542109,2.589065411609187e-05
-0.38131058708022464,-0.38131058708022464,1.0000447791027565,2.5888126789526503e-05
-0.3797140943468548,-0.3797140943468548,1.0000369520442085,2.5862966419569727e-05
-0.3786248813899874,-0.3786248813899874,1.0000307588840758,2.5871046683891714e-05
-0.37730611234364914,-0.37730611234364914,1.0000251763127905,2.59190910993128e-05
-0.37606605911205404,-0.37606605911205404,1.0000048133363446,2.5868180562776208e-05
-0.374343159495038,-0.374343159495038,1.0000095093430084,2.5870851983810292e-05
-0.37279374232603,-0.37279374232603,1.0000119633190443,2.5863643245219543e-05
-0.37106943940962084,-0.37106943940962084,0.9999815458421863,2.5875094890413986e-05
-0.3702717818625388,-0.3702717818625388,1.0000007146518595,2.589836203785367e-05
-0.36902562558025237,-0.36902562558025237,1.0000429726204099,2.5857594595125296e-05
-0.36783124176508863,-0.36783124176508863,0.9999539289868051,2.587828365703962e-05
-0.36630567996398894,-0.36630567996398894,0.9999776972292403,2.588668724042994e-05
-0.3642487959150458,-0.3642487959150458,0.9999706721848579,2.588223427853115e-05
-0.36268662473812585,-0.36268662473812585,1.000013926970448,2.589376385442923e-05
-0.36050408287264873,-0.36050408287264873,1.000005894450841,2.5839131115007246e-05
-0.35926937375988927,-0.35926937375988927,1.0000224388391359,2.586977960404912e-05
-0.3582416413468309,-0.3582416413468309,1.0000094346539719,2.589216779552786e-05
-0.35701460043128463,-0.35701460043128463,0.9999627672583282,2.589938508578635e-05
-0.35545935683621793,-0.35545935683621793,0.9999775931784887,2.585294973539864e-05
-0.3531763964136189,-0.3531763964136189,1.0000105632545306,2.586711632363536e-05
-0.3512755756928527,-0.3512755756928527,0.9998967520784415,2.586821917447594e-05
-0.35045665479483434,-0.35045665479483434,0.9999380296440699,2.5866884490801343e-05
-0.34954722996844795,-0.34954722996844795,1.000053049375746,2.5915259353575137e-05
-0.3485597562685143,-0.3485597562685143,1.000014204925949,2.5890458640950757e-05
-0.3470648701630125,-0.3470648701630125,0.9999895214757547,2.5896368689868444e-05
-0.3456839084297826,-0.3456839084297826,1.0000179972413574,2.586775541930473e-05
-0.34410968879601567,-0.34410968879601567,0.9999971770362569,2.5864337915887155e-05
-0.3426558185150498,-0.3426558185150498,0.9999285639601136,2.5863484351872133e-05
-0.3414068713900633,-0.3414068713900633,0.9999918584816363,2.5885132201276734e-05
-0.34040789818682243,-0.34040789818682243,0.9999784293700931,2.5874688187852526e-05
-0.33926556145452197,-0.33926556145452197,0.9999602087283034,2.5887420188432942e-05
-0.336687071169581,-0.336687071169581,0.9999758495439522,2.590402582434632e-05
-0.33509005033847644,-0.33509005033847644,0.9999392408459384,2.5885284462445194e-05
-0.3332325612922432,-0.3332325612922432,0.9999125801299351,2.5892784548325708e-05
-0.33196132884113466,-0.33196132884113466,0.9999839727589407,2.587429769004274e-05
-0.3306843806974939,-0.3306843806974939,0.9999877266040365,2.58666019554247e-05
-0.32959284269381894,-0.32959284269381894,1.000025942845384,2.5912505442302743e-05
-0.32772854261493195,-0.32772854261493195,0.9999956629736839,2.5855922737387064e-05
-0.3264044370240299,-0.3264044370240299,1.0000159851004362,2.5889237320628348e-05
-0.32523369558621196,-0.32523369558621196,1.000022494860834,2.5843043981690932e-05
-0.3238189509655058,-0.3238189509655058,0.9999149859227231,2.588763414964615e-05
-0.3230045564501779,-0.3230045564501779,1.000060564197852,2.586615276457881e-05
-0.32201246623226326,-0.32201246623226326,0.9999671302410956,2.588110633658221e-05
-0.3203498061317077,-0.3203498061317077,1.0000152361966763,2.5871461391696273e-05
-0.31837112945868284,-0.31837112945868284,1.000048078505302,2.58502240134833e-05
-0.3166469466894341,-0.3166469466894341,1.0000102237149309,2.584561549364155e-05
-0.31487830029727776,-0.31487830029727776,1.0000280728398283,2.587538192438073e-05
-0.3134219747385941,-0.3134219747385941,0.9999899254954061,2.5883119006626347e-05
-0.31250875185724,-0.31250875185724,0.9999549402376946,2.587789538873633e-05
-0.31206008001972807,-0.31206008001972807,1.000023273560409,2.588565192618634e-05
-0.31132269582740263,-0.31132269582740263,1.000061977714154,2.5871397402426657e-05
-0.309617553454882,-0.309617553454882,1.0000201450535786,2.5886822817146597e-05
-0.3074734988549608,-0.3074734988549608,0.9999991707905986,2.5900979189657877e-05
-0.3060156835374073,-0.3060156835374073,0.9999532202627893,2.5860020329576926e-05
-0.30496441269206115,-0.30496441269206115,0.9999833667508083,2.586150125007043e-05
-0.3040710182787734,-0.3040710182787734,0.9999920631047206,2.5894882726116676e-05
-0.30274452414232655,-0.30274452414232655,0.9999993061311011,2.5897289950635926e-05
-0.30136097312279164,-0.30136097312279164,0.9999812782264668,2.5895972387795e-05
-0.2996102457494999,-0.2996102457494999,1.0000328015805717,2.5878119456484013e-05
-0.29804513755734663,-0.29804513755734663,1.0000321829855798,2.587533347570756e-05
-0.29664249940251464,-0.29664249940251464,1.0000027774444713,2.5860471734093933e-05
-0.29489503896402314,-0.29489503896402314,0.9999653285859053,2.586432256239604e-05
-0.2939168192635407,-0.2939168192635407,0.9999455374682376,2.5882159946459262e-05
-0.29269308062721394,-0.29269308062721394,0.9999698292510188,2.5905131738457813e-05
-0.29145938924193615,-0.29145938924193615,0.999904173666901,2.5862909806939785e-05
-0.2905793318343058,-0.2905793318343058,0.99976526255725,2.5849164321018722e-05
-0.2898898131490569,-0.2898898131490569,0.9999432810640713,2.5898997220274285e-05
-0.2888900067875511,-0.2888900067875511,0.9999482733886815,2.5847188420222064e-05
-0.28791036272086784,-0.28791036272086784,0.9999960681976807,2.58363238839832e-05
-0.2862668543079053,-0.2862668543079053,0.9999011181569321,2.5862726917391437e-05
-0.28491368477334617,-0.28491368477334617,0.9999892599099415,2.5857247679881748e-05
-0.2843562332695001,-0.2843562332695001,1.000023786924299,2.5895324992365808e-05
-0.28277985099412034,-0.28277985099412034,0.9999469081647403,2.5888610131320392e-05
-0.2804603365249932,-0.2804603365249932,0.9999985619891201,2.5899348511966574e-05
-0.278623326253728,-0.278623326253728,1.000048882520478,2.5865844580944848e-05
-0.27744015830830904,-0.27744015830830904,1.0000011091813152,2.587603179462676e-05
-0.2761411138199037,-0.2761411138199037,1.0000374557463965,2.5913414290948174e-05
-0.2751121262837842,-0.2751121262837842,0.9999967578938307,2.5883634583087476e-05
-0.27302936750784285,-0.27302936750784285,0.9999936861214884,2.5871675087075397e-05
-0.27119595367330473,-0.27119595367330473,1.00007041165984,2.589619239892989e-05
-0.26992039406177354,-0.26992039406177354,0.9999989635910547,2.5869464717200393e-05
-0.2690040506473451,-0.2690040506473451,0.9999906804286021,2.5877132615337646e-05
-0.2676636395488458,-0.2676636395488458,1.0000436208632135,2.5885369920849127e-05
-0.26647471050091553,-0.26647471050091553,0.9999510711285415,2.5917645336946204e-05
-0.26538729650856113,-0.26538729650856113,1.0000057070236854,2.590161975825119e-05
-0.26338946387841133,-0.26338946387841133,0.9999444935776,2.5877636480574883e-05
-0.2619560031234869,-0.2619560031234869,1.00000846820593,2.588289867122652e-05
-0.2604269585463044,-0.2604269585463044,0.9999795615155476,2.587802447648409e-05
-0.25927229605586033,-0.25927229605586033,1.0000685868227253,2.585577853542658e-05
-0.2583801760694769,-0.2583801760694769,0.9999819175762612,2.5849373575299617e-05
-0.25755075406195826,-0.25755075406195826,0.9999743519431661,2.587108789725621e-05
-0.25692757006545436,-0.25692757006545436,0.9999829847210322,2.589515242068504e-05
-0.25535522710488295,-0.25535522710488295,1.000042602317136,2.5872258180759512e-05
-0.2529076156090014,-0.2529076156090014,0.9999772685800978,2.589568121787805e-05
-0.25167710617461125,-0.25167710617461125,0.999929851839832,2.585416400584755e-05
-0.2506988676221226,-0.2506988676221226,1.0000617235559375,2.5896810970563317e-05
-0.24943646673855255,-0.24943646673855255,0.9999736806361208,2.5901089324067343e-05
-0.2481991093904071,-0.2481991093904071,1.0000339565753673,2.5888171805591408e-05
-0.24653457625681768,-0.24653457625681768,0.9999766704091411,2.588441501323673e-05
-0.2454418793808145,-0.2454418793808145,0.9999920283053957,2.5842545576966767e-05
-0.24411002170309076,-0.24411002170309076,0.9999784868491901,2.59003479749871e-05
-0.2426493660590495,-0.2426493660590495,1.0000224275878942,2.5883127694171483e-05
-0.24202125087031162,-0.24202125087031162,1.0000274962186613,2.5904478108906572e-05
-0.24084016242049983,-0.24084016242049983,1.0000058183259573,2.585757516055254e-05
-0.23949148012543447,-0.23949148012543447,0.9999851562721304,2.5879541002062414e-05
-0.23798663112247595,-0.23798663112247595,0.9999901771214615,2.5904720316463646e-05
-0.23582111866999184,-0.23582111866999184,1.0000416898587667,2.5897174255798026e-05
-0.23390705805941253,-0.23390705805941253,1.0001260660178466,2.5883128497323804e-05
-0.23221361639152746,-0.23221361639152746,0.9999994028477246,2.5865840411726014e-05
-0.23109122565874712,-0.23109122565874712,0.9999759170521146,2.5863827270342073e-05
-0.2301145592762623,-0.2301145592762623,1.000001521215091,2.5892437313502707e-05
-0.2290198088165198,-0.2290198088165198,0.9999330884359432,2.587461126207825e-05
-0.22790980576173753,-0.22790980576173753,0.9999737289296113,2.5874496682353378e-05
-0.22566078782401747,-0.22566078782401747,1.0000078575844067,2.5870585690707913e-05
-0.2241224539320683,-0.2241224539320683,0.9999693757232684,2.5838526069319893e-05
-0.22258101515617454,-0.22258101515617454,1.000050274564478,2.5875105350415456e-05
-0.22172490529919742,-0.22172490529919742,0.9999823248182708,2.588222563445235e-05
-0.22023174935748102,-0.22023174935748102,0.9999506594174736,2.590957962893795e-05
-0.21783610809216042,-0.21783610809216042,0.9999722412963099,2.5862193058183576e-05
-0.21608563871268416,-0.21608563871268416,0.9999774335513567,2.5881230515891845e-05
-0.21473829135284178,-0.21473829135284178,1.0000121316700878,2.586120045028256e-05
-0.2132217224978376,-0.2132217224978376,0.9999953373702425,2.587317548537148e-05
-0.21222701089209295,-0.21222701089209295,1.0000313360931936,2.588917847039968e-05
-0.21105282605203685,-0.21105282605203685,0.9999475495536952,2.5878627528755405e-05
-0.20983647629182087,-0.20983647629182087,1.0000254323372952,2.5869171430781516e-05
-0.20767037410041667,-0.20767037410041667,0.9999384395657736,2.586670995139422e-05
-0.2063727300715982,-0.2063727300715982,1.0000516634326768,2.591478948071657e-05
-0.20440660110034514,-0.20440660110034514,1.0000323218402243,2.586881302341637e-05
-0.20337535921134986,-0.20337535921134986,0.9999597966701458,2.5882807268095335e-05
-0.20183068016485778,-0.20183068016485778,0.9999685226514959,2.5875347492446078e-05
-0.20060487264272525,-0.20060487264272525,0.9999805676969185,2.5908030365775764e-05
-0.1985530980171461,-0.1985530980171461,0.999949755441271,2.58673434272836e-05
-0.19717081018243335,-0.19717081018243335,1.0000695408760234,2.5851772501176986e-05
-0.19580414859228767,-0.19580414859228767,0.9999940144573516,2.5890988234827932e-05
-0.19462139140887302,-0.19462139140887302,0.999995928910996,2.5876692444375745e-05
-0.19365691751008854,-0.19365691751008854,1.000001057366918,2.5906327829216666e-05
-0.19192084786554914,-0.19192084786554914,0.9999629824846229,2.5873076192197938e-05
-0.18982422631816007,-0.18982422631816007,1.0000103438162693,2.587185387084792e-05
-0.1879459493495233,-0.1879459493495233,0.9999541598210631,2.586139757529382e-05
-0.18642632516130106,-0.18642632516130106,0.9999841561619844,2.5876709215272618e-05
-0.18469108844874427,-0.18469108844874427,0.9999521728762186,2.5863026550124515e-05
-0.1839822970723617,-0.1839822970723617,0.999968557192983,2.5871604718769596e-05
-0.1833826757778297,-0.1833826757778297,1.000000794115374,2.5882110007498754e-05
-0.18215357003355165,-0.18215357003355165,1.0000114759810448,2.587571268676136e-05
-0.1798603687711875,-0.1798603687711875,0.9999953508121795,2.5864588158652426e-05
-0.17866622925066622,-0.17866622925066622,0.999964558741199,2.5900522789046207e-05
-0.1773107675900974,-0.1773107675900974,1.0000202912553315,2.5844329971715596e-05
-0.17638748045792454,-0.17638748045792454,0.9999737859223364,2.5864135335161482e-05
-0.17519866719085259,-0.17519866719085259,0.9999593823100146,2.5873878764594706e-05
-0.17376627913472475,-0.17376627913472475,1.000052277701882,2.591157896093559e-05
-0.17173366336646723,-0.17173366336646723,1.000008133491966,2.5870723014602305e-05
-0.1702655918808887,-0.1702655918808887,0.9999754844023941,2.5897566461074512e-05
-0.1689481484645512,-0.1689481484645512,0.9999874956109922,2.5865064359261102e-05
-0.1674118844566692,-0.1674118844566692,1.0000196326187374,2.5876026431239285e-05
-0.1661328799556941,-0.1661328799556941,0.9999385148542113,2.5891915236132487e-05
-0.16443710162129718,-0.16443710162129718,0.9999127064784485,2.5886075159531806e-05
