time,time,flux,flux_err
-0.49940151096413954,-0.49940151096413954,1.000046456809132,0.00036016106597071225
-0.49805347783794784,-0.49805347783794784,0.9998248817549342,0.0003593502269106828
-0.4966103250311562,-0.4966103250311562,0.9996177429321887,0.0003600604720605533
-0.49530614328941736,-0.49530614328941736,0.9998765302654791,0.000358844639047443
-0.494244515633136,-0.494244515633136,1.0001074486272483,0.0003590529422957677
-0.4927155025994125,-0.4927155025994125,0.99996008979475,0.00035877126089878177
-0.4913135528546036,-0.4913135528546036,0.9996028538148497,0.0003609074555639125
-0.4900940866672272,-0.4900940866672272,0.9996729867998407,0.00035792460756499096
-0.48907314219784437,-0.48907314219784437,0.9996828281936294,0.00036002430492363546
-0.48740025477302423,-0.48740025477302423,1.0001844253305758,0.000358832963807989
-0.48602783297146746,-0.48602783297146746,0.9999873135727466,0.0003611078188604116
-0.4847255187252813,-0.4847255187252813,0.9998076803059153,0.00035848285985237845
-0.4834735228215322,-0.4834735228215322,0.9998873349016073,0.00035972122559705115
-0.4819269402757982,-0.4819269402757982,0.9999755028412416,0.00035886247285773446
-0.48044316852144675,-0.48044316852144675,1.0006914766239707,0.0003604895569123648
-0.47929646749905713,-0.47929646749905713,0.9999884677706307,0.0003589652041498109
-0.47776740840076853,-0.47776740840076853,1.00018024770977,0.00035880002827081694
-0.47628576992133276,-0.47628576992133276,1.000067854325673,0.0003610644319789079
-0.47500245843230005,-0.47500245843230005,0.9995520868633083,0.0003583499067534523
-0.4733885815062422,-0.4733885815062422,1.000064409858961,0.000359744173754687
-0.4717360324912988,-0.4717360324912988,1.0000321705620885,0.0003604905272108619
-0.47034457257589113,-0.47034457257589113,0.9995722915381743,0.0003588142328870746
-0.4692124675982313,-0.4692124675982313,1.00027596244241,0.0003586875246020954
-0.4671296142490064,-0.4671296142490064,0.9998650496755532,0.000358154399246551
-0.465800967543737,-0.465800967543737,1.0004122870792123,0.0003610053830077162
-0.464708918547376,-0.464708918547376,1.0001146265255194,0.00035909064057391363
-0.4633905667682029,-0.4633905667682029,0.9998351622361075,0.000359863589033617
-0.461445716805315,-0.461445716805315,0.999722212961313,0.00036008546640057355
-0.4602216047956517,-0.4602216047956517,0.9996365628279908,0.00035798668464938463
-0.4591245262495022,-0.4591245262495022,0.9998483987481295,0.000359724931434764
-0.45715886952446,-0.45715886952446,1.0001397729741013,0.0003592660403913987
-0.45553292936122036,-0.45553292936122036,1.0004352478933551,0.00036109639698175204
-0.45466593323367305,-0.45466593323367305,1.0002248515981442,0.000358848971181439
-0.4534165130243082,-0.4534165130243082,0.9999676210491062,0.00035918963857537606
-0.45132088630443834,-0.45132088630443834,0.999487189544983,0.0003600973426157892
-0.45014749892231976,-0.45014749892231976,1.0000935931993336,0.00035914198244747797
-0.44926696538273064,-0.44926696538273064,1.0004123952970612,0.00035881632664124034
-0.44765888773079043,-0.44765888773079043,0.9997701362254674,0.00035797412093855
-0.44567746787377016,-0.44567746787377016,0.9999911498780459,0.000362044953764382
-0.44497381891924304,-0.44497381891924304,0.9997692914138963,0.00035933279613714034
-0.4439548338705663,-0.4439548338705663,1.000327887683739,0.0003584690224624413
-0.44211808319296325,-0.44211808319296325,0.9996989210894952,0.00035956966870766244
-0.44057424978182097,-0.44057424978182097,0.9997600964048436,0.0003607030478400369
-0.43974801164226845,-0.43974801164226845,0.9999059335502064,0.00035985263402716196
-0.4385507644604331,-0.4385507644604331,1.0002816534970542,0.00035801570507174474
-0.43670428021409863,-0.43670428021409863,1.0003549655479564,0.00035929430347931575
-0.43547081462090775,-0.43547081462090775,0.9999236450490148,0.0003610346857124598
-0.4344792554714104,-0.4344792554714104,1.0001354180130906,0.0003592925598120616
-0.4333616922468764,-0.4333616922468764,0.9996711364486608,0.00035740277836698604
-0.4317215910048162,-0.4317215910048162,1.0002223689699583,0.00035927768301138874
-0.43048812876972986,-0.43048812876972986,1.0003085214880971,0.0003610029094110323
-0.42938760286695016,-0.42938760286695016,1.000099647344514,0.00036035621842283835
-0.428073298530353,-0.428073298530353,1.0003363007742143,0.00035645713506902
-0.42603552904361097,-0.42603552904361097,0.9998579417139368,0.0003603558174134692
-0.42536962028218567,-0.42536962028218567,1.0002629918805357,0.0003614614481090392
-0.4241690851086332,-0.4241690851086332,0.9998119321264713,0.00035877055178562816
-0.42254854451502977,-0.42254854451502977,1.0003588911095422,0.0003568411652982807
-0.42076401700951466,-0.42076401700951466,1.0007544948284823,0.0003622826093914159
-0.42020264159634735,-0.42020264159634735,1.0007579089718364,0.00036063890344432216
-0.4188831977217887,-0.4188831977217887,1.000134308580026,0.0003584427560025155
-0.41682199333581593,-0.41682199333581593,0.9999484473397654,0.00035844570440164117
-0.415564779328588,-0.415564779328588,1.0000776841059715,0.00036089553169617517
-0.41465096470528806,-0.41465096470528806,0.9997906791792446,0.00036049836447858127
-0.4131768386788508,-0.4131768386788508,1.000105276004319,0.0003573842149122056
-0.4109440757006041,-0.4109440757006041,0.999590189084986,0.00035923669523786936
-0.41027934066032684,-0.41027934066032684,0.9993861816903318,0.0003615164780717624
-0.4091811991520672,-0.4091811991520672,0.9998168471242606,0.00035873524088847963
-0.40720847178076836,-0.40720847178076836,1.0000800374021324,0.00035788070083204646
-0.4057802020426379,-0.4057802020426379,1.0000145017015991,0.0003622936864938419
-0.4051242869437601,-0.4051242869437601,0.9994814827123374,0.0003594344571837251
-0.4037358683761113,-0.4037358683761113,0.9997029509637267,0.0003583292643860766
-0.40162615132796875,-0.40162615132796875,0.9992664580679896,0.00035929570906828394
-0.40046359080026833,-0.40046359080026833,1.0001102566896622,0.0003614238350295923
-0.3996254758954819,-0.3996254758954819,0.9995236141391717,0.00035901545064564105
-0.3980294519107474,-0.3980294519107474,0.9998046158031013,0.00035740162751226484
-0.39594087818188656,-0.39594087818188656,1.0000180378615982,0.00036146213918472603
-0.3951936178308415,-0.3951936178308415,0.9995462529270362,0.0003603935444814937
-0.39442080582196015,-0.39442080582196015,1.0005049433750723,0.00035778352564522415
-0.39250476914262433,-0.39250476914262433,1.0003387790411078,0.0003578788597736844
-0.39083208128897695,-0.39083208128897695,0.9996996173723941,0.000362305900431013
-0.38988024318432507,-0.38988024318432507,1.0000949561038217,0.00036000984608537624
-0.3887598118156802,-0.3887598118156802,1.0002301926729964,0.0003578981400335728
-0.38709701032801147,-0.38709701032801147,1.000056115226816,0.0003594587817815566
-0.38556206536511584,-0.38556206536511584,1.000519251512973,0.0003603750070185855
-0.3846383674768049,-0.3846383674768049,1.0001726415706962,0.0003599367774791421
-0.38344683033160437,-0.38344683033160437,1.000772351212193,0.00035855147442353375
-0.38169539926593643,-0.38169539926593643,0.9997307497263037,0.00035948756741000583
-0.3802613585611653,-0.3802613585611653,1.0004473760621764,0.0003592953839252168
-0.37915421116861125,-0.37915421116861125,0.999838329161232,0.000359473230521677
-0.3775025972558524,-0.3775025972558524,0.9997839313518622,0.0003580912257661119
-0.37577738918603243,-0.37577738918603243,1.0004481999174462,0.0003616211845394094
-0.3746564856881605,-0.3746564856881605,0.9998981000943861,0.00036050445628179527
-0.3734173521738285,-0.3734173521738285,0.9998443643813921,0.0003581665908749258
-0.37176970209700355,-0.37176970209700355,0.9998065691301876,0.00035915670526075357
-0.3705264745320164,-0.3705264745320164,1.0002795779921492,0.00036028567641296905
-0.36927046437981514,-0.36927046437981514,1.000024006282832,0.00035868015317018
-0.367757353760976,-0.367757353760976,0.9998735322072398,0.00035861285889071627
-0.3661700139530922,-0.3661700139530922,0.9997500362582142,0.00036055877112930047
-0.36502702883424265,-0.36502702883424265,0.999305036942849,0.00035978696677900463
-0.3636785121042294,-0.3636785121042294,1.0000057062937073,0.00035902303122885623
-0.3619096789717105,-0.3619096789717105,0.9998776717579385,0.0003579671652290502
-0.36079838716325413,-0.36079838716325413,1.0002123246810635,0.00036131918444554675
-0.3594988592616346,-0.3594988592616346,1.0003610705404704,0.00035909200395347533
-0.3580574179633004,-0.3580574179633004,1.000100569041029,0.000359958075620087
-0.35659707834599885,-0.35659707834599885,1.0001892700413042,0.00035917332820717374
-0.35542815797548427,-0.35542815797548427,1.00017708805516,0.0003605760647311313
-0.3540397410455398,-0.3540397410455398,1.000582338503627,0.0003596585621433247
-0.35253023859520455,-0.35253023859520455,1.0005632022126476,0.000358625558393012
-0.35122200579755825,-0.35122200579755825,0.9997569834944715,0.0003606417250224405
-0.3499460363565504,-0.3499460363565504,0.9995192453632583,0.00035851242685282843
-0.348818423372677,-0.348818423372677,1.0007475500608047,0.0003604630660786819
-0.3470756806024383,-0.3470756806024383,1.0001104289115266,0.00035867779811030577
-0.34610012155171715,-0.34610012155171715,0.9996064764233343,0.00036053667043863316
-0.3445517882482136,-0.3445517882482136,1.000074355207867,0.0003589111133398698
-0.3435164769159428,-0.3435164769159428,1.0003267632456465,0.0003601975472238268
-0.34183401354721354,-0.34183401354721354,0.9993586821402738,0.0003576615509295367
-0.3408434991984223,-0.3408434991984223,1.0003536197008878,0.00036148885085979997
-0.33908613001494814,-0.33908613001494814,0.999363963422596,0.0003583462850845563
-0.3378698148017293,-0.3378698148017293,1.000093700518386,0.0003593681801470581
-0.33627399788265394,-0.33627399788265394,0.9994280294364785,0.0003606573244249138
-0.3350257259523687,-0.3350257259523687,1.0000036506536503,0.0003594578822927408
-0.3332664851403706,-0.3332664851403706,1.000190404795598,0.00035893014947559703
-0.3320367596258393,-0.3320367596258393,0.9998890056382578,0.00035843046380324036
-0.33089380479859754,-0.33089380479859754,1.0003790315688719,0.00036138477159170553
-0.329198437754053,-0.329198437754053,1.0001376749647286,0.00035732137781976106
-0.32744365347630267,-0.32744365347630267,1.0003596633782317,0.0003599056147302265
-0.3263439258779727,-0.3263439258779727,0.999584702115911,0.0003597529633021915
-0.3250742307927794,-0.3250742307927794,1.0004035214615776,0.00036057929776202595
-0.32343442788287574,-0.32343442788287574,1.0001045806033342,0.0003592638186313117
-0.3218490668327604,-0.3218490668327604,1.0002376410376612,0.000357958650842259
-0.3209636989797673,-0.3209636989797673,0.9999245619926391,0.00036052446037023063
-0.31928331050096403,-0.31928331050096403,0.9994901480192123,0.00035992867928404056
-0.3177745410507896,-0.3177745410507896,1.0002620521031744,0.000358547804745015
-0.3163156876982839,-0.3163156876982839,1.00019662170329,0.0003593900478588651
-0.3151088536578072,-0.3151088536578072,0.9999925390602975,0.00036061114095079476
-0.3132793528550337,-0.3132793528550337,1.0002668091369689,0.0003597244616099796
-0.3121761820761321,-0.3121761820761321,0.999847645998185,0.0003579180209748909
-0.31101512503244066,-0.31101512503244066,0.9997059511816447,0.00036004100109675297
-0.30931794311918565,-0.30931794311918565,0.9996336480819711,0.0003599722643451654
-0.3078091372404515,-0.3078091372404515,0.9996490039655702,0.00035845395201190974
-0.306350352699792,-0.306350352699792,1.0004713928194426,0.0003593895621770026
-0.305378105556656,-0.305378105556656,1.000179765291927,0.0003596585663168503
-0.3034796483382934,-0.3034796483382934,1.0003122822264676,0.0003580145196604938
-0.3018496375606219,-0.3018496375606219,1.00001652703026,0.0003594324510948342
-0.3009133937581964,-0.3009133937581964,0.9995774737536015,0.0003605602894541122
-0.2996584699999175,-0.2996584699999175,0.9996379963877933,0.0003606228972338283
-0.29757058387242524,-0.29757058387242524,0.9997197638212555,0.0003573384844340275
-0.2962593876307892,-0.2962593876307892,1.00057019953482,0.00035986693731253827
-0.2954668642402112,-0.2954668642402112,0.9995695386740728,0.00036139606375336386
-0.2938699227970346,-0.2938699227970346,0.9998957677060956,0.00035833659514627087
-0.29192082886449955,-0.29192082886449955,1.000168876197663,0.0003579582256619814
-0.2907410357255003,-0.2907410357255003,0.9995045611298078,0.00036032046708063813
-0.2897302081810949,-0.2897302081810949,1.0001099015161745,0.0003621027130353179
-0.288093396727254,-0.288093396727254,0.9998655344400109,0.0003562561531599065
-0.28624707316848796,-0.28624707316848796,1.0000015614949276,0.0003594699578336597
-0.2851822732557821,-0.2851822732557821,1.0001809120326528,0.0003606004452277935
-0.2838650104343742,-0.2838650104343742,1.0001249922933109,0.0003592358514933788
-0.28196256263076974,-0.28196256263076974,1.0002916925405663,0.0003583826607481777
-0.28062463253741043,-0.28062463253741043,0.9999361911034066,0.00036117620572495216
-0.27962973221522136,-0.27962973221522136,1.0005115997843703,0.0003610270698973007
-0.2785217204210767,-0.2785217204210767,1.0004004046995685,0.00035657748494269197
-0.27650229785110697,-0.27650229785110697,0.9996892082118405,0.0003592505785279625
-0.2752230793907984,-0.2752230793907984,0.9997938481637478,0.0003617689098811181
-0.2745208555152658,-0.2745208555152658,1.0002617434161418,0.0003594747526386639
-0.27260447409444166,-0.27260447409444166,0.9999528820945909,0.0003565385487721254
-0.2709601654962398,-0.2709601654962398,1.0003501346531558,0.0003605690552790486
-0.26982265194540106,-0.26982265194540106,0.9997739921237245,0.00036107087745460383
-0.26844086238033926,-0.26844086238033926,1.0001142354627044,0.00035750596514300007
-0.26672304711257766,-0.26672304711257766,1.0002679998758979,0.00035906329434160715
-0.2654829626158971,-0.2654829626158971,1.0001773925888624,0.00036101472979582636
-0.26425394758048243,-0.26425394758048243,1.0002077391755981,0.0003583298695531068
-0.26218328970705895,-0.26218328970705895,0.9999505697152958,0.0003577335353229411
-0.26094006615371657,-0.26094006615371657,0.9997494015094099,0.0003602771808877591
-0.2595552866315757,-0.2595552866315757,0.999558806798249,0.0003603290771486995
-0.2579824752928744,-0.2579824752928744,0.999610673975505,0.0003572718292492937
-0.25627809511026955,-0.25627809511026955,1.0000906129440308,0.0003594483111772727
-0.2550999323540964,-0.2550999323540964,1.0001466316690117,0.00036217486326373073
-0.253593116749289,-0.253593116749289,0.9999054124028326,0.0003563277331519414
-0.25214336970598195,-0.25214336970598195,1.0001474021958758,0.0003595775252798386
-0.2507178599403915,-0.2507178599403915,0.9995887781595698,0.00036051410761826227
-0.24917849966257108,-0.24917849966257108,0.9996095583353408,0.00035816429438286575
-0.24757496615131913,-0.24757496615131913,0.9997932886939267,0.00035887819413613325
-0.24633982237057808,-0.24633982237057808,1.000021742885366,0.00036041622856469697
-0.24514733197852365,-0.24514733197852365,0.9998095136450047,0.00036115329545236127
-0.24346833899019202,-0.24346833899019202,0.9995705412471072,0.0003563017536644375
-0.24197867895748004,-0.24197867895748004,1.0003591005020454,0.000359583650341326
-0.2410090161079097,-0.2410090161079097,1.0001122867222336,0.000361001152844588
-0.2394289032581355,-0.2394289032581355,1.000336618986583,0.0003588729054356186
-0.23756372566379014,-0.23756372566379014,1.000528046813326,0.0003581870771514827
-0.23634056766359207,-0.23634056766359207,1.00028985661601,0.00036126200520318657
-0.2351819650921243,-0.2351819650921243,1.0002299416114018,0.00036116575890408176
-0.23334356139116608,-0.23334356139116608,0.9996633942060125,0.0003563070163905359
-0.2320132974100943,-0.2320132974100943,0.9999200650306357,0.00035954133403096826
-0.23104361942969262,-0.23104361942969262,0.9994201048746906,0.00036089643922911075
-0.22946355298249727,-0.22946355298249727,0.9999647667751972,0.00035888531295868694
-0.22759836376098974,-0.22759836376098974,0.999874582596696,0.00035811218197835567
-0.2263751582034729,-0.2263751582034729,1.0001129233896031,0.00036121102675550895
-0.22543499987787072,-0.22543499987787072,0.9999538974264708,0.0003592988138905883
-0.22371788435200415,-0.22371788435200415,1.0002964373711833,0.00035827847391997153
-0.22204791599660895,-0.22204791599660895,0.9995838146443516,0.000359523285130468
-0.22116582935875612,-0.22116582935875612,1.0002543292622375,0.00036072125368895216
-0.2197587949412309,-0.2197587949412309,1.0002769203330448,0.00036023289659589095
-0.2179751958334691,-0.2179751958334691,1.0003280256124363,0.00035764860272256035
-0.2165366214225287,-0.2165366214225287,1.0000977164773204,0.0003601787211714857
-0.2157355936553813,-0.2157355936553813,0.9993886540254981,0.00036034568670917616
-0.21393705892626258,-0.21393705892626258,0.9994282950403661,0.0003571938057086426
-0.21236840838030274,-0.21236840838030274,1.000013288514132,0.00035928579640848467
-0.2113210054369347,-0.2113210054369347,0.999619711317342,0.0003610543887566995
-0.21022201697530818,-0.21022201697530818,1.0002908517387132,0.0003610589104645663
-0.2085262999007682,-0.2085262999007682,1.0000762174106126,0.00035672143765155324
-0.20709984412978882,-0.20709984412978882,0.9999414036178338,0.0003595137692261354
-0.20621774377812016,-0.20621774377812016,1.0000656313651946,0.00036060178183902315
-0.20477153759497924,-0.20477153759497924,0.999654383511898,0.0003599051569859579
-0.20280765624445393,-0.20280765624445393,0.9999945340662173,0.0003566983513895371
-0.2014753382026356,-0.2014753382026356,1.0001133168987806,0.00036144593498717813
-0.2007608587581217,-0.2007608587581217,1.0002967677071717,0.0003601810764853568
-0.19898902451045614,-0.19898902451045614,0.9998580330804533,0.00035718906941506115
-0.19710933892085905,-0.19710933892085905,0.9999511557226988,0.00035961683559666775
-0.19625235353157677,-0.19625235353157677,1.0001574340708899,0.000360566467793109
-0.19522721194603038,-0.19522721194603038,1.0005282828454853,0.00036116840390879875
-0.193392294480509,-0.193392294480509,1.000207301704935,0.0003564290408680184
-0.19177052850270684,-0.19177052850270684,0.9997072789465179,0.00035974456068556314
-0.19103177822928502,-0.19103177822928502,0.9997720896890367,0.0003608601939698289
-0.18971123168837495,-0.18971123168837495,0.9999604024652349,0.00035992264704838757
-0.18750150210298672,-0.18750150210298672,1.0000831295094013,0.00035647152294683495
-0.18652721834910152,-0.18652721834910152,1.000548977953546,0.0003614555489730251
-0.1855268048635935,-0.1855268048635935,1.0001756435826206,0.00035918393964559344
-0.1836763042463417,-0.1836763042463417,0.9995053405245082,0.0003595198366885949
-0.18203111765571975,-0.18203111765571975,1.000518577838232,0.000358786279869962
-0.18125744110932374,-0.18125744110932374,0.9998309189423649,0.0003607181443771717
-0.17956457060267894,-0.17956457060267894,1.0004504351995522,0.0003599369815298997
-0.17730986696940362,-0.17730986696940362,0.9998205158788689,0.00035688213573524936
-0.17644211085425923,-0.17644211085425923,0.999990617548139,0.00036112312194415175
-0.17509715077937926,-0.17509715077937926,1.0002434581773112,0.000361049772318136
-0.17298723209371475,-0.17298723209371475,1.0005048111747703,0.00035700957415000384
-0.1716764451933841,-0.1716764451933841,1.0002189190734425,0.0003592655673766782
-0.17110093158296422,-0.17110093158296422,1.0011487677472675,0.000360976491907504
-0.16912878899368025,-0.16912878899368025,0.9991062763321501,0.00035970890326972636
-0.16701662831967495,-0.16701662831967495,0.9995364693671833,0.0003583247134431943
-0.16644584918121835,-0.16644584918121835,0.9999332287979943,0.00035971799842947344
-0.16513177375766191,-0.16513177375766191,1.0000519497338947,0.0003610574261196702
-0.16261360353501003,-0.16261360353501003,0.9997128776069925,0.00035703866190926205
-0.1615882251107223,-0.1615882251107223,0.999896647856491,0.0003607734925685121
