time,time,flux,flux_err
-0.49988736313025584,-0.49988736313025584,0.9999093128860149,8.963370710589857e-05
-0.4997621248051776,-0.4997621248051776,1.0000688461860636,9.520459222682776e-05
-0.4995248196567748,-0.4995248196567748,1.0000897438129035,9.369544718618034e-05
-0.49934543207564275,-0.49934543207564275,0.9999754869573982,8.18357319994892e-05
-0.4991381934945821,-0.4991381934945821,1.000061618859044,8.713917698284916e-05
-0.49884956922469426,-0.49884956922469426,0.9999755335743522,8.576947179551529e-05
-0.49849841447212384,-0.49849841447212384,1.0000494182574553,8.524446417730679e-05
-0.4982358767374535,-0.4982358767374535,0.9999948806922007,8.237640414661895e-05
-0.49804636228072924,-0.49804636228072924,1.0000893231027521,8.184525777362115e-05
-0.49782112424072694,-0.49782112424072694,0.9999772830348368,8.328725406238028e-05
-0.49766979304185954,-0.49766979304185954,1.0001860577372548,8.630536720046072e-05
-0.4975195605256886,-0.4975195605256886,0.9999172380775608,8.824165596092255e-05
-0.497401129406353,-0.497401129406353,1.0000416358561517,8.589855553566772e-05
-0.49721381816707433,-0.49721381816707433,0.9999416360878813,8.183891256704934e-05
-0.49712743434793083,-0.49712743434793083,1.000054430468299,8.486139029093519e-05
-0.4968717330964864,-0.4968717330964864,1.000005460717141,8.578871920334546e-05
-0.4966942885432218,-0.4966942885432218,0.9999688335533469,8.182568133725869e-05
-0.4964868286268029,-0.4964868286268029,1.000090832582412,8.498093270382294e-05
-0.496252765977988,-0.496252765977988,0.9999834780024944,8.578278564417664e-05
-0.4960982115851948,-0.4960982115851948,0.9998550747208441,8.416186704103684e-05
-0.49596132564474826,-0.49596132564474826,1.0000187948621853,8.261398965999885e-05
-0.4958408382146445,-0.4958408382146445,0.9998199673928638,8.567955573034387e-05
-0.4956724097362894,-0.4956724097362894,0.9999223087401236,8.686409506696512e-05
-0.4954519200095092,-0.4954519200095092,0.9999846942354106,8.764884867526324e-05
-0.49524251433686006,-0.49524251433686006,1.000019916955053,8.400525445825845e-05
-0.49502435538815914,-0.49502435538815914,0.9998965686688652,8.17598546728454e-05
-0.49471818171223275,-0.49471818171223275,1.0000363599788495,8.403779372937158e-05
-0.4946650316618616,-0.4946650316618616,1.0000684358977991,8.3433707672823e-05
-0.49458757216998495,-0.49458757216998495,0.9998851370051123,8.359633512555981e-05
-0.49438964669898267,-0.49438964669898267,1.000011159950597,9.080616908505546e-05
-0.4942378182342509,-0.4942378182342509,1.0000343208209028,8.479698088671439e-05
-0.49404447150081976,-0.49404447150081976,0.9999795846831233,8.122417754628667e-05
-0.49381038141873435,-0.49381038141873435,1.0000812833432806,8.700604953148896e-05
-0.4936583305367094,-0.4936583305367094,0.9999929388414117,8.62543387008221e-05
-0.49346531101036817,-0.49346531101036817,1.0001363552324745,8.262316059355382e-05
-0.4931854413509427,-0.4931854413509427,1.0000526612566119,8.476731377208149e-05
-0.49298743214312707,-0.49298743214312707,0.9999868596269451,8.265057729725021e-05
-0.4927793862923863,-0.4927793862923863,0.9999787941558111,8.262989949140996e-05
-0.4924942197445489,-0.4924942197445489,0.9999522904456937,8.779339369762576e-05
-0.49233368170826,-0.49233368170826,1.0000012910051828,8.552790282027019e-05
-0.4922583880565071,-0.4922583880565071,0.9999446865510585,8.849973102588218e-05
-0.4920555549892015,-0.4920555549892015,1.0000252851148084,8.452977816705413e-05
-0.4918908396917686,-0.4918908396917686,1.0002211225381192,8.497392399852899e-05
-0.49154858239344323,-0.49154858239344323,1.00002981189196,8.469592816219025e-05
-0.49140874716977123,-0.49140874716977123,1.0000821517446838,8.673387409433008e-05
-0.4911262708330469,-0.4911262708330469,0.9999263874172751,8.518402501414579e-05
-0.49097145033956624,-0.49097145033956624,0.9998966714467746,8.363314102279856e-05
-0.49085992334075856,-0.49085992334075856,1.0000824318255521,8.544029201814986e-05
-0.49070877762787857,-0.49070877762787857,1.0000351162424947,8.25206751379068e-05
-0.4905844437693304,-0.4905844437693304,1.0000038077373394,8.648525272352112e-05
-0.49039380154281387,-0.49039380154281387,0.9999544522452745,9.016794640839693e-05
-0.4901627195868059,-0.4901627195868059,0.9999985049203952,8.579834648059222e-05
-0.4899553654955525,-0.4899553654955525,1.0000744411928435,8.282597006183318e-05
-0.48973898814219863,-0.48973898814219863,0.9999970559060584,8.214406440504725e-05
-0.4895174871533527,-0.4895174871533527,0.9999516289204641,8.350436528158545e-05
-0.4894185182107321,-0.4894185182107321,0.9999896836638626,8.271296900272577e-05
-0.4892328303467366,-0.4892328303467366,1.0000559036453704,8.629849183253351e-05
-0.48908814893875385,-0.48908814893875385,1.0000796148451503,8.889399565385625e-05
-0.4889207265114237,-0.4889207265114237,0.9998969849065507,8.319957372182919e-05
-0.4887049126518832,-0.4887049126518832,0.9999452360849324,8.232116017255781e-05
-0.4884360570285935,-0.4884360570285935,1.0001851680486618,8.576072942891708e-05
-0.4881781777243305,-0.4881781777243305,1.0001408237387104,8.182929419301682e-05
-0.48794689134228975,-0.48794689134228975,1.0000248161966965,8.454774006611608e-05
-0.4877880142325012,-0.4877880142325012,1.0000575848379336,8.278575120074026e-05
-0.48756160240227475,-0.48756160240227475,0.9999834134529108,8.235231747984042e-05
-0.48720663160493133,-0.48720663160493133,1.0000707362037202,8.812600581550139e-05
-0.4871146850433433,-0.4871146850433433,0.9999813080105611,8.746741568217803e-05
-0.4870141286461148,-0.4870141286461148,0.9999543470959393,8.586455446337872e-05
-0.4868287195444282,-0.4868287195444282,0.9997909940449811,8.659343151351195e-05
-0.48656085910406544,-0.48656085910406544,0.999980767308428,8.177455515460739e-05
-0.48630207339665504,-0.48630207339665504,0.99995445854805,8.523836157271788e-05
-0.4860698317468632,-0.4860698317468632,0.9999663162629986,8.777796126406436e-05
-0.48586236535193167,-0.48586236535193167,0.9998584408854482,8.631124975994178e-05
-0.4857166900335869,-0.4857166900335869,0.9998950230457689,8.381334954150675e-05
-0.4855245959421154,-0.4855245959421154,0.9999686845831904,8.357382553847176e-05
-0.48539820866062655,-0.48539820866062655,1.0000576555805396,8.609674684684042e-05
-0.48516915651125603,-0.48516915651125603,0.9999666354089441,8.903167997660417e-05
-0.48498763289899216,-0.48498763289899216,1.0000431026688308,8.506462579195947e-05
-0.48481799707660683,-0.48481799707660683,0.9999357717416719,8.349618288749408e-05
-0.4845664877357194,-0.4845664877357194,1.0000026631116699,8.250051686290381e-05
-0.48436447547210265,-0.48436447547210265,0.9999650749259879,8.3966952475852e-05
-0.4842110195553687,-0.4842110195553687,1.000076151032941,8.13630502834089e-05
-0.4840831273017102,-0.4840831273017102,1.0000362981899134,8.368339688101367e-05
-0.4839522902177123,-0.4839522902177123,1.0000539564625317,8.723346464824091e-05
-0.48377223560455607,-0.48377223560455607,0.9998361655283434,8.42925215847004e-05
-0.48344217254052635,-0.48344217254052635,1.000059655579748,8.347648255691494e-05
-0.4831675058194378,-0.4831675058194378,1.0000569897969354,8.62301547375822e-05
-0.48289437358980647,-0.48289437358980647,1.0000685003793415,8.444851997184899e-05
-0.48263532975761336,-0.48263532975761336,0.9999982912147727,8.190425815169106e-05
-0.48243858229834585,-0.48243858229834585,0.9999088936654283,8.259409483700708e-05
-0.4820695262082154,-0.4820695262082154,0.9999925609308848,8.989981083467261e-05
-0.48195522441601496,-0.48195522441601496,1.0000399022589002,8.415363333907107e-05
-0.4818364007296623,-0.4818364007296623,0.9998592493951305,8.852480822403007e-05
-0.48161363201434143,-0.48161363201434143,1.0000422804489475,8.579903377940981e-05
-0.4813146789529128,-0.4813146789529128,0.9999903433932655,8.252671303855824e-05
-0.48111969041056,-0.48111969041056,1.0000525088836398,8.451290615105661e-05
-0.4810004269449564,-0.4810004269449564,0.9999581255529109,8.31536653940188e-05
-0.4808085411488719,-0.4808085411488719,1.00012521147061,8.577086240646803e-05
-0.4806093189130479,-0.4806093189130479,1.00002578027398,8.597915647379961e-05
-0.48049027171218767,-0.48049027171218767,1.0000166457984903,8.473628401557624e-05
-0.48032760130008684,-0.48032760130008684,1.0000808894600142,8.399006026028479e-05
-0.48017233638383916,-0.48017233638383916,1.0000494446900423,8.658007336253323e-05
-0.4799377532704966,-0.4799377532704966,0.9999337372425952,8.923365284647074e-05
-0.4797407086029125,-0.4797407086029125,0.9999569192101813,8.407695750655762e-05
-0.4796116813959088,-0.4796116813959088,0.9999854044112049,8.244770157458261e-05
-0.47939225880036246,-0.47939225880036246,0.9998763489178681,8.225362515002647e-05
-0.47917798036287423,-0.47917798036287423,1.0001267376050735,8.31841260121333e-05
-0.47899655365763466,-0.47899655365763466,1.0001901145292302,8.056755935145832e-05
-0.47887442746432496,-0.47887442746432496,0.9998598050160391,8.28828191053555e-05
-0.47875693760506693,-0.47875693760506693,0.9999741672312503,8.411654664047947e-05
-0.4786258307241951,-0.4786258307241951,0.9999875150799337,8.857565846747072e-05
-0.47837522948393596,-0.47837522948393596,1.0000488528743277,8.088707999193819e-05
-0.47806130354219933,-0.47806130354219933,1.000289060449664,8.677941080172624e-05
-0.47782871350063943,-0.47782871350063943,1.0000139075260464,8.647980374832683e-05
-0.477430537964392,-0.477430537964392,0.9999756054796546,8.498820045589305e-05
-0.4772659796872176,-0.4772659796872176,0.9999259981862106,8.169544445322964e-05
-0.4769324468790728,-0.4769324468790728,1.0000907557845236,8.723887549540781e-05
-0.4767984770682233,-0.4767984770682233,1.0000983471473741,8.714212659551693e-05
-0.4766540780568903,-0.4766540780568903,0.9998981029980556,8.83589151999246e-05
-0.4764687081122247,-0.4764687081122247,1.0000287027212882,8.258078541850459e-05
-0.47615362896758595,-0.47615362896758595,1.0002064187226751,8.469441850945285e-05
-0.4759060970573046,-0.4759060970573046,1.0000539532710264,8.246533437478808e-05
-0.4757562558741483,-0.4757562558741483,0.9999202701173993,8.445027248524663e-05
-0.475556301643519,-0.475556301643519,0.9999947484028692,8.57626925580851e-05
-0.47538385229781854,-0.47538385229781854,1.0001938567816064,8.683718869845101e-05
-0.47523172542933023,-0.47523172542933023,1.000011736315081,8.348691998593205e-05
-0.47503923845797547,-0.47503923845797547,0.9999447058865784,8.49105046513705e-05
-0.4748525130395137,-0.4748525130395137,1.0000215289063845,8.666117068509453e-05
-0.4746087498308043,-0.4746087498308043,0.999955744902367,8.586322729799188e-05
-0.4744447818571643,-0.4744447818571643,0.9998640261072083,8.159062308146873e-05
-0.4742597036543884,-0.4742597036543884,1.0000167643898787,8.50011710705426e-05
-0.4741445271385601,-0.4741445271385601,0.9999430795995348,8.564128380605556e-05
-0.4740168351803732,-0.4740168351803732,1.0000619792361836,8.149789286258116e-05
-0.47379353763972176,-0.47379353763972176,0.9999247537404529,8.133884139984002e-05
-0.4736805547239783,-0.4736805547239783,0.9999412612550165,8.286953943859892e-05
-0.47351270363942605,-0.47351270363942605,0.999930249357249,8.827803249116674e-05
-0.47330134403091506,-0.47330134403091506,1.0000668128037256,8.467166318654572e-05
-0.47305186175799463,-0.47305186175799463,0.9998962451102589,8.496246113011671e-05
-0.4727909298017039,-0.4727909298017039,1.000009837012125,8.281417550214524e-05
-0.4724362602144538,-0.4724362602144538,1.0000810184942626,8.602764707019283e-05
-0.47211172298339077,-0.47211172298339077,1.0001634746313404,8.550749909606189e-05
-0.47183034907720867,-0.47183034907720867,0.9999977391241405,8.410910333128003e-05
-0.4716189719554677,-0.4716189719554677,0.9999355895580498,9.008195834472993e-05
-0.47148893637568107,-0.47148893637568107,1.0000401993422294,8.540218309736373e-05
-0.4713207946893817,-0.4713207946893817,1.0001190160427051,8.476450719220035e-05
-0.4711183632396569,-0.4711183632396569,1.0000107563200795,8.496343310666804e-05
-0.47084644081260196,-0.47084644081260196,1.0000389135895709,8.288064937284227e-05
-0.4707242574753764,-0.4707242574753764,1.0000293153580528,8.44097086470468e-05
-0.47048713358162786,-0.47048713358162786,0.999903599421559,8.513964495950426e-05
-0.47026915445458145,-0.47026915445458145,1.0000723356810077,8.661527009190997e-05
-0.47013453900581226,-0.47013453900581226,1.0000259132291418,8.202441829231623e-05
-0.46999209368223094,-0.46999209368223094,0.9999886147987785,8.181574196450992e-05
-0.4698133960395353,-0.4698133960395353,0.9998113636458985,8.232597393105461e-05
-0.469679553428432,-0.469679553428432,1.0000106887831286,8.87844106214222e-05
-0.4693896152515663,-0.4693896152515663,0.9999615714859331,8.297559150346307e-05
-0.469191298916121,-0.469191298916121,1.0001021734122795,8.538845159947711e-05
-0.46899641137497383,-0.46899641137497383,0.9999777140197192,8.54928806542759e-05
-0.4688390293980774,-0.4688390293980774,1.0000363413369815,8.139045534499095e-05
-0.4685976506822044,-0.4685976506822044,0.9998441571441827,8.120597248998133e-05
-0.4685084934804763,-0.4685084934804763,1.0000560572459143,8.217997945267393e-05
-0.4683268915352528,-0.4683268915352528,1.0000629734655786,8.82075528086289e-05
-0.4679838392214151,-0.4679838392214151,0.9999621980651568,8.656445065260285e-05
-0.4677392638172023,-0.4677392638172023,1.0001160844930022,8.182813995643975e-05
-0.46739586495023105,-0.46739586495023105,1.0000388596072958,8.903122776487057e-05
-0.4670574369134556,-0.4670574369134556,0.9998747959121651,8.549055627680863e-05
-0.46681834861956306,-0.46681834861956306,1.0000747768610025,8.231195355183361e-05
-0.4665753081804723,-0.4665753081804723,0.9999623732270502,8.452468436096231e-05
-0.46641523532380236,-0.46641523532380236,1.0000241496502058,8.709352181078797e-05
-0.46629148577339946,-0.46629148577339946,1.0001034194942524,8.679662085177636e-05
-0.46611628863829535,-0.46611628863829535,1.0000633787444435,8.601227237918453e-05
-0.46591740856165414,-0.46591740856165414,0.9999562565777904,8.620344403211772e-05
-0.4656883810152067,-0.4656883810152067,1.0001134664728415,8.214479268320531e-05
-0.46558334786677735,-0.46558334786677735,0.9999153838743293,8.301411558791992e-05
-0.46540443778358165,-0.46540443778358165,1.0000814607777961,8.270957146485238e-05
-0.4651928545026749,-0.4651928545026749,0.9999146420792122,8.566601554380919e-05
-0.46502040860868876,-0.46502040860868876,0.9999539319637885,8.604273577122085e-05
-0.4648511429673817,-0.4648511429673817,1.0000665980708743,8.202707740382295e-05
-0.46462776393673266,-0.46462776393673266,0.9999945959883003,8.356711702453814e-05
-0.464486120868969,-0.464486120868969,1.0000237512639574,8.545695083989317e-05
-0.46426155790977647,-0.46426155790977647,1.0000420016514744,8.716931601828346e-05
-0.4640529016898654,-0.4640529016898654,0.9999881167922038,8.524423971312297e-05
-0.4638295657583512,-0.4638295657583512,0.9999528660422211,8.553908583282825e-05
-0.46367589911242246,-0.46367589911242246,0.9999973390617478,8.138339306535753e-05
-0.4634527955102385,-0.4634527955102385,0.9999921084483384,8.214122530322902e-05
-0.4632750628683425,-0.4632750628683425,0.9999710923907583,8.216257143080506e-05
-0.46307030019524975,-0.46307030019524975,0.9999642268122002,9.061988279881362e-05
-0.46271119031807756,-0.46271119031807756,1.0000078057032655,8.104800934108681e-05
-0.46243160621088464,-0.46243160621088464,1.0000396574306551,8.46515799489836e-05
-0.4621968576197105,-0.4621968576197105,1.0000476801050906,8.794838175624346e-05
-0.46187131319675245,-0.46187131319675245,1.0000453915489989,8.549901469858915e-05
-0.4616250958497403,-0.4616250958497403,1.0000551306252143,8.21353764201384e-05
-0.46146961097983874,-0.46146961097983874,0.9999819169684747,8.424210596393601e-05
-0.4613653960150259,-0.4613653960150259,1.0000410216085942,8.676370472034941e-05
-0.46121484416071323,-0.46121484416071323,0.9999612660754158,8.35332640241782e-05
-0.461073798094003,-0.461073798094003,0.9998903132291629,8.796275520569718e-05
-0.46088688316376647,-0.46088688316376647,1.0000400378615804,8.626476704277786e-05
-0.46065662876717395,-0.46065662876717395,1.000028865768056,8.552696229994358e-05
-0.4604634905022976,-0.4604634905022976,0.99996821506448,8.2772270649159e-05
-0.4603107811853988,-0.4603107811853988,0.9999981365601315,8.276381479008463e-05
-0.46011383637742254,-0.46011383637742254,0.9999756400514587,8.233057163012441e-05
-0.45998711117717905,-0.45998711117717905,1.0000810449604096,8.34908838977926e-05
-0.45982068968442036,-0.45982068968442036,0.9999096172641216,9.194421525531853e-05
-0.45967702968264346,-0.45967702968264346,0.9999349608848401,8.28806139083581e-05
-0.459487140350393,-0.459487140350393,1.0000731787441492,8.408960779882202e-05
-0.4592702933397959,-0.4592702933397959,1.0001597978886227,8.672478220802268e-05
-0.4590546276253008,-0.4590546276253008,0.999819575779755,8.62951041762452e-05
-0.4588184736763651,-0.4588184736763651,0.9999775560456443,8.574752464089986e-05
-0.45862863036600177,-0.45862863036600177,1.00000864642658,8.504419951448384e-05
-0.45844081751129123,-0.45844081751129123,0.9999107358547313,8.173361861448299e-05
-0.45826704542923835,-0.45826704542923835,0.9999615430623583,8.236949045331216e-05
-0.4581086588354083,-0.4581086588354083,1.0000474855547954,8.187804422112166e-05
-0.45796992858158775,-0.45796992858158775,1.0000903545231588,8.655060354017713e-05
-0.45770861954952125,-0.45770861954952125,1.0001265278612923,8.849102602335313e-05
-0.45741324397022254,-0.45741324397022254,1.0000441366971982,8.248967779602586e-05
-0.4571602835705562,-0.4571602835705562,1.0000613971093057,8.709178313220577e-05
-0.4569488097644353,-0.4569488097644353,0.9999505874700205,8.141092817153252e-05
-0.45672050764842426,-0.45672050764842426,0.9999993860672575,8.496993715428422e-05
-0.45647066502569944,-0.45647066502569944,0.9998438873438905,8.50965389957278e-05
-0.4563519687311782,-0.4563519687311782,0.9998595303562304,8.236335656608373e-05
-0.4562079613991955,-0.4562079613991955,0.999846112907667,8.682339721981321e-05
-0.45606948213317083,-0.45606948213317083,0.9999819373478367,8.412462366087809e-05
-0.45593137234536696,-0.45593137234536696,1.0000282854402285,8.523304140255234e-05
-0.4557372334282263,-0.4557372334282263,1.0000210240695362,8.86131408549449e-05
-0.45561178630159704,-0.45561178630159704,0.999956921977762,8.291993548454313e-05
-0.4553734592809633,-0.4553734592809633,1.0000287284923604,8.555580947401682e-05
-0.4551699744268262,-0.4551699744268262,1.000029248767832,8.196583514497748e-05
-0.45498905025888237,-0.45498905025888237,0.9999167165089551,8.283000429123622e-05
-0.45486419409207884,-0.45486419409207884,1.0002033714462641,8.307029493031832e-05
-0.4546949678937381,-0.4546949678937381,0.9999521007068424,8.931880916748154e-05
-0.4545382511510979,-0.4545382511510979,0.9998861973718182,8.269120964319976e-05
-0.4543460587767186,-0.4543460587767186,1.0000057878636088,8.404553432241753e-05
-0.4541214256823878,-0.4541214256823878,1.0000853477429381,8.527745623916613e-05
-0.4538579559593927,-0.4538579559593927,1.0000125259449608,8.70422808929928e-05
-0.45358516831693124,-0.45358516831693124,1.0000195082654204,8.575268811293656e-05
-0.4533042556962755,-0.4533042556962755,0.99993289915347,8.180210225617481e-05
-0.4530759502718865,-0.4530759502718865,1.00000267556621,8.190593506188832e-05
-0.452896492639411,-0.452896492639411,0.9999992196616974,8.392466104691388e-05
-0.4526787742477609,-0.4526787742477609,1.000105599711304,8.822731050164323e-05
-0.4523889584699646,-0.4523889584699646,1.0000938673912145,8.669626136811553e-05
-0.45221250966205845,-0.45221250966205845,1.0000524343877515,8.342977802761388e-05
-0.45193913789335055,-0.45193913789335055,0.9999964958234229,8.262199389873986e-05
-0.45179087580036137,-0.45179087580036137,0.9999381841871289,8.675283163694073e-05
-0.4516384903530707,-0.4516384903530707,1.0001689440928803,8.41005479951484e-05
-0.45136555297940506,-0.45136555297940506,0.999927318597275,8.519104380565724e-05
-0.451182725543913,-0.451182725543913,0.9999434983150264,8.318537101215121e-05
