time,time,flux,flux_err
-0.4999632766552168,-0.4999632766552168,0.9998648592098061,5.7389829793707666e-05
-0.49983216665368674,-0.49983216665368674,1.0000554043373573,5.8074441525427534e-05
-0.4997126892067172,-0.4997126892067172,1.0003139297083918,5.8654043537408885e-05
-0.49963136687547377,-0.49963136687547377,0.999946914706235,5.790046920862878e-05
-0.49952348321094175,-0.49952348321094175,1.0001037426702744,5.7470413807736995e-05
-0.4994111111163875,-0.4994111111163875,1.0000502768712916,5.799155674913302e-05
-0.4992752289939745,-0.4992752289939745,1.0000821103905169,5.7559726963047386e-05
-0.4991119762040398,-0.4991119762040398,1.0001429440863934,5.790839143325498e-05
-0.49902312868998705,-0.49902312868998705,1.00001032974459,5.824478160691189e-05
-0.4989633590919766,-0.4989633590919766,1.0009168432890274,5.711344701595952e-05
-0.4988710049972724,-0.4988710049972724,1.0001182534060458,5.7586997758101455e-05
-0.49875858797186085,-0.49875858797186085,1.0000520043077015,5.728254245644446e-05
-0.4986662664709002,-0.4986662664709002,1.0001009411710253,5.80815887228076e-05
-0.4985522803375716,-0.4985522803375716,1.0000339632091593,5.731886208831245e-05
-0.49845008035426874,-0.49845008035426874,1.0000033731917966,5.8227868478178e-05
-0.49832132740611995,-0.49832132740611995,0.9999859223685817,5.759234703433834e-05
-0.49819747907913553,-0.49819747907913553,0.9999527220677766,5.790823505188776e-05
-0.4980558384761025,-0.4980558384761025,0.9999402357695841,5.787215793440589e-05
-0.4979719444943839,-0.4979719444943839,0.9999712931051048,5.7614996998823215e-05
-0.49784638449946217,-0.49784638449946217,1.000161820332701,5.7426528787485745e-05
-0.49773757735856633,-0.49773757735856633,0.9999504007070193,5.737326476325027e-05
-0.49754775480978425,-0.49754775480978425,0.9999477806949899,5.694089931480044e-05
-0.497400116006429,-0.497400116006429,0.9998914256274762,5.8776168906129596e-05
-0.4973201917262486,-0.4973201917262486,1.0000046075137081,5.830998717312111e-05
-0.4972626897621012,-0.4972626897621012,1.000007773869306,5.833942619509942e-05
-0.4971063993794814,-0.4971063993794814,1.00009456345918,5.855011394210642e-05
-0.4969469437357475,-0.4969469437357475,0.9997916425580389,5.777938118355888e-05
-0.49684648767852196,-0.49684648767852196,1.0000397098373588,5.793599904854006e-05
-0.4967546778178075,-0.4967546778178075,1.0001097892658373,5.811126842543626e-05
-0.4967043365171776,-0.4967043365171776,1.000073739683605,5.811031359405467e-05
-0.4966410269598782,-0.4966410269598782,1.000241341319763,5.771638501838812e-05
-0.4965351476221258,-0.4965351476221258,0.9999793259673982,5.802126270715017e-05
-0.49645509074289296,-0.49645509074289296,1.000002276692278,5.798337551942501e-05
-0.49636002614643077,-0.49636002614643077,0.9999941071907266,5.827173784222582e-05
-0.4962568841770917,-0.4962568841770917,0.9999772375258489,5.837892924397325e-05
-0.49614302675527144,-0.49614302675527144,0.9998722703131395,5.783630290648747e-05
-0.4959815217180221,-0.4959815217180221,1.0000889955967573,5.81634496425737e-05
-0.49581736868385634,-0.49581736868385634,0.9999942569261104,5.8357725031610924e-05
-0.495670340288234,-0.495670340288234,0.9999845999215857,5.8578282731970174e-05
-0.495598719960617,-0.495598719960617,0.9999697691686744,5.805401257413233e-05
-0.4955566839642415,-0.4955566839642415,1.0002439650114385,5.7370724283412306e-05
-0.49547368088515215,-0.49547368088515215,1.0001216530893418,5.776666858956665e-05
-0.4953806085446558,-0.4953806085446558,1.0001054975722243,5.764332336352541e-05
-0.49525539123515044,-0.49525539123515044,1.0000876330320998,5.788478449717889e-05
-0.4952083953374313,-0.4952083953374313,1.0001543476497008,5.751421421552447e-05
-0.495051646021966,-0.495051646021966,1.0003940902922115,5.7349392994415726e-05
-0.49494361953220506,-0.49494361953220506,1.0000286884800653,5.789869021248076e-05
-0.49480177222903876,-0.49480177222903876,1.0000495524680666,5.8390592608414396e-05
-0.49471381648563695,-0.49471381648563695,0.9999416347654565,5.745479777684793e-05
-0.49458478178385124,-0.49458478178385124,1.0004226906279963,5.7849174943912914e-05
-0.4945152182886886,-0.4945152182886886,0.9999910485234089,5.780072889762606e-05
-0.4943526197297615,-0.4943526197297615,0.9997852056088996,5.796377091712346e-05
-0.49426428453643895,-0.49426428453643895,1.0000402182071046,5.834823907323994e-05
-0.49416180638181684,-0.49416180638181684,0.9999866538257496,5.7932643773632e-05
-0.4940528608211025,-0.4940528608211025,0.9999377416703213,5.8537851478536346e-05
-0.4938966245659685,-0.4938966245659685,1.000029703418033,5.757587014764539e-05
-0.4937975653925605,-0.4937975653925605,1.000207056252436,5.8010642731511224e-05
-0.49363700943449657,-0.49363700943449657,1.0008119687126011,5.771065768615863e-05
-0.4935171778757649,-0.4935171778757649,0.999931603044472,5.803800816297041e-05
-0.4933602420600437,-0.4933602420600437,1.0002208456139408,5.7548394871846055e-05
-0.4932684196728587,-0.4932684196728587,1.0000338834948674,5.74862400750578e-05
-0.4931214651935079,-0.4931214651935079,0.9998184577467519,5.749564516776464e-05
-0.4930179549328386,-0.4930179549328386,1.0001830320700242,5.7361624095619986e-05
-0.49288852511963344,-0.49288852511963344,1.000025126441992,5.746598408586681e-05
-0.49271175712965487,-0.49271175712965487,1.0000599832167272,5.811256984946674e-05
-0.49253398642031243,-0.49253398642031243,0.999987404228912,5.7752968120880336e-05
-0.4923930481698335,-0.4923930481698335,1.0001023056069647,5.812929424302759e-05
-0.49230324765121625,-0.49230324765121625,1.000109572077509,5.7978699288418776e-05
-0.49218873405916386,-0.49218873405916386,1.0000005230583655,5.751054278358168e-05
-0.4920638445109944,-0.4920638445109944,1.0000058282380935,5.8005739588412436e-05
-0.4919316679603071,-0.4919316679603071,1.0001273204486418,5.7650596927689446e-05
-0.4918742267816924,-0.4918742267816924,1.0000864533272817,5.885322711785176e-05
-0.49173194412669546,-0.49173194412669546,0.9998336859145166,5.971047982415279e-05
-0.49158453158652266,-0.49158453158652266,1.000034200747994,5.7776391181930256e-05
-0.491428673950395,-0.491428673950395,1.000064044167356,5.718815077828767e-05
-0.49127708518499275,-0.49127708518499275,0.9999440258236749,5.7205901927739964e-05
-0.4911298947126852,-0.4911298947126852,0.9999502837973949,5.7048311989624124e-05
-0.4909703940322288,-0.4909703940322288,1.000091815907544,5.8037905870226325e-05
-0.4908979599535087,-0.4908979599535087,1.00013904140626,5.7674316199246694e-05
-0.490777645759772,-0.490777645759772,0.9999919847252748,5.8160996219357617e-05
-0.49071242532554604,-0.49071242532554604,1.000195591328515,5.807148401637651e-05
-0.49056405400515357,-0.49056405400515357,1.000067701377682,5.790065271758428e-05
-0.49045476605278965,-0.49045476605278965,0.9999399744571906,5.778596496529997e-05
-0.4903421811090084,-0.4903421811090084,0.999967022885291,5.794174138061155e-05
-0.49023106989407095,-0.49023106989407095,1.000017769966432,5.821586566565324e-05
-0.49014722629908647,-0.49014722629908647,1.0000385649235148,5.7552051704386426e-05
-0.49007357561840764,-0.49007357561840764,1.0000521349255656,5.823330054532702e-05
-0.4900126837674179,-0.4900126837674179,1.0000092052638814,5.855637589462949e-05
-0.4899019478509217,-0.4899019478509217,1.0000132694359678,5.8229147276124226e-05
-0.48980012741030804,-0.48980012741030804,0.9999031665159865,5.756719094261013e-05
-0.4896365882077589,-0.4896365882077589,0.9999915756331547,5.813431972429727e-05
-0.48948986410414363,-0.48948986410414363,0.9999899892390285,5.802434441729553e-05
-0.48936085989826095,-0.48936085989826095,1.0000400617639285,5.828996594881509e-05
-0.48922164820087344,-0.48922164820087344,0.9998690678074974,5.833498320671931e-05
-0.48911357949054945,-0.48911357949054945,1.0000448304385494,5.8009378841273185e-05
-0.48900626850936535,-0.48900626850936535,1.0000004577820483,5.762721304587387e-05
-0.488878789617047,-0.488878789617047,1.0000930029857509,5.8067655593629255e-05
-0.48881343093707985,-0.48881343093707985,1.0000662734303334,5.727253532373832e-05
-0.4886631091372692,-0.4886631091372692,1.0000215109903323,5.799234795766902e-05
-0.4885828897875399,-0.4885828897875399,1.0000977529087034,5.760075386980956e-05
-0.48845589333177486,-0.48845589333177486,0.9999826317072309,5.78670938450036e-05
-0.4883490533009535,-0.4883490533009535,1.0000632575014028,5.790292488701381e-05
-0.48820068447221276,-0.48820068447221276,1.0000152354439364,5.81436470874575e-05
-0.48806249167555504,-0.48806249167555504,0.9999027131753293,5.78624303058544e-05
-0.48789442785109716,-0.48789442785109716,1.000025011230802,5.932398563859052e-05
-0.4877387101678323,-0.4877387101678323,0.9998852541728176,5.798316940240518e-05
-0.48765341362104664,-0.48765341362104664,0.9999332065288042,5.820521296920758e-05
-0.48750763608659325,-0.48750763608659325,0.9999302200630709,5.8066509280841345e-05
-0.48742561822109565,-0.48742561822109565,1.0001835842196658,5.834789525285025e-05
-0.4872635780651763,-0.4872635780651763,1.0000709310160243,5.754428498853842e-05
-0.48719936998968477,-0.48719936998968477,1.0000333451616235,5.777391830793828e-05
-0.4870781778490709,-0.4870781778490709,0.9999833653266943,5.7075957242331304e-05
-0.4869071661179987,-0.4869071661179987,0.9999745415597232,5.8689249116898015e-05
-0.48677545226146324,-0.48677545226146324,1.0000512408419215,5.7400687519519546e-05
-0.4866531407495131,-0.4866531407495131,1.0001104626515291,5.7800476804526047e-05
-0.48647339714989357,-0.48647339714989357,0.9999448049118188,5.746192312828897e-05
-0.4863237619243591,-0.4863237619243591,1.0002889863815765,5.700623396416156e-05
-0.48617887865093506,-0.48617887865093506,1.0001368285153194,5.777209664141143e-05
-0.4860125112269088,-0.4860125112269088,0.9999694119884038,5.8026225535156716e-05
-0.4858346979926864,-0.4858346979926864,1.0000362397296805,5.76434153819269e-05
-0.48570473331728864,-0.48570473331728864,1.0000342321036149,5.818040694919463e-05
-0.48557830243680655,-0.48557830243680655,1.000065578100029,5.748010573121196e-05
-0.4854202642953169,-0.4854202642953169,1.0001212849632544,5.7884451387724755e-05
-0.48527447286214737,-0.48527447286214737,1.000109929130705,5.714981249968805e-05
-0.48509879760913466,-0.48509879760913466,0.9998225777734909,5.719005478142386e-05
-0.48496934520717333,-0.48496934520717333,0.9998740676277329,5.782024019028713e-05
-0.4848148636472615,-0.4848148636472615,1.00015113839275,5.697555380795157e-05
-0.48457858115762065,-0.48457858115762065,1.0000958389331611,5.7962125589908277e-05
-0.48445437766968097,-0.48445437766968097,1.0000619054884226,5.73135724788715e-05
-0.48436563780469444,-0.48436563780469444,1.0000849181890623,5.810463418003429e-05
-0.48424756386084483,-0.48424756386084483,0.9998071950347658,5.778345359790757e-05
-0.48417334742371165,-0.48417334742371165,1.0000486998301168,5.766231737892015e-05
-0.48407585792847385,-0.48407585792847385,1.0000137214328793,5.76565556187023e-05
-0.48396053927481264,-0.48396053927481264,1.0000001830684615,5.821802332944655e-05
-0.4838702000233752,-0.4838702000233752,0.9997912333495254,5.723152806466336e-05
-0.48378177368012987,-0.48378177368012987,1.0000229161483538,5.835216367316748e-05
-0.48369726036617067,-0.48369726036617067,0.9998990089786526,5.747211168709931e-05
-0.4835777139163838,-0.4835777139163838,1.0002318103416539,5.822728959725741e-05
-0.4834630853145427,-0.4834630853145427,1.0000298642468315,5.803075407863206e-05
-0.4832551461971889,-0.4832551461971889,1.000097712323458,5.785282815998009e-05
-0.48313593695183954,-0.48313593695183954,1.0001519567167967,5.78956369154098e-05
-0.4830406088180098,-0.4830406088180098,0.999883088913807,5.85003323619182e-05
-0.48291378137382707,-0.48291378137382707,1.0001052397836874,5.743909835645753e-05
-0.4828376079323789,-0.4828376079323789,1.0001226915726869,5.7921764893697375e-05
-0.48270342548639744,-0.48270342548639744,1.000137631665348,5.7327516574856616e-05
-0.48260529828621657,-0.48260529828621657,1.000094511574258,5.797064879382765e-05
-0.4824905150815539,-0.4824905150815539,1.0000872330124344,5.7468164234710724e-05
-0.4823736515578275,-0.4823736515578275,1.0000836704275833,5.8066444917720094e-05
-0.4822871842325185,-0.4822871842325185,1.0000906836712617,5.796102987342071e-05
-0.48220606813265476,-0.48220606813265476,1.0000640464869541,5.7788903133649554e-05
-0.4820781317919682,-0.4820781317919682,1.0001482375658628,5.789976923184823e-05
-0.4819884376893242,-0.4819884376893242,0.9999187953576223,5.78274149789536e-05
-0.4818632078660812,-0.4818632078660812,1.0002774758231205,5.8392975523163435e-05
-0.48179095075884104,-0.48179095075884104,0.9999403936370472,5.739989079380539e-05
-0.48161496494467426,-0.48161496494467426,1.00008713340042,5.8102846618081556e-05
-0.4813911134304362,-0.4813911134304362,0.9999681452910565,5.807804373960994e-05
-0.4812815958935971,-0.4812815958935971,0.9999427057791728,5.846976653993861e-05
-0.481130105594093,-0.481130105594093,1.0005570918067428,5.806479981042745e-05
-0.4810212980974029,-0.4810212980974029,1.0000872902718427,5.815978226465461e-05
-0.4808961373490092,-0.4808961373490092,0.9998413559639285,5.774496634212578e-05
-0.4807949116924647,-0.4807949116924647,1.0000721348203592,5.797527152183059e-05
-0.4806436266857418,-0.4806436266857418,1.0000880094192752,5.782402448340204e-05
-0.48046289380399687,-0.48046289380399687,0.9999812958626348,5.827221630390753e-05
-0.4803292106937079,-0.4803292106937079,1.0000789167341346,5.753385351188518e-05
-0.4801749444233792,-0.4801749444233792,1.0000144676767069,5.760489844085212e-05
-0.48009040867436853,-0.48009040867436853,1.0001684856332225,5.6849059207866146e-05
-0.47990770927626725,-0.47990770927626725,1.0000362949915917,5.736327639830622e-05
-0.47976296948563685,-0.47976296948563685,1.0001373609540618,5.8057680873213757e-05
-0.4795965959219757,-0.4795965959219757,1.0000973439557648,5.75906612363318e-05
-0.47943511759858665,-0.47943511759858665,1.00019474402995,5.7762044794958894e-05
-0.4793030510420067,-0.4793030510420067,1.0000367132328365,5.8018495542232715e-05
-0.47918207697621257,-0.47918207697621257,0.9999703249005163,5.7550033492104004e-05
-0.4790286625495355,-0.4790286625495355,1.0000504677681932,5.7159780081948906e-05
-0.4789339742632365,-0.4789339742632365,1.0000424597002682,5.713596063168853e-05
-0.4788170154612089,-0.4788170154612089,1.000058199409218,5.711179523207233e-05
-0.47867017336120626,-0.47867017336120626,0.9999447323822643,5.7424849645327725e-05
-0.4785047760024099,-0.4785047760024099,1.0001036748423318,5.7121756438668686e-05
-0.47840236916999856,-0.47840236916999856,0.9999510532271673,5.693926615860592e-05
-0.4782451083206979,-0.4782451083206979,1.0000065992144496,5.7216225885442244e-05
-0.47809758773018984,-0.47809758773018984,1.000100486572105,5.77963318866375e-05
-0.4779497848743631,-0.4779497848743631,1.0000297274166923,5.7759032192424454e-05
-0.4778149444866358,-0.4778149444866358,0.9997442355764843,5.832377882198445e-05
-0.47774636481572086,-0.47774636481572086,1.0000624878517932,5.798467347676217e-05
-0.4776149251467359,-0.4776149251467359,0.9999815127694178,5.8235543960788136e-05
-0.47752057781617624,-0.47752057781617624,0.9999604703745476,5.752920758364936e-05
-0.4773927955702675,-0.4773927955702675,1.000173749188211,5.8037110769275236e-05
-0.47732412441237104,-0.47732412441237104,1.0001421065302387,5.738456815744811e-05
-0.4771957081118671,-0.4771957081118671,0.9999263366079315,5.777791706031234e-05
-0.477092274370807,-0.477092274370807,0.9999826417865808,5.8356622029846944e-05
-0.47695452779553305,-0.47695452779553305,1.0001014985244834,5.7905492740610794e-05
-0.47689101605046746,-0.47689101605046746,1.0000501475277108,5.811084154062783e-05
-0.4767899582408063,-0.4767899582408063,0.9998986695604442,5.800672386289765e-05
-0.47668450406017654,-0.47668450406017654,0.9999863659231389,5.827471040104392e-05
-0.47658469119414804,-0.47658469119414804,0.9999158460602608,5.8144126006987475e-05
-0.4764887799330609,-0.4764887799330609,0.9999512744417931,5.79168568859421e-05
-0.47631537653378475,-0.47631537653378475,0.9998722955947532,5.860236379751084e-05
-0.4762222187633597,-0.4762222187633597,1.000071405928709,5.779021638023758e-05
-0.4761137221548779,-0.4761137221548779,1.0001168216908483,5.753965145152321e-05
-0.47601179080265865,-0.47601179080265865,0.9999642834430968,5.755110470877747e-05
-0.47588005005054584,-0.47588005005054584,1.0000820835843893,5.824345441476994e-05
-0.4757220916217193,-0.4757220916217193,1.0000322293458699,5.752512028885151e-05
-0.47563676420777484,-0.47563676420777484,1.00018029973632,5.80610892262659e-05
-0.4755566397954681,-0.4755566397954681,1.0007591202305077,5.770350734838831e-05
-0.4754639157288693,-0.4754639157288693,0.9997682387130649,5.773973409521114e-05
-0.47539464891378885,-0.47539464891378885,1.000142220129661,5.7797740401497154e-05
-0.47519270232896815,-0.47519270232896815,1.000045347097269,5.7812102266231976e-05
-0.4750116379100291,-0.4750116379100291,1.0000787287822963,5.8181763773335095e-05
-0.4749035430500953,-0.4749035430500953,0.9999133295268077,5.85892299451457e-05
-0.4747697226483069,-0.4747697226483069,1.0000956519236097,5.818090460159034e-05
-0.47458095031397535,-0.47458095031397535,1.0001132470432847,5.838123316308744e-05
-0.47441226297905814,-0.47441226297905814,0.9999547124520655,5.7767900995469406e-05
-0.4742256618126703,-0.4742256618126703,1.0002074603161515,5.777339309373971e-05
-0.4740714689382003,-0.4740714689382003,0.9999092230719381,5.789567284495786e-05
-0.47392176354933324,-0.47392176354933324,1.0000472368885955,5.732632100554086e-05
-0.4737911857819199,-0.4737911857819199,0.9999799354819079,5.773120416437218e-05
-0.47360979071127074,-0.47360979071127074,0.9999290300161648,5.7482172776482265e-05
-0.473367111196967,-0.473367111196967,1.0001064558575679,5.7503527289333935e-05
-0.47325484509965465,-0.47325484509965465,0.9999634067003262,5.7529123052205426e-05
-0.4731684429767483,-0.4731684429767483,1.000108188006726,5.705170447351127e-05
-0.4730425759802529,-0.4730425759802529,1.0000182862177858,5.807160118952064e-05
-0.4729304926035184,-0.4729304926035184,1.000583341762529,5.753661773233111e-05
-0.4727919828790618,-0.4727919828790618,0.9999760476787543,5.7980191983119286e-05
-0.47263186165855586,-0.47263186165855586,0.9998839826139545,5.7811604287498607e-05
-0.4725376507605688,-0.4725376507605688,1.000007075013838,5.7164640007204016e-05
-0.4723522826081535,-0.4723522826081535,1.0000313155740805,5.7437945177793263e-05
-0.4722297390380845,-0.4722297390380845,1.0001168233694049,5.762253288896528e-05
-0.4721133279623245,-0.4721133279623245,1.0001534565137453,5.710176516659748e-05
-0.4719667413315619,-0.4719667413315619,1.0000440868923945,5.7210914679755293e-05
-0.4718185638615978,-0.4718185638615978,0.9999167935784655,5.7466827192162005e-05
-0.4716911102437734,-0.4716911102437734,1.0000409143638196,5.846690800177005e-05
-0.4715856917797282,-0.4715856917797282,0.9999647956073812,5.765556698710952e-05
-0.4714973923941216,-0.4714973923941216,0.9999305251185042,5.685717419660903e-05
-0.4714283697814608,-0.4714283697814608,0.9998646055541685,5.835734272473307e-05
-0.47125680949357046,-0.47125680949357046,1.000049171332218,5.8200099332835094e-05
-0.47114771995693444,-0.47114771995693444,1.000006623613134,5.83083137593792e-05
-0.47100717330758923,-0.47100717330758923,1.0001709433911135,5.819384699907729e-05
-0.4709119712584652,-0.4709119712584652,0.9999356415016305,5.762749381953489e-05
-0.4707642173254499,-0.4707642173254499,1.0000332765413897,5.805984547637772e-05
-0.4706849556327143,-0.4706849556327143,1.0000274980864106,5.7980322519060894e-05
-0.47057536017946405,-0.47057536017946405,0.9999948718041226,5.7922984463722055e-05
-0.47050538607272757,-0.47050538607272757,0.9998928183213976,5.816618635958485e-05
-0.4703689477804801,-0.4703689477804801,0.9998575104536747,5.7883289565470344e-05
-0.4702294498372794,-0.4702294498372794,1.0000081646667351,5.83589510389388e-05
-0.47014637142929133,-0.47014637142929133,1.0001325890533639,5.773901617813058e-05
