time,time,flux,flux_err
-0.4999225633849619,-0.4999225633849619,0.9995943516998261,0.0003486744140546136
-0.49979370650207783,-0.49979370650207783,0.9999500671676234,0.00030921702946268883
-0.49969033948864305,-0.49969033948864305,1.000230124490959,0.00030442122257516574
-0.4996018475621213,-0.4996018475621213,0.9996978937102006,0.000374452243605267
-0.4994978579746885,-0.4994978579746885,0.9999134775690864,0.00030882285807675954
-0.49941203123782996,-0.49941203123782996,0.99945291271159,0.0003343923240240217
-0.499331915106518,-0.499331915106518,1.0000615045720926,0.0003725888281285515
-0.4992524519586368,-0.4992524519586368,0.9993952943190523,0.0003707818182767308
-0.49913363396303795,-0.49913363396303795,0.9993424536111044,0.0003214625405907702
-0.49908681638835334,-0.49908681638835334,0.999703414003649,0.00032803787069154354
-0.49896805078101353,-0.49896805078101353,1.000358713993684,0.0003501024000417529
-0.49883557594253036,-0.49883557594253036,1.0000744949592488,0.000359549284664552
-0.49872188753586216,-0.49872188753586216,0.9999647638876162,0.0003415488833642801
-0.49854213692731264,-0.49854213692731264,0.9996290352394347,0.0003455962773643208
-0.498377041622598,-0.498377041622598,1.0003460329664764,0.0003209977752827302
-0.49830639474241706,-0.49830639474241706,0.9999737446331289,0.0003162642556739179
-0.49819245282533303,-0.49819245282533303,0.9998526317633027,0.00037041827102681743
-0.49810476043867313,-0.49810476043867313,1.000139411691261,0.0004020679655912443
-0.49798884914916924,-0.49798884914916924,1.0000248308713147,0.000390377090573006
-0.4979089416395254,-0.4979089416395254,1.0000869529588614,0.00035382320301194847
-0.49784595959160927,-0.49784595959160927,0.9999767886072478,0.00036553798815329626
-0.49764752802836937,-0.49764752802836937,1.0000865229226712,0.0002970000665822918
-0.49742481773557756,-0.49742481773557756,1.0001065178364983,0.0003624268496669314
-0.497300135599221,-0.497300135599221,0.9998749720510407,0.00034321976923299763
-0.4971230127091076,-0.4971230127091076,0.9999846396586465,0.00032777999847955977
-0.49697090657568876,-0.49697090657568876,0.9995328625936107,0.00033854690186628245
-0.49681053593203617,-0.49681053593203617,1.00030749065171,0.00034629291658572523
-0.49669230594661257,-0.49669230594661257,0.9996102224997703,0.000321475342784474
-0.49653923793218835,-0.49653923793218835,1.000126034888121,0.00037057656548270256
-0.49638891794127177,-0.49638891794127177,0.999709093525033,0.00032735430100361745
-0.49629462453406176,-0.49629462453406176,1.0001567183704698,0.00031935570416810887
-0.4961235570718145,-0.4961235570718145,1.0002418659015035,0.0003445837202398583
-0.4960624842847892,-0.4960624842847892,0.9998621819832426,0.000337479261523388
-0.49596522393210307,-0.49596522393210307,1.000018085274116,0.00040645026829979675
-0.49585773789465293,-0.49585773789465293,1.00016436597302,0.00042364538565479553
-0.495763406168021,-0.495763406168021,1.0005149935859707,0.0003614088199899632
-0.4956194125435559,-0.4956194125435559,1.000179545377426,0.00030275210106208247
-0.49550381476071836,-0.49550381476071836,0.9998284258936831,0.00030080479877937863
-0.4954169958648663,-0.4954169958648663,0.9997081735247754,0.00036968696022128295
-0.4953384587566916,-0.4953384587566916,0.999913650943216,0.00033896827161421694
-0.49524186475034637,-0.49524186475034637,0.9996229116427606,0.00030113322444465945
-0.49515533451606186,-0.49515533451606186,1.0004534239345926,0.00037124226346196674
-0.49508210885098836,-0.49508210885098836,1.0003840019800807,0.0003856764380413991
-0.49497891878270367,-0.49497891878270367,1.0001075382005642,0.0003067433483263292
-0.49489498987595654,-0.49489498987595654,1.000041963257766,0.0003242290077478625
-0.49480501912435104,-0.49480501912435104,0.9992396936898764,0.0003700318549520013
-0.49468375449068847,-0.49468375449068847,0.9997672815178944,0.0003307997074463484
-0.4945800049467607,-0.4945800049467607,1.0000213350393765,0.00035992720797511473
-0.4944773798173173,-0.4944773798173173,0.999943611470482,0.00033765231993635803
-0.4943103055928759,-0.4943103055928759,1.000015564825106,0.0003387837576880135
-0.4941565555435773,-0.4941565555435773,1.0005084867880536,0.0003207728869613221
-0.49407836334576133,-0.49407836334576133,1.0004960919591732,0.0003195754906589831
-0.49394782353338085,-0.49394782353338085,1.000255207827129,0.00035342646162980307
-0.4938622794546973,-0.4938622794546973,1.0002110813097995,0.00041037700732709755
-0.4937544833496304,-0.4937544833496304,0.9999886390102237,0.0003954622022506412
-0.4936884497828714,-0.4936884497828714,1.0000153228726858,0.0003544734174312556
-0.49361666638078533,-0.49361666638078533,0.9997096985331513,0.0003478891627656949
-0.49341846549748425,-0.49341846549748425,1.0000964238873478,0.00029773387786055937
-0.4932043251866844,-0.4932043251866844,1.0002860233624093,0.0003624175784160778
-0.49307965728885395,-0.49307965728885395,1.0000643438877663,0.00034326947825592927
-0.49290256793601656,-0.49290256793601656,1.0003536132959978,0.00032769545417578316
-0.49275039641195234,-0.49275039641195234,1.0001167620343168,0.00033865126159926496
-0.4925748167838037,-0.4925748167838037,0.9997270535708991,0.00035652263308223725
-0.4924480505170322,-0.4924480505170322,0.999639712464659,0.00033496622702447454
-0.49228811647233217,-0.49228811647233217,1.0000912325467788,0.0003481635722670796
-0.49214135154766153,-0.49214135154766153,0.9999316051519795,0.0003273369873666873
-0.492038595245117,-0.492038595245117,0.9998796680639455,0.0003202943170568848
-0.4918795055489909,-0.4918795055489909,0.9999057687194858,0.00037383492952217134
-0.4918091534550058,-0.4918091534550058,1.0001394267782162,0.0003596705762824723
-0.49169663549016607,-0.49169663549016607,0.9999583412604262,0.00041633485396608066
-0.49160605133904484,-0.49160605133904484,0.9998362483917823,0.0003783533014034868
-0.49147794470509326,-0.49147794470509326,0.9997491551677845,0.00035006509872560033
-0.49135276397942107,-0.49135276397942107,1.0001374373564178,0.00030917490743809386
-0.49124941412208045,-0.49124941412208045,1.0001167990178044,0.00030474066777565645
-0.4911608579241147,-0.4911608579241147,0.9998884312601705,0.000373779703519136
-0.49105697145985233,-0.49105697145985233,1.0000436094992007,0.00030868286763087904
-0.4909771079487427,-0.4909771079487427,1.0001425099239452,0.0003379723044168036
-0.4909068197278884,-0.4909068197278884,0.9999018196694562,0.0003764814686091774
-0.4908322904782153,-0.4908322904782153,1.000122007448199,0.000368753021325998
-0.49072631766889574,-0.49072631766889574,1.0001922483458023,0.000309827229126852
-0.49066789816936307,-0.49066789816936307,0.9999411454357944,0.0003279495947462306
-0.49055335160874164,-0.49055335160874164,1.000238511318569,0.0003671648252958224
-0.49044158796202736,-0.49044158796202736,0.9998816680841294,0.0003447127838976324
-0.4903425637192186,-0.4903425637192186,0.9998445766208099,0.00033816394147776223
-0.4902214728666877,-0.4902214728666877,1.0000807144492396,0.000358990943110043
-0.49002223897027763,-0.49002223897027763,1.0000307618248947,0.0003342893167563452
-0.4898946325311499,-0.4898946325311499,1.000015783742422,0.00032012242945980327
-0.4897804365359207,-0.4897804365359207,0.999714822509129,0.0003539349750155348
-0.48967714088378217,-0.48967714088378217,0.9997730860746954,0.0004050186327041841
-0.48959022465971885,-0.48959022465971885,0.9999333230769916,0.0003331255495736803
-0.4895005510978535,-0.4895005510978535,1.0001473134520755,0.0003751803052233578
-0.4894537582397788,-0.4894537582397788,0.999738630580423,0.00039610551087320935
-0.4893802247717531,-0.4893802247717531,1.0002869538061927,0.00031529659260238184
-0.48919796523182413,-0.48919796523182413,1.000228824680554,0.00029787906879972153
-0.4889838326377003,-0.4889838326377003,0.9999599131247034,0.00036289248247872307
-0.4888591789851944,-0.4888591789851944,0.9998891536163157,0.0003433291161655382
-0.48865370525236357,-0.48865370525236357,0.9999247539241416,0.000334252558273838
-0.4885245405570231,-0.4885245405570231,0.9997106529627166,0.000332338537538466
-0.48835432203422896,-0.48835432203422896,0.9997501905568875,0.00035663984869798435
-0.488227611710613,-0.488227611710613,0.9997885245271746,0.0003349883162835885
-0.4880676733163455,-0.4880676733163455,0.9998739117595923,0.00034818688157165775
-0.48791992709270743,-0.48791992709270743,0.9996124330200059,0.00035034584144250845
-0.4877790178254372,-0.4877790178254372,0.9998102066459996,0.0003188451071514086
-0.48764540810016116,-0.48764540810016116,0.9999623473373631,0.000328319520906029
-0.4875668636644832,-0.4875668636644832,1.000036757491529,0.00036662477679583313
-0.4874523066575421,-0.4874523066575421,1.0002383065004532,0.0004016465955770654
-0.4873772295454046,-0.4873772295454046,0.9997350559799137,0.00042618810147765953
-0.4872633474737995,-0.4872633474737995,1.0000558621610707,0.0003490681578288214
-0.4871322927311894,-0.4871322927311894,0.9996683740381089,0.00030923265667641517
-0.4870289514600472,-0.4870289514600472,1.0000057696496945,0.00030456796136294487
-0.486940363110989,-0.486940363110989,1.000316941905238,0.00037368532908256953
-0.48684515473717055,-0.48684515473717055,1.000045616367781,0.0003098616961307719
-0.48676938497476385,-0.48676938497476385,0.9996680096870666,0.0003234182293720444
-0.4866863411833947,-0.4866863411833947,1.0001447990170598,0.00037644611369271335
-0.4866117883667812,-0.4866117883667812,1.0001009293047605,0.0003690567899208154
-0.48650582355592176,-0.48650582355592176,0.9999365128634932,0.0003098454259823321
-0.4864474079618503,-0.4864474079618503,1.0002440118179703,0.0003277522777903513
-0.48633283346443934,-0.48633283346443934,0.9999431117003423,0.00036703007965415275
-0.48623280342114866,-0.48623280342114866,0.9993353688432786,0.00033427839575440844
-0.48613905347385755,-0.48613905347385755,1.0003271529862798,0.0003602796930782991
-0.48603643833082516,-0.48603643833082516,1.0001328447940714,0.00033748792567518535
-0.48584104686333374,-0.48584104686333374,1.0003608243459123,0.0003388951574836254
-0.48569078577390884,-0.48569078577390884,0.9997259205229374,0.0003301140890377121
-0.4855912252808139,-0.4855912252808139,1.0002925857187086,0.00036297898107296865
-0.48546639809214864,-0.48546639809214864,0.9999763956922892,0.00040424734775470057
-0.48537388397633097,-0.48537388397633097,1.0002483935311646,0.0003339395118266707
-0.4852800276336893,-0.4852800276336893,0.9992149781724757,0.0003754122910309398
-0.48523328336229954,-0.48523328336229954,0.9998234906608534,0.00039602369824422135
-0.4851208171043709,-0.4851208171043709,0.9997590227287153,0.00028967250114171443
-0.48488799009653577,-0.48488799009653577,1.0000432382083186,0.0003027562292361994
-0.48473724916213995,-0.48473724916213995,0.9998435997336067,0.0003622864308010313
-0.4846387006826035,-0.4846387006826035,0.9996109062450709,0.00034312195608830265
-0.4844332395608035,-0.4844332395608035,0.9999268698514546,0.0003342457652081184
-0.4842679174445266,-0.4842679174445266,0.9996376983259573,0.00035133723791478663
-0.48412649743725067,-0.48412649743725067,0.9998291208055472,0.0003555923905339866
-0.48400717291492584,-0.48400717291492584,1.0002675542840531,0.00033513349810223995
-0.4838472301642696,-0.4838472301642696,1.000422146913983,0.0003481918420336737
-0.4837058240387478,-0.4837058240387478,1.0004665776200514,0.00032731938060614715
-0.4835976311847617,-0.4835976311847617,0.9997791985934554,0.0003202252611790151
-0.4834358925965489,-0.4834358925965489,0.9998475672636145,0.0003394650487993364
-0.48336811613175995,-0.48336811613175995,0.9999949610709964,0.00035950276597843106
-0.4832555922866959,-0.4832555922866959,0.9998877826899731,0.00041610788876849346
-0.48316508197447094,-0.48316508197447094,1.000208302815484,0.0003777086521677585
-0.4830358749851257,-0.4830358749851257,0.9997381793579209,0.00034883704015013556
-0.48288636255961137,-0.48288636255961137,0.9997955215171069,0.0003119595381122958
-0.4827915666290437,-0.4827915666290437,1.000261230090803,0.0003608937449350267
-0.4827044927465295,-0.4827044927465295,0.9998325119154178,0.00032716131141270874
-0.48260736421650563,-0.48260736421650563,1.0001781788785449,0.0002991313849477782
-0.4825300556025013,-0.4825300556025013,1.000465600951354,0.00033445083465423724
-0.4824499898832073,-0.4824499898832073,0.9997198238534863,0.00037232736600418273
-0.48237765020542156,-0.48237765020542156,1.0001524620274669,0.000363211648750806
-0.4822668959000794,-0.4822668959000794,1.000161946490016,0.0003302601702873929
-0.48221073276736204,-0.48221073276736204,1.0005274380186755,0.00032789587517119835
-0.48208597893790284,-0.48208597893790284,1.0001793311620624,0.00034988199603487276
-0.48196164386040435,-0.48196164386040435,1.0000264637931242,0.00037046249269690227
-0.4818621614962922,-0.4818621614962922,1.000122950745975,0.00034384483863967094
-0.48174275793439847,-0.48174275793439847,0.9998339005476498,0.0003812863360978461
-0.48161714386494625,-0.48161714386494625,0.9997400352371638,0.00032914590435014765
-0.48147030232935323,-0.48147030232935323,0.9997979664498324,0.00032969825641389344
-0.4813707520950857,-0.4813707520950857,0.9998267107306893,0.00036298226377433053
-0.48124592016301904,-0.48124592016301904,1.0001511707495532,0.00040388521752216547
-0.4811533774055988,-0.4811533774055988,0.9997126154623748,0.0003340106615249704
-0.48105950418623705,-0.48105950418623705,0.9999708395720968,0.00037505460402004144
-0.48101280849177785,-0.48101280849177785,1.0001694419827054,0.00039692448745598074
-0.4809003145325278,-0.4809003145325278,1.0003098351510067,0.0002897082325870416
-0.4806523527850004,-0.4806523527850004,1.0002573661802434,0.00031703109131991843
-0.48049548927551766,-0.48049548927551766,1.0005173152282265,0.00036645603268348036
-0.48038134703101604,-0.48038134703101604,0.9997780478752147,0.0003275798439156089
-0.4801891067658744,-0.4801891067658744,1.0001579090268078,0.0003327474574510727
-0.48001105866364924,-0.48001105866364924,1.000119861320099,0.00036309914046293
-0.4798559003266746,-0.4798559003266746,0.9998652112497828,0.00031781769185748696
-0.4797502724504284,-0.4797502724504284,0.9999708054683552,0.00035836147754517134
-0.47959667202364925,-0.47959667202364925,1.0000511197043114,0.0003536722086567219
-0.47946853161063246,-0.47946853161063246,0.9997213306231222,0.00032647993447463425
-0.47932969823880284,-0.47932969823880284,1.0000116779537696,0.00031741220885381265
-0.47919275454141824,-0.47919275454141824,0.9997940532035023,0.0003459999077674577
-0.4791116272788486,-0.4791116272788486,1.0005020211483826,0.000349608566693168
-0.4790112633433637,-0.4790112633433637,0.9999623224513462,0.0004016301313775933
-0.4789275274094734,-0.4789275274094734,0.9998270451419842,0.0004249383734961171
-0.47878057637858545,-0.47878057637858545,0.9999196436728081,0.00030125595221984687
-0.4786444933157554,-0.4786444933157554,1.0000247760682683,0.00030115024547480837
-0.4785530372372023,-0.4785530372372023,0.9999483278723579,0.000386060525840545
-0.47846741510220453,-0.47846741510220453,0.9999932757924708,0.0002969221420410305
-0.47839710786786327,-0.47839710786786327,1.0002440992200448,0.0003194276670933518
-0.4783284436853819,-0.4783284436853819,0.999871100100395,0.0003232693114075509
-0.47825305261126233,-0.47825305261126233,1.0004998981061344,0.0003606110959059494
-0.4781899001556894,-0.4781899001556894,0.9998909750337509,0.0003795169326736442
-0.47808537736716517,-0.47808537736716517,1.0003002914359658,0.0003048279980818051
-0.4780130602474628,-0.4780130602474628,0.9999321261615458,0.00032425196684615024
-0.4779213871212278,-0.4779213871212278,1.0000328686814983,0.0003802943574286766
-0.47776234511354687,-0.47776234511354687,1.0001624893394172,0.0003493140771388813
-0.4776748263087029,-0.4776748263087029,0.9995070400357665,0.000325553137493648
-0.47758026877991144,-0.47758026877991144,0.9998484745918933,0.00038970554242887033
-0.47742481493025934,-0.47742481493025934,0.9999660663710219,0.0003529277480529308
-0.4772609333730543,-0.4772609333730543,1.0003395030753046,0.00030959063102785117
-0.47715027892434136,-0.47715027892434136,0.9989880551484187,0.0003631055409108348
-0.47702544224423493,-0.47702544224423493,0.9998274532872632,0.0004038912047656728
-0.4769527673346829,-0.4769527673346829,1.0001983887091406,0.00032828448787115735
-0.47687244767917036,-0.47687244767917036,1.0003133487325728,0.00039479272670142303
-0.4768064824300836,-0.4768064824300836,1.0002940638389641,0.0003545814282843262
-0.47673464791103015,-0.47673464791103015,0.9998039739582898,0.00034817004460498835
-0.4765577127753886,-0.4765577127753886,0.999949440416479,0.00028491127071870244
-0.47635969376151477,-0.47635969376151477,1.0000159056769031,0.00031557906360884825
-0.4762434257810355,-0.4762434257810355,0.9999655164346727,0.0003683095214986629
-0.47607242300066444,-0.47607242300066444,1.0000675300957966,0.000358930831601306
-0.47591098487216643,-0.47591098487216643,0.9999061532234123,0.00031403221057800475
-0.4757167458401,-0.4757167458401,1.0002598483107028,0.0003680914558743903
-0.47559491670524495,-0.47559491670524495,1.000065601307464,0.0003023772955971781
-0.4754707918068334,-0.4754707918068334,0.9997389244738166,0.00038219358234648133
-0.47531971681103186,-0.47531971681103186,0.9997805110244513,0.00031881014703318526
-0.47521882007304156,-0.47521882007304156,1.0003729591897628,0.0003197402960414392
-0.4750205930727134,-0.4750205930727134,1.0001148293433695,0.00034247984134719436
-0.4749479750978708,-0.4749479750978708,1.0003906993599894,0.0003737827775450917
-0.47483513234926705,-0.47483513234926705,1.0002357849279135,0.000366122902383546
-0.4747300911400544,-0.4747300911400544,1.0004182360457998,0.00036444677058152853
-0.47458325430263815,-0.47458325430263815,1.0000455408225482,0.0003578387483630926
-0.4744240466176507,-0.4744240466176507,0.9999490861948732,0.0003012177690233228
-0.47433252325236025,-0.47433252325236025,1.000183179451198,0.0003857206005243979
-0.4742451327687604,-0.4742451327687604,0.9998561504774403,0.00029774162923917587
-0.4741664985966281,-0.4741664985966281,0.9997938594101523,0.0002990834887015901
-0.47408906784230564,-0.47408906784230564,0.9998573587370501,0.00033426095115042536
-0.4740090272863881,-0.4740090272863881,1.0000050375376124,0.00037277513357053505
-0.47393669547359424,-0.47393669547359424,0.999743257105278,0.00036326779837766933
-0.47382589433157135,-0.47382589433157135,0.9996850083255333,0.00033030614239462587
-0.4737697457546119,-0.4737697457546119,1.0000753480169693,0.00032779646584596
-0.473660959955987,-0.473660959955987,0.9998606781510919,0.0003506283063311418
-0.47352070030012783,-0.47352070030012783,1.0002612324209323,0.00037094873500472414
-0.47342122444838425,-0.47342122444838425,1.000216163562896,0.0003436688308864305
-0.4732705722887431,-0.4732705722887431,1.0000079872109406,0.0003469036658799967
-0.4731036376784914,-0.4731036376784914,0.9997627514566669,0.0003186863605604387
-0.4729919666056276,-0.4729919666056276,1.0004586043354589,0.0003593397320833157
-0.4728697393682978,-0.4728697393682978,1.0002793282815605,0.00037061039738566995
-0.4727893377121745,-0.4727893377121745,0.9999002016580775,0.000389101670152776
-0.4727131940832351,-0.4727131940832351,1.0000270776300209,0.00032658685783658304
-0.47263342229532557,-0.47263342229532557,1.0004412881719638,0.0003795421884030401
-0.4725808726168452,-0.4725808726168452,0.999721957389929,0.000354150165629488
-0.4724838081263442,-0.4724838081263442,0.9999758552512411,0.0003487983523714158
-0.4722983247736693,-0.4722983247736693,0.9999358184863457,0.00029665383706691765
-0.4721038821442335,-0.4721038821442335,0.9996648491632568,0.00037937377651773896
-0.4719772657978865,-0.4719772657978865,1.0001106606024768,0.00034326460883735924
-0.47177184253159793,-0.47177184253159793,0.9997859833694432,0.0003341280056784691
-0.47160642894655214,-0.47160642894655214,1.0003377306111427,0.0003514751843476094
-0.4714619119593181,-0.4714619119593181,0.9999388270770895,0.00031170524302699416
