time,time,flux,flux_err
-0.4991350968150073,-0.4991350968150073,1.000153486889973,0.00012603085819491074
-0.4969160172578995,-0.4969160172578995,0.9999441201850686,0.00012473025336384052
-0.49483946574328,-0.49483946574328,0.9999063397508667,0.0001247294686173844
-0.49358689782529835,-0.49358689782529835,0.9998836828893849,0.0001251236408437541
-0.49154585681681057,-0.49154585681681057,0.9999056948531623,0.00012468644889409376
-0.4898921630578116,-0.4898921630578116,1.0000109176568794,0.00012517247550420402
-0.48717173076147446,-0.48717173076147446,0.9999262944065815,0.0001247330011141357
-0.48537083201808856,-0.48537083201808856,1.000100837444685,0.00012522609594428508
-0.4838931781821884,-0.4838931781821884,0.9999875128457033,0.00012469612348758966
-0.4829539528916939,-0.4829539528916939,1.0001503413848642,0.00012504569357004957
-0.4818124438766972,-0.4818124438766972,1.000142749948607,0.00012527363692550194
-0.47964291752141436,-0.47964291752141436,1.000000563100865,0.00012471261685034882
-0.47591362355597083,-0.47591362355597083,0.9999156620390307,0.00012625552424485933
-0.47195922359096587,-0.47195922359096587,0.9999966384127182,0.00012497503908796687
-0.46835093427798713,-0.46835093427798713,0.9999815768038083,0.00012501571191488769
-0.46655213796475437,-0.46655213796475437,0.9997441563572856,0.00012606391677464707
-0.46430503466399387,-0.46430503466399387,0.9999655827044689,0.00012469883462214155
-0.4611238169411081,-0.4611238169411081,0.9999323894027665,0.00012731052456530086
-0.4597483036108315,-0.4597483036108315,1.000015761432223,0.00012468392327219486
-0.4579370571023901,-0.4579370571023901,0.9998210116558145,0.0001246796497681381
-0.4564368785067927,-0.4564368785067927,0.999951968551297,0.00012661703260317885
-0.4550399564090185,-0.4550399564090185,1.0002307371085872,0.00012469783591422277
-0.45369119560782567,-0.45369119560782567,1.0000184570360662,0.0001270610855080367
-0.4527039579086704,-0.4527039579086704,1.000038340894147,0.00012642791287154423
-0.45166744484740773,-0.45166744484740773,0.9999724506933889,0.00012480864632418554
-0.4503846667575999,-0.4503846667575999,0.9999190081430308,0.00012468785097371335
-0.44895715195307273,-0.44895715195307273,1.000030954788836,0.00012471139216183621
-0.4479935934548848,-0.4479935934548848,0.999973287787801,0.00012486112114541156
-0.4469868380823755,-0.4469868380823755,1.0001458805780312,0.0001247076539354465
-0.44511331535177306,-0.44511331535177306,0.9998762859529984,0.0001246999870178568
-0.4439107683690963,-0.4439107683690963,0.999804503736579,0.00012470926057276448
-0.4426226498646429,-0.4426226498646429,0.9997427425752837,0.00012468323392654453
-0.44072757618268954,-0.44072757618268954,1.0001065807953153,0.00012470866902770554
-0.43894992432324215,-0.43894992432324215,1.0000173170307756,0.00012471833099305082
-0.4373200672562234,-0.4373200672562234,0.9999488746600234,0.00012712016963077906
-0.4349635622013011,-0.4349635622013011,1.0001074894951003,0.0001247289395462894
-0.4314291690578102,-0.4314291690578102,0.9998787462540465,0.00012471805715478325
-0.43015775438107084,-0.43015775438107084,1.000061593065334,0.00012658319949707014
-0.4280439890775597,-0.4280439890775597,1.00004736510076,0.00012472990809474853
-0.42674603249615756,-0.42674603249615756,0.9999287698382495,0.00012475937371855703
-0.4241879504814278,-0.4241879504814278,0.9998451082373613,0.00012590060380150738
-0.42270120643806874,-0.42270120643806874,0.9998478551562291,0.00012477510628706488
-0.41984701554320053,-0.41984701554320053,1.0001661842771934,0.0001261727038562244
-0.41838363543211016,-0.41838363543211016,0.9999949765361592,0.00012470459521304699
-0.4167916678750771,-0.4167916678750771,0.9998908534966511,0.00012510764949939503
-0.41520455286081415,-0.41520455286081415,0.9999330401199714,0.00012469983915377555
-0.41397047148930144,-0.41397047148930144,0.999961740554304,0.00012516827637736516
-0.41258834810432743,-0.41258834810432743,0.9997944975955784,0.0001247214155229861
-0.41089386546373136,-0.41089386546373136,0.9999813019074832,0.00012470941704305108
-0.4092331509484211,-0.4092331509484211,1.0000111206509943,0.00012631793272275553
-0.4077117273816839,-0.4077117273816839,1.0000619879630372,0.00012473866951432695
-0.4063001637419802,-0.4063001637419802,0.9999362688934947,0.00012527081807113357
-0.404567906637385,-0.404567906637385,0.9998806174696517,0.00012467863721655928
-0.40268669983925065,-0.40268669983925065,0.9998424018682066,0.00012780527407865036
-0.40117537256883223,-0.40117537256883223,1.0000402301428661,0.00012636049960222992
-0.39765648969623724,-0.39765648969623724,0.9999387363333163,0.00012577831061762478
-0.39374638456502,-0.39374638456502,0.999998415096897,0.00012499775848415573
-0.39091596448706695,-0.39091596448706695,1.0000549588728957,0.0001247302996935779
-0.38756868897617097,-0.38756868897617097,0.9998825438092809,0.00012727507441468762
-0.3844333624583669,-0.3844333624583669,1.0000223860133317,0.00012469832438028963
-0.38295429758290994,-0.38295429758290994,0.9997891139127921,0.00012491799662552521
-0.3811550120575703,-0.3811550120575703,0.9998287137626413,0.00012469181223159737
-0.3794895395185449,-0.3794895395185449,0.9999891479689484,0.0001246854272094769
-0.37797790572658413,-0.37797790572658413,0.9998908942701554,0.00012468577584051908
-0.37700387076329206,-0.37700387076329206,1.000003501825922,0.00012465923639227888
-0.37563790095446165,-0.37563790095446165,0.9999328893656658,0.00012467593544657072
-0.3743498626470682,-0.3743498626470682,0.9998961125336454,0.000126765998491267
-0.37328949912480314,-0.37328949912480314,0.9999236975530318,0.00012469995705274327
-0.3723920418764465,-0.3723920418764465,0.9998701167322072,0.0001262051916278332
-0.37158806353254475,-0.37158806353254475,1.0000508411659617,0.00012484652921376075
-0.3705063487723237,-0.3705063487723237,1.0000171069488837,0.00012469871891885914
-0.368720864734496,-0.368720864734496,0.9999961307443934,0.00012470479101236797
-0.3676627477703732,-0.3676627477703732,0.9999390085409463,0.00012490150277819968
-0.36659106126753616,-0.36659106126753616,0.9999347828923144,0.00012469592765248656
-0.36445582530868703,-0.36445582530868703,0.9998228948008668,0.0001247301226338503
-0.36317122537875546,-0.36317122537875546,1.0000294836815566,0.00012724847166792368
-0.3619101930540637,-0.3619101930540637,1.000100717954345,0.00012708061991796574
-0.35951739744632505,-0.35951739744632505,1.0000007833146058,0.00012471956986138713
-0.3573050123406574,-0.3573050123406574,0.9999921979807956,0.00012471636402811552
-0.3551782463706331,-0.3551782463706331,0.9999921111993659,0.00012472613793527423
-0.3533090640077717,-0.3533090640077717,1.0000745550731787,0.0001269042891762848
-0.3513303575993632,-0.3513303575993632,1.0000741051055129,0.00012476251617763687
-0.34952798278536645,-0.34952798278536645,0.9996981368740011,0.00012468318879744808
-0.34730501754384024,-0.34730501754384024,0.9999983997258374,0.0001247653667472651
-0.3446479952399386,-0.3446479952399386,1.0000188190457302,0.0001247389726843981
-0.3421363433822989,-0.3421363433822989,0.9997663306582381,0.0001250654751557922
-0.3407852972130058,-0.3407852972130058,1.0001117446990841,0.0001247148270921515
-0.3392668634609436,-0.3392668634609436,0.9999721023676663,0.00012473039496775764
-0.33808720180823004,-0.33808720180823004,1.000086377414448,0.00012515686305209227
-0.33605253256246215,-0.33605253256246215,0.999994995609587,0.00012473157730230822
-0.3342150921656867,-0.3342150921656867,0.9998714408549267,0.00012520367605327543
-0.3327669849590166,-0.3327669849590166,0.9999088051232621,0.00012577958906037835
-0.33106789717130597,-0.33106789717130597,0.9999633280471987,0.00012470705602469142
-0.32943741048220543,-0.32943741048220543,0.9999203137933075,0.00012523614321808006
-0.3276871365640545,-0.3276871365640545,1.000169655136037,0.0001247202700392385
-0.3257249784175656,-0.3257249784175656,0.9999545445795182,0.00012689488941833245
-0.3218228167927009,-0.3218228167927009,0.9999012769652345,0.00012793518674326343
-0.31804720814980103,-0.31804720814980103,0.9997942060756383,0.00012600395753154897
-0.31583794535836207,-0.31583794535836207,1.0000579593067067,0.00012513350980397972
-0.3124137205595616,-0.3124137205595616,1.000042991866342,0.000124697532851063
-0.3097380473613157,-0.3097380473613157,1.0000870320865853,0.0001272761615166229
-0.30761447124532426,-0.30761447124532426,1.0000298733980468,0.0001246982812986704
-0.3051983139186632,-0.3051983139186632,1.0000215111792505,0.00012468736159438048
-0.30340207987610485,-0.30340207987610485,0.9999083761771435,0.00012468832914600515
-0.3016559205527301,-0.3016559205527301,1.0001420060783066,0.00012470022969859464
-0.3003907884922228,-0.3003907884922228,0.9998624078945841,0.00012468160599912913
-0.29925483300030464,-0.29925483300030464,1.0000826300974617,0.00012469641577147667
-0.29828422684804534,-0.29828422684804534,0.9999394482367918,0.00012684540469238008
-0.29690006464225005,-0.29690006464225005,0.9999173199085967,0.0001247021887569427
-0.29587791692028986,-0.29587791692028986,1.0000286820891893,0.00012483610802073572
-0.29487269827659474,-0.29487269827659474,0.9999015017420172,0.00012470266814773817
-0.2931178661005106,-0.2931178661005106,0.9998101818309737,0.00012469070488015191
-0.29186367818620057,-0.29186367818620057,1.0000025310914322,0.0001249093684724944
-0.29059524895128563,-0.29059524895128563,0.9999521932608577,0.00012469797678496569
-0.28823720784421314,-0.28823720784421314,1.0001965146712264,0.0001268573424245591
-0.2870662807690678,-0.2870662807690678,0.9999422038976169,0.0001272762527206296
-0.2850635940718348,-0.2850635940718348,0.9999170700481059,0.00012705682343931986
-0.2831352804641938,-0.2831352804641938,0.9999106820894527,0.00012470512348723614
-0.2809920596453594,-0.2809920596453594,1.0001276143173885,0.00012473225581553101
-0.27871117999602574,-0.27871117999602574,1.0002146413668616,0.00012508963660104474
-0.27668961374729406,-0.27668961374729406,1.0000909878460245,0.0001246993444586261
-0.275173024792457,-0.275173024792457,0.9998797689958009,0.00012472948962293618
-0.272932730471075,-0.272932730471075,1.0000226027366264,0.0001247259760827637
-0.27095461857970804,-0.27095461857970804,1.0000504439200775,0.00012475455061430825
-0.2684775628134958,-0.2684775628134958,0.9999031969964871,0.00012701260449963546
-0.2656445887274458,-0.2656445887274458,1.00001329385922,0.00012470924611711416
-0.2640461987059098,-0.2640461987059098,0.9999028908744808,0.00012470842724413012
-0.26274404856812905,-0.26274404856812905,1.0000981156118667,0.00012472001303655798
-0.262045019560901,-0.262045019560901,0.9997729073402567,0.00012510308073201263
-0.26011856184341015,-0.26011856184341015,0.9999556904560671,0.00012472692957662398
-0.25836458264966494,-0.25836458264966494,1.0001895554524025,0.00012521025652042575
-0.2566884085172205,-0.2566884085172205,1.0000341370193309,0.00012694235843647175
-0.25503851255925836,-0.25503851255925836,1.000070305298092,0.0001247223170781508
-0.2534088569242158,-0.2534088569242158,1.0000274537157412,0.00012523881522083738
-0.25160959407658084,-0.25160959407658084,1.0001647169016485,0.00012507924415573873
-0.25016427768714494,-0.25016427768714494,1.000046066188168,0.00012528064968618635
-0.2482191213508486,-0.2482191213508486,1.0000085064537108,0.00012471571304725935
-0.24570952325739198,-0.24570952325739198,1.0003376897194105,0.0001254541267253514
-0.24337090268090833,-0.24337090268090833,0.9999809986949362,0.00012826469143295397
-0.2416126125215669,-0.2416126125215669,1.000022952351441,0.00012497975184169117
-0.238665191239852,-0.238665191239852,1.0001403503905906,0.0001247332855423528
-0.23518798474397046,-0.23518798474397046,1.0000278556492361,0.0001272429767639333
-0.2318205626026611,-0.2318205626026611,1.000131414672277,0.00012468934968732503
-0.22942757523996987,-0.22942757523996987,0.9998802624398231,0.00012732156978939412
-0.22808295903378167,-0.22808295903378167,1.0000537896324846,0.0001246907155381627
-0.22620004350465023,-0.22620004350465023,1.000079477839917,0.00012469350033833174
-0.2248768991936231,-0.2248768991936231,0.9999589421265392,0.00012468882641902525
-0.2235693187365541,-0.2235693187365541,1.0000899013487325,0.00012469488229108975
-0.2222732748647104,-0.2222732748647104,0.9999292389805741,0.0001269205461821802
-0.2208715812928858,-0.2208715812928858,0.9999449590880758,0.00012470233212414045
-0.21984657284629067,-0.21984657284629067,1.000100018714932,0.0001248343683633689
-0.2188459677519859,-0.2188459677519859,1.0001296256130203,0.0001247055414717139
-0.21760091451578772,-0.21760091451578772,0.9999281263271715,0.00012470478573140296
-0.2163601419699262,-0.2163601419699262,1.0000652724014707,0.00012470394766252128
-0.21543937159440246,-0.21543937159440246,0.9999165678073891,0.00012489287147417246
-0.21391735621000407,-0.21391735621000407,0.9999502336549091,0.00012674176996225746
-0.21198741438420257,-0.21198741438420257,0.9998113636432903,0.0001273318565538044
-0.2108831905046827,-0.2108831905046827,1.0001183317614484,0.00012469657346091034
-0.2094136457380955,-0.2094136457380955,0.9998666778198688,0.00012470351072383748
-0.20708130237180739,-0.20708130237180739,1.000061323959932,0.00012471992304842095
-0.20566775344195776,-0.20566775344195776,0.9999929994164718,0.00012846664317134288
-0.20338017333269817,-0.20338017333269817,1.000012345700994,0.00012473254931332026
-0.20014418751670746,-0.20014418751670746,0.9999975223183591,0.00012472572730654787
-0.19869084004021714,-0.19869084004021714,0.9998886130060068,0.00012471091893247465
-0.19580200830241665,-0.19580200830241665,0.9999831234139789,0.00012473382915730315
-0.19382524729153375,-0.19382524729153375,1.0000305990294849,0.00012476943053730128
-0.19105531482055085,-0.19105531482055085,1.0001533686178665,0.00012470508899443418
-0.18837767254008214,-0.18837767254008214,1.0000530698987244,0.00012475442954892286
-0.18642429884057493,-0.18642429884057493,1.0001104884323375,0.0001247023176733471
-0.1849219499505125,-0.1849219499505125,0.9999245520315372,0.00012511393460689892
-0.18332188393396792,-0.18332188393396792,0.9999223698589648,0.00012469924935198468
-0.1821652889237157,-0.1821652889237157,0.9998865006717412,0.00012768457543392705
-0.17968380783568136,-0.17968380783568136,1.000182724589233,0.00012473442247394343
-0.1778292115908698,-0.1778292115908698,0.9997149039975053,0.00012520490118778034
-0.17639288293285063,-0.17639288293285063,0.9999035453920975,0.0001247044008734351
-0.17534849035728256,-0.17534849035728256,1.0000024100909415,0.00012505362534058733
-0.17434035474434495,-0.17434035474434495,1.0001737869356666,0.00012528861360487553
-0.1730089688033331,-0.1730089688033331,0.9999705373891178,0.00012468250131764005
-0.1707933554207557,-0.1707933554207557,0.9999326658666563,0.00012540087536377754
-0.16648739329248202,-0.16648739329248202,1.000125342267526,0.00012684431121264607
-0.16396840825036635,-0.16396840825036635,0.9999131100248025,0.0001249766369539684
-0.16011151388083816,-0.16011151388083816,1.0000032077506908,0.0001246855851014119
-0.15754601559165166,-0.15754601559165166,1.0001084138839227,0.00012470784276767755
-0.1537740194806247,-0.1537740194806247,0.999951242962671,0.0001273103081826953
-0.15191217857209266,-0.15191217857209266,1.00010883572991,0.0001246816335145774
-0.15086166014516494,-0.15086166014516494,0.9998299268963203,0.00012467393103314013
-0.14952229033078765,-0.14952229033078765,1.0001444021037624,0.00012467998539652316
-0.14785014429799048,-0.14785014429799048,0.9996717152147463,0.00012467621072955603
-0.1465048632482649,-0.1465048632482649,1.0001026123225398,0.0001270148707426234
-0.1454044081576285,-0.1454044081576285,0.9998888251601926,0.00012469111963432194
-0.14412325131415854,-0.14412325131415854,0.9999261883517692,0.0001247991199663531
-0.14297302923514507,-0.14297302923514507,0.9999960676529585,0.00012470524057964048
-0.14165207574114902,-0.14165207574114902,1.000132646324026,0.0001247779769226932
-0.1405162972820108,-0.1405162972820108,0.9999979991943583,0.0001247176821495988
-0.13962938200711505,-0.13962938200711505,0.999889135342235,0.00012486407767754146
-0.13802836782560918,-0.13802836782560918,0.9999214230915958,0.00012471275854368573
-0.1364224279546761,-0.1364224279546761,1.0002891498417925,0.0001269946305311739
-0.13549912992166355,-0.13549912992166355,1.0002844920129776,0.00012473107926434378
-0.13400774061738047,-0.13400774061738047,0.9999926728896463,0.00012468475843118083
-0.13186266207630978,-0.13186266207630978,1.0003386532956124,0.00012473224720587574
-0.13047209426295012,-0.13047209426295012,0.9999020610194493,0.00012470533599813857
-0.12828423389437377,-0.12828423389437377,1.0000628695401097,0.00012714026099924143
-0.12551291845156812,-0.12551291845156812,0.9997862339021195,0.00012471949990045517
-0.12298460973543116,-0.12298460973543116,1.0000279957191345,0.00012473700838432056
-0.12095793425833108,-0.12095793425833108,0.9999065737300589,0.00012657101903281828
-0.11914780856022844,-0.11914780856022844,0.9999075022928308,0.00012476616573573173
-0.11667482305347221,-0.11667482305347221,0.9998644000030014,0.00012592065054024612
-0.11507955490524183,-0.11507955490524183,1.0001250369908325,0.00012478165664877157
-0.11268041350704153,-0.11268041350704153,0.999892342837731,0.00012473630350566254
-0.11039379735593684,-0.11039379735593684,0.9999361375942986,0.00012469850938941278
-0.10868383666966111,-0.10868383666966111,1.0001298452987006,0.00012511661786423743
-0.10719330870779231,-0.10719330870779231,0.9998418440302709,0.0001264662349429235
-0.10584106704918668,-0.10584106704918668,0.9999032441167378,0.0001251591789048617
-0.10385110663046362,-0.10385110663046362,1.0002395691117911,0.0001247427237014798
-0.10242112754203844,-0.10242112754203844,0.9998755206217851,0.00012522174897813506
-0.10086805223400006,-0.10086805223400006,1.0001814287936703,0.0001258698218441024
-0.09951865172188264,-0.09951865172188264,0.9999938135908326,0.00012618831705724112
-0.09830981845589122,-0.09830981845589122,0.9998101282551929,0.00012526419463715184
-0.09657904664054513,-0.09657904664054513,1.0000664875019976,0.00012468134936684976
-0.09471922001102939,-0.09471922001102939,1.0000297415391182,0.00012537421927882078
-0.09276647232327377,-0.09276647232327377,1.0001389349891525,0.0001264103725115068
-0.0889567512931535,-0.0889567512931535,1.0001147539907456,0.0001257996498657454
-0.08494285600900184,-0.08494285600900184,0.9999194280178113,0.00012641039018720774
-0.08333662598597584,-0.08333662598597584,0.999975960307194,0.00012470500173350992
-0.08051395660149865,-0.08051395660149865,0.999978110252554,0.00012471021277649102
-0.07754606390371918,-0.07754606390371918,1.0000617059377042,0.00012730109012960419
-0.07566312532580924,-0.07566312532580924,0.9999086197183953,0.00012468939713874166
-0.07349063317815308,-0.07349063317815308,0.9998671420533931,0.00012468047813877814
-0.07210673989466158,-0.07210673989466158,0.9998292364137364,0.00012470664779724598
-0.07098301649966743,-0.07098301649966743,1.0002006044085772,0.00012470960113769892
-0.06967160533386049,-0.06967160533386049,0.9999119653799363,0.000127114690764948
-0.06855479994264897,-0.06855479994264897,1.0001588155196806,0.00012469320025461394
-0.06729204124567331,-0.06729204124567331,1.0000116656043774,0.00012470605387035697
-0.06614554840343771,-0.06614554840343771,1.000076563126284,0.00012675239416308964
-0.06493810521351406,-0.06493810521351406,1.0000656986606562,0.00012471377324020685
-0.06397458884457592,-0.06397458884457592,0.9998074065055864,0.00012484775291862714
-0.062966644752305,-0.062966644752305,1.0000662079836138,0.00012471249481919297
-0.06145496691460721,-0.06145496691460721,0.9999973578139274,0.0001247027320037575
-0.06009836200682912,-0.06009836200682912,0.9999623944719881,0.00012491767389813526
-0.05902628754847683,-0.05902628754847683,1.0002480691840387,0.00012471054968133828
-0.05783035182103049,-0.05783035182103049,0.9997964073917759,0.00012469868059177949
