time,time,flux,flux_err
-0.49892544634288544,-0.49892544634288544,1.0007294875275956,0.001426758197257765
-0.49788293723274063,-0.49788293723274063,0.9980235683724037,0.0014260309196227783
-0.4953265551024136,-0.4953265551024136,1.0008618596788297,0.001502483452639039
-0.4934678879738688,-0.4934678879738688,1.0002724807005217,0.0014356838436572774
-0.4898092213225027,-0.4898092213225027,0.9989558655068962,0.0013029696035746362
-0.48915557204236393,-0.48915557204236393,0.9998516248593813,0.0013023958535547226
-0.4870088965159084,-0.4870088965159084,1.000033047821605,0.0013622877800518274
-0.4850682010379387,-0.4850682010379387,1.0007531226436843,0.0013035541976434543
-0.4820445359167934,-0.4820445359167934,0.9995992420002449,0.0013035200035041276
-0.4802597955131205,-0.4802597955131205,1.0002057319349524,0.0013046360803827977
-0.4792382144732983,-0.4792382144732983,1.0000850568765356,0.001302353480991035
-0.47710333645300124,-0.47710333645300124,0.9999990080082831,0.0013470264433676216
-0.47547340262899523,-0.47547340262899523,1.000080370468613,0.0013041461009270397
-0.4728739437421609,-0.4728739437421609,1.0007969505651975,0.001305488238034767
-0.47106341763428644,-0.47106341763428644,0.9997955098076107,0.0013039600574346207
-0.46957341858287693,-0.46957341858287693,0.9980381548388408,0.001331029572664772
-0.4676704818419239,-0.4676704818419239,1.0000362345633622,0.0013034079034111438
-0.4659313834061322,-0.4659313834061322,1.0005614831023677,0.0013064134812559977
-0.46300831914850277,-0.46300831914850277,0.9999889009012589,0.0013042918304492143
-0.4617449303790636,-0.4617449303790636,0.9992961133929994,0.0013031935698771444
-0.4599024981202092,-0.4599024981202092,0.999796120117491,0.0013264944750533058
-0.4583378000548691,-0.4583378000548691,0.9999021302716319,0.0013057279663339515
-0.45644179913651894,-0.45644179913651894,0.9985452747321053,0.0013057381690395973
-0.4531618419001461,-0.4531618419001461,1.0001682324813639,0.0013061824888937741
-0.4524022113328101,-0.4524022113328101,1.0009007314760243,0.001302270235040413
-0.45019138040661344,-0.45019138040661344,0.9999581312853826,0.001305652793190013
-0.4483470283143106,-0.4483470283143106,0.9992313208437288,0.001305393452416367
-0.4459199726159568,-0.4459199726159568,0.9985071916694859,0.0013075553972260077
-0.4436994943185709,-0.4436994943185709,0.9988478187961001,0.001309527493373168
-0.44261662094213533,-0.44261662094213533,0.9991016875342084,0.0013040335154041703
-0.4401701790571678,-0.4401701790571678,1.000107648842846,0.0013073892084483154
-0.4384145440220891,-0.4384145440220891,1.00038981289071,0.0013048918244029522
-0.43557004516987946,-0.43557004516987946,0.9988611157484545,0.001298571619418957
-0.43440841117335366,-0.43440841117335366,1.0004082241861305,0.0013039324890097063
-0.4331698901420168,-0.4331698901420168,0.9995071172706705,0.0013035739274056325
-0.4312019462842727,-0.4312019462842727,1.0002157879284268,0.0013031848218271217
-0.4297497487808869,-0.4297497487808869,0.9994611155948657,0.0013202452778734665
-0.42769381441539733,-0.42769381441539733,0.9992555173062261,0.0012986776818327233
-0.42534890995011665,-0.42534890995011665,0.9998628022617091,0.001305759855345367
-0.4247968263975054,-0.4247968263975054,1.0006260749952698,0.001301080179287387
-0.4230465237313183,-0.4230465237313183,1.0015778843820198,0.0015543326665546492
-0.4216959394019796,-0.4216959394019796,0.9999064869507677,0.0013032127975392731
-0.41987969168185374,-0.41987969168185374,0.9997641532749443,0.0013160327303819257
-0.4171084936533589,-0.4171084936533589,1.0004755968752186,0.0013003934654291429
-0.4158895496184414,-0.4158895496184414,1.0014767972340346,0.001302243538124448
-0.4140916839562124,-0.4140916839562124,0.9997157153079972,0.0014612272600446987
-0.4125358716657502,-0.4125358716657502,1.0004661560509016,0.0013046254120952275
-0.41070167412253794,-0.41070167412253794,0.9991384968087905,0.001313303636234945
-0.4079368686419912,-0.4079368686419912,1.0005107916372966,0.0013003943882250516
-0.4067253703789902,-0.4067253703789902,0.9989934717598865,0.0013017934630878817
-0.4049285943787254,-0.4049285943787254,0.9997365446635558,0.0014090654519030537
-0.4033695830199576,-0.4033695830199576,1.0006101770351035,0.0013057416686083712
-0.401523804358294,-0.401523804358294,0.9992941433945525,0.0013124932170079109
-0.39876757032834576,-0.39876757032834576,0.9998819395423745,0.00130150299716444
-0.39755925070421655,-0.39755925070421655,0.9987286592061213,0.001303214795978707
-0.3957663879766187,-0.3957663879766187,1.0000725004363848,0.00138108698442637
-0.3942026837823505,-0.3942026837823505,0.9998838059807978,0.0013042715371082143
-0.3922904024111631,-0.3922904024111631,0.9990033619762471,0.0013111214319979862
-0.38889217263422327,-0.38889217263422327,0.9997214877788168,0.0013009587586533234
-0.3882396967666864,-0.3882396967666864,0.9999715737970984,0.0013019847405823935
-0.38611963086077594,-0.38611963086077594,1.0012144385718902,0.0013599380812589724
-0.3846103394469537,-0.3846103394469537,1.0006918350402836,0.0013025151081646085
-0.3818236744926253,-0.3818236744926253,0.9992945469235686,0.0013022889036503644
-0.37943823398818494,-0.37943823398818494,0.9989045248454058,0.001306995780611043
-0.3788127381478262,-0.3788127381478262,0.997517228707417,0.0018219664303109786
-0.37689369896397695,-0.37689369896397695,1.0004067074152867,0.0013440112132398008
-0.3757435671381245,-0.3757435671381245,0.9994682483807505,0.001303534772390956
-0.3738165454051341,-0.3738165454051341,0.9996325999413349,0.0013063317171662582
-0.37055162222022775,-0.37055162222022775,0.9992411547479649,0.0013058181619772895
-0.36979373468493576,-0.36979373468493576,0.9999446591257687,0.001302324144601479
-0.3676879368496884,-0.3676879368496884,0.9984792846761419,0.001331487459679701
-0.3661959246652259,-0.3661959246652259,0.9992207382164372,0.0013043077682438572
-0.3641612497391179,-0.3641612497391179,0.9999753988703215,0.0013036408827654235
-0.3611381120615988,-0.3611381120615988,0.9993655398745013,0.0013045203951707082
-0.3603851589934493,-0.3603851589934493,0.9983445196512987,0.0013037317088879113
-0.35808240599872077,-0.35808240599872077,0.9983303812869233,0.001325344947327778
-0.35659485605137886,-0.35659485605137886,0.9995297093051873,0.0013066621250896868
-0.35431506587119654,-0.35431506587119654,1.0010004650045707,0.0013033700355545906
-0.35195749731428805,-0.35195749731428805,0.9999815192875037,0.0013062192646294615
-0.3508562006929424,-0.3508562006929424,0.9989591426909765,0.0013032627634163596
-0.3484201240738912,-0.3484201240738912,0.9974270809595381,0.0013064494621646183
-0.34666944390264687,-0.34666944390264687,1.0002718619512188,0.001304067625576028
-0.343628615194757,-0.343628615194757,0.998288940913258,0.0013100407592554156
-0.34252204772274125,-0.34252204772274125,1.000082324538951,0.0013033606382236078
-0.3405949850101024,-0.3405949850101024,0.9977448832432053,0.0013068747219181637
-0.3387098726365366,-0.3387098726365366,0.9993175493494008,0.0013027953624047673
-0.33661740574170834,-0.33661740574170834,0.9997533817219706,0.0012965313202231406
-0.3337551444885321,-0.3337551444885321,0.998646851699938,0.001305823217639009
-0.3331678341492079,-0.3331678341492079,1.0006043966973595,0.0013004642497525143
-0.33123100278899076,-0.33123100278899076,0.9996214727992754,0.0013036554281530526
-0.32962214531653444,-0.32962214531653444,0.9999505716108498,0.0013202994212803715
-0.3279973785043694,-0.3279973785043694,1.001120114771295,0.0013045099710003746
-0.3251232631053426,-0.3251232631053426,0.9998342492127843,0.0012991439662888957
-0.32417165306396784,-0.32417165306396784,1.0009034010210693,0.0013031462751572748
-0.3228784289683972,-0.3228784289683972,0.9997875437138644,0.0015393725754725373
-0.3209207946667448,-0.3209207946667448,1.0002605148075503,0.0013044960483480392
-0.31929225685307755,-0.31929225685307755,1.0008714741279683,0.0013165032467494613
-0.3168944443379587,-0.3168944443379587,1.0005463280429592,0.001299905920793163
-0.3150964282802306,-0.3150964282802306,0.9993128050369082,0.0013040887791952599
-0.31371441710580256,-0.31371441710580256,1.0012480556684085,0.001455293712563984
-0.3117546639005013,-0.3117546639005013,0.9978590328043963,0.0013028112979581571
-0.31011810357158537,-0.31011810357158537,0.9996190978220643,0.0013122121223652964
-0.3077231632756593,-0.3077231632756593,1.001510429297475,0.0013004418500623938
-0.30592860031829333,-0.30592860031829333,0.9995092592734647,0.0013032523444641067
-0.30455050160962854,-0.30455050160962854,0.9975756872863661,0.0014057045454220604
-0.30258869256431353,-0.30258869256431353,1.000903934731806,0.001304165114057842
-0.30094409727244054,-0.30094409727244054,0.9979914249774836,0.0013118056444329082
-0.2985520616719441,-0.2985520616719441,1.0012023824221041,0.0013009940579929544
-0.29676098078562063,-0.29676098078562063,0.9990239672859115,0.0013037598812049214
-0.2953867003394407,-0.2953867003394407,0.9994514762450908,0.001378478212296749
-0.29342287930921884,-0.29342287930921884,0.9997784013988185,0.001302018701325709
-0.29158376185150703,-0.29158376185150703,0.9975968646702729,0.0013057437561637486
-0.28800532066161394,-0.28800532066161394,0.9999414040708418,0.0013042117473287555
-0.28747674307887794,-0.28747674307887794,1.000468960057161,0.001304359537291133
-0.28569442810185136,-0.28569442810185136,0.9994810769617206,0.0013594950329614969
-0.28416501095562124,-0.28416501095562124,0.9977639543414007,0.0013026107191126163
-0.2815955387733993,-0.2815955387733993,1.0016786239721427,0.001303295682251995
-0.2785644318748382,-0.2785644318748382,1.0003478206136975,0.0013066819811937238
-0.2777812513246317,-0.2777812513246317,1.0017057939653562,0.0013020684203321857
-0.27557147168990925,-0.27557147168990925,0.998318950077793,0.0013429329449472025
-0.2743811926418857,-0.2743811926418857,1.0003063760110529,0.0013024235486306995
-0.27241518301234463,-0.27241518301234463,1.000296928744285,0.001301764195018404
-0.26939258940910804,-0.26939258940910804,0.9986129961693682,0.0013060451981015925
-0.26862532477098283,-0.26862532477098283,0.9983828307812864,0.0013060331611807559
-0.26634281617371014,-0.26634281617371014,1.000707440452819,0.0013305423959202112
-0.264842812090501,-0.264842812090501,1.0001086326633084,0.0013044688070028704
-0.26256723943006366,-0.26256723943006366,0.9991975459798343,0.001303357041985329
-0.26017070189191144,-0.26017070189191144,0.9994667321940802,0.0013049279050910624
-0.25909594420081705,-0.25909594420081705,0.9977656893173332,0.0013040243311750704
-0.2568250813630584,-0.2568250813630584,0.9990958781334877,0.0013250719073871092
-0.25528047364059603,-0.25528047364059603,0.9973393861958973,0.001305427543405634
-0.25326919891595023,-0.25326919891595023,1.001774107077321,0.0017447188639241132
-0.25103993486991383,-0.25103993486991383,0.998766426301884,0.0013083709665724706
-0.24994068380110548,-0.24994068380110548,0.9985706982747317,0.0013029864005279844
-0.24750345704887877,-0.24750345704887877,0.9981666236043022,0.0013069223773121562
-0.24575222712082906,-0.24575222712082906,1.000766164045,0.0013053070369849645
-0.2427111721211986,-0.2427111721211986,0.9983090612733804,0.0013086842184242711
-0.24160542969111704,-0.24160542969111704,1.0000447907603507,0.0013032933959619825
-0.2396787524325191,-0.2396787524325191,0.9967581455505881,0.0013068065547740682
-0.2380253573624941,-0.2380253573624941,1.0008172913023763,0.0013045805179784217
-0.23625527566182428,-0.23625527566182428,0.9994880855900055,0.0013047445255734288
-0.23304716126513086,-0.23304716126513086,0.9993703105493783,0.0012971452216254337
-0.23243935142963892,-0.23243935142963892,1.0007528279911277,0.0013046286730862638
-0.23080118894213228,-0.23080118894213228,1.000449009290477,0.0013028363994665186
-0.22902410878668888,-0.22902410878668888,0.9996640333273884,0.001302620376400026
-0.22722220782743535,-0.22722220782743535,0.9986652159559968,0.0013176437550683625
-0.22444655110521125,-0.22444655110521125,0.9987814390895334,0.0012984115353602327
-0.22325531925234826,-0.22325531925234826,0.9993573538791214,0.0013040826819358132
-0.2219620231539011,-0.2219620231539011,0.9982418862901159,0.0015272219568032855
-0.22000417446979553,-0.22000417446979553,0.9994095143386084,0.0013036125348129398
-0.21837483435156174,-0.21837483435156174,0.9990238506709425,0.0013155219289602655
-0.21597730822031735,-0.21597730822031735,0.9986318954101179,0.0013006992828289957
-0.2141796361960587,-0.2141796361960587,1.0010976468984945,0.0013033151630101282
-0.21279802076678606,-0.21279802076678606,1.0004947386544933,0.0014482170054931761
-0.21083806048409315,-0.21083806048409315,0.9999582799375851,0.001303272461457864
-0.20920069514759235,-0.20920069514759235,0.9994547519123607,0.0013130829073091119
-0.20680604420776943,-0.20680604420776943,0.9985762801444651,0.001299421713326211
-0.20501182880834676,-0.20501182880834676,1.000108471541979,0.0013032638539324972
-0.20363411582366098,-0.20363411582366098,1.0011223899852428,0.0014019895526379937
-0.20167210431100102,-0.20167210431100102,0.9988194096050872,0.001303779719910505
-0.20002670427420527,-0.20002670427420527,0.9995540645485205,0.001312105117118976
-0.1976349612836202,-0.1976349612836202,0.9993009717424577,0.001301537732060327
-0.19584422957486822,-0.19584422957486822,1.0018643937032927,0.0013035689922504586
-0.19447032727694022,-0.19447032727694022,1.0004776616695836,0.0013763003926847614
-0.19250630729293333,-0.19250630729293333,1.0002059462978827,0.001303031869448987
-0.19066684200952294,-0.19066684200952294,0.9991480318262809,0.0013061852404286944
-0.1870580822964257,-0.1870580822964257,1.0005215111237065,0.0013011149676091576
-0.1864079529841547,-0.1864079529841547,0.9998466993555656,0.0013025308679120663
-0.1842855380862602,-0.1842855380862602,0.9985888181522734,0.0013565760261566796
-0.1827776152465958,-0.1827776152465958,0.9993636445267292,0.001305298032612452
-0.1799899788107723,-0.1799899788107723,0.999982623975936,0.0013019369130517293
-0.1776031970686745,-0.1776031970686745,0.99885277795681,0.0013056999123756438
-0.17649148569325918,-0.17649148569325918,1.000724982318319,0.001301897624995971
-0.17435145792042023,-0.17435145792042023,1.0007528190730377,0.001340504503777496
-0.1730318168483791,-0.1730318168483791,0.9999540112644503,0.0013040309434643668
-0.17125689653330484,-0.17125689653330484,1.0004368835731385,0.0013077135175243427
-0.16865398926966008,-0.16865398926966008,0.9984696930185759,0.001306652921301109
-0.1679618390458927,-0.1679618390458927,0.9996729830372988,0.0013015964246863507
-0.16585237074832548,-0.16585237074832548,0.999348746794021,0.0013329384852043282
-0.16436379651277094,-0.16436379651277094,1.0000094263559265,0.0013050755069963095
-0.16232706087248516,-0.16232706087248516,1.0008107180081567,0.0013029608874918007
-0.15930380625941326,-0.15930380625941326,1.000291756355947,0.0013056061373931678
-0.15855403182795272,-0.15855403182795272,0.9999130174549149,0.0013031458749621881
-0.15624677195810363,-0.15624677195810363,1.0009513504596699,0.001322364716919659
-0.15476199461554643,-0.15476199461554643,0.9987548274323743,0.0013063178032961353
-0.15248127057639066,-0.15248127057639066,0.9999504594315264,0.001304070794285329
-0.15012237323535374,-0.15012237323535374,0.9988348516507992,0.0013073885029402858
-0.1491866530799598,-0.1491866530799598,0.9989628321473472,0.0017015956995309642
-0.14696460368504632,-0.14696460368504632,0.9966261299107234,0.0013073015973074796
-0.14519484666452626,-0.14519484666452626,0.9996057572196808,0.001305255862996564
-0.14248536845261697,-0.14248536845261697,0.9997747598775002,0.0013086320609289124
-0.1408275855203101,-0.1408275855203101,1.0009290334849004,0.0013060073607181163
-0.1393116733750503,-0.1393116733750503,0.998268685833296,0.0013049190964356163
-0.13726842061732897,-0.13726842061732897,0.999293673901995,0.0013029655736531331
-0.13533772377631975,-0.13533772377631975,0.9983378501661642,0.0013037325393980078
-0.13203884966424084,-0.13203884966424084,1.0007312355210676,0.0012970054477905518
-0.1313360365005792,-0.1313360365005792,0.9999338960047922,0.0013019648620034379
-0.12939729411518783,-0.12939729411518783,0.9999458293932051,0.0013038664963636666
-0.12778860771577455,-0.12778860771577455,0.9996107248375271,0.0013194921247810785
-0.12616230802159406,-0.12616230802159406,1.0013113665323536,0.0013043914616660461
-0.12282423683063826,-0.12282423683063826,0.999912095892679,0.0012993568080098383
-0.12221636079266318,-0.12221636079266318,0.9997785746314442,0.001301029670679049
-0.12067782038429868,-0.12067782038429868,0.9991949474873223,0.0015180259094220057
-0.11908755644253688,-0.11908755644253688,0.9992447897423791,0.0013020093001504577
-0.11745741428458131,-0.11745741428458131,0.9989569526944712,0.0013145968705404873
-0.11506017372521456,-0.11506017372521456,0.9994557901400947,0.0012987102488554963
-0.11326284601091174,-0.11326284601091174,0.9995824719428938,0.001304256833765817
-0.1118816257781873,-0.1118816257781873,0.9986673844846246,0.0014426619795166354
-0.10992145707059535,-0.10992145707059535,1.0002303215632318,0.0013033096506817042
-0.10828328996722121,-0.10828328996722121,1.0001464241578075,0.0013130857717800156
-0.10588892785308417,-0.10588892785308417,0.9995450305493533,0.0012998147903077878
-0.10409505973584601,-0.10409505973584601,0.9999624576610084,0.0013040551324294922
-0.10271773193599074,-0.10271773193599074,0.9995703196401232,0.0013990372446328343
-0.10075551767586148,-0.10075551767586148,1.0005449746790411,0.001303071700106556
-0.09910931290287409,-0.09910931290287409,1.0001331482781979,0.0013133343348486252
-0.09671786224789684,-0.09671786224789684,1.0000197740449426,0.0013015410872449426
-0.09492748134798604,-0.09492748134798604,0.9996543683965052,0.001304707103637626
-0.09355395556631266,-0.09355395556631266,0.99969329246271,0.0013749676286204091
-0.09149290831264807,-0.09149290831264807,1.000356244220783,0.0013004313607662302
-0.08893144591784222,-0.08893144591784222,0.9984592079970449,0.0013037395679248232
-0.08590205542786862,-0.08590205542786862,0.999915835328425,0.0013042350316133148
-0.0852882632301771,-0.0852882632301771,1.0002982230327064,0.0013011896349414231
-0.08291392340834136,-0.08291392340834136,0.9987344370390472,0.0013572911389222988
-0.08140393417197629,-0.08140393417197629,0.9988588718071639,0.0013040648615252639
-0.07907204265429754,-0.07907204265429754,1.0002219740526537,0.0013039530158300296
-0.07668568064109423,-0.07668568064109423,0.9992149616764905,0.001307397457090298
-0.07557591222721385,-0.07557591222721385,1.000309626300509,0.0013027266371890838
-0.07343416751173208,-0.07343416751173208,0.9993439087349067,0.0013385558488858277
-0.07218319863968645,-0.07218319863968645,0.9996809387143187,0.0013041457049107843
-0.07081435239306302,-0.07081435239306302,0.9999420359722171,0.0013074091371330252
-0.06788221299066208,-0.06788221299066208,0.9982334086878547,0.0013032554094292493
-0.067244525688875,-0.067244525688875,1.0003743031857877,0.0013046246480231977
-0.06540453363777488,-0.06540453363777488,1.000490337906799,0.001331526883732522
-0.06383429739216809,-0.06383429739216809,1.000010120578279,0.0013044278658823642
-0.06194735137542011,-0.06194735137542011,1.0010426996935127,0.0013052714729888978
-0.05863069116021506,-0.05863069116021506,0.9998309942111782,0.0013044042822483901
-0.05788655568758259,-0.05788655568758259,0.9995166627154595,0.0013027216586692409
-0.055756852196645924,-0.055756852196645924,0.9996233288000763,0.0013235741826126122
-0.054287201156694206,-0.054287201156694206,0.9969797631965172,0.001306304165656639
-0.05203458957621478,-0.05203458957621478,0.9999911657039044,0.0013036345511327195
-0.049204813770484176,-0.049204813770484176,0.9989533590057811,0.001308290359480517
-0.04827093859057641,-0.04827093859057641,0.9999990444707993,0.00167205354447279
-0.046206094766967,-0.046206094766967,0.9982790745691468,0.0013075977273215261
-0.044681369053432715,-0.044681369053432715,0.9982880208110692,0.0013034763410382792
