time,time,flux,flux_err
-0.49991860493028073,-0.49991860493028073,1.000086999178074,0.00013877200802871648
-0.499768117905478,-0.499768117905478,0.9999703895998199,0.00013659547238667447
-0.499667747595231,-0.499667747595231,1.000123119656816,0.00013636808745841754
-0.4995733210555045,-0.4995733210555045,1.0000517629656576,0.0001334096554757181
-0.4995132191950688,-0.4995132191950688,0.9999733060296832,0.00013005496611198173
-0.49936405808257406,-0.49936405808257406,0.9998262240836693,0.00013494799549682707
-0.4992601068050135,-0.4992601068050135,0.9999580777233825,0.00013510136347988144
-0.49915804134507197,-0.49915804134507197,1.0001165202813884,0.00014366558369844772
-0.49901735308812933,-0.49901735308812933,0.9997939199481914,0.00013632692341787172
-0.4989004459115677,-0.4989004459115677,0.9999650933676636,0.00013767905476154196
-0.49883073537785094,-0.49883073537785094,0.999925801372523,0.00013871670324743323
-0.4986885553196771,-0.4986885553196771,1.000162327814094,0.00013857162033771217
-0.4985547267046059,-0.4985547267046059,0.9999833376750351,0.00013872840919430256
-0.49846497022663244,-0.49846497022663244,0.9999370044779428,0.0001343721696146168
-0.4983532932208618,-0.4983532932208618,1.0001630122197835,0.00013722974900413185
-0.49823373622784856,-0.49823373622784856,0.9997212636782393,0.00013882361041305354
-0.4981176006927853,-0.4981176006927853,0.9999096129368532,0.0001338417417788364
-0.4980433476390317,-0.4980433476390317,0.9997978062564078,0.00013319092923236078
-0.4979595917073311,-0.4979595917073311,0.9999690167231858,0.00013179387667998471
-0.4978189389948966,-0.4978189389948966,1.0001437016913344,0.00013822684089096144
-0.4977372023655334,-0.4977372023655334,0.9999787494164926,0.00013410011723571452
-0.4976702053536428,-0.4976702053536428,1.0002070223877786,0.00014482098936221519
-0.49756616055092306,-0.49756616055092306,0.9998997811680777,0.00013409056940443635
-0.49742677724279927,-0.49742677724279927,1.0000432426985761,0.00013423659606287398
-0.4973542897874722,-0.4973542897874722,0.9999390656698305,0.00013829368445304537
-0.49721550023532474,-0.49721550023532474,0.9997758134155648,0.00012907440783408531
-0.4970684860018082,-0.4970684860018082,1.0002218544830401,0.00013943777793244143
-0.4969897043192759,-0.4969897043192759,1.0000002990830887,0.00014378676561886512
-0.49688167512358633,-0.49688167512358633,1.0001126224015322,0.000140281150011742
-0.49674986051686576,-0.49674986051686576,0.999877173290086,0.00013226738275738036
-0.49659410025924444,-0.49659410025924444,1.0001152374017177,0.00013416002200511952
-0.4964971414563479,-0.4964971414563479,1.0000142107222156,0.00013303335051735918
-0.4963736641831929,-0.4963736641831929,1.0000327666385966,0.000133506032497361
-0.49627210351754913,-0.49627210351754913,0.9999535019318074,0.00014109961438473444
-0.4961604536511004,-0.4961604536511004,1.0001904600775497,0.0001402372627285388
-0.4960453363368288,-0.4960453363368288,1.000182750227173,0.0001309543745861719
-0.4959088340488961,-0.4959088340488961,0.9999955354334216,0.00013880546756745856
-0.4958129218051909,-0.4958129218051909,1.0000188999791884,0.0001370011088129384
-0.49565697586804164,-0.49565697586804164,0.9999854618772993,0.00013298064791640566
-0.4955265506898286,-0.4955265506898286,1.0001388936274427,0.0001459754112061058
-0.4954787619441049,-0.4954787619441049,0.9998457048935897,0.00013848780888009243
-0.4953682048304472,-0.4953682048304472,0.9999340039534635,0.00013637063340032137
-0.49520968229044227,-0.49520968229044227,1.0000063287191305,0.00013522566013079407
-0.49507432052050715,-0.49507432052050715,1.0000067888799224,0.00013119266072006292
-0.49495536102040205,-0.49495536102040205,0.9999718743649616,0.00013305687808553367
-0.4948597513983259,-0.4948597513983259,0.9999951049720905,0.00013449691420792983
-0.49476562516647393,-0.49476562516647393,1.00009257367569,0.0001399984023911543
-0.49463179193262474,-0.49463179193262474,1.000189228440733,0.0001402773059451952
-0.4944760220911121,-0.4944760220911121,1.0001808393271983,0.00013716956823424446
-0.4943214634753531,-0.4943214634753531,1.0000808739338098,0.000137828851139017
-0.49421542935888285,-0.49421542935888285,1.0000635632166974,0.0001323953192132511
-0.4941430356062483,-0.4941430356062483,0.9997970911102104,0.00013131717781493678
-0.49402884861920027,-0.49402884861920027,0.9999898243329925,0.00014210313777338526
-0.49398226466437334,-0.49398226466437334,0.9999247441095334,0.00014255695402591486
-0.4939148050849326,-0.4939148050849326,0.9999598747937334,0.00013558487311997688
-0.49372116968152113,-0.49372116968152113,1.0001616828388389,0.00013573145635444682
-0.49362069957132915,-0.49362069957132915,0.9998985633290669,0.00013063313785473347
-0.49350032753427514,-0.49350032753427514,1.0001872885303853,0.00013103014251490238
-0.493401407750207,-0.493401407750207,0.9999460446748358,0.0001348391125109517
-0.4933224685199093,-0.4933224685199093,1.0000049706487824,0.00013691616398279417
-0.49325524960295297,-0.49325524960295297,1.0001107296134129,0.00014400788093444115
-0.4931106108968379,-0.4931106108968379,0.9999709858358365,0.0001366803265603452
-0.492960156625486,-0.492960156625486,1.0000899784666604,0.00013085801600619875
-0.49287506032560485,-0.49287506032560485,0.9998332341988287,0.0001403901358711894
-0.4927376202482264,-0.4927376202482264,0.9999470438585017,0.0001361501868251521
-0.492652592700324,-0.492652592700324,0.9999003194910484,0.00013305749551761117
-0.492559146968415,-0.492559146968415,0.9999573879361128,0.00014115445572308944
-0.4925008081278065,-0.4925008081278065,1.0000454547147277,0.00013755459924769418
-0.49242574455565774,-0.49242574455565774,0.9999194726483541,0.00013639427109420378
-0.4923327628115658,-0.4923327628115658,1.000124408254687,0.00013687791354822918
-0.4921591294201789,-0.4921591294201789,1.0000426714590134,0.0001340215430417746
-0.4920530178816989,-0.4920530178816989,1.000069772480405,0.00013048865969909575
-0.49195258957333865,-0.49195258957333865,1.0000094827902075,0.00013268497157759783
-0.4918360369250877,-0.4918360369250877,1.0001604834683075,0.00013969212711575913
-0.49176509345998054,-0.49176509345998054,1.000031504008904,0.00013719180651228057
-0.49167515078152063,-0.49167515078152063,1.000011352172852,0.00013802507426920988
-0.49157134761626364,-0.49157134761626364,0.9999506541578282,0.0001375208942040358
-0.4914285847451538,-0.4914285847451538,1.0000295561886645,0.0001360657819638232
-0.49134304020553826,-0.49134304020553826,1.0002395922698728,0.0001355574144206265
-0.4912266380706569,-0.4912266380706569,0.9999861656545697,0.00013739449907492033
-0.49114830386824904,-0.49114830386824904,1.0001300713400023,0.00013220722905219525
-0.4910794740979327,-0.4910794740979327,0.9999366383945375,0.0001430813664622837
-0.4910089906712528,-0.4910089906712528,0.999852483921966,0.0001311129004296484
-0.49092073423962573,-0.49092073423962573,1.0000160468881176,0.0001440375906026687
-0.49079308501968627,-0.49079308501968627,0.9998663433250863,0.0001360494665364204
-0.49060584340477364,-0.49060584340477364,1.0001322586101478,0.00013171690553643608
-0.49052971923956645,-0.49052971923956645,1.000191076771653,0.00013185613319268512
-0.49045457451138647,-0.49045457451138647,1.0001136048450738,0.00013285202170876872
-0.49032971244305373,-0.49032971244305373,0.9999099376416204,0.0001414166884770583
-0.4902536451059859,-0.4902536451059859,0.9999562143434929,0.00013796174614766595
-0.4901392522966489,-0.4901392522966489,0.9999247025313774,0.00014080749066089376
-0.4899913818575442,-0.4899913818575442,0.9998052866433678,0.0001401657611529483
-0.48987333114782816,-0.48987333114782816,1.00015302575703,0.0001312805338503019
-0.48977762688009535,-0.48977762688009535,1.000142174535977,0.00013917184813073925
-0.48967190201801714,-0.48967190201801714,1.000080062337058,0.00014075701093552845
-0.48958023882878476,-0.48958023882878476,0.9999704989158383,0.00013284019174799347
-0.48951734268048314,-0.48951734268048314,0.999748159028589,0.00013677207382057746
-0.48943347720196473,-0.48943347720196473,0.9998481860076263,0.00013300268733857469
-0.4893254366412293,-0.4893254366412293,0.9997858626776279,0.00014199300327363547
-0.4891420089639723,-0.4891420089639723,1.0000146964466832,0.0001343183258076852
-0.48898872802383264,-0.48898872802383264,1.00002245481873,0.00013128196606234592
-0.4889093444508035,-0.4889093444508035,0.9996960098238755,0.0001344321468247774
-0.48881736768526024,-0.48881736768526024,0.9999635913215832,0.00014653701441856467
-0.48869589809910396,-0.48869589809910396,0.9999157824544229,0.00013648632090619263
-0.4886351673165336,-0.4886351673165336,0.9999534506279542,0.00013792383177034832
-0.4885130558075616,-0.4885130558075616,0.9999672659932386,0.0001399687905740335
-0.48836560535419266,-0.48836560535419266,1.000254797033195,0.00013486073988965832
-0.4882759433763567,-0.4882759433763567,0.9998807777299795,0.00013335706845658886
-0.48820874756202104,-0.48820874756202104,1.0000674703220735,0.00014453997715231252
-0.4881191644264618,-0.4881191644264618,1.0000174782144435,0.00013785953653295725
-0.48800236112147105,-0.48800236112147105,1.0001405449820457,0.0001342710237681385
-0.48792598204745447,-0.48792598204745447,0.9999189110009586,0.00013446087829310785
-0.4877892010001233,-0.4877892010001233,1.0000423130619454,0.0001416726299799873
-0.4876728645613184,-0.4876728645613184,0.9998923568776167,0.00013663231717570354
-0.487469427875476,-0.487469427875476,0.9999337954131322,0.00013085445517323107
-0.48740045467566234,-0.48740045467566234,0.9999490251984741,0.00014243965796045243
-0.48732362888986247,-0.48732362888986247,1.0000386887596204,0.00013601587310160479
-0.4871957322175149,-0.4871957322175149,0.9999922690570745,0.0001330015464435948
-0.4871194031264167,-0.4871194031264167,0.9998260998225745,0.00013938462349605691
-0.48701419737772084,-0.48701419737772084,0.9999438695092845,0.00013410500031911404
-0.48685018250253054,-0.48685018250253054,1.0000259283322843,0.00013808305828625446
-0.48676198479952293,-0.48676198479952293,0.9999193579359329,0.00013902601144632232
-0.4866786918457365,-0.4866786918457365,0.999969102178097,0.00013675295629957704
-0.4865778148348909,-0.4865778148348909,1.0000261302293683,0.00013580967684783776
-0.48644666246545964,-0.48644666246545964,0.9998033308529035,0.00013965367854222122
-0.4863232950505335,-0.4863232950505335,1.000029280084831,0.00013411762810326333
-0.48619061353674625,-0.48619061353674625,1.0000433535480495,0.00014108960431101345
-0.48603971033298876,-0.48603971033298876,0.999789879686609,0.00013153190865614262
-0.48591332929790954,-0.48591332929790954,1.000185979634608,0.00014281479547325514
-0.485824465425685,-0.485824465425685,1.000037350103971,0.00013137256460719803
-0.48573442199849526,-0.48573442199849526,0.9999984378083848,0.00013832733290333098
-0.48558814377174714,-0.48558814377174714,1.0000474137308744,0.00013606598634275535
-0.485469939338509,-0.485469939338509,0.9999314410141672,0.00013646130869681507
-0.4853485654224642,-0.4853485654224642,1.0000078525553673,0.00014081392103898206
-0.4852837487764191,-0.4852837487764191,1.0000255292862432,0.00013891789680616032
-0.4852181888272753,-0.4852181888272753,0.9996796461636013,0.00013714155369706971
-0.4851634068822023,-0.4851634068822023,1.0000143352465285,0.00013327304771992477
-0.4849957198544871,-0.4849957198544871,0.9998029863799154,0.00013845201770849025
-0.4848705765500199,-0.4848705765500199,0.9998727016331983,0.0001353934296478015
-0.4847382829408161,-0.4847382829408161,1.0001338933008204,0.00013880547987428444
-0.48461900259135293,-0.48461900259135293,1.0001818790551074,0.00013543423030782682
-0.4845087531110039,-0.4845087531110039,0.9999810170165835,0.00014143649917409807
-0.484373817089363,-0.484373817089363,1.000203348228435,0.00013746565468843416
-0.4842724332207581,-0.4842724332207581,0.9997220579311537,0.00013822961689711013
-0.48412776060868057,-0.48412776060868057,0.9999058453659551,0.00013307800346428492
-0.48399183760338926,-0.48399183760338926,0.999826104100441,0.00013506955800651608
-0.48389030202815775,-0.48389030202815775,0.9999904310076719,0.00013952149096440252
-0.483814512391109,-0.483814512391109,1.0000395231408923,0.00014204156440644124
-0.4837138572736876,-0.4837138572736876,0.999998989656457,0.00013995607063094887
-0.4836171126837144,-0.4836171126837144,0.9999697485923928,0.0001348826664309865
-0.48342301247175784,-0.48342301247175784,1.000190278494062,0.00013824951360932964
-0.4832924865622772,-0.4832924865622772,1.0000566155637478,0.00013399352195406244
-0.4831617853575153,-0.4831617853575153,0.9999930452772059,0.00013688642839273957
-0.4830284432333428,-0.4830284432333428,1.000000495681109,0.00015111625926642218
-0.4829429963050643,-0.4829429963050643,0.9998869958299125,0.00013100582517904376
-0.4827737881918438,-0.4827737881918438,1.0000808120118827,0.00013742389551671893
-0.4826580694265431,-0.4826580694265431,1.0001347211102232,0.00013222525512633675
-0.48249776538286826,-0.48249776538286826,1.000067556312732,0.00013658247785051345
-0.48243398729828185,-0.48243398729828185,0.9999502217021407,0.0001334695752587203
-0.482342883083038,-0.482342883083038,0.9999872344604019,0.00014663240227135517
-0.4822567808936583,-0.4822567808936583,1.000220855869007,0.0001380101100001901
-0.4821438363316702,-0.4821438363316702,1.0000681113029046,0.00013807179566475148
-0.4820148024358787,-0.4820148024358787,1.0001757170553476,0.00013883662649242346
-0.4818563711392926,-0.4818563711392926,1.0000762588372325,0.00013214908056890205
-0.4817352817306528,-0.4817352817306528,1.0000994908588463,0.00013395762467977333
-0.48163683266320734,-0.48163683266320734,1.000170669388138,0.00013672873377630564
-0.481510002783034,-0.481510002783034,1.0003067159110592,0.00014351214886996452
-0.4813496489630779,-0.4813496489630779,1.0000509392447146,0.0001356590044328736
-0.4811211458320031,-0.4811211458320031,0.9998173972349431,0.0001345914851367767
-0.48097781486576424,-0.48097781486576424,1.000055398149824,0.0001355610649239166
-0.48091885262401773,-0.48091885262401773,1.000148633049087,0.00014056539045146372
-0.4808342031610664,-0.4808342031610664,0.9999478256368184,0.0001413783212970455
-0.4807251862570411,-0.4807251862570411,1.000023536811674,0.00014035126156666575
-0.48058836267737204,-0.48058836267737204,1.0003145030449958,0.00013727396128560029
-0.4804496468452271,-0.4804496468452271,1.00009044982591,0.00013496011006104973
-0.4802965263777878,-0.4802965263777878,0.9998119810457039,0.00013567232056428056
-0.4802126015769318,-0.4802126015769318,0.9999610423034346,0.00013191674013663377
-0.48011033557122573,-0.48011033557122573,1.0000376538960634,0.0001363944286978996
-0.4799990649975371,-0.4799990649975371,1.0002271417329485,0.0001432867332561889
-0.4799072325578891,-0.4799072325578891,0.999784365668235,0.00013626437243990263
-0.4796785629790975,-0.4796785629790975,0.9998721785270398,0.00013464903430500437
-0.47957541603245774,-0.47957541603245774,1.0001085608445628,0.00013625063349173003
-0.479471487889532,-0.479471487889532,1.0001799054827534,0.00014060540905094093
-0.479389510297915,-0.479389510297915,1.000198305015148,0.00013930324943670224
-0.47932334159559103,-0.47932334159559103,1.0001842330792674,0.0001392592409779385
-0.4791742622823222,-0.4791742622823222,1.000234354579728,0.00014533355438367857
-0.4790542204893427,-0.4790542204893427,0.9998970355621225,0.00013723661965920535
-0.4789185801841086,-0.4789185801841086,1.0001849277058334,0.0001371621460265828
-0.4787590574414935,-0.4787590574414935,0.9998700984238219,0.00013626919023903872
-0.47863131752819754,-0.47863131752819754,1.000061210648329,0.00014109293051376952
-0.4785196976561565,-0.4785196976561565,1.0002769512733958,0.00013789963890258717
-0.47843077150173485,-0.47843077150173485,1.0000982579956061,0.00013009006819203844
-0.4781844382348936,-0.4781844382348936,1.0000873730345607,0.0001377996355080276
-0.47805778982583436,-0.47805778982583436,1.0000067877888659,0.00013448127258085523
-0.47799797403567934,-0.47799797403567934,1.00017374063434,0.00013958886560921604
-0.4779059647960821,-0.4779059647960821,1.0001223272593676,0.00014077229695956162
-0.47782469332451,-0.47782469332451,0.9998147217825633,0.0001322505093942999
-0.47765666724299083,-0.47765666724299083,0.9999472508512941,0.0001404061934749712
-0.47751860024873166,-0.47751860024873166,1.000023310558117,0.00014293842793266476
-0.477382107367157,-0.477382107367157,0.9998295641732959,0.00013710828779712087
-0.4772791915223934,-0.4772791915223934,1.0001552882884837,0.00013881769350074962
-0.4772092518018326,-0.4772092518018326,0.9997221589577577,0.00013503865940390735
-0.4771055882330984,-0.4771055882330984,0.9999346535745767,0.00013871847904274568
-0.4769844986003591,-0.4769844986003591,1.0001194498042416,0.00013270090116939635
-0.47682810260448605,-0.47682810260448605,1.0000145655165251,0.00013660669515969654
-0.4766188281442737,-0.4766188281442737,0.9999308204237035,0.00013385969595987353
-0.4765295268589398,-0.4765295268589398,0.9998670057805297,0.00013936855593145334
-0.4764610025624279,-0.4764610025624279,1.0000512393709915,0.00013966497259360554
-0.4763516689738026,-0.4763516689738026,0.9999237407055259,0.00013428584878844675
-0.47624189133930483,-0.47624189133930483,0.9998961996373517,0.00013443647929658922
-0.4761064620804973,-0.4761064620804973,1.0002241968382504,0.00014574591605704697
-0.4759436875145184,-0.4759436875145184,1.000137934734326,0.00013626552355790937
-0.4758530334249372,-0.4758530334249372,1.0001123921179054,0.00013181450887574857
-0.4757793549186317,-0.4757793549186317,0.9998876221334966,0.00014021357759484636
-0.47569431936717593,-0.47569431936717593,1.0000279454668128,0.00014278908047215137
-0.475505865944433,-0.475505865944433,1.0000870025663968,0.0001360615803171465
-0.4753970083897002,-0.4753970083897002,0.9999470641892823,0.0001298377588162153
-0.47516284682787957,-0.47516284682787957,0.9999321477659789,0.00014149708123992056
-0.4750830510631204,-0.4750830510631204,1.0000873882686876,0.00013559020366004976
-0.47498352854454423,-0.47498352854454423,0.9999084355075615,0.00014241986011939565
-0.4748573747521732,-0.4748573747521732,0.9998934421046553,0.0001337686474269612
-0.474674161002622,-0.474674161002622,1.0002163573806033,0.00014104493698064365
-0.47447361290105616,-0.47447361290105616,1.0001231958259766,0.00013503472871754114
-0.4743595005245879,-0.4743595005245879,1.0001874131144644,0.0001384897622416285
-0.4743031251768116,-0.4743031251768116,0.999992877880346,0.00013529979104177865
-0.47424296287354084,-0.47424296287354084,1.0000195593179888,0.0001445382534419345
-0.4741525773628382,-0.4741525773628382,1.0000997827808096,0.00013255244878539201
-0.47400134440104014,-0.47400134440104014,1.0000557306610218,0.00013652702563988578
-0.47388460507499985,-0.47388460507499985,1.000033738799076,0.00013146732415561085
-0.4736606440419564,-0.4736606440419564,1.00016692751044,0.00014311568174778288
-0.47357042116927917,-0.47357042116927917,1.0001322432883526,0.00013663619037897844
-0.4734752035175916,-0.4734752035175916,1.0000209383068828,0.00013973453270214132
-0.47328899420099335,-0.47328899420099335,1.0001211437493773,0.0001356857487505632
-0.4731521162641002,-0.4731521162641002,0.999842800638931,0.00013978188178013178
-0.4729456260422012,-0.4729456260422012,0.9997712841031998,0.00013089859589287333
-0.47283816106792076,-0.47283816106792076,1.0000171899878134,0.00013886484199681907
-0.4727831605094252,-0.4727831605094252,1.0001066926915243,0.0001386549449893093
-0.472720239055343,-0.472720239055343,0.9999839281428093,0.00013766511904009492
-0.4726194465125445,-0.4726194465125445,1.0003334046195314,0.00013466119151570415
-0.4725325453619007,-0.4725325453619007,1.0000964046879137,0.0001341743919227542
-0.4724020872381516,-0.4724020872381516,1.0001260679270496,0.00013134766404929082
-0.472320902562933,-0.472320902562933,0.9999612486262048,0.00013252026128848468
-0.4721922526106937,-0.4721922526106937,1.0001135434166724,0.00014174061864013473
