time,time,flux,flux_err
-0.4984007116901921,-0.4984007116901921,1.0001550200833984,6.810463568631278e-05
-0.49677587922051314,-0.49677587922051314,1.0000452900752894,6.807062159577422e-05
-0.4949628645219491,-0.4949628645219491,1.0000435077045398,6.8050388396811e-05
-0.492934092052019,-0.492934092052019,1.0001388323244569,6.808664060322541e-05
-0.4912188580543443,-0.4912188580543443,0.9999867295906248,6.80307686784566e-05
-0.48894826533723973,-0.48894826533723973,1.0001323038853176,6.810292843927799e-05
-0.48720124430037687,-0.48720124430037687,1.0000182401150628,6.804751940009683e-05
-0.48538666038293743,-0.48538666038293743,0.9999932031559722,6.80466558019129e-05
-0.4832616877531109,-0.4832616877531109,0.9998916719192973,6.801858771947138e-05
-0.48183404809533387,-0.48183404809533387,1.0001316406432024,6.806833543805118e-05
-0.47982882090072965,-0.47982882090072965,1.0000235681790597,6.809461788367913e-05
-0.4780701891038916,-0.4780701891038916,1.0000162391975125,6.804735330166666e-05
-0.4762620502966456,-0.4762620502966456,1.000197592073619,6.805314323013082e-05
-0.4741334675454709,-0.4741334675454709,0.9998560000917693,6.804774399512252e-05
-0.47295253040429086,-0.47295253040429086,0.9999124691914008,6.803393130173867e-05
-0.4707100469029683,-0.4707100469029683,1.0001067051437686,6.809955792017481e-05
-0.4690752914008044,-0.4690752914008044,1.000014376803012,6.804845593738853e-05
-0.46791709161698236,-0.46791709161698236,0.9999748178508199,6.804603644424016e-05
-0.4660244553175289,-0.4660244553175289,1.0001583923326514,6.811760193519365e-05
-0.4645096368461964,-0.4645096368461964,1.000107644842005,6.805490811059547e-05
-0.4632964049036673,-0.4632964049036673,0.9999840682982342,6.80623229686863e-05
-0.46185787617505414,-0.46185787617505414,0.999948279593616,6.804815417132077e-05
-0.4602196627412923,-0.4602196627412923,0.9999377448569235,6.805585175416027e-05
-0.4593119331548223,-0.4593119331548223,1.0000598168554518,6.810221213960632e-05
-0.4577364829623548,-0.4577364829623548,0.9998966138845754,6.804230401983703e-05
-0.45586371641329604,-0.45586371641329604,0.9999281856217879,6.804963867081828e-05
-0.4545927282088087,-0.4545927282088087,1.0000496738790383,6.807455406327804e-05
-0.45273362787120275,-0.45273362787120275,1.0000788038427095,6.804439950103737e-05
-0.45109189344584594,-0.45109189344584594,1.0000025690506313,6.808124781729909e-05
-0.44969267854612555,-0.44969267854612555,1.0000996446984882,6.80692250051225e-05
-0.4481717572387424,-0.4481717572387424,0.9999132145999521,6.804089197402602e-05
-0.44642732614083797,-0.44642732614083797,1.000031329251622,6.812873461328525e-05
-0.445133535318746,-0.445133535318746,1.0001087460887204,6.8073753019296e-05
-0.44340973151047364,-0.44340973151047364,1.000180614326684,6.80524702401247e-05
-0.4415857641179173,-0.4415857641179173,0.999996233928593,6.818661040948418e-05
-0.4401174987266131,-0.4401174987266131,1.0000496304774125,6.805303908390082e-05
-0.4382281651167432,-0.4382281651167432,1.0001160258421262,6.805558564574289e-05
-0.4369883551633393,-0.4369883551633393,1.0000850033820492,6.824901009323052e-05
-0.4355569470753835,-0.4355569470753835,1.0000463263269013,6.805003659351283e-05
-0.43342389342797105,-0.43342389342797105,0.9999655836185942,6.805379271902364e-05
-0.43199128910928264,-0.43199128910928264,1.0000206716436941,6.826785014251327e-05
-0.4303250021315762,-0.4303250021315762,1.0000456253468435,6.810328201518935e-05
-0.4286476316621702,-0.4286476316621702,0.9999057989131502,6.807834728551281e-05
-0.4273332196076808,-0.4273332196076808,1.000005473380091,6.83960083369088e-05
-0.42532629863053445,-0.42532629863053445,0.9999990368105252,6.810261459255177e-05
-0.4238985630319803,-0.4238985630319803,1.0000492808411818,6.806486612272197e-05
-0.421774628393905,-0.421774628393905,1.0001457505742024,6.810100355675677e-05
-0.42019226759366574,-0.42019226759366574,1.0000566524544638,6.80875800034512e-05
-0.41859670738340354,-0.41859670738340354,1.0000296467681014,6.805913869607828e-05
-0.4165068471280392,-0.4165068471280392,1.0000054005366192,6.811522903622156e-05
-0.4149619722411444,-0.4149619722411444,1.000022739203594,6.808029380582994e-05
-0.41312658024544363,-0.41312658024544363,1.0001359906454548,6.807578806901672e-05
-0.4113370202430815,-0.4113370202430815,0.9998293140643861,6.8063904255907e-05
-0.4101640679815318,-0.4101640679815318,0.9999139934801216,6.80907828723724e-05
-0.40787366226722954,-0.40787366226722954,0.9998929894793737,6.809438138475016e-05
-0.4064921482509817,-0.4064921482509817,1.0000650681736487,6.807910967228191e-05
-0.4046807921971777,-0.4046807921971777,1.0000943973504175,6.80696841668302e-05
-0.4028223504865309,-0.4028223504865309,0.9999930896144255,6.811166889066361e-05
-0.40109859121293995,-0.40109859121293995,1.000140479641966,6.80536315827839e-05
-0.3986422564616078,-0.3986422564616078,1.00007367955664,6.806979594487143e-05
-0.3968745154037606,-0.3968745154037606,1.0001450117664399,6.811047694166757e-05
-0.3951949981332291,-0.3951949981332291,1.0000806776153877,6.80435429484312e-05
-0.39339026293746426,-0.39339026293746426,0.9999011078134901,6.807845259052325e-05
-0.3916755535909033,-0.3916755535909033,1.000197218951309,6.804467615216113e-05
-0.3894042551975872,-0.3894042551975872,1.0000100443537436,6.809206629097089e-05
-0.3876578146147949,-0.3876578146147949,1.0002487036718173,6.805409146672973e-05
-0.38584290789367515,-0.38584290789367515,0.9999905374505118,6.804499737460061e-05
-0.38371877471217886,-0.38371877471217886,1.0000560808875298,6.802012385992803e-05
-0.3822902825224446,-0.3822902825224446,1.0000200765458183,6.806552554364374e-05
-0.38028477738262156,-0.38028477738262156,1.0000067244307058,6.80914793941461e-05
-0.37852672444132623,-0.37852672444132623,0.9998932046049969,6.803708037077999e-05
-0.3767182641677209,-0.3767182641677209,1.0000123678396267,6.805003162924832e-05
-0.3745902455833857,-0.3745902455833857,0.9999901796614074,6.805169701235916e-05
-0.37340915278400644,-0.37340915278400644,1.0001104121443818,6.804941595765536e-05
-0.3711659697444702,-0.3711659697444702,0.9997988464508664,6.808771672208781e-05
-0.3695318654514267,-0.3695318654514267,1.000058360700151,6.804261455387712e-05
-0.3680347585112031,-0.3680347585112031,1.0000316399231168,6.805008135700314e-05
-0.3660841432727466,-0.3660841432727466,0.9999608494228243,6.806548772878575e-05
-0.36479556792692164,-0.36479556792692164,0.9999389259974972,6.809278785880101e-05
-0.3634158271313936,-0.3634158271313936,0.9999850600040687,6.804774341631247e-05
-0.36202493834498456,-0.36202493834498456,1.0000864075416418,6.807165138933889e-05
-0.360500680207042,-0.360500680207042,1.000086209158597,6.805542862743258e-05
-0.35950805302418304,-0.35950805302418304,1.0000479096436679,6.807152508499741e-05
-0.35775188085317494,-0.35775188085317494,1.0001197678854754,6.805210351523485e-05
-0.3561104668209737,-0.3561104668209737,1.0001408735631563,6.808719415461921e-05
-0.35459761668316786,-0.35459761668316786,1.0000701022292535,6.807338247475023e-05
-0.3529023562317889,-0.3529023562317889,0.9999237652570866,6.804403821777422e-05
-0.3512660561813391,-0.3512660561813391,1.0000539511704152,6.808002271909524e-05
-0.3500257082785538,-0.3500257082785538,1.000153716535554,6.835155205328561e-05
-0.3486279355980514,-0.3486279355980514,1.0000882941991176,6.804791955643701e-05
-0.34688361049848027,-0.34688361049848027,1.0000315722506652,6.811431811870711e-05
-0.34558944080490617,-0.34558944080490617,1.0000320775483222,6.807207739064384e-05
-0.34426743351941697,-0.34426743351941697,0.9998883146065672,6.803775977538876e-05
-0.3423208547603281,-0.3423208547603281,0.9999010604098473,6.81849888221601e-05
-0.34092232779803455,-0.34092232779803455,0.9999856931187935,6.806971407248378e-05
-0.3390982295633876,-0.3390982295633876,0.9999505202116421,6.804015844857614e-05
-0.3374808434768056,-0.3374808434768056,1.0000362614968092,6.823871712674202e-05
-0.3360129943393986,-0.3360129943393986,1.0001535997716156,6.805864650191407e-05
-0.33388040580393863,-0.33388040580393863,1.0000518911253342,6.805911399855908e-05
-0.3324474882945651,-0.3324474882945651,1.0000267548303614,6.826343061545334e-05
-0.3307814042331302,-0.3307814042331302,1.0000378718893033,6.810395162476603e-05
-0.32910384820206673,-0.32910384820206673,1.0000540604059893,6.80784188805806e-05
-0.32788556586310735,-0.32788556586310735,1.0000490590921358,6.8406242638529e-05
-0.3262365812057396,-0.3262365812057396,1.0000510564638663,6.805876113736505e-05
-0.32484854143112896,-0.32484854143112896,1.0000280758309716,6.811434315478708e-05
-0.3231673735070217,-0.3231673735070217,1.000062936038824,6.80718665016602e-05
-0.32121981737218447,-0.32121981737218447,1.0000729996813127,6.810705639827043e-05
-0.3197894069679023,-0.3197894069679023,1.000074910998606,6.805653311655124e-05
-0.31767250270640945,-0.31767250270640945,1.000021905893937,6.80973783983755e-05
-0.31608208891848333,-0.31608208891848333,1.0000860068441466,6.809646083743185e-05
-0.31448999677159006,-0.31448999677159006,1.0001304441812835,6.806743610321091e-05
-0.31240135056359575,-0.31240135056359575,0.9999363819444816,6.811033466828864e-05
-0.3109701122746628,-0.3109701122746628,0.9999476730199539,6.807917300284062e-05
-0.30925037963606883,-0.30925037963606883,1.0000957555023473,6.80781939751542e-05
-0.30753240589474445,-0.30753240589474445,0.9999267760938318,6.809019792284584e-05
-0.3060932979664358,-0.3060932979664358,0.9998769380549127,6.804863309899498e-05
-0.3037722665569163,-0.3037722665569163,0.9999461990121785,6.809626420007694e-05
-0.3022550281821168,-0.3022550281821168,1.0001051769311344,6.806893596995447e-05
-0.3001082152673916,-0.3001082152673916,0.9999676704211566,6.807710721805981e-05
-0.2980916030239314,-0.2980916030239314,1.000021091768843,6.806367954262785e-05
-0.2962393498302845,-0.2962393498302845,1.0000433181464095,6.804222327393418e-05
-0.29424192484439116,-0.29424192484439116,1.000046625751715,6.810289739191434e-05
-0.29242439656300123,-0.29242439656300123,1.000100631996921,6.805588188672526e-05
-0.2903492988574726,-0.2903492988574726,1.0000788094833015,6.804709417929413e-05
-0.2884090307154111,-0.2884090307154111,0.9999436059321966,6.805970166438358e-05
-0.2867468867741991,-0.2867468867741991,0.9998161557901533,6.80333233332187e-05
-0.2845082482759608,-0.2845082482759608,1.0000759991916528,6.805989940563331e-05
-0.2830108798174479,-0.2830108798174479,0.9999214199435599,6.805879473116456e-05
-0.28122640745423266,-0.28122640745423266,0.9999599413098545,6.80517569549901e-05
-0.27927479341451544,-0.27927479341451544,0.9999399185718584,6.805321315564333e-05
-0.2776186647148279,-0.2776186647148279,1.0000302360798503,6.804861815707061e-05
-0.2753772753138037,-0.2753772753138037,0.9999600100279297,6.805868723031406e-05
-0.27414218264384543,-0.27414218264384543,0.9998809249704254,6.806248577689972e-05
-0.27223373891756636,-0.27223373891756636,1.0001513133664084,6.809123867462857e-05
-0.27047929394539094,-0.27047929394539094,0.9999538826859231,6.804538001743414e-05
-0.26929961570858724,-0.26929961570858724,1.0001597817935513,6.804060120196802e-05
-0.26722588336633635,-0.26722588336633635,1.000082948704803,6.808160509077093e-05
-0.2656996450110455,-0.2656996450110455,0.9998886307757087,6.805499389298318e-05
-0.2643104223112459,-0.2643104223112459,0.9999091883010175,6.806153087765359e-05
-0.26277033915612263,-0.26277033915612263,0.9998989825889778,6.803947305734879e-05
-0.26113297558622434,-0.26113297558622434,1.0000053318320086,6.805623308418928e-05
-0.26033566359983523,-0.26033566359983523,0.999876459894454,6.809564630324073e-05
-0.2589952372327389,-0.2589952372327389,1.0001478566824165,6.805076233711946e-05
-0.25711736740267954,-0.25711736740267954,0.9999753488644011,6.804962997516655e-05
-0.25579084087730736,-0.25579084087730736,1.0001879045231232,6.810209327836755e-05
-0.25408761999497076,-0.25408761999497076,0.999996992237253,6.804905175320164e-05
-0.2522101056521933,-0.2522101056521933,0.9999349786797319,6.804456037695593e-05
-0.2509453711187234,-0.2509453711187234,0.9998249113066731,6.806294035814308e-05
-0.24945233069302047,-0.24945233069302047,1.0000190028331823,6.808026656542895e-05
-0.24764325600262965,-0.24764325600262965,0.9999106111959513,6.805185744707069e-05
-0.24604534976097056,-0.24604534976097056,0.99984185832202,6.805796635247729e-05
-0.24432271567711722,-0.24432271567711722,1.000048727503005,6.804678402827196e-05
-0.2424979878727754,-0.2424979878727754,0.9999642053566916,6.81728154297036e-05
-0.24102962903052685,-0.24102962903052685,0.9999564555448123,6.80474922592886e-05
-0.23914129186377978,-0.23914129186377978,1.0000499545401262,6.80486807868695e-05
-0.23770758399696207,-0.23770758399696207,0.9998528194820526,6.823203275028094e-05
-0.23616166892825277,-0.23616166892825277,0.9999771452653372,6.801160777571568e-05
-0.2341657813230995,-0.2341657813230995,0.999967495604038,6.812390316335512e-05
-0.23313244555247364,-0.23313244555247364,0.9999718343612816,6.828539190554961e-05
-0.23159440035451553,-0.23159440035451553,1.0001009796741047,6.802220978003466e-05
-0.22986839374207194,-0.22986839374207194,1.0001114791567185,6.813520262460592e-05
-0.2285925207659602,-0.2285925207659602,1.0001155096702725,6.84241061862003e-05
-0.22702730133096338,-0.22702730133096338,1.0000747912886023,6.802033665213271e-05
-0.22530488506527035,-0.22530488506527035,0.9998387124719104,6.812097952719876e-05
-0.22362370779228513,-0.22362370779228513,1.000106243183072,6.806815898532947e-05
-0.2216760875788168,-0.2216760875788168,0.9999649232388007,6.810370661122065e-05
-0.22024597220879513,-0.22024597220879513,0.9999954234545703,6.8055946714125e-05
-0.21826076642828413,-0.21826076642828413,0.9998928994699717,6.810180239603252e-05
-0.21681826996064046,-0.21681826996064046,1.000032631118232,6.806531233551893e-05
-0.21539816984732169,-0.21539816984732169,0.9999725012207941,6.809097290230743e-05
-0.21315753602975746,-0.21315753602975746,0.9999816608301254,6.805552935938971e-05
-0.21171407393630942,-0.21171407393630942,1.0000794231686112,6.811891656812417e-05
-0.21015562163156573,-0.21015562163156573,0.999988281916554,6.807045407041036e-05
-0.2082959784231207,-0.2082959784231207,0.999956198569014,6.811273806590309e-05
-0.20675137534999521,-0.20675137534999521,1.0001019892176886,6.808851184831613e-05
-0.204689195107494,-0.204689195107494,1.0000472540547447,6.807117392129057e-05
-0.20311556552987894,-0.20311556552987894,1.000086758677567,6.806108107190776e-05
-0.2010310510682757,-0.2010310510682757,0.9998524014719093,6.806072458544062e-05
-0.1988644502351235,-0.1988644502351235,1.0001045002990028,6.809464062290045e-05
-0.1971560426260112,-0.1971560426260112,1.0000130591682723,6.803266121399914e-05
-0.1949939608668501,-0.1949939608668501,0.9999341718634571,6.806662963150288e-05
-0.19322525540555943,-0.19322525540555943,0.9998874802622476,6.810284026313818e-05
-0.19131801901530707,-0.19131801901530707,1.0000170617328898,6.804546527474463e-05
-0.1892039381156792,-0.1892039381156792,1.000064005213179,6.802732579881293e-05
-0.18756400281126845,-0.18756400281126845,1.0000070189538908,6.804158981877079e-05
-0.18536488519312116,-0.18536488519312116,0.9999426726037661,6.806979205520853e-05
-0.18375087875901955,-0.18375087875901955,1.0001310286004474,6.805460294166213e-05
-0.18213000356190606,-0.18213000356190606,0.9999624214909504,6.807948247808606e-05
-0.18006212388572748,-0.18006212388572748,0.9998873505506237,6.802073817782208e-05
-0.17843277326392126,-0.17843277326392126,1.000004456966679,6.804182991637448e-05
-0.1762386824528221,-0.1762386824528221,1.0001488687434077,6.807412912949674e-05
-0.1748270262462029,-0.1748270262462029,1.0000948561330227,6.80909069987135e-05
-0.1730685961942072,-0.1730685961942072,1.0000293498640653,6.80478940275082e-05
-0.17093605890331673,-0.17093605890331673,1.0000720885346497,6.805809772634132e-05
-0.16975622287063744,-0.16975622287063744,0.9999881414867827,6.803315967904099e-05
-0.16768158085615142,-0.16768158085615142,1.0000370291661682,6.808152584209895e-05
-0.1661563207904692,-0.1661563207904692,1.0002137556515833,6.806890592665104e-05
-0.16476643699788837,-0.16476643699788837,1.0000790078838637,6.80683070199283e-05
-0.16322657225100556,-0.16322657225100556,1.0000247994190767,6.804789319685798e-05
-0.16158963374473387,-0.16158963374473387,0.999904801636035,6.805391433101123e-05
-0.1606789190984273,-0.1606789190984273,1.0000300928803691,6.809679885851506e-05
-0.15910483381012455,-0.15910483381012455,1.00005381858985,6.804048964099739e-05
-0.15723385001983842,-0.15723385001983842,1.000098221062431,6.805534295795455e-05
-0.1561223657692608,-0.1561223657692608,1.0000068397199664,6.809742822934338e-05
-0.15454372199164937,-0.15454372199164937,0.9999080940814309,6.804333779708086e-05
-0.1526668014601455,-0.1526668014601455,1.0000668909580057,6.80531517309309e-05
-0.15140128461353014,-0.15140128461353014,1.000085055009069,6.806702112547244e-05
-0.14990806369751225,-0.14990806369751225,0.999979194816105,6.807502916090176e-05
-0.14809993258459145,-0.14809993258459145,0.9998870404590138,6.804629058418466e-05
-0.14650126005217318,-0.14650126005217318,0.999868639821899,6.806803177488204e-05
-0.1449785477037949,-0.1449785477037949,0.9999527133764335,6.80483781852199e-05
-0.14323339036636754,-0.14323339036636754,0.9999801473512747,6.817087266046748e-05
-0.14183396575172083,-0.14183396575172083,1.0000133693374944,6.806844255308387e-05
-0.13979054010414985,-0.13979054010414985,1.0000886457941913,6.80377314842274e-05
-0.138163355182769,-0.138163355182769,0.999952613310956,6.823543498551955e-05
-0.1366184053142206,-0.1366184053142206,0.9999817926145826,6.801354471469893e-05
-0.13440041399226174,-0.13440041399226174,0.9999551678268904,6.805366382981074e-05
-0.13334230089676566,-0.13334230089676566,1.0000366820345616,6.82929498581375e-05
-0.1318546409929695,-0.1318546409929695,1.0000964795763694,6.805601465695443e-05
-0.13032475206127855,-0.13032475206127855,1.0000540996328984,6.814338504932465e-05
-0.12904825804071152,-0.12904825804071152,1.0000321108939931,6.839515235250568e-05
-0.12755050391569966,-0.12755050391569966,1.000098873719382,6.808670313777133e-05
-0.1261293955576548,-0.1261293955576548,0.9999124911240227,6.80859111047031e-05
-0.12452888196567073,-0.12452888196567073,0.9999993298495451,6.805667877424647e-05
-0.12243722079583677,-0.12243722079583677,0.9999403475040044,6.812441818523648e-05
-0.12089222095601145,-0.12089222095601145,1.0001594066324864,6.808490683697623e-05
-0.11916088878861046,-0.11916088878861046,0.9999675649239963,6.806356838949868e-05
-0.1175697072481853,-0.1175697072481853,0.9999730090925961,6.810280899557927e-05
-0.11613694857805967,-0.11613694857805967,1.0000414594376026,6.805753219404239e-05
-0.11402628490541247,-0.11402628490541247,0.9999883957522627,6.809200038485275e-05
-0.11242869682901073,-0.11242869682901073,1.0000783186345252,6.808332656138078e-05
-0.11107916360269883,-0.11107916360269883,0.9999832677076188,6.806660322375901e-05
-0.1090082241462369,-0.1090082241462369,0.9999757129761202,6.80837695617251e-05
-0.10750863632929394,-0.10750863632929394,1.0000758062876907,6.810862988680243e-05
-0.10560042383440305,-0.10560042383440305,0.9999505870498199,6.806700561538985e-05
-0.10388266770314658,-0.10388266770314658,0.9998567233822595,6.80844192846185e-05
-0.10198444844354526,-0.10198444844354526,1.000000870156636,6.80350082060294e-05
-0.09971322667988716,-0.09971322667988716,0.9998150568305041,6.80976000643012e-05
-0.0979027568049787,-0.0979027568049787,1.0000951246388488,6.80443298421075e-05
-0.0958825868932763,-0.0958825868932763,0.9999885833437151,6.806617835637185e-05
-0.09403640046075452,-0.09403640046075452,0.9999197698870909,6.80639285951357e-05
-0.09222414404066512,-0.09222414404066512,0.9999419839412924,6.803941349326571e-05
-0.08998713717737701,-0.08998713717737701,0.999988354298544,6.805773925337418e-05
-0.08847872354090214,-0.08847872354090214,0.9999085635675111,6.802991403051353e-05
