time,time,flux,flux_err
-0.49858301732516946,-0.49858301732516946,0.9999432615799276,0.0003148506081780566
-0.49701110842336976,-0.49701110842336976,1.0001270195056793,0.00030848622298102136
-0.4952394151611467,-0.4952394151611467,1.0005691301878958,0.0003088319085947752
-0.49394968637898273,-0.49394968637898273,0.9999178792190767,0.00032582435484365994
-0.49235763697797663,-0.49235763697797663,0.999972401394152,0.00028329642816775797
-0.49060575307230464,-0.49060575307230464,1.000070083319279,0.00028202542103621423
-0.4889192030430422,-0.4889192030430422,0.9996744531142998,0.0002898829769440128
-0.4873330533344415,-0.4873330533344415,1.0000933000868748,0.00028163364328570426
-0.4854720170049404,-0.4854720170049404,1.0001261756651836,0.00028292055464461516
-0.48437616454102683,-0.48437616454102683,1.0001367728772614,0.0002816172293915523
-0.4824097698365222,-0.4824097698365222,1.0000947159484073,0.00028211769904862413
-0.4815942138782702,-0.4815942138782702,1.0002897731337659,0.00028555978294346284
-0.48002727769853665,-0.48002727769853665,0.9998461072472165,0.0002815467635159593
-0.4786740963005286,-0.4786740963005286,0.9998257011785695,0.0002833607085583434
-0.47632910867687317,-0.47632910867687317,0.9998431052035771,0.0002877266675188095
-0.47506883537353134,-0.47506883537353134,1.0002805279900933,0.00028161179712366994
-0.4730380174209131,-0.4730380174209131,0.9999449939555942,0.00028184011567314
-0.4722710645306506,-0.4722710645306506,0.9999691873780518,0.00028383833419313434
-0.4706471687379235,-0.4706471687379235,1.0002442245334786,0.00028323260199488733
-0.4691184569805046,-0.4691184569805046,0.9999002629681175,0.0002817416903916807
-0.46750346201079085,-0.46750346201079085,0.9999368824918875,0.0002870431726695615
-0.46604536827871923,-0.46604536827871923,1.0001353960425834,0.00028394242601491743
-0.46369026745305747,-0.46369026745305747,0.9997540894350191,0.00028208053080428603
-0.4623836006474448,-0.4623836006474448,1.0001277785206806,0.00028266654629138907
-0.46078590259712654,-0.46078590259712654,0.9999560485315294,0.00028983534622793706
-0.4594443174923072,-0.4594443174923072,1.000022839488036,0.00028512882115618255
-0.4579710935038747,-0.4579710935038747,1.0000720482368899,0.0002817268862023394
-0.4563635597471148,-0.4563635597471148,0.9998874634669578,0.0002830299721603368
-0.4544861579073768,-0.4544861579073768,1.000036195219473,0.00028204262922518924
-0.4537808239307196,-0.4537808239307196,0.9996540820243178,0.0002944177879597798
-0.4523149369917519,-0.4523149369917519,1.0002334083381303,0.0002818972469034397
-0.45046502257173415,-0.45046502257173415,0.9998374553042805,0.0002814700726070884
-0.4496799539279891,-0.4496799539279891,1.0000600794209251,0.000283678246871304
-0.4477759903136757,-0.4477759903136757,1.0000822994928675,0.0002830449079529163
-0.44607928288314724,-0.44607928288314724,1.0002050291541693,0.00028191028064451556
-0.4443347074520716,-0.4443347074520716,0.9998039071173814,0.0002834708105934317
-0.4428955377334205,-0.4428955377334205,1.0000562367368944,0.00028148287980932246
-0.4409880544786574,-0.4409880544786574,0.9997132637701063,0.0002827442492219298
-0.43940594471278016,-0.43940594471278016,1.000467001577859,0.00028817020234378184
-0.43773944768399814,-0.43773944768399814,0.9995956229225443,0.00028198236469095404
-0.43669549934202223,-0.43669549934202223,1.000019343400027,0.0002849024363269098
-0.4350536858895794,-0.4350536858895794,1.0000365253182366,0.00028292576850289663
-0.43310595291623033,-0.43310595291623033,0.9999445024219856,0.00028219990018352956
-0.4315094069017505,-0.4315094069017505,0.9997642711424675,0.00029194717128862226
-0.42989423718026953,-0.42989423718026953,0.9995984813889848,0.00028156296145664836
-0.4279941344240797,-0.4279941344240797,1.0003611707893432,0.0002816366632113389
-0.4270813387316593,-0.4270813387316593,1.000258046367358,0.0002832660341964754
-0.42546867490164003,-0.42546867490164003,1.0001292223117386,0.0002829229242005489
-0.4241812737462169,-0.4241812737462169,1.0001276270538018,0.00028603941756481587
-0.42261846681358295,-0.42261846681358295,0.9996953052370534,0.00028335189249691534
-0.4205462341022212,-0.4205462341022212,1.0000995282889915,0.0002815003325844485
-0.4183519167083432,-0.4183519167083432,1.0001111961484104,0.0002827077029090459
-0.41695896348683165,-0.41695896348683165,1.0001302307663231,0.0002815083125104624
-0.4154272886305989,-0.4154272886305989,1.0002286176928015,0.0002819180612997478
-0.41438367514128915,-0.41438367514128915,0.9999897562695736,0.00028442119399672546
-0.41274494597964806,-0.41274494597964806,0.9999763677933002,0.0002825785931991902
-0.41095561819092835,-0.41095561819092835,0.9998754908382634,0.00028174231127937595
-0.4092021797754569,-0.4092021797754569,0.99997317131359,0.0002908259888433679
-0.40780740406626137,-0.40780740406626137,0.9999847459121767,0.00028161816386011897
-0.4057195543653506,-0.4057195543653506,1.0002603062254267,0.0002816713938284342
-0.40477165523770964,-0.40477165523770964,0.9999380362161473,0.00028296098675319176
-0.4031614710824215,-0.4031614710824215,0.9997463195665581,0.00028265059287906655
-0.40187504089044523,-0.40187504089044523,1.0002014765137788,0.00028563970780657444
-0.400356944437226,-0.400356944437226,1.0001646391150758,0.00028178004333846864
-0.39875438463641333,-0.39875438463641333,1.0001034365570571,0.00028342048621602116
-0.3964020306040766,-0.3964020306040766,1.0003633739516742,0.0002884879770609787
-0.39516386103859985,-0.39516386103859985,1.000113628829069,0.0002815336316315652
-0.3938635038139182,-0.3938635038139182,1.0001876483801944,0.00028193908579738833
-0.3925161781888164,-0.3925161781888164,1.0002752502640944,0.00028397033904949256
-0.39102330202294977,-0.39102330202294977,1.0000749381260239,0.00028261412503766933
-0.3894305956629978,-0.3894305956629978,0.999982167633575,0.0002825187000597702
-0.3875794284271251,-0.3875794284271251,1.0003066561214216,0.00028761995073476264
-0.38612611545686376,-0.38612611545686376,1.000640637419871,0.00028437735313860434
-0.3837996260466753,-0.3837996260466753,0.999637689794899,0.00028154651893496534
-0.3827460149470426,-0.3827460149470426,0.9999707603042352,0.00028285253073770644
-0.38118291228238377,-0.38118291228238377,1.0002539731515314,0.00029131562596471295
-0.37974728724439044,-0.37974728724439044,0.9998310296692969,0.0002816628054147402
-0.37875715069822036,-0.37875715069822036,0.9996396427499112,0.0002854665337370304
-0.3773850385456171,-0.3773850385456171,0.9998134215521791,0.0002830298146666471
-0.3754026539339975,-0.3754026539339975,1.0002221638571442,0.0002818851637699672
-0.373861026387749,-0.373861026387749,0.999615318536555,0.00029672552041651627
-0.3723942702723434,-0.3723942702723434,0.9996331758074544,0.0002818109018685387
-0.3705415109943715,-0.3705415109943715,1.0000814651327938,0.00028155668459658106
-0.369760325893003,-0.369760325893003,0.9999993772408221,0.00028375118845400896
-0.3678526645460806,-0.3678526645460806,1.0000960364137448,0.00028315725151209454
-0.3664849774198956,-0.3664849774198956,1.0002792908433187,0.0002819046632644131
-0.36458806745213224,-0.36458806745213224,1.0000893702971685,0.00028898272345493145
-0.36293170885910514,-0.36293170885910514,0.9999079019561062,0.0002815902529103056
-0.3609762072628655,-0.3609762072628655,1.000071122585218,0.00028320576892286984
-0.359837473341031,-0.359837473341031,1.0002238601684141,0.0002816518671012678
-0.35817355643666815,-0.35817355643666815,0.9998475119961977,0.0002896328055362643
-0.3570520655135624,-0.3570520655135624,1.0000166479467796,0.000285245319096488
-0.35544298506938504,-0.35544298506938504,0.9998260899600426,0.0002829494225477582
-0.3536242081419914,-0.3536242081419914,1.0001466359865385,0.0002818709279476308
-0.3516820831093355,-0.3516820831093355,1.0000359812269228,0.0002934684927135672
-0.35053096732735867,-0.35053096732735867,1.0002459726406085,0.0002815933365586493
-0.3482343101379229,-0.3482343101379229,0.9996870136018972,0.00028159855515659174
-0.34744880550861124,-0.34744880550861124,1.000067015361347,0.00028363296929818975
-0.3455452545233129,-0.3455452545233129,1.0000592799221786,0.00028300948894092353
-0.34384784660069273,-0.34384784660069273,1.0001783904122186,0.0002819044211241568
-0.34210371395456607,-0.34210371395456607,0.9997868360323542,0.00028343688230719565
-0.34044483546822446,-0.34044483546822446,1.000021477743997,0.00028153610483725334
-0.3384284628824389,-0.3384284628824389,0.9999919085159796,0.0002827395660003484
-0.33702696183681835,-0.33702696183681835,0.9999705614433013,0.0002880737692914935
-0.33556277793759365,-0.33556277793759365,1.0007038930060497,0.0002820049683346594
-0.33474112863113986,-0.33474112863113986,1.000552029287348,0.0002848539417219028
-0.33313456050527746,-0.33313456050527746,1.0000603362959777,0.00028288296471644
-0.33120370763208484,-0.33120370763208484,0.9997818561638854,0.0002818211727172327
-0.32927867988764775,-0.32927867988764775,0.9998060697243808,0.0002918689709039992
-0.3276639009010978,-0.3276639009010978,0.9999961379153902,0.00028157035605475586
-0.32576314641264614,-0.32576314641264614,1.0002229351286003,0.00028160577306530403
-0.32485036525758915,-0.32485036525758915,0.9996868329473324,0.000283218691517789
-0.323237950897601,-0.323237950897601,0.9999578486805646,0.0002829476540529128
-0.32195064544284835,-0.32195064544284835,1.000070123951008,0.0002860440305950976
-0.3203871604571759,-0.3203871604571759,0.9999655801604256,0.00028331048123337644
-0.3185024119258742,-0.3185024119258742,1.0000278360063706,0.0002819027409859762
-0.31645768892558407,-0.31645768892558407,1.0001020312922602,0.0002826474993548682
-0.3149416288753855,-0.3149416288753855,0.9996755450888625,0.00028164092185819595
-0.3135524506920774,-0.3135524506920774,1.000301884319694,0.00028197516461642293
-0.3124302951269783,-0.3124302951269783,1.0000845150130366,0.0002845587299743235
-0.310826223676122,-0.310826223676122,0.9997672479434565,0.0002825871223561331
-0.3091883088396571,-0.3091883088396571,1.0000225048193248,0.000281805723661542
-0.3070718985858548,-0.3070718985858548,1.0004948109282703,0.00029079039508276937
-0.3059171779197641,-0.3059171779197641,0.9998555388564002,0.0002815808852290533
-0.30387244771554833,-0.30387244771554833,1.0001848727330693,0.0002815902969273027
-0.3028260907718504,-0.3028260907718504,0.9996432612700294,0.00028306496578197536
-0.3012487950290961,-0.3012487950290961,1.0003351663372837,0.00028276572722201355
-0.2997916387474106,-0.2997916387474106,1.0000381905408353,0.00028562084554136196
-0.29883124331972793,-0.29883124331972793,0.9998781827879639,0.00028162842205636866
-0.2972266983437294,-0.2972266983437294,1.0001522992104845,0.00028311171208635793
-0.29498579546925613,-0.29498579546925613,0.9997858607687224,0.00028196702819070356
-0.29350569168673246,-0.29350569168673246,0.9998001834995616,0.0002882532031542583
-0.2922410500978003,-0.2922410500978003,1.0000205560554107,0.00028184487042981623
-0.2905987983540399,-0.2905987983540399,0.9997391612859083,0.0002816290585600586
-0.28951390936417737,-0.28951390936417737,0.9998818532623908,0.0002839635035684729
-0.2878959920890338,-0.2878959920890338,1.0002037325915125,0.00028323814700095107
-0.2861436462604615,-0.2861436462604615,0.9998638480951826,0.0002819486894131689
-0.2844569064807729,-0.2844569064807729,1.0000978116855657,0.0002897736326604464
-0.28246387562248854,-0.28246387562248854,1.0001192285362666,0.0002815770919094241
-0.2808126036179601,-0.2808126036179601,0.9997662051096217,0.0002828395938847471
-0.2792662649291742,-0.2792662649291742,1.000211716543172,0.0002911405408768538
-0.2776732763093605,-0.2776732763093605,0.9998216504349816,0.0002815199633514723
-0.27685702173694154,-0.27685702173694154,0.999668813322638,0.00028554353729917474
-0.2752096326854371,-0.2752096326854371,1.0001398841322857,0.00028297333046015214
-0.27317269628183566,-0.27317269628183566,1.0000471884887354,0.0002819880999426755
-0.27163017049897464,-0.27163017049897464,1.000071963503172,0.0002965175147616143
-0.2701632285177766,-0.2701632285177766,1.00032337485803,0.0002818783822347841
-0.26831078375471407,-0.26831078375471407,0.9995171621080041,0.00028142176625018745
-0.2675291684223339,-0.2675291684223339,1.0002892680999627,0.00028376295541526514
-0.265621919700061,-0.265621919700061,1.0001132345556012,0.0002831528840583616
-0.26425401079686706,-0.26425401079686706,0.9998316321539378,0.0002819374938329673
-0.26235737525712466,-0.26235737525712466,0.9999942013188955,0.00028885846732202685
-0.2609078408037021,-0.2609078408037021,1.0002386560596603,0.0002816348644892228
-0.2588410091244441,-0.2588410091244441,1.0002218777917151,0.00028314522310102675
-0.2576066904293839,-0.2576066904293839,0.9994477381144323,0.000281557910025562
-0.2559421267382277,-0.2559421267382277,0.9995446557193614,0.00028947164597642385
-0.2548209683656751,-0.2548209683656751,0.9995956780453389,0.0002851779175694499
-0.2534164861055615,-0.2534164861055615,0.9998507408893256,0.000281633424562194
-0.2519005009082321,-0.2519005009082321,1.0003300983245453,0.00028326806747219833
-0.24996056832751493,-0.24996056832751493,0.9999155133264661,0.00028155295988353747
-0.24888680654330528,-0.24888680654330528,0.9996725924543343,0.0002931818587028916
-0.2468555863306392,-0.2468555863306392,1.0000690681953819,0.00028158062483771447
-0.24565449690053356,-0.24565449690053356,0.9998319872334376,0.0002835447625629828
-0.24410035375040023,-0.24410035375040023,0.9997512371613183,0.0002830063735916418
-0.2422628493302909,-0.2422628493302909,0.9999964273184571,0.0002816716518923471
-0.24046894538332708,-0.24046894538332708,0.999968138236544,0.00028355637141189074
-0.23859908685917616,-0.23859908685917616,0.999906382282521,0.0002814937609140871
-0.23652797026734335,-0.23652797026734335,1.000145880828569,0.00028266875666378076
-0.23501637536173803,-0.23501637536173803,0.999771911662398,0.00028180868523860044
-0.23401307771491703,-0.23401307771491703,0.9998560927927829,0.00028852841845992375
-0.23267293766475633,-0.23267293766475633,1.0002056524902687,0.0002847069435443595
-0.23120126014400738,-0.23120126014400738,0.9995168022697463,0.0002816631254515856
-0.229593209320592,-0.229593209320592,1.0004665122042826,0.0002828555341744995
-0.2275300311484898,-0.2275300311484898,1.0001245535233494,0.00028854557127885893
-0.2263823583831254,-0.2263823583831254,1.0001454464770452,0.00028516399752546404
-0.22454842633742372,-0.22454842633742372,1.00036186407158,0.0002816107120743388
-0.22334847627207638,-0.22334847627207638,1.0002807206637372,0.00028325293163874017
-0.22193850312032737,-0.22193850312032737,0.999853909276559,0.0002820739561362389
-0.22033511573536088,-0.22033511573536088,1.0001012610609903,0.0002823616479948059
-0.21925006190285784,-0.21925006190285784,1.0004234571309738,0.00028619135400881075
-0.2173258306385833,-0.2173258306385833,0.9996973384890809,0.0002831300968194116
-0.21543315119415637,-0.21543315119415637,0.9997374679646918,0.00028197401401499754
-0.21358764589531348,-0.21358764589531348,1.0001471518773126,0.00028265680314993767
-0.21231910065398552,-0.21231910065398552,0.99976738022121,0.00028188230275449087
-0.2106760616748943,-0.2106760616748943,1.0001405051834005,0.00028158577832143816
-0.20959349408949493,-0.20959349408949493,0.9999458145196882,0.00028441506497287034
-0.20797343134763652,-0.20797343134763652,0.9996315154405236,0.00028333297928289313
-0.20602731893523013,-0.20602731893523013,0.9996788530825039,0.0002818038266258811
-0.20465325739933177,-0.20465325739933177,1.0003689905816944,0.00029060394297215734
-0.2033462483646872,-0.2033462483646872,1.0003723489742693,0.00028165616224209414
-0.2012588379366207,-0.2012588379366207,0.9998158015367364,0.0002815589791799722
-0.2003097326894931,-0.2003097326894931,0.9997550128935254,0.0002828971159329139
-0.19870004309996148,-0.19870004309996148,1.0001578547779837,0.0002826729551071328
-0.19741380703417236,-0.19741380703417236,0.9996128850174657,0.00028562430284104125
-0.19589525897390558,-0.19589525897390558,0.9999067281924505,0.0002816812634872217
-0.1942920913657872,-0.1942920913657872,1.0002262825937351,0.00028337627926132777
-0.19194137193408095,-0.19194137193408095,1.0000722674495681,0.000288282416298406
-0.19070244138129056,-0.19070244138129056,1.000103363977836,0.0002815245613970865
-0.18940188782653422,-0.18940188782653422,0.9998915870850136,0.00028194096825439783
-0.1880543395440327,-0.1880543395440327,0.9998858841146469,0.0002839330239036516
-0.1865615323811653,-0.1865615323811653,1.0001372873495566,0.000282497991605326
-0.18496810780488887,-0.18496810780488887,1.0000177873021951,0.00028241659285572124
-0.18311811221647076,-0.18311811221647076,1.0003084057877163,0.00028761537448599697
-0.18166371644474566,-0.18166371644474566,1.0002367074625877,0.00028426780649603016
-0.1793309188549756,-0.1793309188549756,0.9999255505046873,0.0002816819764274921
-0.17800019864007482,-0.17800019864007482,1.0002227645765778,0.000282732649028095
-0.17640344741812441,-0.17640344741812441,0.9995881746422868,0.000290933001284672
-0.17513930674249423,-0.17513930674249423,1.0001212321168367,0.0002853336288983875
-0.1739427354761574,-0.1739427354761574,0.9997430706810168,0.0002816223735278984
-0.1723640448974038,-0.1723640448974038,0.9997838769862615,0.0002830732706633107
-0.1700157035549637,-0.1700157035549637,1.0000853429042955,0.0002908327028549798
-0.16896454471570904,-0.16896454471570904,0.9998349227897183,0.0002874996949806914
-0.16717794163923827,-0.16717794163923827,1.0000730710972792,0.0002818418900645035
-0.16577746874972946,-0.16577746874972946,1.0003050382737817,0.00028367414886659086
-0.16460032836548635,-0.16460032836548635,0.9999480208675017,0.0002822984968127209
-0.16274228258262155,-0.16274228258262155,0.9997044127342767,0.0002823605672708438
-0.16130891025968594,-0.16130891025968594,1.0001277555623203,0.0002820213507633053
-0.15991436655094732,-0.15991436655094732,1.0000905942549274,0.0002887349736765611
-0.15828644889115823,-0.15828644889115823,1.00026678581924,0.00028152447626433646
-0.1564197650484857,-0.1564197650484857,0.9995073202196151,0.00028309352634134485
-0.15502353916162975,-0.15502353916162975,0.9997122502545827,0.00028896318735347143
-0.15335804015994653,-0.15335804015994653,0.9998646162996423,0.0002820487841318546
-0.15231383331411052,-0.15231383331411052,0.99972327027638,0.00028518210188941177
-0.15066985509183722,-0.15066985509183722,0.9999202088539599,0.0002828822098087414
-0.14869138735157322,-0.14869138735157322,1.0000086940031103,0.000282071278464357
-0.14712452893509181,-0.14712452893509181,1.0003414076156751,0.00029312534964586975
-0.14550663636109676,-0.14550663636109676,1.0002020862420486,0.0002815299411060183
-0.14361107982767862,-0.14361107982767862,1.000584301986341,0.00028158674267203456
-0.14266188967667404,-0.14266188967667404,1.0002555937089024,0.0002834480310801934
-0.1407304027947248,-0.1407304027947248,1.0002431560009444,0.00028295107367730203
-0.1393849767744541,-0.1393849767744541,0.999848756200263,0.0002818843972909379
-0.13740259535115912,-0.13740259535115912,1.0002689436141623,0.0002833827701965995
-0.1355249811298563,-0.1355249811298563,1.000208241265873,0.00028147448307906485
-0.1336632095997629,-0.1336632095997629,0.9999808147931925,0.0002826668970221696
-0.13247716392943404,-0.13247716392943404,0.9995788594125653,0.0002879626477973843
-0.1310457856787252,-0.1310457856787252,1.0001040795892069,0.0002819377308889209
-0.13000194138803636,-0.13000194138803636,1.0000039978981317,0.0002846733045674051
-0.1283610548634897,-0.1283610548634897,1.000033151986408,0.0002827480915252966
-0.12656822247809033,-0.12656822247809033,0.9998167407660002,0.0002817845277388361
-0.12481722832235391,-0.12481722832235391,1.0000508784307487,0.00029158370204705134
-0.12342148630996234,-0.12342148630996234,0.9997724468231436,0.000281535334738243
-0.12146587828101474,-0.12146587828101474,1.000197123111904,0.0002815127260786403
-0.12067512429930502,-0.12067512429930502,0.9998947502891935,0.0002831927308689853
