time,time,flux,flux_err
-0.49996426013240125,-0.49996426013240125,0.999904354773626,0.00015155678696746476
-0.4998477771805483,-0.4998477771805483,1.0000896936403978,0.00013880242780634963
-0.4997298050899796,-0.4997298050899796,1.0001639415049082,0.00013685754269538965
-0.49954696462615783,-0.49954696462615783,0.99991028415559,0.0001427893811034771
-0.4994296299788402,-0.4994296299788402,0.9998209834657708,0.0001246926313018328
-0.4992927511542803,-0.4992927511542803,1.0000551162259081,0.00013173823225739792
-0.49916375324246476,-0.49916375324246476,1.0000338913885436,0.00012798855080249064
-0.4990716868021991,-0.4990716868021991,1.0001226196402622,0.0001284333161570604
-0.49893899403396064,-0.49893899403396064,0.9999601091375314,0.0001258719311586078
-0.49884782153822016,-0.49884782153822016,1.0000214837317436,0.00012675108999518598
-0.4987601635104511,-0.4987601635104511,1.0000365982760866,0.00012457964260825222
-0.498639127300703,-0.498639127300703,0.9999329317948555,0.00013189846240998894
-0.49851942840905394,-0.49851942840905394,0.9999041335197155,0.00013336927202920796
-0.4984564951475477,-0.4984564951475477,1.0000064647777382,0.00012476333800845872
-0.49838238386437295,-0.49838238386437295,1.0001209774719915,0.00013398875169988583
-0.49830444948165675,-0.49830444948165675,1.0000003724346007,0.00013294457397987247
-0.49823685809969903,-0.49823685809969903,1.0000141502707625,0.00012518446538181856
-0.4981949699635152,-0.4981949699635152,1.0000565314368992,0.0001234065094298138
-0.4981368364038644,-0.4981368364038644,0.9999806382487035,0.00012757770150721191
-0.4980749230016954,-0.4980749230016954,0.99986269079044,0.00012619016243796353
-0.49802101747482086,-0.49802101747482086,0.9998336886043184,0.0001321067165932196
-0.4979319307167316,-0.4979319307167316,0.9999971862501116,0.00013051696374038836
-0.49786979628843253,-0.49786979628843253,0.9998724724153021,0.00012433067353358676
-0.4977850616152864,-0.4977850616152864,0.9999026584966619,0.00012544965563043232
-0.4977199460205156,-0.4977199460205156,1.000055227499002,0.00012695070634007494
-0.49756352929689457,-0.49756352929689457,0.9999871132818783,0.00012634691748941617
-0.4974578463152284,-0.4974578463152284,0.9999226919514044,0.00012955466706285763
-0.49737088030960874,-0.49737088030960874,1.0000570061790994,0.0001288837811491169
-0.4972289583500242,-0.4972289583500242,0.9998948066964048,0.0001261299230073485
-0.4970323438581545,-0.4970323438581545,1.000177677535108,0.0001289756180172167
-0.4968291210854659,-0.4968291210854659,1.0000087571902345,0.0001247951831127623
-0.49669309178716503,-0.49669309178716503,1.0000494977765408,0.00013368375603083212
-0.4965491690527415,-0.4965491690527415,0.9999623884734957,0.00013337913261559942
-0.4964189932536101,-0.4964189932536101,1.0002477166080466,0.00012477220374897274
-0.49629778052913026,-0.49629778052913026,0.9999748824515844,0.0001277314239004379
-0.4962040780810639,-0.4962040780810639,1.000094030773078,0.0001401631867205722
-0.4960790321987588,-0.4960790321987588,1.0001581274618487,0.00012802081303037982
-0.4960329485445982,-0.4960329485445982,0.9999417320560209,0.00012718439652778014
-0.49595584587950725,-0.49595584587950725,0.9999990154864659,0.00013265586350158506
-0.49576049253810195,-0.49576049253810195,0.999928445575922,0.00012667216948389158
-0.49561070316412953,-0.49561070316412953,1.0001327639042965,0.00012716966996699416
-0.4955352041492006,-0.4955352041492006,1.0002130091562524,0.00012628848090343728
-0.4954583292710595,-0.4954583292710595,0.9999439452145247,0.00012344796220935158
-0.49532130590523593,-0.49532130590523593,1.00004475662379,0.00013046628134179682
-0.49524194066179916,-0.49524194066179916,1.0001006147230869,0.00013594659554691483
-0.4951702390128048,-0.4951702390128048,1.000049069984994,0.0001233798554502302
-0.49504994095186705,-0.49504994095186705,1.0000871255395738,0.00012507980841231162
-0.49483788066136186,-0.49483788066136186,1.0000892450592063,0.00012542009219059056
-0.49473919220617973,-0.49473919220617973,0.9998191234032386,0.00013099589213682385
-0.49462493127794005,-0.49462493127794005,1.0001862156722099,0.0001258007294804438
-0.4945129924744833,-0.4945129924744833,1.0001979234485046,0.00013257687991363281
-0.4944140977284405,-0.4944140977284405,0.9999002289267157,0.000131343322884527
-0.49425758757279253,-0.49425758757279253,0.999862657292969,0.00013189803920279997
-0.49417084178712684,-0.49417084178712684,0.9999651650150551,0.0001228187612547805
-0.49397542703954966,-0.49397542703954966,1.0000098264701047,0.0001269110968127794
-0.49385649979521984,-0.49385649979521984,1.0001110610847088,0.00012345350740658074
-0.493745256785769,-0.493745256785769,0.9999778749192709,0.00013171592776510071
-0.49362348747090434,-0.49362348747090434,0.9999283534827988,0.0001312223127257704
-0.4935030464286683,-0.4935030464286683,0.9999214490178236,0.00012444415554762762
-0.49337896883662324,-0.49337896883662324,1.0000304481242421,0.00012364349105953214
-0.49317902721231804,-0.49317902721231804,0.9999161073201457,0.00012315624976605855
-0.49309143350983503,-0.49309143350983503,0.9998711567458903,0.00013551191937685446
-0.4929587865655776,-0.4929587865655776,0.9998683758521919,0.00012305924764320595
-0.4928142306802329,-0.4928142306802329,1.000017011589114,0.00012411071965117101
-0.4927311203093268,-0.4927311203093268,1.0000414511155093,0.000125721497800982
-0.4926523345842725,-0.4926523345842725,1.0000877612117427,0.00013283943506164
-0.492586749928887,-0.492586749928887,0.9998770349768795,0.00012467446526169388
-0.49254850936995354,-0.49254850936995354,0.9999966621435907,0.00013354972531046217
-0.49250993838650176,-0.49250993838650176,1.0000613145644934,0.000123726371300948
-0.49242404275282753,-0.49242404275282753,1.000060836847562,0.00012568951705003778
-0.4922914387047058,-0.4922914387047058,1.0000546647424247,0.00013093425534922812
-0.49214639275160155,-0.49214639275160155,1.000002763582176,0.00012138087659313997
-0.49202390675782226,-0.49202390675782226,1.0001097877784073,0.00012582961468062803
-0.4919593185913982,-0.4919593185913982,1.0001096383383103,0.00012929665001330958
-0.4918389772385126,-0.4918389772385126,1.0001199137683148,0.00012715309515571484
-0.4917598550207913,-0.4917598550207913,0.9999366011487101,0.00012839831387885848
-0.49166766381822524,-0.49166766381822524,0.9999908865453833,0.00012442384216156284
-0.49159520618850366,-0.49159520618850366,1.0001328665546079,0.00012584997874739865
-0.4915408228232991,-0.4915408228232991,1.0000287553899638,0.00013300639064176153
-0.49148678219935393,-0.49148678219935393,1.0000626983298018,0.00013410169585289635
-0.4913719566742657,-0.4913719566742657,1.000018615903514,0.0001286669879494722
-0.49126141200831625,-0.49126141200831625,0.9998413697522499,0.00012758614329123956
-0.4911479701899225,-0.4911479701899225,1.0001049539800013,0.0001256592718219638
-0.49102763665723614,-0.49102763665723614,1.000038163947227,0.00012384723368305637
-0.4909350583766354,-0.4909350583766354,1.0000363149022424,0.0001243305448693954
-0.4908279741794104,-0.4908279741794104,0.9999399120379845,0.00013348633064571452
-0.49060026711667887,-0.49060026711667887,0.9999856394154996,0.00013802257724091434
-0.4904728823719779,-0.4904728823719779,0.999895895795744,0.00013604091116069006
-0.4902901477064006,-0.4902901477064006,0.9999834422439673,0.00012813030231962193
-0.4901313794864109,-0.4901313794864109,0.9998443166821469,0.00012439406548235983
-0.49000582041044255,-0.49000582041044255,0.999849636165197,0.00013392993930145194
-0.48982121399603784,-0.48982121399603784,1.0000113112745426,0.00012938833880543065
-0.48968064340297135,-0.48968064340297135,0.9998837599708115,0.00012245912068271586
-0.4896078330435557,-0.4896078330435557,0.9999531263846461,0.00013187386070226477
-0.48956721167778594,-0.48956721167778594,1.000075896655766,0.0001266037689239818
-0.4895086250791792,-0.4895086250791792,1.000038151741097,0.00013584493049450982
-0.4894134504022077,-0.4894134504022077,0.9998095830857554,0.0001312066933768669
-0.48930491354840344,-0.48930491354840344,1.0001358120893336,0.00012407600643917505
-0.48914938321104273,-0.48914938321104273,0.9999527893421682,0.0001273207460466822
-0.4890557773789624,-0.4890557773789624,0.9999931346520498,0.0001267925169617459
-0.48893168384674934,-0.48893168384674934,1.0000686681225686,0.00013804158226870988
-0.4887567421537824,-0.4887567421537824,0.9999207976665954,0.00012520849093070808
-0.4886023615021259,-0.4886023615021259,0.9999668931550658,0.00013580303365506077
-0.4884960287250578,-0.4884960287250578,0.9998301591596249,0.00013113327238592015
-0.48838314971362706,-0.48838314971362706,1.0002536902409875,0.0001285288444097935
-0.48828700071317144,-0.48828700071317144,1.0000773034347703,0.00012507577091135634
-0.48816083564597645,-0.48816083564597645,0.9999416939564506,0.00013446367158744693
-0.4880187742062844,-0.4880187742062844,1.0002016267425506,0.00012747283931384613
-0.4878279319003923,-0.4878279319003923,1.000033807522326,0.00013457902729285573
-0.48752678372256925,-0.48752678372256925,1.000328882059098,0.00012914593565244666
-0.48736736255232244,-0.48736736255232244,0.9999993426258111,0.0001269904235978329
-0.4872183715546271,-0.4872183715546271,1.000092028556018,0.00012536953132571336
-0.4871316747914534,-0.4871316747914534,0.9999549764149182,0.00012657389191205267
-0.4870102306391345,-0.4870102306391345,0.9999843683802702,0.00013326203697281168
-0.486847003546427,-0.486847003546427,1.0000845348759202,0.00012276559097733334
-0.4867181801295374,-0.4867181801295374,1.000284007372349,0.0001392408287734655
-0.4866351980570471,-0.4866351980570471,1.000049989541141,0.00012664828893635868
-0.4865285949985264,-0.4865285949985264,1.0000551153775625,0.0001306959094780086
-0.48642577775463,-0.48642577775463,0.999856376643713,0.00013090626889875146
-0.48628529854177033,-0.48628529854177033,1.000089422017331,0.0001302976691771645
-0.48617998708505183,-0.48617998708505183,1.0000644978138384,0.00012761582030682196
-0.4860631504736375,-0.4860631504736375,1.000027781628423,0.000124049565047283
-0.48592287371575366,-0.48592287371575366,0.9999370060631249,0.00013383201299832124
-0.48576241217087957,-0.48576241217087957,0.9997282261136127,0.00012267705462124513
-0.48561061001673805,-0.48561061001673805,1.000096068189502,0.00012546766893067275
-0.4855104880494764,-0.4855104880494764,0.9999760418041987,0.00013452170612655525
-0.4854274377488764,-0.4854274377488764,1.0000798252274805,0.0001302070332216511
-0.485350085189566,-0.485350085189566,0.9999957126491875,0.00012561171849678553
-0.4852166441385634,-0.4852166441385634,0.9999079604499321,0.00012584323856819276
-0.48510094632802064,-0.48510094632802064,1.0000054033136156,0.00012747956952555438
-0.48502000073494855,-0.48502000073494855,1.0001331396589734,0.00013173627168345175
-0.484958254484809,-0.484958254484809,1.0000435804093484,0.00012631377343555542
-0.4849043578928104,-0.4849043578928104,0.9999715752839528,0.00013610907103252977
-0.48482848484418356,-0.48482848484418356,1.0000468512225795,0.00013197745837603683
-0.48473094996297733,-0.48473094996297733,1.000271553848584,0.00012563197525148224
-0.48459236201888417,-0.48459236201888417,0.999911114777173,0.00013042298618230982
-0.48439307569642553,-0.48439307569642553,0.9998065006052116,0.00012318780363904618
-0.48420332291570956,-0.48420332291570956,0.9997779458478583,0.00012572877822261875
-0.48403514273522885,-0.48403514273522885,1.0000133602148178,0.00012646356648653926
-0.4839536663290346,-0.4839536663290346,0.9999965246091115,0.0001353305672998427
-0.48382059345894957,-0.48382059345894957,1.0000263410250456,0.00012744239070237328
-0.483723822562024,-0.483723822562024,0.9997125628207149,0.00012868233275893686
-0.48358075075375384,-0.48358075075375384,1.0000662995585912,0.00012418418845862715
-0.4834749542787904,-0.4834749542787904,1.0000379443471803,0.0001306546390444055
-0.4833549424860394,-0.4833549424860394,1.0001735460960812,0.00013084520440991422
-0.48324582302884667,-0.48324582302884667,1.0000284038655585,0.00013294718618847584
-0.48314534813689536,-0.48314534813689536,1.0000306572254485,0.0001391550294285218
-0.4830203901132336,-0.4830203901132336,1.0000772273260936,0.00012522324169338708
-0.48290827141900083,-0.48290827141900083,0.9998835332625127,0.00012924299753458852
-0.48282045194646345,-0.48282045194646345,1.00001024136024,0.00013214534472399966
-0.48270468081755097,-0.48270468081755097,0.9998865691456202,0.00012727804086396421
-0.4826152607711265,-0.4826152607711265,0.9997823130762681,0.00012617527274327758
-0.4825266231317073,-0.4825266231317073,1.0000642735093024,0.00013057472056898051
-0.48235589809773954,-0.48235589809773954,1.0000435576452453,0.00012493783232355165
-0.4821467664616648,-0.4821467664616648,0.999991507633886,0.00012653194179694803
-0.48200700972229243,-0.48200700972229243,0.9999421074357444,0.0001351095993903215
-0.48189640007913115,-0.48189640007913115,0.9999766178881282,0.00013235790919353466
-0.48179901492549104,-0.48179901492549104,0.9998662358504283,0.0001244944430679659
-0.48165412282396575,-0.48165412282396575,1.0000742280252435,0.00012347104744891597
-0.4815178342047147,-0.4815178342047147,1.0000308267657263,0.00012381718584074896
-0.48130422258400357,-0.48130422258400357,1.0001177754621886,0.00012311745051251814
-0.48115522945008704,-0.48115522945008704,1.0001212120659144,0.00012533748100694006
-0.48101697088568474,-0.48101697088568474,1.0001594712671082,0.00013805623802855353
-0.48092409839155154,-0.48092409839155154,1.0002038418890344,0.00013135980803557964
-0.48084406507550737,-0.48084406507550737,1.0000186515502136,0.00013916262811650184
-0.480736148354481,-0.480736148354481,1.0000458552750822,0.00012665060255794157
-0.48060956206172706,-0.48060956206172706,0.9999439401009145,0.0001241686843042042
-0.48043721516733057,-0.48043721516733057,1.0000999552421592,0.00013227923828481488
-0.4803417075163452,-0.4803417075163452,1.000093627081934,0.0001246894492001523
-0.4802286022953922,-0.4802286022953922,1.0001124106327564,0.00013087779262836144
-0.4800807008839911,-0.4800807008839911,1.0001669423413466,0.00012878681140958967
-0.4800025670148898,-0.4800025670148898,1.000009537362547,0.0001274256687246721
-0.47986628880316856,-0.47986628880316856,0.9999922419737569,0.00012954198299539046
-0.47977989744103977,-0.47977989744103977,0.9999486298387465,0.0001251472408072856
-0.479687995032873,-0.479687995032873,1.000091847128844,0.00012408640408076923
-0.4795790752919856,-0.4795790752919856,0.9999805461275433,0.00013082331653926343
-0.4794450784858782,-0.4794450784858782,1.000123125080996,0.00013378929992229342
-0.4793752771191066,-0.4793752771191066,0.9999283180626998,0.00012539677977809073
-0.479307784937555,-0.479307784937555,0.999957101416239,0.00013127894213500784
-0.47922802398970815,-0.47922802398970815,0.9999531806971416,0.0001271127037523956
-0.47914870199747384,-0.47914870199747384,0.9999795721134273,0.00012636287018141554
-0.47910169913084244,-0.47910169913084244,1.0000709702403434,0.0001225786324281926
-0.4790339882223634,-0.4790339882223634,0.9998698533971068,0.00012591839194785444
-0.4789777286554454,-0.4789777286554454,1.0000279496473583,0.00012784361258197144
-0.4789133393001975,-0.4789133393001975,0.999929613269733,0.00013604446598746876
-0.4788405592058552,-0.4788405592058552,1.0001032661661742,0.0001252074039448312
-0.4787615922279656,-0.4787615922279656,1.0000429539105657,0.0001256978233465966
-0.4786877245991491,-0.4786877245991491,1.000132793060062,0.00012544244842897052
-0.47861935758555774,-0.47861935758555774,0.9998434276702156,0.0001269411541793135
-0.47846230273717083,-0.47846230273717083,1.0001615897565652,0.00012636594832322512
-0.47835563809785525,-0.47835563809785525,1.000032342959307,0.0001263528512103531
-0.4782581695384579,-0.4782581695384579,0.9999536068393684,0.00012975815540795728
-0.4781081064866157,-0.4781081064866157,0.9999939579614903,0.00013359687724124312
-0.47794620601052884,-0.47794620601052884,0.9999219807580199,0.00012274562115033278
-0.47775867318268866,-0.47775867318268866,0.9999702078891994,0.00012498352302628486
-0.4776712574326666,-0.4776712574326666,0.9998873922632207,0.00012285975004859985
-0.4775056456128368,-0.4775056456128368,1.000016266162291,0.00014010208624489097
-0.4773978924640687,-0.4773978924640687,1.0002372806343531,0.00012645916062305283
-0.47728458190103995,-0.47728458190103995,1.0001239599036436,0.00012512449333465094
-0.47717744697874875,-0.47717744697874875,1.0000492326731778,0.00013419737546423714
-0.47706763466412666,-0.47706763466412666,1.0000380943862335,0.00013410707872975287
-0.4769704441598151,-0.4769704441598151,0.999807443398644,0.00012748989772468257
-0.4769194784690626,-0.4769194784690626,1.0001038702821101,0.00012741329235025446
-0.47683222862833646,-0.47683222862833646,1.000032129328614,0.00013178692498211746
-0.47660420480533505,-0.47660420480533505,0.9998442534175377,0.0001274070502566197
-0.4764907903620042,-0.4764907903620042,0.9999732779056238,0.00012611725895893218
-0.4764272536820499,-0.4764272536820499,0.9998424129123377,0.00012625572444101085
-0.4763289268303197,-0.4763289268303197,1.0001171833273717,0.00012418132531034543
-0.4761970899387961,-0.4761970899387961,1.0000737425924204,0.0001389723172256645
-0.4761144011456054,-0.4761144011456054,1.0000577855419526,0.00012851819283644434
-0.47604980221367443,-0.47604980221367443,0.9998342847096591,0.0001236397811820324
-0.47584314293635543,-0.47584314293635543,1.0000185423090935,0.0001253042300672339
-0.4756822974915849,-0.4756822974915849,1.000044558141441,0.00012563036748856077
-0.47557205574121325,-0.47557205574121325,0.9999965332367152,0.00012687557891046043
-0.475479073158931,-0.475479073158931,1.0003146159735106,0.00012960074075407473
-0.47535136228834746,-0.47535136228834746,1.0000140924880339,0.00013128982448706029
-0.4751993213663809,-0.4751993213663809,0.9999068702541656,0.00013085327947427679
-0.47514568477636204,-0.47514568477636204,1.000130799079026,0.0001324221397852584
-0.4750400309741963,-0.4750400309741963,1.000090270047582,0.00012376460864953063
-0.47484139271546155,-0.47484139271546155,0.9999205737297212,0.00012447073929188556
-0.474746937956661,-0.474746937956661,1.0001548558383173,0.00012393600687314512
-0.47463566468504725,-0.47463566468504725,0.9999781327308792,0.0001310069372534958
-0.4744954003865132,-0.4744954003865132,0.9999897424880988,0.0001311973563482024
-0.47436784169403834,-0.47436784169403834,0.999997379070536,0.00012376109123461753
-0.4741475097864168,-0.4741475097864168,0.9999472618256228,0.00012478356087392432
-0.4740225592482602,-0.4740225592482602,1.000131348616666,0.0001335472154284794
-0.4739008515374735,-0.4739008515374735,1.000108388296687,0.00012499762831003644
-0.473722749229637,-0.473722749229637,1.0001004333733519,0.00012409666908246123
-0.47364876182109583,-0.47364876182109583,1.000054968610929,0.0001250445579535218
-0.47357132883917075,-0.47357132883917075,0.9998400933712803,0.0001342647547036481
-0.4734919297858141,-0.4734919297858141,1.0000021553683607,0.00012352628778328637
-0.4734528890083311,-0.4734528890083311,1.0000648947027366,0.00013326370275483122
-0.47342905187106227,-0.47342905187106227,1.0001249643855599,0.00012521143351664307
-0.47333780738990755,-0.47333780738990755,0.9999853670105118,0.00012313463742022994
-0.4732109511271119,-0.4732109511271119,0.9999550426667609,0.00013404386529313237
-0.4730607599107316,-0.4730607599107316,1.0000312931806834,0.00012137564214767032
-0.47292435201234184,-0.47292435201234184,0.9999527881489059,0.0001241587966027826
-0.47284343031642495,-0.47284343031642495,1.0001843154303747,0.0001282239770596469
-0.4727125631499803,-0.4727125631499803,1.000025577073172,0.0001273902921114536
-0.4726315632200567,-0.4726315632200567,1.0003507520882178,0.00012685214460809386
-0.47256240927963516,-0.47256240927963516,0.9999231944313983,0.00012441349504730743
-0.4724919165921165,-0.4724919165921165,1.0002286547504289,0.00012382893853222864
