time,time,flux,flux_err
-0.49925088846187765,-0.49925088846187765,1.0001592164918685,0.0003525364152580109
-0.4979329635013225,-0.4979329635013225,1.0001315091076932,0.0003549133469848716
-0.4964360101534112,-0.4964360101534112,0.9997884271859308,0.0003216592043594462
-0.4949976813477406,-0.4949976813477406,1.0002821477726667,0.00032416088174603923
-0.49349547330493804,-0.49349547330493804,1.0000145476480198,0.00032328338488371637
-0.4906800693970581,-0.4906800693970581,1.0000617519346835,0.0003198264447480005
-0.4887673521603574,-0.4887673521603574,1.0001492435555417,0.0003211933620722945
-0.48709164184110704,-0.48709164184110704,0.9997241125747234,0.00032260896246725655
-0.48499852523382286,-0.48499852523382286,1.0002088074352602,0.0003200681057858766
-0.4825688419870858,-0.4825688419870858,1.000350203124119,0.0003204368486451793
-0.48048219262127534,-0.48048219262127534,1.000124038279943,0.00032070281003437857
-0.4793916189031734,-0.4793916189031734,1.0001247953746588,0.0003242839944871187
-0.47821182491898073,-0.47821182491898073,1.0000190924587529,0.00032339017366961613
-0.47664246638014446,-0.47664246638014446,1.0002835974309916,0.00032300609616865933
-0.4753494993230561,-0.4753494993230561,1.0000559344037336,0.0003210348687781626
-0.47388100704702085,-0.47388100704702085,0.9996873704628608,0.00032571810920724314
-0.47160326916127815,-0.47160326916127815,1.0002768780207476,0.00032350920885551603
-0.4698857995950675,-0.4698857995950675,1.000072991779589,0.00031996425943668503
-0.4677639263747551,-0.4677639263747551,0.9999579175601578,0.00032006108074402156
-0.46578606272814793,-0.46578606272814793,0.9994227509147547,0.0003199268028734209
-0.46374161321364227,-0.46374161321364227,1.0000923043349963,0.0003214440745362758
-0.46215364607269294,-0.46215364607269294,0.9996627205238973,0.00032094935794581395
-0.46099142240927904,-0.46099142240927904,1.0000884609729583,0.00032334894478636123
-0.4595828609519231,-0.4595828609519231,1.00016060502193,0.0003211560793700034
-0.4579993049192126,-0.4579993049192126,1.0003646818000056,0.0003228571723550583
-0.4563500991549517,-0.4563500991549517,0.9998674748197308,0.00032377310738117564
-0.4542215944893542,-0.4542215944893542,1.000136999492169,0.0003227095357205054
-0.4515323591025663,-0.4515323591025663,0.9997566469404509,0.00031990960207359763
-0.44950279513504937,-0.44950279513504937,1.0003249832077257,0.00031995865448641847
-0.44700374536696474,-0.44700374536696474,0.9999220320410306,0.0003217579394416527
-0.44513605456158983,-0.44513605456158983,1.00003378464028,0.00032006206120797855
-0.44328543093215556,-0.44328543093215556,0.9994753892060662,0.00032076447037505333
-0.4416948116871936,-0.4416948116871936,1.0003057626633496,0.0003257380107606167
-0.4402966516216111,-0.4402966516216111,1.000781696353552,0.00032183609133473506
-0.4388064760925772,-0.4388064760925772,1.0001721981786922,0.0003236213872880887
-0.437306206690846,-0.437306206690846,0.9999035481740348,0.00032302852051121643
-0.43507341622243983,-0.43507341622243983,0.9996160354753993,0.00032250243512591773
-0.43301633698501973,-0.43301633698501973,0.9998746364978439,0.0003200158067775288
-0.43153752230282405,-0.43153752230282405,0.9997915317742787,0.0003216823430196864
-0.42969321614000366,-0.42969321614000366,1.0002666872878117,0.00031993730519449935
-0.42725199509659434,-0.42725199509659434,0.9999355424742287,0.0003199624359605623
-0.4250463246557047,-0.4250463246557047,1.0003804133978969,0.00032159976897620096
-0.4232227617794706,-0.4232227617794706,1.000131297426423,0.0003208099649462165
-0.421998602864187,-0.421998602864187,0.9999793737280213,0.0003259276597436715
-0.42041968015983,-0.42041968015983,0.9997100319783602,0.0003245703350953976
-0.4190540174677153,-0.4190540174677153,0.9995131834503628,0.0003234748604857229
-0.41723561607286686,-0.41723561607286686,1.0001634974005684,0.00032382286833573657
-0.41488824169427974,-0.41488824169427974,0.99974562942938,0.0003200128899755429
-0.41323510614674885,-0.41323510614674885,1.0000721804858743,0.0003199118364471224
-0.4110702337085968,-0.4110702337085968,1.0001205932159365,0.0003309327964283522
-0.40909193878105726,-0.40909193878105726,0.9999273204177914,0.00032002508150386587
-0.4068866659239575,-0.4068866659239575,1.0000020966618317,0.00032312270088782327
-0.4048833799774002,-0.4048833799774002,1.000175251114761,0.00032116691064829853
-0.4037337723479141,-0.4037337723479141,0.9998789796315959,0.00032432837276091537
-0.402426933201059,-0.402426933201059,0.9995145424756708,0.0003215044574213369
-0.4012524564226624,-0.4012524564226624,1.000765557719021,0.00032482287918566806
-0.3999536661111051,-0.3999536661111051,1.0001573301884459,0.00032466447123312615
-0.39757474933503545,-0.39757474933503545,1.0000311532749098,0.00032418651842548404
-0.3957827272737632,-0.3957827272737632,0.9999523546501123,0.00031995738139592775
-0.393924991163658,-0.393924991163658,1.000210195601731,0.00032007324644252447
-0.3916614518268034,-0.3916614518268034,0.9994000555387705,0.00032267933127804415
-0.38974071715929315,-0.38974071715929315,1.0001292981476604,0.00032157768039398684
-0.3875262621193542,-0.3875262621193542,1.0001618080632535,0.00032193113083149794
-0.3859407566407754,-0.3859407566407754,0.9998251173882409,0.000320604251230898
-0.3848476923798444,-0.3848476923798444,1.0000345495681962,0.00032465487294260347
-0.3835181361740979,-0.3835181361740979,0.9997902964826594,0.00032052060381605865
-0.3821031120198313,-0.3821031120198313,0.9996234317741461,0.00032311472968496593
-0.3803124146950722,-0.3803124146950722,1.0004426635221981,0.00032328483152887946
-0.37764643397749753,-0.37764643397749753,1.000468066599095,0.00032197878979586835
-0.3758600373766967,-0.3758600373766967,1.0000678343137799,0.00032103677061368606
-0.3742248630645918,-0.3742248630645918,0.9995900241962901,0.0003224472883264135
-0.3723300406309136,-0.3723300406309136,0.9994760000515063,0.00032002418893878543
-0.3698433386744,-0.3698433386744,1.0000684467609837,0.0003201379305573041
-0.3676088789419737,-0.3676088789419737,1.00047040141122,0.00032113822761147334
-0.36645053772008396,-0.36645053772008396,1.0002759894114446,0.00032347222888829416
-0.3652939222258283,-0.3652939222258283,1.0000045592113198,0.00032404398142889403
-0.3637423540538293,-0.3637423540538293,1.0000147608997803,0.0003217802735789884
-0.3622338628134457,-0.3622338628134457,1.0003862237687673,0.00032228529890717024
-0.36069811449051487,-0.36069811449051487,1.0006076831991386,0.0003258117104161467
-0.3585083150821447,-0.3585083150821447,1.0002708232578748,0.00031999371033060995
-0.35670360800068013,-0.35670360800068013,0.9994175379873216,0.0003199216415755327
-0.3545816306541383,-0.3545816306541383,0.9998459755392737,0.00032003610100276176
-0.3523341332009295,-0.3523341332009295,1.000140598547056,0.0003198886789239007
-0.3500493012783409,-0.3500493012783409,1.0002559450223811,0.000320419320305657
-0.34848249522983676,-0.34848249522983676,1.000244259734322,0.0003237124376137989
-0.3473227374364797,-0.3473227374364797,1.0000879861685745,0.00032104302690937314
-0.3457608588214498,-0.3457608588214498,0.9997259799433614,0.00032181718836858127
-0.3441927542029589,-0.3441927542029589,1.0001032394782272,0.0003221029909842884
-0.3427705814647197,-0.3427705814647197,0.9996801240963077,0.00032322498043433034
-0.34045079311108567,-0.34045079311108567,1.0001043623221364,0.0003224431314799535
-0.3380639832073939,-0.3380639832073939,1.0000926681595446,0.0003199414767564816
-0.33574883328547,-0.33574883328547,0.9999048528885144,0.000320038110241412
-0.33346929809777065,-0.33346929809777065,0.9994775935678689,0.00032314937671107114
-0.3318951501329138,-0.3318951501329138,0.999930064624377,0.0003204292188724876
-0.3296645845861349,-0.3296645845861349,1.0005573794183342,0.0003207050863539662
-0.32826390655318394,-0.32826390655318394,0.9996514272924026,0.00032572897446113424
-0.3267526137176901,-0.3267526137176901,1.000322782267645,0.00032158398335860165
-0.32514693552002427,-0.32514693552002427,0.999772089290172,0.0003220614202975323
-0.32345399769983485,-0.32345399769983485,1.0000282869767394,0.0003263986297308386
-0.3213748738824506,-0.3213748738824506,1.000063603523525,0.00032006305445627704
-0.3195476899971254,-0.3195476899971254,0.9998976540959188,0.0003199652933667049
-0.3180697814917949,-0.3180697814917949,1.000000521716238,0.0003217344310133841
-0.3159628734523722,-0.3159628734523722,1.0002273727913213,0.000320040948464424
-0.3136864138890815,-0.3136864138890815,0.9999455137143032,0.00031998448443057025
-0.31168518584163396,-0.31168518584163396,1.000097858664286,0.00032323630752833317
-0.3100404211305431,-0.3100404211305431,0.9996145941124039,0.0003207944733528621
-0.3089013233293372,-0.3089013233293372,1.000318832975264,0.00032578203207081653
-0.30768874372588473,-0.30768874372588473,0.9997249275152921,0.0003241359779021197
-0.30646120976671226,-0.30646120976671226,1.0002291727056054,0.00032495770287824434
-0.3048052331309009,-0.3048052331309009,0.9996720043259735,0.0003261707997010831
-0.30273008221702186,-0.30273008221702186,0.9992248412141409,0.0003200316749012779
-0.3006526787445182,-0.3006526787445182,0.9996730878644027,0.0003198837032061144
-0.29882316524235647,-0.29882316524235647,1.000386936360393,0.0003199193164875123
-0.2964229192737548,-0.2964229192737548,0.9997347327878359,0.00031999271103614664
-0.2941073386755306,-0.2941073386755306,0.9998895118404446,0.0003231245091895857
-0.29203602245106597,-0.29203602245106597,1.000060504543551,0.00032054146001099493
-0.29077243739375264,-0.29077243739375264,0.999564234788387,0.00032484100176597254
-0.28952091425526305,-0.28952091425526305,0.9999412373922729,0.0003213201153539045
-0.2883462966128718,-0.2883462966128718,0.9993585856955118,0.00032458727590917684
-0.28703235436987595,-0.28703235436987595,0.9998670516779498,0.0003246756252649085
-0.2847371592310083,-0.2847371592310083,0.9996333320873816,0.00032234560299064714
-0.2822370837966446,-0.2822370837966446,1.00003377490166,0.00031993356935025466
-0.280200746031187,-0.280200746031187,1.0000676532193555,0.0003200728602799765
-0.27815557047724726,-0.27815557047724726,1.0000468638020767,0.00032009862567196584
-0.27619300323713103,-0.27619300323713103,0.999869595785188,0.00032165483058158603
-0.2738627643797372,-0.2738627643797372,0.9997263326124921,0.00032185050123449905
-0.27258471037057463,-0.27258471037057463,1.0002215317558982,0.0003242294176636951
-0.27142300148989307,-0.27142300148989307,0.9992971331470122,0.0003210221423403416
-0.2698724906083953,-0.2698724906083953,1.0004893829982178,0.0003221077961976788
-0.26818134761051626,-0.26818134761051626,1.0003740377623371,0.00032237751730220465
-0.26634328900254334,-0.26634328900254334,0.9999805177656397,0.00032415503482486783
-0.26384652135893705,-0.26384652135893705,0.9996754052082408,0.0003198706047844854
-0.2621373955225863,-0.2621373955225863,0.9998899315042792,0.00032108454663378817
-0.2604610678507015,-0.2604610678507015,0.9997923482415079,0.00032269560292741
-0.2581581278464,-0.2581581278464,0.9999834838741488,0.00032005623412933857
-0.25590119126645733,-0.25590119126645733,1.0000651663455782,0.0003229935078396959
-0.2541175626218319,-0.2541175626218319,1.000188430505252,0.00032069440127869143
-0.2530276106306701,-0.2530276106306701,0.9999418042828758,0.00032416897928170955
-0.2517935083662451,-0.2517935083662451,1.0000048230620766,0.00032042411858629506
-0.25027731362206396,-0.25027731362206396,0.9995917379691628,0.0003228877291722653
-0.24877743296092375,-0.24877743296092375,1.0004814607375612,0.0003230224688637143
-0.24706483699555976,-0.24706483699555976,1.0002412620007217,0.0003237652565745796
-0.24427052340688532,-0.24427052340688532,0.9997894748665445,0.00031988567042713645
-0.24234814354858827,-0.24234814354858827,0.9999897825715849,0.00032000563215859543
-0.23999710160424,-0.23999710160424,0.9998701100191635,0.00032007754901366075
-0.23777234336084802,-0.23777234336084802,1.000065778616857,0.00031993689017580085
-0.23578984817650053,-0.23578984817650053,1.0003065954679564,0.00032089770820929974
-0.2346583502301655,-0.2346583502301655,0.9999150563171426,0.00032607736293187485
-0.23354171041282826,-0.23354171041282826,0.9997900620563491,0.0003211384463042079
-0.2319126856586081,-0.2319126856586081,1.000200069545397,0.00032167877767873195
-0.2303114775728318,-0.2303114775728318,1.0001188337668865,0.0003240538210426675
-0.22843232845771128,-0.22843232845771128,1.000043808201502,0.00032528504280015163
-0.2264741763319762,-0.2264741763319762,0.9999323531029891,0.0003200524817849669
-0.2245711431198288,-0.2245711431198288,0.999616454985615,0.00031993042173071817
-0.222394826112577,-0.222394826112577,1.0003383014793115,0.000319984336214407
-0.2202739901309542,-0.2202739901309542,1.000070005404336,0.00032162911869381
-0.21823302577613504,-0.21823302577613504,0.9992661089832746,0.0003202457151464936
-0.21612773293527426,-0.21612773293527426,1.0000479887385094,0.00032075069313133224
-0.21480402654924546,-0.21480402654924546,0.9997609897349571,0.0003258174515437574
-0.21326606403745246,-0.21326606403745246,0.9998389737393447,0.0003215329969461033
-0.21194350158184533,-0.21194350158184533,0.9998425629405056,0.0003221081990669566
-0.2102707982288848,-0.2102707982288848,0.999695426147734,0.00032635198301905657
-0.208192108223011,-0.208192108223011,1.000340767854496,0.00031999089989710863
-0.20636544497174328,-0.20636544497174328,0.999710329971224,0.00031986507713137205
-0.20488737769774162,-0.20488737769774162,0.9995537071338356,0.00032173079241392376
-0.20279325144074392,-0.20279325144074392,0.9999611601886971,0.00032159752972459683
-0.20088811493042158,-0.20088811493042158,0.999659838056429,0.00031986320858554904
-0.19868258140413672,-0.19868258140413672,1.0001637118512092,0.0003215390069964966
-0.19685807926289273,-0.19685807926289273,0.9997657890149533,0.0003208896019997373
-0.19563350687385536,-0.19563350687385536,0.9998471164825731,0.00032579707852300555
-0.19405451556303888,-0.19405451556303888,0.9995964402065385,0.00032449760721190416
-0.19268780340498778,-0.19268780340498778,0.9995482165316302,0.000323408258077665
-0.19086903953793807,-0.19086903953793807,1.0000252530996625,0.0003237046286676332
-0.18892855240992504,-0.18892855240992504,1.0000799369968731,0.0003216794867913756
-0.18721055615096702,-0.18721055615096702,1.000160760666151,0.00031997445750773455
-0.1855995809964952,-0.1855995809964952,0.9999334058783024,0.000319929497733464
-0.18324097448639803,-0.18324097448639803,0.9999788345803002,0.0003201500047300735
-0.18092516772376258,-0.18092516772376258,0.9997486948422081,0.0003231406576221813
-0.17885416630888357,-0.17885416630888357,0.9999064309150109,0.00032053216619945296
-0.17758998289864394,-0.17758998289864394,0.9995413261080854,0.00032480381932030705
-0.17633792789420114,-0.17633792789420114,1.0004192719412985,0.0003213773696066892
-0.17516371340607292,-0.17516371340607292,0.9999935736254013,0.0003246072077463873
-0.1738492262418731,-0.1738492262418731,1.0005030641855535,0.00032462495887184296
-0.171553907849011,-0.171553907849011,1.0001262836936962,0.0003225093146067749
-0.16887982372063562,-0.16887982372063562,0.999619338411015,0.0003198886686643997
-0.16651879558557994,-0.16651879558557994,1.0001104098080167,0.0003199368403546649
-0.1647430471755797,-0.1647430471755797,0.9998040077335997,0.0003201118219276401
-0.16312351775341086,-0.16312351775341086,0.9998036097667716,0.0003250974234074826
-0.1611625392069982,-0.1611625392069982,0.9996199934693539,0.0003217581028188817
-0.15957610963960178,-0.15957610963960178,1.0003076579729668,0.0003207135875311172
-0.15868958763603586,-0.15868958763603586,1.0002717239841616,0.00032749114887279556
-0.15732666668482126,-0.15732666668482126,1.0004543755544382,0.00032138481256641186
-0.15573794469164567,-0.15573794469164567,1.0000554803260957,0.0003231514847210306
-0.15394629959919257,-0.15394629959919257,0.9998980022779118,0.0003232414030855825
-0.15113374414868302,-0.15113374414868302,0.9999301954926778,0.00031982320887087985
-0.1492185327268089,-0.1492185327268089,1.0003255302911083,0.00032115501214309013
-0.14779035351093625,-0.14779035351093625,1.000062584228548,0.0003217315968779313
-0.14545266780114616,-0.14545266780114616,1.0004637368970557,0.00032013759829253765
-0.14302534789312632,-0.14302534789312632,0.9996771983221955,0.00032037254772264293
-0.14093524838244775,-0.14093524838244775,0.9994206779283576,0.00032056888477954707
-0.13984560573662747,-0.13984560573662747,0.9999533549071357,0.00032420231142690634
-0.1384060991491424,-0.1384060991491424,1.0007855788038602,0.00032150392418207316
-0.13674424461714807,-0.13674424461714807,0.9998769460829443,0.0003224444787798154
-0.13534749502432533,-0.13534749502432533,0.999820716957772,0.00032331815726431855
-0.13331982381132548,-0.13331982381132548,0.9998349740708651,0.00032270560195748685
-0.13062531074538128,-0.13062531074538128,1.0002721342727772,0.00031997719806222476
-0.12878553964183084,-0.12878553964183084,0.9995795071976005,0.0003199780973728502
-0.12633913745812606,-0.12633913745812606,1.0001424329035524,0.0003200079282411509
-0.12416684595737024,-0.12416684595737024,0.9999598332755916,0.0003204363749255931
-0.12229037987053744,-0.12229037987053744,0.9998499906589098,0.0003235454215770645
-0.12095802000912954,-0.12095802000912954,1.0003006953824845,0.0003209886042857642
-0.11964306337977178,-0.11964306337977178,0.9996012335165263,0.00032377452825360994
-0.11809653406380675,-0.11809653406380675,0.9997867891780882,0.000322368439177103
-0.1165595018552267,-0.1165595018552267,1.0003442971067122,0.0003233101687981311
-0.11517874682540423,-0.11517874682540423,0.9996759041284731,0.0003252105470921986
-0.11245031658399966,-0.11245031658399966,1.000005835797196,0.00031991682347407523
-0.11063187616891809,-0.11063187616891809,0.9994864190168595,0.00032184099314497435
-0.10901754426959087,-0.10901754426959087,0.9995143692172826,0.0003199017247847437
-0.1070918197852734,-0.1070918197852734,0.999760117851593,0.000321636369410731
-0.1050514036869572,-0.1050514036869572,1.0002073028237894,0.0003204357553974852
-0.10294585887968424,-0.10294585887968424,1.0000002037435225,0.0003207345590534398
-0.10162149251846131,-0.10162149251846131,1.000086744863633,0.00032583415349075656
-0.100083111377171,-0.100083111377171,0.9998658055405683,0.0003214651935069665
-0.09848538439691765,-0.09848538439691765,0.9997558120391972,0.00032390835426003713
-0.09673476887110155,-0.09673476887110155,0.9998082888601892,0.0003245445046090737
-0.09456431480502943,-0.09456431480502943,1.00006843268021,0.00032289047706532745
-0.09318320146485348,-0.09318320146485348,0.999939946400352,0.00032000653957611525
-0.09170497632876504,-0.09170497632876504,0.999741609254601,0.0003216776582162659
-0.08995495223643957,-0.08995495223643957,0.9995715017235417,0.00031996182984638373
-0.08770617500049412,-0.08770617500049412,0.9999523032439754,0.0003200237422204436
-0.08517226439653314,-0.08517226439653314,1.0000416435924993,0.00032039193210188586
-0.0836479113997484,-0.0836479113997484,1.000385458948621,0.0003224432327771002
-0.0824509603982733,-0.0824509603982733,0.9999255715240517,0.0003257766660986365
-0.08099825572644477,-0.08099825572644477,1.0003986992492242,0.0003218068200154828
-0.0798223958532617,-0.0798223958532617,0.9997855313724523,0.00032539078219047575
-0.07793241946419585,-0.07793241946419585,0.9996925648558193,0.0003232891180921664
-0.07574565166214597,-0.07574565166214597,0.9998425801305354,0.00032159440067557326
-0.07402829624770675,-0.07402829624770675,1.0000328054174374,0.0003199617275062824
-0.07238315052818507,-0.07238315052818507,1.000124577722175,0.0003211865708614444
-0.07005903121607844,-0.07005903121607844,0.9996837114602304,0.0003200647658288325
-0.06789375283187837,-0.06789375283187837,1.000142418122158,0.00032415521914823094
-0.06602883569576079,-0.06602883569576079,0.9998772708245788,0.0003204696810794739
-0.06461359296808951,-0.06461359296808951,0.9997600787875902,0.00032471343065178503
