time,time,flux,flux_err
-0.4999597497142531,-0.4999597497142531,1.000170955000724,0.00014649773011267327
-0.4997987480932352,-0.4997987480932352,1.000366482995796,0.00015122102240871136
-0.4996509465825511,-0.4996509465825511,1.0001506161936455,0.00014085844779147873
-0.4995094977977715,-0.4995094977977715,1.0007630063907575,0.0001454714796841142
-0.49934252941093293,-0.49934252941093293,1.000519182815954,0.00013989808749024238
-0.49922820508727456,-0.49922820508727456,1.0001578718129438,0.00014821621572322228
-0.49910031694089413,-0.49910031694089413,1.0006058484307139,0.00014451714560878543
-0.4990312354042544,-0.4990312354042544,1.0012924739519797,0.00014908950590848016
-0.49896852396741453,-0.49896852396741453,1.0002216776044555,0.0001477039031853008
-0.4987768169172341,-0.4987768169172341,1.0006263276389569,0.00014781950266489445
-0.49856521584952135,-0.49856521584952135,1.0006633418830613,0.00015399168016398034
-0.49846285655476097,-0.49846285655476097,1.000499090985672,0.00014611539426705346
-0.49839283498949954,-0.49839283498949954,1.0019155076945057,0.00014390485226686018
-0.49833001942060945,-0.49833001942060945,1.0006849518747096,0.00014471440514623543
-0.4982250567256415,-0.4982250567256415,0.9998870183591505,0.00013763949407032328
-0.498061039370441,-0.498061039370441,1.0006751638535358,0.00014771690060369033
-0.49798726660046666,-0.49798726660046666,1.0001602884277716,0.0001509617351753087
-0.4978894384265004,-0.4978894384265004,1.0000713034039799,0.0001451918012713026
-0.4977619706412952,-0.4977619706412952,1.0005452730526199,0.00014337621077843178
-0.49764793468893914,-0.49764793468893914,1.0004905688774317,0.00013789507657790148
-0.4975325462248293,-0.4975325462248293,1.0004402905436973,0.00014510892814879943
-0.4973842559196783,-0.4973842559196783,0.9999281872983069,0.00014740001706270005
-0.49729387076113196,-0.49729387076113196,0.9995440213446045,0.00014915811684440078
-0.49717857351315614,-0.49717857351315614,0.999979662104218,0.00014848534936414085
-0.49704926621307094,-0.49704926621307094,1.000040205356798,0.00014191972135177365
-0.49694191771559415,-0.49694191771559415,1.0003363549006692,0.00014554201596182265
-0.4968229837861145,-0.4968229837861145,0.9999324707648265,0.00014721513045943123
-0.49672722076793435,-0.49672722076793435,1.0005214343759286,0.00014107618165971815
-0.49658951168021304,-0.49658951168021304,1.0002881983582779,0.00014692508401846488
-0.4965157000373438,-0.4965157000373438,1.0006730265031636,0.00014361447886350622
-0.4964092684993375,-0.4964092684993375,1.0005222486459886,0.00014627676111952765
-0.4963276818343729,-0.4963276818343729,1.0001458495212698,0.0001500728467721181
-0.4962838272927911,-0.4962838272927911,1.0004330238058476,0.00014128290022600578
-0.49621147264188037,-0.49621147264188037,1.0000976669013966,0.00014795433164615043
-0.49606982426921603,-0.49606982426921603,1.0010530541039118,0.00014806871588093941
-0.4959512919544068,-0.4959512919544068,0.9994836707941059,0.00014199655141010668
-0.4957031286241545,-0.4957031286241545,1.0002574961014703,0.00014946344455490096
-0.49559941028091997,-0.49559941028091997,1.0004552572202186,0.0001455335299029752
-0.4955226968475472,-0.4955226968475472,1.000801176606576,0.00014558223446833706
-0.4954252053681557,-0.4954252053681557,1.0004966942946396,0.00014882825196665535
-0.4952722756628646,-0.4952722756628646,0.9998069418082443,0.00014350845923525576
-0.4951428734129877,-0.4951428734129877,1.0008561495821842,0.00014013162936028867
-0.4950043649907457,-0.4950043649907457,1.0005222694686886,0.00014388793680739784
-0.4949150380001811,-0.4949150380001811,0.9998280655805157,0.0001465393094398956
-0.4948816911142785,-0.4948816911142785,1.0004656221099137,0.00014685923130846365
-0.4947833998769056,-0.4947833998769056,1.0008699995561268,0.0001514337035271908
-0.49461296156368917,-0.49461296156368917,1.0006210859995301,0.000142400825542516
-0.4945443295866426,-0.4945443295866426,1.001141813026893,0.0001525050612786435
-0.4945184599466302,-0.4945184599466302,1.000012780102709,0.00014849599450300453
-0.494457947560295,-0.494457947560295,1.0003460130404647,0.0001510329533888748
-0.49436325899769146,-0.49436325899769146,1.0000507097473654,0.0001439053008599265
-0.4942650089113158,-0.4942650089113158,1.0007888370589189,0.00014260616469756232
-0.4940460450859973,-0.4940460450859973,1.000201798018503,0.00014564869342789124
-0.4937968563885079,-0.4937968563885079,1.0006089111285699,0.00014546569477971234
-0.4936880226166977,-0.4936880226166977,1.0010092871771201,0.0001408583196375827
-0.4935499646777316,-0.4935499646777316,1.0007079718853382,0.00014625823904038966
-0.4934758533101558,-0.4934758533101558,1.000654542545054,0.00014875807688462183
-0.4934180241991271,-0.4934180241991271,1.0002435598226342,0.00014514839467158898
-0.49319963952584656,-0.49319963952584656,1.000006120665578,0.00014786246671137394
-0.493038217578578,-0.493038217578578,1.0005271622442895,0.0001454023797714333
-0.49296987165616885,-0.49296987165616885,1.0000914943164818,0.00014610473153489758
-0.4928876870879321,-0.4928876870879321,1.0005377913545286,0.00015498965168875148
-0.49283209975801584,-0.49283209975801584,1.0006255413270457,0.00014797184875066195
-0.49275170929249723,-0.49275170929249723,1.0003803727796274,0.0001451517853508629
-0.49250119094285766,-0.49250119094285766,1.0003286563458131,0.00014903445966795833
-0.49241142333848986,-0.49241142333848986,1.000038731622062,0.00014137923544116593
-0.4923531311334955,-0.4923531311334955,1.0003440344236085,0.00014092535350122474
-0.49222390719551185,-0.49222390719551185,1.000384846482334,0.0001467423046294554
-0.4921006618977117,-0.4921006618977117,1.000539267776427,0.0001476594793756414
-0.49203382241248617,-0.49203382241248617,1.000501390532853,0.0001472050810638129
-0.49185907712089827,-0.49185907712089827,1.0001640694097413,0.00014118818324031067
-0.49177985879359765,-0.49177985879359765,1.0005580060841477,0.0001494184883131629
-0.4915915577515989,-0.4915915577515989,1.000280818259043,0.00014778276039605418
-0.4914763359927747,-0.4914763359927747,1.0007021155654026,0.0001471935688041602
-0.49141879032540603,-0.49141879032540603,1.000557764005245,0.0001462436565721864
-0.49131148365631816,-0.49131148365631816,1.000055873521615,0.00015227086295802956
-0.49119664710669897,-0.49119664710669897,1.0002380594600895,0.00014643387188197315
-0.4909520701650763,-0.4909520701650763,1.000562526086477,0.000146024573585412
-0.49083138086862166,-0.49083138086862166,1.0004453378721738,0.00014650629410213595
-0.4907389303705713,-0.4907389303705713,1.0001907757114068,0.0001473239487752318
-0.4906982092277758,-0.4906982092277758,1.0004694694344305,0.0001447065907444394
-0.4905710995091795,-0.4905710995091795,1.0005919370428065,0.00014429053563844654
-0.49046946430316896,-0.49046946430316896,0.9998944441928828,0.00014440180123800368
-0.49030239605053794,-0.49030239605053794,0.999889627728777,0.00014880674857997492
-0.4902199524753087,-0.4902199524753087,0.9998709500095707,0.0001458067599070804
-0.49004838971814024,-0.49004838971814024,1.0001403180762276,0.00014117864020236703
-0.4899581300043792,-0.4899581300043792,1.0005830839160743,0.0001454984290471192
-0.48982631446488084,-0.48982631446488084,1.0002984593925652,0.00014792025597201583
-0.48970433667636826,-0.48970433667636826,1.0007620872121692,0.0001486886430654395
-0.4896075700678921,-0.4896075700678921,1.0006279377077512,0.00014831874062172225
-0.4894217489672883,-0.4894217489672883,1.0006664456260836,0.00014306426437841454
-0.489286315100253,-0.489286315100253,0.9997971615531649,0.00014519241787681292
-0.48916609065709055,-0.48916609065709055,1.0002618851833716,0.0001476483321238944
-0.4890539764048299,-0.4890539764048299,1.0003730429504931,0.00014181955645922633
-0.48900312130426754,-0.48900312130426754,1.0002421120866827,0.00014970867225917243
-0.4889052493221243,-0.4889052493221243,0.999810676738534,0.00014494084735081956
-0.4887577580135257,-0.4887577580135257,1.0005361447685595,0.00015013902919444128
-0.4886810363641416,-0.4886810363641416,1.0001155489932942,0.00014858473888575992
-0.4886158627232362,-0.4886158627232362,1.000614905215046,0.00014267550432426048
-0.4884633133213356,-0.4884633133213356,0.9998669364311693,0.00014515312513697546
-0.4883458379677904,-0.4883458379677904,1.0003304059204108,0.00014103484341729085
-0.48824418270341996,-0.48824418270341996,0.9997190781218253,0.00014391383902193812
-0.4880431971148937,-0.4880431971148937,0.9999272356277084,0.00014894394557619857
-0.4879590132397425,-0.4879590132397425,1.0004257822423939,0.00014510906197145326
-0.48781825648911764,-0.48781825648911764,1.0003289007031244,0.00014590866482932965
-0.487670429879654,-0.487670429879654,1.0004372342538344,0.00014018035466015276
-0.4874637801218341,-0.4874637801218341,1.0006190650478337,0.0001476621894098296
-0.48733955665484247,-0.48733955665484247,1.0001113178154994,0.0001448636633046274
-0.4872250580581749,-0.4872250580581749,1.0004402815801618,0.00014507242893171322
-0.4871716113906587,-0.4871716113906587,1.0002978895631862,0.0001485216882897293
-0.4870226536742848,-0.4870226536742848,1.0000198525421458,0.00014268574158750514
-0.4869104844328831,-0.4869104844328831,1.0007069038467207,0.00014777933095128508
-0.4868784951355337,-0.4868784951355337,1.000614680737705,0.0001493088120386238
-0.4868184030714474,-0.4868184030714474,1.0001294496680824,0.00015014309966876756
-0.48672924404017975,-0.48672924404017975,1.0002220495217267,0.00014864177926373164
-0.48660449740382317,-0.48660449740382317,0.9997881153329494,0.00014593882896031838
-0.4863183922992903,-0.4863183922992903,1.00040945347837,0.00014715161278825115
-0.48615778157982276,-0.48615778157982276,0.9999954193586842,0.0001459590785976372
-0.4860536237647466,-0.4860536237647466,1.0005989596516407,0.000144699453784939
-0.48594587431507535,-0.48594587431507535,1.0004495205873654,0.00014253616632207083
-0.4858068125628051,-0.4858068125628051,1.0005687158580696,0.00014646992777839495
-0.4856791797246842,-0.4856791797246842,1.0004869635681566,0.000147494075772634
-0.48554099258726635,-0.48554099258726635,1.0006484703882639,0.00014537002179547482
-0.48534759522917736,-0.48534759522917736,1.0000233820658018,0.00014692673087084317
-0.4853147379380971,-0.4853147379380971,1.0008309517842309,0.00015401132054735782
-0.48524934250162916,-0.48524934250162916,1.0000217234743292,0.00014706398242443996
-0.48519237787186287,-0.48519237787186287,1.0000139645532422,0.00014552726919532814
-0.4851157882916596,-0.4851157882916596,1.0001718118722356,0.0001469392713577528
-0.48484901582996826,-0.48484901582996826,1.000039050409701,0.0001463600480615729
-0.48468920196937687,-0.48468920196937687,1.0003912628580593,0.00014333126788543068
-0.48458742184448056,-0.48458742184448056,0.999937042062256,0.00014857981192512758
-0.48449393005575986,-0.48449393005575986,0.9999696914248503,0.00014627817348094555
-0.4844206096473499,-0.4844206096473499,0.9994070405661881,0.00014748225378346687
-0.4843795377535571,-0.4843795377535571,1.0003852933673774,0.00014333676103377803
-0.48427090138065976,-0.48427090138065976,1.0002828725020332,0.00014813181017909874
-0.48414382008340906,-0.48414382008340906,1.0007341950072366,0.00014127260206911774
-0.48403098753260565,-0.48403098753260565,1.0003411999762324,0.00014408916501061855
-0.4838468089845264,-0.4838468089845264,1.0002672661733158,0.00014766465343220487
-0.4837858324222907,-0.4837858324222907,1.0003610544003236,0.00014564532133263798
-0.48369014582640374,-0.48369014582640374,1.0004880318183136,0.0001494278823598831
-0.48361983568247524,-0.48361983568247524,1.0006608899038623,0.00015243714379746938
-0.4835098785559239,-0.4835098785559239,1.0007957160291212,0.0001428783975078698
-0.4834074452723144,-0.4834074452723144,1.0004172876566686,0.00014661834945327786
-0.4832873414405185,-0.4832873414405185,1.0001029797053775,0.00014767484252819818
-0.48323585887301307,-0.48323585887301307,1.0000296359931056,0.00014376891265236637
-0.48315483392070746,-0.48315483392070746,1.000310571207745,0.00014665693975815126
-0.48307625453380754,-0.48307625453380754,1.0005247903509642,0.00014550917102411096
-0.4829940173207433,-0.4829940173207433,1.0007371382755443,0.00015258827428767262
-0.48288336552177497,-0.48288336552177497,1.0002041533250883,0.00014970834737397954
-0.48275836871616773,-0.48275836871616773,1.0005768851379817,0.00014309135322635661
-0.4825715454302554,-0.4825715454302554,1.0000728816500548,0.00014656326023403048
-0.48241121130486136,-0.48241121130486136,1.000003321796789,0.0001476171681134847
-0.48233908521870034,-0.48233908521870034,1.0002459806151933,0.00014597448725052573
-0.48222596275008983,-0.48222596275008983,1.0006053686203598,0.00014481344298375963
-0.48209690889852935,-0.48209690889852935,0.9999093374391892,0.00014588050808871962
-0.4819873823755188,-0.4819873823755188,1.0001157173134243,0.00015225753595766347
-0.48168954404463876,-0.48168954404463876,1.0002369325608158,0.00014024411920921228
-0.4815752782353229,-0.4815752782353229,1.0003378896866635,0.00014916897268695207
-0.4814834767006687,-0.4814834767006687,1.0000305875888231,0.00014709388016556047
-0.48140756691536807,-0.48140756691536807,1.0007701138305296,0.00014565659172911355
-0.48136348971165716,-0.48136348971165716,0.9998935174006794,0.00015207414022924836
-0.48124151790216274,-0.48124151790216274,0.9994896739162336,0.000142789439268618
-0.48114092395044283,-0.48114092395044283,1.0002287448414697,0.0001425173137313421
-0.48107062205890544,-0.48107062205890544,1.0005581496297373,0.00015348533191278946
-0.48098637116345344,-0.48098637116345344,1.0006927412197064,0.00014541847975309814
-0.48085785992916497,-0.48085785992916497,1.0008610665051862,0.00013964108478972163
-0.48073615009489,-0.48073615009489,1.001015001630108,0.0001470239171603778
-0.4806350775244937,-0.4806350775244937,1.0000985648423468,0.00014428271467033737
-0.48050885863922305,-0.48050885863922305,1.000510824552395,0.0001492033176239917
-0.4803508323326241,-0.4803508323326241,1.0007251594906557,0.000145363374700215
-0.480221312271533,-0.480221312271533,1.0005405964661878,0.0001459556511230958
-0.4800620156031073,-0.4800620156031073,0.9997121104152692,0.00014472010697415887
-0.47995054993007213,-0.47995054993007213,1.0001754190152505,0.00014790835006980375
-0.47984894000546774,-0.47984894000546774,1.0002969934538155,0.00014900256414752727
-0.47975509104289815,-0.47975509104289815,1.000284669516903,0.00014395885421163753
-0.4796285245254694,-0.4796285245254694,0.9998967204197537,0.0001442969059243559
-0.47954026251063625,-0.47954026251063625,1.0002125888542772,0.00014740931640325222
-0.47946778319674194,-0.47946778319674194,1.0007416465111474,0.00014443031824341488
-0.47937515542544135,-0.47937515542544135,1.0007955625626572,0.00014521845150784315
-0.4792956374010828,-0.4792956374010828,1.0007369550508147,0.00015846099473718024
-0.4792280558824132,-0.4792280558824132,1.0004329946510273,0.00015232518316124849
-0.4791397836426768,-0.4791397836426768,1.0001672990794794,0.000146736712554275
-0.4790659657755896,-0.4790659657755896,1.0000124097535346,0.0001483996912496133
-0.47888292350326084,-0.47888292350326084,1.000341316629153,0.00014339519521512327
-0.4786537047068123,-0.4786537047068123,1.0000832965891862,0.0001491682012351114
-0.47853246092090557,-0.47853246092090557,1.0000950835518203,0.00014261346400961883
-0.4784113341356715,-0.4784113341356715,1.0003604143418667,0.0001459480636077717
-0.4783215550938621,-0.4783215550938621,1.0000892799366823,0.00014458821135420957
-0.47820640098216244,-0.47820640098216244,1.000576826580877,0.00014816987567904633
-0.47808267840555346,-0.47808267840555346,1.0008150554716422,0.00014245601344865932
-0.4780237666804169,-0.4780237666804169,1.0000744934767565,0.00014767549449923003
-0.47795164763738285,-0.47795164763738285,1.000795565089252,0.00015220601829084567
-0.47787007723964053,-0.47787007723964053,1.0000416276785498,0.00014445452366011893
-0.4777186635379621,-0.4777186635379621,1.0002089321637058,0.00014800725729707757
-0.4776290734007489,-0.4776290734007489,1.0007166728727832,0.00014767998034907458
-0.4775760994802113,-0.4775760994802113,0.9999373888420667,0.0001513188604377104
-0.47752834335442457,-0.47752834335442457,1.0005046057076823,0.00014210091432869583
-0.477435242071806,-0.477435242071806,1.000862432240255,0.00014664652754332554
-0.4773131051872042,-0.4773131051872042,1.0005222473582367,0.00014374947032137455
-0.4770867113322311,-0.4770867113322311,0.999715264449571,0.0001455401294714752
-0.47693416702313696,-0.47693416702313696,1.0005028586159614,0.00014131320225731518
-0.4768289654806722,-0.4768289654806722,1.0003491615877549,0.00014100054306743356
-0.4767383558319125,-0.4767383558319125,1.0005308139137763,0.00014876668335408658
-0.476655335065152,-0.476655335065152,0.9992466247805606,0.00014506328671214908
-0.47656822785902475,-0.47656822785902475,1.0000828355405105,0.00014955530357027975
-0.4764454798962106,-0.4764454798962106,1.000325299462946,0.00014467246918266864
-0.47628463609798927,-0.47628463609798927,1.0001443366370206,0.0001477519944929209
-0.476161782068084,-0.476161782068084,1.0012140679868384,0.00014686335617138764
-0.47611412986152574,-0.47611412986152574,1.0005434803898594,0.00014626604944120822
-0.4760389375478553,-0.4760389375478553,1.0001052410202806,0.00014819329944670354
-0.47597512110733076,-0.47597512110733076,1.0001887008326658,0.00015125295050225616
-0.4757916973219835,-0.4757916973219835,1.0005030548403444,0.00014871374064487025
-0.47561311005047174,-0.47561311005047174,1.0009218126450339,0.00014605329838246237
-0.4755615604652121,-0.4755615604652121,1.0000305584585703,0.00014849423287750888
-0.47550849232356995,-0.47550849232356995,1.0002348984267662,0.00014004477642774567
-0.47543848517598236,-0.47543848517598236,1.0004455483208818,0.0001431223280210133
-0.4753090387690463,-0.4753090387690463,1.0001826248456147,0.00015192288640695549
-0.4751298532377405,-0.4751298532377405,1.00002593932413,0.00014308814918161192
-0.4749288682665792,-0.4749288682665792,0.9997461029209098,0.00014742672446702333
-0.47472466862018337,-0.47472466862018337,1.0006724865943197,0.00014458527678641342
-0.47464080248828394,-0.47464080248828394,0.9995209788660796,0.00014695233690729392
-0.4745118207010819,-0.4745118207010819,1.0007297830052428,0.00014191505670295526
-0.47447084261293637,-0.47447084261293637,1.0003776628423842,0.00014502991382301587
-0.4743814847308386,-0.4743814847308386,1.0007284234063683,0.00015040395361754077
-0.47418322065277607,-0.47418322065277607,1.0003433515593645,0.00014557456903245748
-0.4739795597663033,-0.4739795597663033,1.0001757650732923,0.0001465685144911002
-0.4739068745780969,-0.4739068745780969,1.0007234585435938,0.0001466159521407399
-0.4738419679037179,-0.4738419679037179,1.000659176917889,0.00014257135057738258
-0.4737815945500188,-0.4737815945500188,1.0002843422550358,0.00014643802647952315
-0.47368522762517384,-0.47368522762517384,0.9998325773040555,0.00013896408989932127
-0.4735296888979065,-0.4735296888979065,1.000509953106105,0.00014045557404130028
-0.47344303260179005,-0.47344303260179005,1.0001604606124423,0.00015304605093706384
-0.47336759358840935,-0.47336759358840935,0.999287719541117,0.00014593810330033305
-0.4733243947230221,-0.4733243947230221,0.9999441479231124,0.00014736899979518316
-0.4731501204994856,-0.4731501204994856,1.0001505633011774,0.0001379347722369577
-0.4730402701556159,-0.4730402701556159,0.9999070845411009,0.00014607545831394833
-0.47288529483521413,-0.47288529483521413,1.000337889347132,0.00014434324600075867
-0.47274693829313036,-0.47274693829313036,0.9999878812827545,0.0001512257158568894
-0.47255415241306764,-0.47255415241306764,0.9998340444352672,0.00014241534873353116
-0.47245175801908773,-0.47245175801908773,1.0004058249333763,0.00014328710880328574
-0.4723263701733231,-0.4723263701733231,1.000196449894923,0.0001458709733347184
-0.4722397337412986,-0.4722397337412986,1.0004864403765725,0.00013901731376315295
