time,time,flux,flux_err
-0.05881261229519952,-0.05881261229519952,1.000019078127518,5.280446560223209e-05
-0.05862374822991375,-0.05862374822991375,0.9999851501043029,5.114580978040949e-05
-0.05843695958145304,-0.05843695958145304,0.9999868199507053,5.11544845843653e-05
-0.058265736643798326,-0.058265736643798326,1.0000212965187982,4.669976746697843e-05
-0.0581100794199763,-0.0581100794199763,0.9999960083731173,4.670358538475247e-05
-0.05795442218938955,-0.05795442218938955,0.9999737321692251,4.6710055692606876e-05
-0.05779876495262517,-0.05779876495262517,1.0000253382119113,4.671517345187255e-05
-0.05764310771011907,-0.05764310771011907,0.9999715934001818,4.671707320192772e-05
-0.05748745046229118,-0.05748745046229118,1.0000026845683037,4.671870783839782e-05
-0.057331793209578305,-0.057331793209578305,1.0000228167516512,4.67231631325779e-05
-0.057176135952501636,-0.057176135952501636,0.9999673673256411,4.6719836236973294e-05
-0.057020478691355334,-0.057020478691355334,1.0000216562681001,4.67221660980368e-05
-0.05686482142653428,-0.05686482142653428,1.000009279163603,4.672780673095839e-05
-0.05670916415837333,-0.05670916415837333,1.0000334924031191,4.673186305958704e-05
-0.05655350688722791,-0.05655350688722791,0.999964257976732,4.673401805088453e-05
-0.056397849613368224,-0.056397849613368224,0.9999846744698091,4.673615998522338e-05
-0.05624219233708701,-0.05624219233708701,1.0000170877087242,4.673567863122481e-05
-0.056086535058656926,-0.056086535058656926,1.0000314864138826,4.6735210167074735e-05
-0.05592788915855511,-0.05592788915855511,1.0000551422545934,4.6734626559882784e-05
-0.05576899420516686,-0.05576899420516686,0.9999257744022139,4.6736837444009444e-05
-0.05561333692174575,-0.05561333692174575,1.000058105882236,4.674386637238118e-05
-0.055457679637178,-0.055457679637178,0.9999744157244084,4.6743476915679884e-05
-0.05530202235158619,-0.05530202235158619,1.0000126018406026,4.674507532882542e-05
-0.055146365065181155,-0.055146365065181155,0.9999993315203511,4.674538197896764e-05
-0.05499070777812918,-0.05499070777812918,0.999984090732679,4.674499121993105e-05
-0.0548350504906379,-0.0548350504906379,1.0000435691554872,4.674768375204392e-05
-0.054679393202772174,-0.054679393202772174,0.9999388300866338,4.674716841528613e-05
-0.05452373591482083,-0.05452373591482083,1.000078585522603,4.675086188316771e-05
-0.05436807862668349,-0.05436807862668349,0.9999384730803857,4.675054523390184e-05
-0.05420744030558104,-0.05420744030558104,1.000045894324677,4.675557686978867e-05
-0.05404431146819526,-0.05404431146819526,0.9999748346645634,4.675309953601069e-05
-0.05388865418089175,-0.05388865418089175,1.0000341995097106,4.6757626791162016e-05
-0.053732996893776884,-0.053732996893776884,0.9999540696713115,4.675794103460727e-05
-0.05357733960737114,-0.05357733960737114,1.0000366521607744,4.676253655419905e-05
-0.05342168232167559,-0.05342168232167559,0.9999869705034697,4.6764319183317656e-05
-0.05326602503664794,-0.05326602503664794,1.0000169135202646,4.677201184563819e-05
-0.053110367752475976,-0.053110367752475976,1.000013111702959,4.6774075406359864e-05
-0.05295471046926483,-0.05295471046926483,1.0000462615118524,4.677713957548673e-05
-0.05279905318690847,-0.05279905318690847,0.9999597891131128,4.677441199638459e-05
-0.05263866392431336,-0.05263866392431336,1.000029989129842,4.6775807688058523e-05
-0.05247528604317768,-0.05247528604317768,0.9999621536436528,4.677324227961953e-05
-0.05231962876428877,-0.05231962876428877,1.0000125945948775,4.677466270307492e-05
-0.052163971486713125,-0.052163971486713125,1.0000315636860577,4.6777171383568066e-05
-0.05200831421041059,-0.05200831421041059,0.9999769362407127,4.677594022776426e-05
-0.05185265693550711,-0.05185265693550711,1.0000004897479902,4.677535791309873e-05
-0.051696999661960244,-0.051696999661960244,1.000021682328642,4.6768760206764926e-05
-0.05154134238989609,-0.05154134238989609,0.9999545958759614,4.6766153089853287e-05
-0.05138568511937578,-0.05138568511937578,1.000014072160669,4.67619927681638e-05
-0.05123002785042115,-0.05123002785042115,0.999955770656171,4.67574755552364e-05
-0.0510738724797136,-0.0510738724797136,1.0000261870812952,4.675831821648703e-05
-0.05091248702663602,-0.05091248702663602,0.9999594343450628,4.6758561772004344e-05
-0.05074412812996805,-0.05074412812996805,0.9999768823370646,4.6761310742036325e-05
-0.05054413967991014,-0.05054413967991014,1.0000535789357194,4.6765757735845366e-05
-0.05036033958756416,-0.05036033958756416,0.9999401845115548,4.676303586176478e-05
-0.05019895414271165,-0.05019895414271165,1.0000472908383764,4.6760111177084364e-05
-0.050035825338683185,-0.050035825338683185,0.9999779393231941,4.675351700013048e-05
-0.04987817567185715,-0.04987817567185715,0.9999600914486024,4.674654824563255e-05
-0.04969711515653561,-0.04969711515653561,1.0001121054098598,4.674690920945795e-05
-0.04953647687476135,-0.04953647687476135,1.0000178895597913,4.674384345822666e-05
-0.049376336698352216,-0.049376336698352216,0.9999289695935246,4.675259950963211e-05
-0.049212709801692435,-0.049212709801692435,1.0000651422134987,4.6756695916922244e-05
-0.049057052558080017,-0.049057052558080017,0.9999638306866441,4.675776202494395e-05
-0.048901395316492825,-0.048901395316492825,1.0000303904734225,4.6763109647308e-05
-0.04874374566429936,-0.04874374566429936,0.9999675350560626,4.676876510842746e-05
-0.048583854550049745,-0.048583854550049745,1.0000524582840118,4.677378488086991e-05
-0.04842819731478674,-0.04842819731478674,0.9999816853481258,4.6771593709068037e-05
-0.0482665628437843,-0.0482665628437843,0.9999930078175007,4.6770741560346116e-05
-0.04810443027202869,-0.04810443027202869,1.000045338331439,4.677126646642566e-05
-0.0479447882182269,-0.0479447882182269,0.9999687256751677,4.676849028839962e-05
-0.04777642936213979,-0.04777642936213979,1.0000164011952226,4.677070143658407e-05
-0.047603089477387964,-0.047603089477387964,1.0000357885777769,4.677190530744081e-05
-0.04736972817131431,-0.04736972817131431,0.9999868705149719,4.676558446381567e-05
-0.04721407095287642,-0.04721407095287642,0.999924459159088,4.675768145807012e-05
-0.04705841373667248,-0.04705841373667248,1.0000471421160129,4.675258432052271e-05
-0.046902756522681874,-0.046902756522681874,1.0000273777810231,4.6750038955232755e-05
-0.04674709931098597,-0.04674709931098597,0.9999857449465589,4.6747242476723485e-05
-0.04659144210162989,-0.04659144210162989,0.9999661660528778,4.674465542314017e-05
-0.046435784894360135,-0.046435784894360135,1.0000149297796896,4.674719211222035e-05
-0.04628012768949112,-0.04628012768949112,0.9999879173887593,4.6748581888301724e-05
-0.04612447048693937,-0.04612447048693937,1.0000191556229847,4.6749034586924303e-05
-0.0459688132866626,-0.0459688132866626,1.0000219905272396,4.674966277309961e-05
-0.045813156088745186,-0.045813156088745186,0.9999490923028297,4.674845163884073e-05
-0.04565749889316599,-0.04565749889316599,1.0000331262284285,4.674784077549563e-05
-0.04550184169992342,-0.04550184169992342,1.0000045563656736,4.674576579594279e-05
-0.04534618450899934,-0.04534618450899934,1.00002495735175,4.674337081419704e-05
-0.04519052732045452,-0.04519052732045452,1.0000390056151083,4.674157556912638e-05
-0.04503487013433105,-0.04503487013433105,0.9999315894973406,4.674066196887887e-05
-0.04487921295056587,-0.04487921295056587,1.0000521298295435,4.674579447014839e-05
-0.04472355576918172,-0.04472355576918172,1.0000078334822877,4.6747206474641554e-05
-0.04455793653086602,-0.04455793653086602,0.9999374423728117,4.674523240768187e-05
-0.044399788839584356,-0.044399788839584356,1.0000587544543738,4.675395959634903e-05
-0.04424413166563142,-0.04424413166563142,0.9999925622593715,4.6754326802074104e-05
-0.044088474494161645,-0.044088474494161645,1.0000041191483127,4.675600813232578e-05
-0.04393281732498906,-0.04393281732498906,1.0000085858320185,4.675551826299659e-05
-0.0437771601583206,-0.0437771601583206,1.0000481980585967,4.675869432402638e-05
-0.04362150297420371,-0.04362150297420371,0.9999339398613565,4.675504474413859e-05
-0.043465845597887666,-0.043465845597887666,1.0000562463884304,4.6756875284219315e-05
-0.04330919196691063,-0.04330919196691063,0.9999836775090669,4.675485408889254e-05
-0.04314830445658675,-0.04314830445658675,1.000008852568659,4.675861979799739e-05
-0.04299264703815453,-0.04299264703815453,0.9999720000128139,4.675906831513179e-05
-0.04283300479239571,-0.04283300479239571,0.999983739187785,4.675541878681045e-05
-0.042675105912194235,-0.042675105912194235,1.0000718034844318,4.675442558184928e-05
-0.04251944850129785,-0.04251944850129785,0.9999315518790948,4.674697654896678e-05
-0.042363791092885884,-0.042363791092885884,1.0000528106539468,4.6747863792023665e-05
-0.04220813368699936,-0.04220813368699936,0.9999542408185811,4.673917122505785e-05
-0.0420524762836175,-0.0420524762836175,1.0000639704477106,4.67414399359425e-05
-0.04189407931250759,-0.04189407931250759,0.9999246457986881,4.674290415868493e-05
-0.0417349351885111,-0.0417349351885111,1.0000632669235814,4.674689761965094e-05
-0.041570062874990654,-0.041570062874990654,0.9999372189167826,4.6742083833885174e-05
-0.04137530434530188,-0.04137530434530188,1.0000230799181415,4.674359648713316e-05
-0.04119623608417182,-0.04119623608417182,1.0000025227609286,4.674051700283078e-05
-0.041037590075361584,-0.041037590075361584,1.0000338749614843,4.6739849989539766e-05
-0.040877200706546546,-0.040877200706546546,0.9999481608648372,4.673740830642265e-05
-0.04072004901394681,-0.04072004901394681,1.0000581459272193,4.673744084957587e-05
-0.040560904909572135,-0.040560904909572135,0.9999794267627526,4.673288251808644e-05
-0.04040076460064661,-0.04040076460064661,0.999943282361485,4.6731715131147906e-05
-0.040225681186738346,-0.040225681186738346,1.0000518255684532,4.673897051373906e-05
-0.04004760915439505,-0.04004760915439505,0.999930365516829,4.6736926790165074e-05
-0.03988174066316876,-0.03988174066316876,1.0000050466094257,4.673936790926814e-05
-0.039723841831772334,-0.039723841831772334,1.0000296908864017,4.6744182154377036e-05
-0.03956818446915946,-0.03956818446915946,0.9999725209884088,4.67455372304718e-05
-0.03940978753952713,-0.03940978753952713,1.0000068214013431,4.6747408587475904e-05
-0.039239685179350836,-0.039239685179350836,1.000003151257095,4.674591700739375e-05
-0.03907929584128471,-0.03907929584128471,0.9999796680287,4.6745058719143724e-05
-0.0389206498682114,-0.0389206498682114,0.9999531193933764,4.67461508401493e-05
-0.038764992518958506,-0.038764992518958506,0.9999772666109719,4.674748467069308e-05
-0.038609335172294125,-0.038609335172294125,0.9999895277279232,4.674555668832789e-05
-0.03845367782832163,-0.03845367782832163,1.0000563439088297,4.6740656682061284e-05
-0.03829802048683373,-0.03829802048683373,1.0000017365276717,4.673990423558725e-05
-0.03813040866453541,-0.03813040866453541,0.9999950101049219,4.6735832788827555e-05
-0.03796528736264335,-0.03796528736264335,0.999979866018394,4.6730819908129016e-05
-0.037722461924052555,-0.037722461924052555,0.9999849492491577,4.673137844318669e-05
-0.03753965795712908,-0.03753965795712908,1.000004832007992,4.67284579659051e-05
-0.03735610683857189,-0.03735610683857189,0.9999363412578302,4.672738485562658e-05
-0.03719596658490136,-0.03719596658490136,1.0000531191085034,4.672851383489159e-05
-0.03703009814475742,-0.03703009814475742,0.9999944855978402,4.6727077270103024e-05
-0.03685825246670067,-0.03685825246670067,1.0000400012343371,4.673172436529297e-05
-0.03668018049923614,-0.03668018049923614,0.9999619604943843,4.672117573542354e-05
-0.036517300688734086,-0.036517300688734086,1.0000051721814258,4.672171969648002e-05
-0.03629539563101023,-0.03629539563101023,0.9999318235722805,4.6710616495364204e-05
-0.03608768652377794,-0.03608768652377794,1.0001071001792536,4.671324134885512e-05
-0.03593202922272454,-0.03593202922272454,0.9999592881166197,4.671174989415788e-05
-0.035776371924280605,-0.035776371924280605,1.0000083760257095,4.6713762603527674e-05
-0.03562071462859091,-0.03562071462859091,0.9999576667405101,4.671339920882445e-05
-0.035465057335512286,-0.035465057335512286,1.0000315730635667,4.6712237180570156e-05
-0.03530940004518772,-0.03530940004518772,0.999959272179648,4.671285819526806e-05
-0.03515374275757814,-0.03515374275757814,1.0000369308429924,4.671531783429044e-05
-0.03499808547261907,-0.03499808547261907,0.9999569733711973,4.6713793797930516e-05
-0.03484242819039381,-0.03484242819039381,1.0000717372246046,4.672059562959941e-05
-0.03468677091082082,-0.03468677091082082,0.9999738005166698,4.6717200007282024e-05
-0.034531113634065136,-0.034531113634065136,0.9999878051038694,4.671803490281848e-05
-0.034375456359981627,-0.034375456359981627,1.0000097505374872,4.671512729320582e-05
-0.034219799088633,-0.034219799088633,1.0000072314771882,4.671314834285013e-05
-0.0340641418199775,-0.0340641418199775,0.9999544748685188,4.671330235276415e-05
-0.03390848455403663,-0.03390848455403663,1.0000387317242192,4.67113211148628e-05
-0.033752827290912,-0.033752827290912,1.0000160787810208,4.670947252012454e-05
-0.0335971700304805,-0.0335971700304805,1.0000086746506516,4.6707444473685896e-05
-0.03344151277280485,-0.03344151277280485,0.9999728352140395,4.6700915642722434e-05
-0.03328585551786336,-0.03328585551786336,1.000035429887087,4.670304956498878e-05
-0.03313019826578252,-0.03313019826578252,1.0000000582346453,4.670267786536446e-05
-0.03297454101620563,-0.03297454101620563,0.9999090420097557,4.669889886634381e-05
-0.03281888376953042,-0.03281888376953042,1.000081386134839,4.670112351400968e-05
-0.0326632265256114,-0.0326632265256114,0.9999687453554358,4.669981237506464e-05
-0.03250557687185864,-0.03250557687185864,1.0000736375130959,4.670440538338438e-05
-0.032343693344020964,-0.032343693344020964,0.9999448794992517,4.6701038081090824e-05
-0.03218380223177757,-0.03218380223177757,0.9999731636492266,4.6702722570483184e-05
-0.03202814499917199,-0.03202814499917199,0.9999943393193561,4.669993453565306e-05
-0.031869997253675564,-0.031869997253675564,1.0000479359497398,4.669704758574751e-05
-0.031705125118927494,-0.031705125118927494,0.9999813104534445,4.6696068216333517e-05
-0.03154249445133317,-0.03154249445133317,0.9999961829949197,4.6692239660295305e-05
-0.03138683723022932,-0.03138683723022932,0.9999883283035752,4.6688963399824066e-05
-0.031231180011923244,-0.031231180011923244,1.0000364059558853,4.669017486944726e-05
-0.031070790817120653,-0.031070790817120653,0.9999861054189907,4.669425223748047e-05
-0.030902930079176903,-0.030902930079176903,0.999938456032649,4.669467450468717e-05
-0.03072062435554912,-0.03072062435554912,1.0000573157927797,4.670015135165111e-05
-0.03056322378863552,-0.03056322378863552,0.9999869775453352,4.6698222373271096e-05
-0.03040183840015711,-0.03040183840015711,0.99998069854839,4.669880218552862e-05
-0.030230241902604326,-0.030230241902604326,1.000017109901609,4.669951600698388e-05
-0.030073090395998214,-0.030073090395998214,0.9999696566728133,4.670167422412405e-05
-0.029917433201530664,-0.029917433201530664,1.0000164070018953,4.6704633973472724e-05
-0.029746583868115906,-0.029746583868115906,1.0000285813297343,4.6704169442735686e-05
-0.029580964619600005,-0.029580964619600005,0.9999485602733651,4.6706344495568726e-05
-0.029419330198244432,-0.029419330198244432,0.999979310773722,4.67041160787952e-05
-0.029261929655274167,-0.029261929655274167,1.0000647756715153,4.67052722734671e-05
-0.02909556326178393,-0.02909556326178393,0.9999584501976493,4.6702754795154074e-05
-0.02893069118045357,-0.02893069118045357,0.9999896629523498,4.6702857477066844e-05
-0.02875959281541416,-0.02875959281541416,1.0000633615811345,4.6701499083188106e-05
-0.028597460306843202,-0.028597460306843202,0.9999266537170431,4.669989602943765e-05
-0.028440059779174475,-0.028440059779174475,1.0000490103588249,4.6703495902731466e-05
-0.028279919688452358,-0.028279919688452358,0.99999142870818,4.670225542423554e-05
-0.028124262526925924,-0.028124262526925924,0.9999426884837577,4.670201079480935e-05
-0.02796213003067134,-0.02796213003067134,1.0000366488224401,4.669868136576988e-05
-0.027793522199919173,-0.027793522199919173,1.0000766465850783,4.670243049606638e-05
-0.027632385915752698,-0.027632385915752698,0.999951461201201,4.670400494051698e-05
-0.02746502334881491,-0.02746502334881491,0.9999997692180829,4.670361082955345e-05
-0.027284212008027532,-0.027284212008027532,1.0000671904463811,4.669748340159231e-05
-0.02711809470530078,-0.02711809470530078,0.9999508118282623,4.6688508465972e-05
-0.026926076058110482,-0.026926076058110482,0.9999883903823266,4.668839771546234e-05
-0.02675547583710678,-0.02675547583710678,1.0000655284415267,4.668687005464818e-05
-0.026591101904800497,-0.026591101904800497,0.9999468568414086,4.668990377233377e-05
-0.02643071279838107,-0.02643071279838107,1.0000235725766666,4.66977153781949e-05
-0.026272565157592,-0.026272565157592,0.9999642745276048,4.6700584139939656e-05
-0.0261131722628841,-0.0261131722628841,1.0000499505666818,4.67009267311152e-05
-0.025956269885240957,-0.025956269885240957,0.9999705140374404,4.669667353612299e-05
-0.02579114881491229,-0.02579114881491229,1.00003790780565,4.669637646699438e-05
-0.025633748340683125,-0.025633748340683125,0.9999396996301801,4.669462740886984e-05
-0.025472861150264058,-0.025472861150264058,1.000010640340419,4.6694771185180755e-05
-0.025309234398064717,-0.025309234398064717,1.0000014594561426,4.669330754541929e-05
-0.025079858089030082,-0.025079858089030082,1.0000017107385122,4.6689810760330345e-05
-0.024880367948715863,-0.024880367948715863,0.9999826058561307,4.668916636681607e-05
-0.024724710851649158,-0.024724710851649158,1.0000114682186854,4.668939912452193e-05
-0.02456905375775751,-0.02456905375775751,0.999993318888239,4.668840240185636e-05
-0.024413396666767007,-0.024413396666767007,0.9999605774057848,4.668866634631776e-05
-0.02425773957884534,-0.02425773957884534,1.0000247390079153,4.668939074426639e-05
-0.024102082493928378,-0.024102082493928378,1.0000222089357464,4.6686921553539296e-05
-0.023946425412080252,-0.023946425412080252,0.999932218560013,4.6687400199481046e-05
-0.023790768333279998,-0.023790768333279998,1.0000204406769027,4.668720001247163e-05
-0.02363511125748552,-0.02363511125748552,1.0000505399096888,4.6688305839486086e-05
-0.023479454184843363,-0.023479454184843363,0.9999208564985498,4.668730798646412e-05
-0.023323797179354955,-0.023323797179354955,1.0000465976403559,4.669233116145041e-05
-0.023168140671598537,-0.023168140671598537,1.000023704736012,4.66889493522296e-05
-0.02301248427078235,-0.02301248427078235,0.9999876452946441,4.668537299725561e-05
-0.022856827873117956,-0.022856827873117956,0.9999898732404787,4.668230403804455e-05
-0.022701171478438732,-0.022701171478438732,0.9999857183279379,4.667877043100212e-05
-0.022537545479796604,-0.022537545479796604,1.0000361770156623,4.6679153343941215e-05
-0.022377406187594852,-0.022377406187594852,0.9999601277968946,4.667623919181727e-05
-0.022221749802601387,-0.022221749802601387,1.000031835443726,4.667967231865848e-05
-0.02206609342067658,-0.02206609342067658,1.0000296847766417,4.6678753606576254e-05
-0.021910437041883134,-0.021910437041883134,1.0000292859877091,4.668021596829543e-05
-0.021754780666262973,-0.021754780666262973,0.9999510826502181,4.6680503318111595e-05
-0.02159912429379407,-0.02159912429379407,0.9999581477496612,4.668276755883488e-05
-0.021443467924457595,-0.021443467924457595,1.0000332282442073,4.6684493786980165e-05
-0.02128781155825159,-0.02128781155825159,0.9999872764369064,4.668218868572954e-05
-0.02113215519526026,-0.02113215519526026,0.9999802436188169,4.667932209999795e-05
-0.02097649883550492,-0.02097649883550492,1.0000553553866909,4.668301322101968e-05
-0.020820842478818234,-0.020820842478818234,0.9999159838641889,4.668313661847113e-05
-0.02066518612546986,-0.02066518612546986,1.0000850191505584,4.668548659645884e-05
-0.020509529775213763,-0.020509529775213763,0.999989606834594,4.6682052538081346e-05
-0.020353873428253344,-0.020353873428253344,1.000003155870324,4.668231169167975e-05
