time,time,flux,flux_err
-0.49993911557644566,-0.49993911557644566,0.9999493395985173,9.768122023431764e-05
-0.49981107083717974,-0.49981107083717974,0.9999465593732477,8.704457717427395e-05
-0.4996714239785149,-0.4996714239785149,0.9998811754748246,8.890850732362526e-05
-0.49952233581648214,-0.49952233581648214,1.000046671415889,8.722928457039302e-05
-0.4993858860714937,-0.4993858860714937,1.0000108024599073,8.620874669008093e-05
-0.49925183354848174,-0.49925183354848174,0.9999484811942333,8.943945801856307e-05
-0.4991205367631778,-0.4991205367631778,0.9999446906121493,8.746386560487322e-05
-0.4989942192812151,-0.4989942192812151,1.0000992890903613,8.786886660177326e-05
-0.49887514186314375,-0.49887514186314375,1.0000049700020481,8.697626039946974e-05
-0.49874392902205783,-0.49874392902205783,0.9998151312097571,8.704323841556327e-05
-0.4986218073151207,-0.4986218073151207,1.0000912166856852,8.779390407047243e-05
-0.4984969017895054,-0.4984969017895054,1.0000081447180016,8.715718861413671e-05
-0.4983702184979279,-0.4983702184979279,1.0000092524909063,8.714369962154733e-05
-0.49823489885259276,-0.49823489885259276,1.0000013674125434,8.912422493143906e-05
-0.49811596771214683,-0.49811596771214683,1.0002172795051072,8.637854662643863e-05
-0.4979979115821777,-0.4979979115821777,0.999911626169057,8.618270018903929e-05
-0.4978514895072152,-0.4978514895072152,0.9998856199380677,8.912994858608001e-05
-0.4977378278288569,-0.4977378278288569,1.0000939720609474,8.675726865361118e-05
-0.49761585526377133,-0.49761585526377133,1.000138673573674,8.654270591299901e-05
-0.4974771882639061,-0.4974771882639061,0.9998471949894887,8.869950042464145e-05
-0.4973632671328005,-0.4973632671328005,0.9999294185916163,8.703986563194564e-05
-0.4972437929625215,-0.4972437929625215,0.9998879492001516,8.749381301181965e-05
-0.49709670165132136,-0.49709670165132136,0.9999875638377169,8.696947067770094e-05
-0.49698940705480366,-0.49698940705480366,0.999935309860445,8.731853746526455e-05
-0.4968592649146217,-0.4968592649146217,1.0001320772897864,8.802545227545348e-05
-0.4967234636492691,-0.4967234636492691,0.9998760108835721,8.628097047714372e-05
-0.49661542948050225,-0.49661542948050225,0.9999265075204418,8.712258814563117e-05
-0.49646081849818985,-0.49646081849818985,1.0000155151907055,8.880204719636389e-05
-0.4963501363500143,-0.4963501363500143,0.9998892960553274,8.681749885865713e-05
-0.49622119233914647,-0.49622119233914647,1.0001388603689922,8.646013804267222e-05
-0.4960923377907335,-0.4960923377907335,1.0001273327276081,8.811233694008263e-05
-0.49597339146322383,-0.49597339146322383,1.0000087413133707,8.674932529249683e-05
-0.49584549055881266,-0.49584549055881266,1.0000806476131334,8.79638838957305e-05
-0.495718683293984,-0.495718683293984,0.999752462104421,8.697333923295632e-05
-0.4955988320592951,-0.4955988320592951,1.0000083656042515,8.704596961545679e-05
-0.49546603092234703,-0.49546603092234703,1.0001798234656516,8.808116281376612e-05
-0.49534544772221806,-0.49534544772221806,1.0001270747807667,8.62751372112433e-05
-0.49522511800499275,-0.49522511800499275,1.0000354944091923,8.715079083190622e-05
-0.4950920335546442,-0.4950920335546442,0.9997630308964037,8.773407460046454e-05
-0.49497120806206285,-0.49497120806206285,1.0001191705178556,8.72164527171244e-05
-0.4948528188022152,-0.4948528188022152,1.0000551544079062,8.620133475371286e-05
-0.4947103880382372,-0.4947103880382372,0.9999719367987444,8.85334060124999e-05
-0.4945997046654128,-0.4945997046654128,1.0001100821765956,8.682484944215628e-05
-0.49447076431811754,-0.49447076431811754,1.0000195342486957,8.638250266900531e-05
-0.4943419072756825,-0.4943419072756825,0.9998823696428092,8.792838497357434e-05
-0.4942229585016776,-0.4942229585016776,0.9998889360763217,8.675325076453049e-05
-0.49409505995906783,-0.49409505995906783,1.000054338177311,8.773223086016855e-05
-0.49396825088095114,-0.49396825088095114,1.0003506703684104,8.696404546026453e-05
-0.4938484003948901,-0.4938484003948901,0.9999029548660916,8.703534288185783e-05
-0.4937155991072018,-0.4937155991072018,1.000009103880587,8.785147676608506e-05
-0.4935950180979859,-0.4935950180979859,0.9997351530609018,8.626718873839517e-05
-0.493474684491494,-0.493474684491494,1.0000632586833682,8.713888830496731e-05
-0.49333369439029295,-0.49333369439029295,1.0000408955080327,8.836868213439312e-05
-0.49321748341970706,-0.49321748341970706,0.9999635170130594,8.636497432277832e-05
-0.4931023896923534,-0.4931023896923534,0.9998204000997678,8.61816961562151e-05
-0.49295028503305505,-0.49295028503305505,1.000091206317499,8.841100681952847e-05
-0.49284494212030266,-0.49284494212030266,1.0000672309815644,8.674445996180722e-05
-0.4927203362812804,-0.4927203362812804,0.9998910623899689,8.632484839598412e-05
-0.492577473384614,-0.492577473384614,1.0000592619706223,8.779515840280996e-05
-0.49247252555222476,-0.49247252555222476,0.9999127325370134,8.67562443693044e-05
-0.49234462930950257,-0.49234462930950257,1.0000312517381453,8.75481052762587e-05
-0.4922038151271863,-0.4922038151271863,1.0000547014998216,8.696013821397467e-05
-0.4920979687480923,-0.4920979687480923,0.9997600233692765,8.704435999179545e-05
-0.4919651672376716,-0.4919651672376716,0.9999289653920203,8.766954085737304e-05
-0.4918305851314585,-0.4918305851314585,0.9999019216196935,8.628135865021681e-05
-0.4917242509965405,-0.4917242509965405,1.000073789807857,8.714334755368005e-05
-0.4915832641222579,-0.4915832641222579,0.9998834495464232,8.818565127799548e-05
-0.49146425185035125,-0.49146425185035125,1.0000094950723466,8.637927237083671e-05
-0.49135196060690306,-0.49135196060690306,1.0002291279778814,8.619809739869347e-05
-0.4911998547536399,-0.4911998547536399,1.0000396697806369,8.824303532581923e-05
-0.4910945101528711,-0.4910945101528711,1.0001061073161073,8.675693281930782e-05
-0.49096990823155406,-0.49096990823155406,1.0001294568382932,8.629248267935922e-05
-0.4908255315539861,-0.4908255315539861,1.000029934455056,8.810151359783946e-05
-0.49071520187553974,-0.49071520187553974,1.000090459704033,8.634252719814729e-05
-0.4905941986148008,-0.4905941986148008,0.9999055464118124,8.738778177537262e-05
-0.49043040851684055,-0.49043040851684055,1.0000144827137698,8.80106260234032e-05
-0.4903200618975063,-0.4903200618975063,0.9998273669705414,8.618859698105242e-05
-0.490182919874519,-0.490182919874519,1.0001446699736605,8.808257135222957e-05
-0.49003024762267844,-0.49003024762267844,0.9999704952520426,8.675417056713578e-05
-0.4899196513959822,-0.4899196513959822,1.000041167675771,8.626164187048318e-05
-0.4897624556110827,-0.4897624556110827,0.9999499482934986,8.813946184352746e-05
-0.4896418440248283,-0.4896418440248283,0.9999907228734145,8.68588507870877e-05
-0.489514562537849,-0.489514562537849,1.0001216882972028,8.74642757304559e-05
-0.48935148535113626,-0.48935148535113626,1.0002467125414796,8.715616455783612e-05
-0.4892514457369913,-0.4892514457369913,0.9999125083664051,8.618515764729618e-05
-0.4890934900862646,-0.4890934900862646,0.9996981024246404,8.840804162339674e-05
-0.488950771032674,-0.488950771032674,0.9999470482920285,8.633815531978638e-05
-0.48884376787941336,-0.48884376787941336,0.9999985869698464,8.725053752640153e-05
-0.4886799691712838,-0.4886799691712838,1.0000451288510366,8.802473360569328e-05
-0.4885556291725862,-0.4885556291725862,1.000024089754084,8.619881743177983e-05
-0.4884324895254082,-0.4884324895254082,0.9999716845580396,8.794232149134142e-05
-0.4882714865235414,-0.4882714865235414,1.000037143149776,8.676410766139179e-05
-0.4881635491188462,-0.4881635491188462,0.9998328551008436,8.623351221508984e-05
-0.4880120167125369,-0.4880120167125369,0.999856716393321,8.802893629571262e-05
-0.4878732973733662,-0.4878732973733662,1.0001102160982047,8.715650548489525e-05
-0.4877323173749062,-0.4877323173749062,1.0000124891351005,8.7889051770157e-05
-0.48757131335900394,-0.48757131335900394,0.9999959045473871,8.676513360131931e-05
-0.48746057760286304,-0.48746057760286304,1.0001834196799422,8.623478388403773e-05
-0.487311841149895,-0.487311841149895,0.9998413644309508,8.798969880351547e-05
-0.4871731239970728,-0.4871731239970728,0.9999856334885735,8.714346888669121e-05
-0.4870321452181258,-0.4870321452181258,0.9999655094946949,8.785382981293618e-05
-0.4868711401964333,-0.4868711401964333,0.999900185632489,8.67635205599997e-05
-0.48674325094923176,-0.48674325094923176,1.0000131658185651,8.711489331415096e-05
-0.48658961200360695,-0.48658961200360695,1.0000293048409037,8.707577143858984e-05
-0.4864729506240053,-0.4864729506240053,0.9999131270751344,8.714326548827206e-05
-0.48633197305559295,-0.48633197305559295,1.0001846608272882,8.781224856569601e-05
-0.4861794550639047,-0.4861794550639047,0.999907781799612,8.657414584978364e-05
-0.4860430786286202,-0.4860430786286202,1.0000621086489523,8.707102026619352e-05
-0.4858877547898544,-0.4858877547898544,1.0000498442583605,8.783974774350288e-05
-0.4857660583001547,-0.4857660583001547,0.9999208194345609,8.638390011758368e-05
-0.4856318008876258,-0.4856318008876258,1.000169906758116,8.776697109454722e-05
-0.48547928292829,-0.48547928292829,1.0000515888070054,8.658026928177068e-05
-0.4853543764707496,-0.4853543764707496,1.000092141360097,8.642099825285705e-05
-0.48521980401477266,-0.48521980401477266,1.0001728515522175,8.768616362560285e-05
-0.48507260388733187,-0.48507260388733187,1.0000685029202576,8.71596792042946e-05
-0.4849590708449142,-0.4849590708449142,0.9997385457356142,8.707464686113922e-05
-0.48480752336183175,-0.48480752336183175,0.99990807222414,8.742121127115708e-05
-0.4846791603774676,-0.4846791603774676,1.0001333412805056,8.593833543004679e-05
-0.48454388686077154,-0.48454388686077154,0.9999469935401052,8.771885111949638e-05
-0.4844030294844742,-0.4844030294844742,1.0000355999275101,8.72926426802617e-05
-0.4842821455551899,-0.4842821455551899,0.9998886699170482,8.643924213844745e-05
-0.48413731803960613,-0.48413731803960613,1.000004695902278,8.783666191063456e-05
-0.4840208439524048,-0.4840208439524048,0.9998691623189224,8.816114221445786e-05
-0.48390881271051284,-0.48390881271051284,0.9999966682117508,8.702458850027663e-05
-0.4837609156962742,-0.4837609156962742,1.0000245240542305,8.886804221041479e-05
-0.4836500729281056,-0.4836500729281056,0.9999766648485136,8.619164505940639e-05
-0.483527146621492,-0.483527146621492,1.0000739867156896,8.784684985827428e-05
-0.48338942558268344,-0.48338942558268344,0.9997574623673057,8.843209323065591e-05
-0.48327881575758624,-0.48327881575758624,0.9999348638472523,8.592727987760118e-05
-0.4831435422058917,-0.4831435422058917,1.000141489275344,8.765206445681282e-05
-0.48301334094837217,-0.48301334094837217,0.999959132189051,8.909148953557651e-05
-0.4828818021047539,-0.4828818021047539,1.0000569322462822,8.638246930226102e-05
-0.4827369686481603,-0.4827369686481603,0.9998099558372564,8.78314912765707e-05
-0.4826104744924294,-0.4826104744924294,1.0001186316856314,8.797064015230574e-05
-0.48247928404312573,-0.48247928404312573,0.9999845593575865,8.69674222974987e-05
-0.48236056958178325,-0.48236056958178325,1.0001773920338477,8.869171479392602e-05
-0.4822355649389095,-0.4822355649389095,1.000055422559971,8.637589182449415e-05
-0.4820932836982621,-0.4820932836982621,1.0001008385479064,8.760502181240893e-05
-0.48196308012618944,-0.48196308012618944,0.9998944393889888,8.895506746789022e-05
-0.4818315445034216,-0.4818315445034216,1.000017854173779,8.634045528581753e-05
-0.4817025587209855,-0.4817025587209855,1.0000749569945349,8.689198806348419e-05
-0.48158239584788876,-0.48158239584788876,1.000012554499413,8.879430659929085e-05
-0.4814582103516273,-0.4814582103516273,1.0001037141933389,8.692561239251888e-05
-0.4813276580800334,-0.4813276580800334,1.000023759133515,8.697413566042728e-05
-0.48121013108819566,-0.48121013108819566,0.9999039186671539,8.78131986293507e-05
-0.4810765398550984,-0.4810765398550984,0.9997289491682194,8.774493758361129e-05
-0.4809598216840783,-0.4809598216840783,1.000073929470762,8.772497919436203e-05
-0.48083522050681893,-0.48083522050681893,1.0000122452818296,8.637775303554858e-05
-0.48069860911193985,-0.48069860911193985,1.0000030194072869,8.75603165668836e-05
-0.4805887365637716,-0.4805887365637716,1.0000417253392575,8.812980800587938e-05
-0.4804531733299854,-0.4804531733299854,0.9999547607340205,8.641449753556138e-05
-0.4803257958878874,-0.4803257958878874,1.0000177534366181,8.706750172533515e-05
-0.48021264539875974,-0.48021264539875974,1.0000054051849268,8.880214774311082e-05
-0.4800811151441479,-0.4800811151441479,0.9999573655959706,8.628017256064567e-05
-0.47995212512882973,-0.47995212512882973,1.0000926214856458,8.689917298337259e-05
-0.47983196212996404,-0.47983196212996404,1.0000347543115022,8.865461084140377e-05
-0.47969922355324,-0.47969922355324,1.0001095642135978,8.684631235776609e-05
-0.4795594769853523,-0.4795594769853523,1.0000791541338585,8.762113486698594e-05
-0.47943487609045976,-0.47943487609045976,0.9998758066004404,8.637383849399474e-05
-0.47928363835441135,-0.47928363835441135,1.0000055351111046,8.664890657511236e-05
-0.47917501017382447,-0.47917501017382447,0.9999602230445788,8.890996318204397e-05
-0.4790528295707361,-0.4790528295707361,1.0000640259424816,8.641205529492084e-05
-0.4789092779978773,-0.4789092779978773,1.0001186232115888,8.657474524964063e-05
-0.4788004628198195,-0.4788004628198195,0.9996872549321472,8.915734545052561e-05
-0.47868077163676614,-0.47868077163676614,1.0000474139789624,8.625782813936149e-05
-0.4785269663493722,-0.4785269663493722,0.999993621492683,8.698155328185642e-05
-0.4784284199197117,-0.4784284199197117,1.0000157294304017,8.849170424893435e-05
-0.4782988813446735,-0.4782988813446735,0.9999562300338869,8.681235230585331e-05
-0.4781591322647614,-0.4781591322647614,1.0001324833581102,8.755164869128302e-05
-0.47805765333008593,-0.47805765333008593,0.9999846212870086,8.707154086969902e-05
-0.4779168072137736,-0.4779168072137736,0.9999089726248656,8.681003890872804e-05
-0.47778999136926076,-0.47778999136926076,0.9999733225326102,8.839683207679658e-05
-0.4776844455919246,-0.4776844455919246,1.0000642040728958,8.638587504432969e-05
-0.47753321180694003,-0.47753321180694003,0.9999854305899044,8.661972790151878e-05
-0.477424574145158,-0.477424574145158,0.9999281244886644,8.881947687467137e-05
-0.47730239987089645,-0.47730239987089645,1.0000087032459786,8.641342202865706e-05
-0.4771588459855252,-0.4771588459855252,0.9998901396764431,8.654303247322103e-05
-0.47705002813532926,-0.47705002813532926,0.9999398508568342,8.910087480173528e-05
-0.47691913942659026,-0.47691913942659026,1.000104583704741,8.622915262309349e-05
-0.4767737333641321,-0.4767737333641321,1.0000137830043365,8.698104681606798e-05
-0.47667798490311386,-0.47667798490311386,1.0001875202539303,8.84258244509431e-05
-0.4765344500598843,-0.4765344500598843,1.0003018316804604,8.680258009000376e-05
-0.47639531099308385,-0.47639531099308385,1.0000362547953263,8.835827638848469e-05
-0.47630660707255,-0.47630660707255,0.9998994560399188,8.619414991971658e-05
-0.47615237459531556,-0.47615237459531556,1.0000337185067272,8.678448172356302e-05
-0.47602555269833713,-0.47602555269833713,1.0000077305678245,8.832530547508363e-05
-0.47593401511837785,-0.47593401511837785,1.0000104516732378,8.638471719311912e-05
-0.4757849079004757,-0.4757849079004757,0.9998243459722309,8.677863747662455e-05
-0.47567546563132057,-0.47567546563132057,0.9999942288713143,8.83072197567918e-05
-0.47558392902682556,-0.47558392902682556,0.9999108152431166,8.638356451278317e-05
-0.47541713748179293,-0.47541713748179293,1.0002071341499181,8.70113264256064e-05
-0.4753116064459647,-0.4753116064459647,0.9998415763005386,8.83316435021611e-05
-0.4752018842325668,-0.4752018842325668,1.000038924271133,8.641707174825043e-05
-0.47503412719503046,-0.47503412719503046,0.9999918462124453,8.74794810539469e-05
-0.47494569999976194,-0.47494569999976194,0.9999574588897687,8.808374791574721e-05
-0.4748158234073287,-0.4748158234073287,1.0001049437776133,8.619389140063175e-05
-0.47466433251032925,-0.47466433251032925,1.0000836053645084,8.827001061947053e-05
-0.4745611389146859,-0.4745611389146859,1.0002319093121792,8.707034127259056e-05
-0.47443393669593376,-0.47443393669593376,0.9998388232287125,8.676106125003218e-05
-0.47429478747407927,-0.47429478747407927,1.0000807642780734,8.826832010078267e-05
-0.47419209022562825,-0.47419209022562825,1.0000997232269426,8.62040071979235e-05
-0.4740518596241287,-0.4740518596241287,1.000064661877407,8.67622117008895e-05
-0.4739237020082413,-0.4739237020082413,1.0000163829886515,8.870157039724635e-05
-0.47382082350171684,-0.47382082350171684,0.9999990619100995,8.59246851019974e-05
-0.47366670547982326,-0.47366670547982326,0.9998153616388528,8.699416223383065e-05
-0.47354915870731984,-0.47354915870731984,0.9998893731504273,8.896236789699742e-05
-0.47344946822689166,-0.47344946822689166,0.9999885546609057,8.570045563111028e-05
-0.4732696877350605,-0.4732696877350605,0.9999671716196875,8.744898150698622e-05
-0.47317566456491705,-0.47317566456491705,0.9998846904971884,8.802717828721067e-05
-0.47306539395291053,-0.47306539395291053,1.000004475732109,8.617019590352543e-05
-0.4728998953936724,-0.4728998953936724,0.9999385749241891,8.820663685373934e-05
-0.472804368969409,-0.472804368969409,1.0000301087635204,8.636123404872983e-05
-0.4726758416885531,-0.4726758416885531,1.0000622993123671,8.74415978777684e-05
-0.47253034779508596,-0.47253034779508596,1.000193758509019,8.822584830990075e-05
-0.4724199676665194,-0.4724199676665194,1.0000092879760216,8.567025220811785e-05
-0.4722906846398388,-0.4722906846398388,1.000182162845039,8.767759750797633e-05
-0.47216649680764816,-0.47216649680764816,0.999615549288913,8.822821225896459e-05
-0.47204238694339723,-0.47204238694339723,1.0000990253001574,8.593039239439307e-05
-0.4719022700673122,-0.4719022700673122,1.0000130166400978,8.695946126281327e-05
-0.4717925870175975,-0.4717925870175975,0.9999473808452033,8.84962958024034e-05
-0.47167717263629355,-0.47167717263629355,0.9999293177911991,8.613499323327189e-05
-0.4715192516681327,-0.4715192516681327,1.0000198872128496,8.742025816569081e-05
-0.4714203469697793,-0.4714203469697793,1.0000440021406702,8.755960583137215e-05
-0.4712974459202798,-0.4712974459202798,0.9997896790839294,8.655886058125575e-05
-0.4711494616498243,-0.4711494616498243,1.000125080263572,8.815277160473936e-05
-0.47104542969664465,-0.47104542969664465,1.000270748173243,8.655633226002264e-05
-0.4709199161716583,-0.4709199161716583,1.0000266431488805,8.72310874394742e-05
-0.47077991148815956,-0.47077991148815956,0.9998890678369771,8.816367374504848e-05
-0.4706687203358399,-0.4706687203358399,0.9998821193506406,8.637429711664059e-05
-0.4705382697781374,-0.4705382697781374,1.0000700097896429,8.694163316166e-05
-0.47041606515601586,-0.47041606515601586,1.0001724632577331,8.818896941753158e-05
-0.47029195727598105,-0.47029195727598105,0.999986556851493,8.592488794785214e-05
-0.4701518380264275,-0.4701518380264275,0.9999981095878129,8.694172962994248e-05
-0.47004215190065113,-0.47004215190065113,1.0000099157978724,8.84430673547175e-05
-0.46992674732227613,-0.46992674732227613,0.999974791335101,8.613157963699795e-05
-0.4697688156050049,-0.4697688156050049,0.9999327799205593,8.737895228655605e-05
-0.4696699163342316,-0.4696699163342316,1.000020617352398,8.750829398875804e-05
-0.4695470163588567,-0.4695470163588567,1.0001680459446554,8.654675426085623e-05
-0.46939902789096377,-0.46939902789096377,1.00009884907602,8.810081059321548e-05
-0.46929499802811847,-0.46929499802811847,0.9999486316986707,8.654902701374473e-05
-0.469169486407344,-0.469169486407344,0.9999268344807113,8.720691941615202e-05
-0.4690294751654022,-0.4690294751654022,0.9999182811791176,8.811020936230278e-05
-0.4689182899648273,-0.4689182899648273,0.9999653091944138,8.637343399748505e-05
-0.46878783863150203,-0.46878783863150203,1.0000004181303792,8.691265031268385e-05
-0.4686656334871799,-0.4686656334871799,1.0000207123007456,8.814191878846639e-05
