time,time,flux,flux_err
-0.4998967164392525,-0.4998967164392525,1.000192997926069,0.00012351296922621127
-0.4995291133248732,-0.4995291133248732,0.9998749304338487,0.00014351098791731332
-0.4992542437794327,-0.4992542437794327,1.0001458261405614,0.00011328750418797711
-0.4990119269066781,-0.4990119269066781,1.0001499457274927,0.0001129600564318853
-0.49863739802021884,-0.49863739802021884,0.9999996933008857,0.00011296386079096198
-0.49843037482351066,-0.49843037482351066,0.9999145449934238,0.00011371680542806874
-0.4980274590881891,-0.4980274590881891,1.0000219300631934,0.0001131788127854165
-0.49760904622089586,-0.49760904622089586,1.0000229767489857,0.00011343907743545007
-0.4973580391946598,-0.4973580391946598,1.0000191579952535,0.00011600424408825466
-0.49704059374053033,-0.49704059374053033,0.9999065535971454,0.00011267296956482152
-0.4967255234856566,-0.4967255234856566,0.9999774486369425,0.00011262716686538368
-0.49643831512730685,-0.49643831512730685,1.0002672401324695,0.00011236817809984106
-0.49614529290338394,-0.49614529290338394,1.000027686544549,0.00011466728498845072
-0.4958945352358569,-0.4958945352358569,1.000086768353854,0.0001353514842737701
-0.49579004061815796,-0.49579004061815796,1.0000998536731633,0.00011215629100925317
-0.4956290021415043,-0.4956290021415043,1.0001550986874694,0.00011285739363186382
-0.49529382581749815,-0.49529382581749815,1.0000939071239858,0.00011707684012045037
-0.4948253794325865,-0.4948253794325865,0.999928130103928,0.00011397486056601422
-0.49454933856177374,-0.49454933856177374,0.9999947559919864,0.0001156125633756295
-0.4943677801806189,-0.4943677801806189,1.0000117081297246,0.0001129251398943261
-0.4941637316616834,-0.4941637316616834,0.9998587649504251,0.00011234950807988442
-0.49391436536461697,-0.49391436536461697,1.0000802013277106,0.00011413111887777192
-0.49368298896952184,-0.49368298896952184,1.0002524786131046,0.00011344612866558913
-0.49339646890439326,-0.49339646890439326,1.0000153929663482,0.00011316742726962187
-0.49313906017850967,-0.49313906017850967,1.0000860202264135,0.00011204379560953547
-0.49288172419619514,-0.49288172419619514,0.9999175868775705,0.0001170500998121358
-0.49244303018567737,-0.49244303018567737,1.0000249244445618,0.00011333831680405642
-0.49201858783562785,-0.49201858783562785,1.000102723552261,0.0001135583600157912
-0.49144390844303415,-0.49144390844303415,1.000043465733014,0.00011102673011338967
-0.49106729122431714,-0.49106729122431714,0.9998870208210997,0.00011462013114922411
-0.4908156781020807,-0.4908156781020807,0.9999703594090239,0.0001123786138103154
-0.49057144689650156,-0.49057144689650156,1.0002115752201606,0.00011537414092727949
-0.49025087311092647,-0.49025087311092647,1.0000643959499427,0.00011515860051668417
-0.48990787793372875,-0.48990787793372875,0.9999743147252775,0.00011352058026123165
-0.48964366701693507,-0.48964366701693507,0.9999907687702606,0.00011598036449122328
-0.48944829682950514,-0.48944829682950514,1.000142310514614,0.0001133854847967869
-0.4893320545888855,-0.4893320545888855,1.0001205968852065,0.00011213817815939787
-0.4892065801897843,-0.4892065801897843,0.9999238700038612,0.00011528731217609073
-0.4889510898574372,-0.4889510898574372,1.0000197229084586,0.00011916957738213215
-0.4886608333807089,-0.4886608333807089,0.9999009296306223,0.00011439911795439682
-0.48840440935091467,-0.48840440935091467,1.0000272636733971,0.00011320091083744877
-0.4882510917501349,-0.4882510917501349,1.0001462258516782,0.00011340019883880404
-0.4880880140895897,-0.4880880140895897,1.0000598156224187,0.00013257374132212798
-0.48774937562047854,-0.48774937562047854,0.9999466223158233,0.00011727608795825662
-0.48747582977084675,-0.48747582977084675,0.9999649537819618,0.00011174082679976046
-0.487266114699014,-0.487266114699014,1.0001009075854737,0.00011320694551393321
-0.48698704335547516,-0.48698704335547516,0.9999529588538959,0.00011389959817486622
-0.4866361236905504,-0.4866361236905504,0.9999657004152047,0.00011216907567105643
-0.48607888126352916,-0.48607888126352916,0.9999581477915651,0.00011269779163448586
-0.485754450326931,-0.485754450326931,1.000032831402906,0.00011349513292927446
-0.4854156562018034,-0.4854156562018034,0.9999368057406205,0.00011538089652707625
-0.48512377502847814,-0.48512377502847814,1.000059511520703,0.00011228232003268919
-0.48478122152228026,-0.48478122152228026,0.9998956477721375,0.00011349927815663417
-0.4846027886531374,-0.4846027886531374,1.0000589845617096,0.00011158288823077587
-0.48434404258950964,-0.48434404258950964,0.9998704023393381,0.00011591254032599237
-0.4841238440531015,-0.4841238440531015,0.9999473419906371,0.00011377778005327565
-0.48398987686668987,-0.48398987686668987,1.0000608960762893,0.00011167772373278922
-0.4837931654525164,-0.4837931654525164,1.0000670494455954,0.00011679350833486517
-0.48339688480118637,-0.48339688480118637,1.0001053308585708,0.00011301764569403435
-0.4830543128227873,-0.4830543128227873,0.999877300489451,0.0001153406576679912
-0.48278057769566657,-0.48278057769566657,1.0001480154754754,0.00011550884530332768
-0.48257573652663266,-0.48257573652663266,0.999942120000149,0.00011273340200818407
-0.4823724824731471,-0.4823724824731471,1.0000622457170256,0.0001124036491892493
-0.4821300069488643,-0.4821300069488643,0.9999384072409961,0.00011278514407207709
-0.4818860765248246,-0.4818860765248246,0.9999779167246821,0.00011496013466694354
-0.4815843318865518,-0.4815843318865518,0.9999833989972762,0.00011319504411204503
-0.48135632312623783,-0.48135632312623783,0.9998942398369917,0.0001129817513756634
-0.480975221049448,-0.480975221049448,1.0000958512472118,0.00011348413899174353
-0.48038096690797827,-0.48038096690797827,0.9999252104076831,0.00011353978830612891
-0.4799887661749381,-0.4799887661749381,0.9999184765815141,0.00011071696869361327
-0.4795859573794587,-0.4795859573794587,1.0001120077108394,0.00011319942627673526
-0.4792795170622412,-0.4792795170622412,0.9999530137402489,0.00011305561687899779
-0.47902512774599015,-0.47902512774599015,0.9998438253083304,0.00011272437153416747
-0.4787886566889938,-0.4787886566889938,1.0001057128127067,0.00011648983663706359
-0.4785416401660768,-0.4785416401660768,0.999960612463876,0.00011123668312041529
-0.47813698793470394,-0.47813698793470394,0.9998955941234409,0.00011277466306446237
-0.47790597493367387,-0.47790597493367387,1.0001247319474191,0.00011549501992282824
-0.47769195199216485,-0.47769195199216485,0.9999535057020704,0.00011219010970242764
-0.47749561678938335,-0.47749561678938335,0.9999782108159352,0.0001121303279629958
-0.47722313910562664,-0.47722313910562664,1.0000372271267017,0.00011840489433625871
-0.4770065932927537,-0.4770065932927537,0.9999346915426791,0.00011355734097058592
-0.4766987909475574,-0.4766987909475574,0.9999544673365317,0.00011229276295500172
-0.4764549438572431,-0.4764549438572431,0.9998854329726585,0.00011231618123016578
-0.4761489746415464,-0.4761489746415464,0.9999669831938119,0.00011845988534490869
-0.4757970261882292,-0.4757970261882292,1.0000550939705941,0.00011335583198525245
-0.4755828751898662,-0.4755828751898662,0.9999560501711702,0.00011168995589295097
-0.4753123464055534,-0.4753123464055534,0.99992789549721,0.0001200401187863838
-0.47509504884292253,-0.47509504884292253,1.0000360442176819,0.0001126429923945341
-0.4745498073709314,-0.4745498073709314,0.9999751424646537,0.00011319889187659772
-0.4740994359643082,-0.4740994359643082,1.0000853201768678,0.00011241032601492986
-0.47389305551041616,-0.47389305551041616,0.9998049085783383,0.0001166796510399833
-0.47358016959406085,-0.47358016959406085,1.000184787563339,0.00011261557959918355
-0.47320050343187176,-0.47320050343187176,1.000063018741304,0.00011281676334277515
-0.47295110374398064,-0.47295110374398064,1.000010014221758,0.00011393169169221162
-0.4727998764967197,-0.4727998764967197,0.9998493010263612,0.00011217299631192746
-0.47249526029190747,-0.47249526029190747,1.0000743597559572,0.00011538034539242314
-0.47233382147096564,-0.47233382147096564,0.9998465478080487,0.00011305958358537554
-0.4721627807550249,-0.4721627807550249,0.9998923436100438,0.00011237941411623232
-0.4718289755182923,-0.4718289755182923,1.0000793790441223,0.00011726360759618503
-0.47142602839667236,-0.47142602839667236,1.0000644093046616,0.00011407769698023862
-0.4711105642672919,-0.4711105642672919,1.0000361772203719,0.00011434601487010679
-0.470913813856896,-0.470913813856896,1.0000975840190403,0.00011456538087277859
-0.47066774898194125,-0.47066774898194125,1.0000281111299834,0.00011410562512947052
-0.4703973030045745,-0.4703973030045745,0.9998868520912196,0.00011376877568482459
-0.4702018852920446,-0.4702018852920446,1.0000692460510876,0.00011288891524348763
-0.4699216360997525,-0.4699216360997525,1.0000744865697584,0.00011229751831503512
-0.46958103922879674,-0.46958103922879674,0.9998606786348454,0.00011336190766011656
-0.46905456309905275,-0.46905456309905275,1.0000009770885776,0.00011356094394255914
-0.4686110148490116,-0.4686110148490116,1.0000788354123862,0.00011496459876483365
-0.4680762886215234,-0.4680762886215234,0.9999963669563208,0.00011065567170065478
-0.4676423762961349,-0.4676423762961349,0.9999391783674871,0.00011373479130868155
-0.46744216585721005,-0.46744216585721005,0.999849075251133,0.00011151831652437352
-0.46718726193212207,-0.46718726193212207,1.0000821273230893,0.00011583809527349534
-0.46683009157131894,-0.46683009157131894,1.0000411446704467,0.00011266563823887354
-0.4664231863956957,-0.4664231863956957,1.0001030413454537,0.00011343855795515856
-0.4661659957593656,-0.4661659957593656,1.0000285904449826,0.00011546032831988957
-0.46600934645757663,-0.46600934645757663,1.0000273508260054,0.00011479354669012235
-0.46587997913375145,-0.46587997913375145,1.000008745104333,0.00011252627609957167
-0.4656186072243145,-0.4656186072243145,0.9999362149298875,0.00011359073722781894
-0.46538897832579096,-0.46538897832579096,1.000014886836658,0.00011494138405891959
-0.4650317729116068,-0.4650317729116068,0.9997690551357596,0.00011222962085515393
-0.4647627884442045,-0.4647627884442045,0.9999994858605911,0.00011248475589839977
-0.46444808707383345,-0.46444808707383345,1.0000402223821585,0.0001172450764349113
-0.4640787979704328,-0.4640787979704328,1.0000740493396396,0.00011436363614382146
-0.4638488099219103,-0.4638488099219103,1.0001404257398352,0.00011180725244292989
-0.46356559565392674,-0.46356559565392674,1.0001405092580626,0.000119073169673557
-0.4632782537169987,-0.4632782537169987,1.000007079458927,0.00011138154503119999
-0.4626915614739119,-0.4626915614739119,0.9998459170041478,0.00011329292469740575
-0.46229580256840563,-0.46229580256840563,1.0000837863336418,0.00011349463512729422
-0.4620054291910492,-0.4620054291910492,1.0000881642773334,0.00011567736298171063
-0.4615099457987526,-0.4615099457987526,1.0000437352404308,0.00011262302371784897
-0.46122167239373085,-0.46122167239373085,0.9999302939451061,0.00011411396776229814
-0.46108490614424225,-0.46108490614424225,0.9997257199405359,0.00011273797935814958
-0.46091098786346263,-0.46091098786346263,1.0001756427680089,0.00011194658589246847
-0.46072980316748724,-0.46072980316748724,0.9999407919525618,0.00011555821915616902
-0.4605655580009625,-0.4605655580009625,1.0001712906146252,0.00011386376022931054
-0.4604264483132283,-0.4604264483132283,1.0000537564393652,0.00011249104053146914
-0.46019816555926807,-0.46019816555926807,0.9998622510139665,0.00011793639728680488
-0.45990967213656403,-0.45990967213656403,1.000025745672791,0.00011407541721903723
-0.45959588900150267,-0.45959588900150267,1.0000584021863603,0.00011490949396266883
-0.45930662816608675,-0.45930662816608675,1.0000953656630154,0.00011587124677389935
-0.4590631316161307,-0.4590631316161307,0.9999496039773396,0.00011334021293998525
-0.45873994002467955,-0.45873994002467955,0.9999283881278707,0.00011267842620107501
-0.4584693469412741,-0.4584693469412741,1.0000281934307504,0.00011301976160158712
-0.45813864744632155,-0.45813864744632155,1.0002412649230847,0.00011467313143134986
-0.45777050211909226,-0.45777050211909226,1.0000638749149857,0.00011401365139237013
-0.4573711250908673,-0.4573711250908673,0.9999774921522983,0.00011537087164792523
-0.4570222453279712,-0.4570222453279712,0.9999358060517036,0.00011629771024440696
-0.4566820039770391,-0.4566820039770391,1.0000184218369241,0.00011216633602292515
-0.45637808709361705,-0.45637808709361705,1.0001112604399258,0.00011098329779496783
-0.45602041297534013,-0.45602041297534013,0.9999697966795603,0.00011377862716869182
-0.45581078558898297,-0.45581078558898297,0.9999775591081314,0.00011667214252939457
-0.455664419959794,-0.455664419959794,0.9999705003941205,0.00011057496922651949
-0.45538096219461294,-0.45538096219461294,0.9999812934464242,0.00011648498987728597
-0.45502570512180684,-0.45502570512180684,1.0001591437521828,0.00011267190431337243
-0.4546117060810502,-0.4546117060810502,1.0001913938556228,0.00011188547589358584
-0.45435002585072654,-0.45435002585072654,1.000070645094445,0.00011650774070680076
-0.45415538283632484,-0.45415538283632484,0.9999928130228002,0.0001108217247267245
-0.4539082184659492,-0.4539082184659492,1.0001591600854889,0.00011287736343921547
-0.45370420094404834,-0.45370420094404834,0.9999428520469023,0.0001144962476526066
-0.4534327106019191,-0.4534327106019191,1.000084776299556,0.00011415842509421188
-0.4531424393171619,-0.4531424393171619,1.0000029794842242,0.00011161784238747366
-0.4529487538864487,-0.4529487538864487,0.9999084621862104,0.0001123083372068029
-0.4526034381131467,-0.4526034381131467,0.9998700654241853,0.00011774563075994143
-0.4522947699704673,-0.4522947699704673,1.0000685782258933,0.00011458757087486444
-0.45206628452651787,-0.45206628452651787,0.9998720168656133,0.00011269217909147613
-0.4517322497857094,-0.4517322497857094,1.0001147674071142,0.0001134552509307044
-0.4511269105132669,-0.4511269105132669,1.0004298462732955,0.00013570398550038042
-0.4507427652082697,-0.4507427652082697,0.9998874104312339,0.00011116292069960337
-0.45043594371454676,-0.45043594371454676,0.9999790168967204,0.00011699902487499465
-0.4500115715120046,-0.4500115715120046,0.9999622482386605,0.00011577143044296889
-0.4495666499824438,-0.4495666499824438,0.9999180847731413,0.0001130656129135037
-0.44940922435125685,-0.44940922435125685,0.9998875861718906,0.00011334230266472596
-0.44928383906008096,-0.44928383906008096,1.0000872827445941,0.00011423357787487958
-0.4491037458916253,-0.4491037458916253,0.9998443357222369,0.00011409850851177777
-0.44891728920774765,-0.44891728920774765,1.0000959330071602,0.00014075219820602593
-0.44875970231587414,-0.44875970231587414,1.000002589647528,0.00011101199486112633
-0.448562009260786,-0.448562009260786,1.0000900266796122,0.00011785843195111935
-0.448287136280851,-0.448287136280851,1.0002329939710504,0.0001146754964945272
-0.44805326421337666,-0.44805326421337666,1.0000882719590893,0.00011447060003084979
-0.44775193802561264,-0.44775193802561264,1.0000480615492637,0.00011448535888139881
-0.4475273089738039,-0.4475273089738039,1.000041412606453,0.00011575156934846879
-0.44728077204636063,-0.44728077204636063,1.0000270074561701,0.00011298212065302656
-0.44692396906539217,-0.44692396906539217,0.9999494332807156,0.0001138435310839795
-0.44666792277639616,-0.44666792277639616,0.9998855647623726,0.0001122341992561453
-0.44635912194353294,-0.44635912194353294,1.0000408333502395,0.00011432491087015606
-0.4460028809218784,-0.4460028809218784,1.000224507886211,0.00011460689757953593
-0.4456942688957497,-0.4456942688957497,1.0001189942715611,0.000117683888810175
-0.445286042252701,-0.445286042252701,1.0000177567077548,0.00011479546278330892
-0.44504606460104695,-0.44504606460104695,1.00015718632705,0.00011314235014114987
-0.44471711091027827,-0.44471711091027827,1.0000669853097541,0.00011108525119189312
-0.4443035084696021,-0.4443035084696021,1.0000271238741527,0.000112157911933149
-0.44401303130798625,-0.44401303130798625,1.000050150188883,0.00011422794535307867
-0.4438440355756029,-0.4438440355756029,1.0000620009569807,0.00011198847304501889
-0.44357235934148775,-0.44357235934148775,1.000283487117191,0.00011685974765644859
-0.44322774282700267,-0.44322774282700267,0.9999553156794965,0.00011382299793210874
-0.4428135183101404,-0.4428135183101404,0.9999152493155675,0.00011298381151643216
-0.44259167836717095,-0.44259167836717095,0.9999258620432696,0.00011763326025952199
-0.44241355241829294,-0.44241355241829294,1.0000501091572187,0.00011148205367556984
-0.4421692263924342,-0.4421692263924342,0.9999478959596846,0.00011305074300750295
-0.44197906046465507,-0.44197906046465507,1.0000177437616422,0.00011616736401872734
-0.4417212451880914,-0.4417212451880914,0.9999294695789294,0.00011380916135015204
-0.44150508044695014,-0.44150508044695014,0.9998329819609981,0.00011348213535726094
-0.4412620792601956,-0.4412620792601956,0.9999536413256767,0.00011111505704065102
-0.4409585709152452,-0.4409585709152452,1.0000333053969506,0.00011547917578000893
-0.4406612265513104,-0.4406612265513104,0.9999222685806373,0.00011637555364778992
-0.4403434167288651,-0.4403434167288651,1.0000482949658693,0.00011163506986299684
-0.44000257646112007,-0.44000257646112007,0.9998110782888399,0.00011286677846739391
-0.43938780066600885,-0.43938780066600885,1.00026082351807,0.00012853272280963264
-0.43901527658017586,-0.43901527658017586,0.9999955237408444,0.00011115026812055411
-0.43870401630410927,-0.43870401630410927,1.0000970692122397,0.00011704376646131923
-0.4382307908090297,-0.4382307908090297,0.9999632558483642,0.00011334277738971507
-0.437914463620109,-0.437914463620109,0.9998768197939949,0.0001125100735134439
-0.43767824670212574,-0.43767824670212574,1.000200277543187,0.00011378628793669002
-0.43748298648424677,-0.43748298648424677,1.000072265656911,0.00011290059139000007
-0.4372838393210259,-0.4372838393210259,1.00054918541687,0.00013643019674961697
-0.43708708503254456,-0.43708708503254456,1.0000690313999296,0.00011474044180956889
-0.4369868827445316,-0.4369868827445316,1.0000649091483413,0.00011269140396361233
-0.4367857566969178,-0.4367857566969178,1.000083198598831,0.00011719287787901534
-0.43644775839566136,-0.43644775839566136,1.0001656744173344,0.00011406002080938983
-0.4361944421114458,-0.4361944421114458,1.0000491010730983,0.0001138884630818841
-0.4358709466607252,-0.4358709466607252,0.9998340552680137,0.00011652764785944666
-0.43572958057484357,-0.43572958057484357,1.0000004735743329,0.00011420081571097754
-0.43549702921445715,-0.43549702921445715,0.9999761914511518,0.000112672099385445
-0.435167882834503,-0.435167882834503,0.9999571354986065,0.00011274691222616044
-0.4349017194217595,-0.4349017194217595,1.0000179290395,0.00011374740418528535
-0.43465306039433926,-0.43465306039433926,1.0001585912399475,0.00011507923256187812
-0.4343054236509488,-0.4343054236509488,1.0000413130799657,0.00011305627230983174
-0.43397643600401353,-0.43397643600401353,0.9999230287692769,0.00011706218885890293
-0.4336240951430227,-0.4336240951430227,1.000121997279286,0.0001150910865184196
-0.4332684327004245,-0.4332684327004245,1.0000633774847758,0.00011255021766375308
-0.4329110488986771,-0.4329110488986771,1.000060031578362,0.00011109005602105335
-0.4326107048887934,-0.4326107048887934,1.0001518614582001,0.00011369826914918091
-0.4323035597437411,-0.4323035597437411,1.0000594970908279,0.00011401756193978037
-0.4321600341318117,-0.4321600341318117,1.000146204718952,0.00011092556440194987
-0.43183967926670447,-0.43183967926670447,0.999975436801073,0.0001168016248105983
-0.43149528863941666,-0.43149528863941666,1.0001519974097965,0.0001133557721955293
-0.4310783198678109,-0.4310783198678109,0.9999735329044652,0.00011298449365171875
-0.4308279658747779,-0.4308279658747779,0.9999030740666184,0.00011512584603956622
-0.430655359159573,-0.430655359159573,0.9999009092294404,0.00011312663126494613
-0.4304420573236712,-0.4304420573236712,1.000065089855489,0.00011415840923157557
-0.43024186543843823,-0.43024186543843823,0.9998472746476393,0.00011291408891959587
