time,time,flux,flux_err
-0.49916084929039545,-0.49916084929039545,0.9999653279840078,0.0001314684559445942
-0.4980703645390652,-0.4980703645390652,1.0001061737762051,0.0001310716692630598
-0.49748930866978,-0.49748930866978,0.9998406122769907,0.00013084629733350078
-0.4972102640735102,-0.4972102640735102,1.0000252848301532,0.00011985492295365176
-0.4966998532923753,-0.4966998532923753,1.0002305176384756,0.00012008609212521292
-0.4959592729115684,-0.4959592729115684,0.9999791515002446,0.0001204838107138417
-0.4948099173612718,-0.4948099173612718,0.9999975929513452,0.00011977300184205198
-0.49374471307091883,-0.49374471307091883,0.9999328713290145,0.00011951027583321353
-0.4932162490178598,-0.4932162490178598,1.0000367497711253,0.00011950993715227314
-0.49209530752777936,-0.49209530752777936,1.0000339117391968,0.00011983234953201096
-0.4910123859976011,-0.4910123859976011,1.0000486611700563,0.0001195988339703919
-0.49059312104946,-0.49059312104946,1.0000865709198445,0.00011937881126488697
-0.48992141971612,-0.48992141971612,0.9998986039778988,0.0001191427341700553
-0.4893972799553012,-0.4893972799553012,1.0001097718778302,0.00011996447971576714
-0.4886188990829396,-0.4886188990829396,0.999980552049586,0.00012029775448718424
-0.4874244140475639,-0.4874244140475639,1.0000414095720296,0.0001197359220011029
-0.4865426439304429,-0.4865426439304429,1.0000643980106845,0.00012146878420282613
-0.4862486014870228,-0.4862486014870228,1.000031597692913,0.00011961493860509486
-0.4852845941844862,-0.4852845941844862,1.0000137104586626,0.00012029412113358275
-0.48396008395939133,-0.48396008395939133,0.9997984544556371,0.00011940662260420813
-0.4830950432085956,-0.4830950432085956,1.0001250308835903,0.0001201151552084594
-0.48264673618177767,-0.48264673618177767,1.0001416522383209,0.00011895408752398695
-0.4821956264699111,-0.4821956264699111,1.0000114512170923,0.00011997877563684645
-0.4809799314411066,-0.4809799314411066,1.0000173405337318,0.00012013671134992923
-0.4801694600595511,-0.4801694600595511,0.9999235518556862,0.00011940551234550704
-0.4794168858446938,-0.4794168858446938,0.9998642862425535,0.00012156153552236935
-0.4791425058581808,-0.4791425058581808,0.9998637941704965,0.00012209218870102924
-0.4789531701913802,-0.4789531701913802,1.0001660923706361,0.00011951045172154271
-0.4771484354234417,-0.4771484354234417,0.9999054715629454,0.00011975620310412966
-0.4759574688272551,-0.4759574688272551,1.0003126810057652,0.00011941510880113834
-0.47552681547240355,-0.47552681547240355,0.9999969639013733,0.00012169943720600129
-0.47538477153066194,-0.47538477153066194,1.0000724909213745,0.0001191186198008965
-0.4746933089918457,-0.4746933089918457,1.000014092598116,0.00011995029291611025
-0.4734655233361991,-0.4734655233361991,1.000022921424908,0.00012006778181798928
-0.47266340954593034,-0.47266340954593034,1.0001003279730842,0.00011942829067228813
-0.4722510047984542,-0.4722510047984542,1.0000154551644118,0.00011924576992769418
-0.4720142382881022,-0.4720142382881022,0.9999782984222613,0.0001198787740655229
-0.4717518824436411,-0.4717518824436411,0.9999880114028479,0.00011968998226143496
-0.4707257765920076,-0.4707257765920076,0.9999585724901516,0.00012004657109950702
-0.4691665270533122,-0.4691665270533122,0.9999870146214768,0.00011946112193621892
-0.4686739825607219,-0.4686739825607219,0.9998435188741169,0.00011938649705941624
-0.4683202946500387,-0.4683202946500387,1.000169529437355,0.00012021337018821498
-0.4674476147767564,-0.4674476147767564,0.9999709620829537,0.00011968000213377684
-0.46588158705781096,-0.46588158705781096,1.0000619006774538,0.00011972891131626558
-0.46514940441556973,-0.46514940441556973,0.9999491179754989,0.00011960693877171449
-0.4644461550131382,-0.4644461550131382,1.0000316133858074,0.00011915614976573156
-0.46346769253214004,-0.46346769253214004,1.0000196167546536,0.00012010789260671117
-0.4624911395156232,-0.4624911395156232,0.9999918138979762,0.00011986123962058975
-0.46142233267237315,-0.46142233267237315,0.9999546451256454,0.00011964106780159721
-0.46096320477154223,-0.46096320477154223,1.0001186159798499,0.00011966939109609176
-0.4594602323741128,-0.4594602323741128,1.0000225754302052,0.00012010962624062961
-0.4582131955954537,-0.4582131955954537,1.0000404099738573,0.00011952511939914566
-0.4574597677521524,-0.4574597677521524,1.0001883320502916,0.00011897559575622726
-0.45705468610394745,-0.45705468610394745,1.0000232280882362,0.00011979728632853051
-0.4558622360433219,-0.4558622360433219,0.9999607607120738,0.00011991836555602143
-0.45491324524919036,-0.45491324524919036,0.9999971654896896,0.00011941038302678182
-0.4541081688257691,-0.4541081688257691,1.0000066877078342,0.00011982345890183988
-0.45380801359788164,-0.45380801359788164,0.9999923042471085,0.00011927497457152035
-0.45327458702231527,-0.45327458702231527,1.0001297077728937,0.00011970724136732337
-0.4513332541791897,-0.4513332541791897,0.9998622656576501,0.00011970909569153643
-0.45028824841137977,-0.45028824841137977,1.0000521536265916,0.00011897845889616187
-0.4499204573905445,-0.4499204573905445,0.9999779353823153,0.00011958560278476924
-0.4484987593583355,-0.4484987593583355,1.0000341709719969,0.000120085355196653
-0.4475551987263316,-0.4475551987263316,0.999954989074227,0.00011973969517274508
-0.44708590782101965,-0.44708590782101965,1.0000521250534846,0.00011923453857967123
-0.4467469842318678,-0.4467469842318678,0.9999552328885872,0.00011980359788208233
-0.44639899059475285,-0.44639899059475285,1.0000965633384418,0.0001200297770002955
-0.4451401522834203,-0.4451401522834203,0.9999520088333412,0.0001199445491538717
-0.44407255547121166,-0.44407255547121166,0.9998728041735445,0.00011957737845680634
-0.4436298828484723,-0.4436298828484723,1.00004794520531,0.00011944812777445965
-0.44336521706936766,-0.44336521706936766,0.9999058402020662,0.0001193754159150377
-0.44300761561244145,-0.44300761561244145,0.9999436941569169,0.00011930276583252346
-0.4424575590914174,-0.4424575590914174,1.0000043358250097,0.00011968913886555965
-0.441213992224948,-0.441213992224948,0.9998739209536819,0.00011986564945296286
-0.4403058270960173,-0.4403058270960173,0.9998282580064352,0.00011961480633294206
-0.4399303955484356,-0.4399303955484356,0.9999859528989845,0.00011927925993196009
-0.4394009384603123,-0.4394009384603123,0.9999420147999963,0.00011931670398449688
-0.43885344935260945,-0.43885344935260945,1.0002121066937857,0.00011980343943075107
-0.4372948334697867,-0.4372948334697867,0.9999250103909805,0.000120043141362009
-0.43604911656948386,-0.43604911656948386,1.0000922059238468,0.00011973848385745409
-0.43420218491519336,-0.43420218491519336,0.9999219441237539,0.0001200280533840484
-0.4331184453600144,-0.4331184453600144,0.9999067707927001,0.00011941691828070565
-0.43245612640093894,-0.43245612640093894,0.9998594368673832,0.00011931180963449357
-0.43186893790480096,-0.43186893790480096,1.00007408115368,0.00011963512478865257
-0.43061878579392215,-0.43061878579392215,1.0001079075776806,0.00011991977215693168
-0.42976585077340135,-0.42976585077340135,1.000014148538025,0.00011943487889997165
-0.42898122105616493,-0.42898122105616493,0.9997869867009141,0.00012127943153909175
-0.42856638849916634,-0.42856638849916634,0.9998414783679088,0.00011924753091352067
-0.4280525685760949,-0.4280525685760949,1.0002432705318292,0.00011978626553599031
-0.4267515429921332,-0.4267515429921332,1.0001546238052226,0.00011987721914439668
-0.4260489332154975,-0.4260489332154975,1.000029383187212,0.00011912807105295806
-0.4252847432639101,-0.4252847432639101,1.0000393316565206,0.00011957474543274346
-0.42492748907534406,-0.42492748907534406,0.9997690490821167,0.00011894620728820271
-0.4246567456611956,-0.4246567456611956,1.000020333212839,0.00011958561310934757
-0.42300820687087254,-0.42300820687087254,1.00025366048654,0.00012010235803461744
-0.42176674186775925,-0.42176674186775925,0.999949825715758,0.00011991750166991877
-0.42128198399732353,-0.42128198399732353,1.0000409477048973,0.00011947081921871894
-0.4204325584963954,-0.4204325584963954,1.0001849765907356,0.00012029027269685541
-0.41904991353003423,-0.41904991353003423,0.9999854505680587,0.0001197402525525204
-0.41828396425626124,-0.41828396425626124,1.0000006141524742,0.00011927062467617814
-0.4178884660090262,-0.4178884660090262,0.9998653671422506,0.00011930908495375882
-0.4172151279490208,-0.4172151279490208,1.0003062947058907,0.00011980298789109396
-0.4156829790888878,-0.4156829790888878,1.0000447063607358,0.00011989582136037373
-0.4149354191147722,-0.4149354191147722,0.9998825488216336,0.0001207343753099806
-0.4145027797923831,-0.4145027797923831,0.9998847678717686,0.00011956107699264538
-0.4141177102937945,-0.4141177102937945,1.0001572767555718,0.00011965485624787591
-0.41382275201540325,-0.41382275201540325,1.0001686253917792,0.00011969775854303352
-0.41306260284472957,-0.41306260284472957,1.000147157431865,0.00012053496611390488
-0.4120877040419145,-0.4120877040419145,1.0000902839220998,0.00011988858364791255
-0.4111996891966555,-0.4111996891966555,1.0000113096339276,0.00011946124361550093
-0.4106792230879364,-0.4106792230879364,1.0001262521488399,0.00011970616269590592
-0.4093655913384282,-0.4093655913384282,1.0001402679068918,0.00012045214573389157
-0.4081613826499961,-0.4081613826499961,1.0000025627316824,0.00011955924295147106
-0.40753138319050775,-0.40753138319050775,1.000118487772626,0.00011972768100730375
-0.4068619533638412,-0.4068619533638412,1.000011244351884,0.00011929889736987179
-0.4064888532484474,-0.4064888532484474,1.0001150691288978,0.00011983438434117071
-0.4057236644999648,-0.4057236644999648,1.0001169686943858,0.00012032505517781369
-0.4045763168433041,-0.4045763168433041,1.0001021796492906,0.00011985007888906709
-0.4035543736972613,-0.4035543736972613,0.9999507877978744,0.0001222244486600615
-0.4032721191128076,-0.4032721191128076,1.000162554938002,0.00011942649804394547
-0.4029509400163079,-0.4029509400163079,1.0001844978190981,0.00011953718934481244
-0.40186174029222455,-0.40186174029222455,1.0001039854143665,0.0001199549061983346
-0.40090806791049544,-0.40090806791049544,1.000084755892702,0.0001194379149093993
-0.4002760345458228,-0.4002760345458228,1.0000987714826506,0.00011939441942263145
-0.39975822480555506,-0.39975822480555506,0.9997764663881481,0.00011924020196331855
-0.3995976881131355,-0.3995976881131355,0.999975713356663,0.00011910517822612583
-0.3992670617728436,-0.3992670617728436,0.9999516021710761,0.00011997194878941053
-0.3983267242947477,-0.3983267242947477,1.000116652091491,0.00011977862331094864
-0.3972893338650465,-0.3972893338650465,0.999990082469127,0.00011973539838915269
-0.3964118553063599,-0.3964118553063599,0.999983352926626,0.0001219755965115975
-0.3961150018316403,-0.3961150018316403,0.9999985920633134,0.00011927858771123702
-0.3960207469863235,-0.3960207469863235,1.0001883695800091,0.00011929224868027369
-0.394918917749601,-0.394918917749601,0.9997942344909518,0.00012012145691527609
-0.3936635344485694,-0.3936635344485694,0.9999668814196163,0.0001197291630087611
-0.39290754679095696,-0.39290754679095696,1.0000935846877752,0.00011959747096311024
-0.3925075544793799,-0.3925075544793799,1.0000541113091548,0.00011964513002876398
-0.3922998166577599,-0.3922998166577599,0.9998562062111166,0.00011945626934087124
-0.391271608327952,-0.391271608327952,0.9999906366878673,0.00012003624356881715
-0.38988853708360693,-0.38988853708360693,1.0001345777784798,0.00011974330239324838
-0.3892877383535961,-0.3892877383535961,1.0000635396240565,0.00011925287584675819
-0.38897066087229176,-0.38897066087229176,0.9999834462904517,0.00012001391449999574
-0.3885230099935143,-0.3885230099935143,0.9999901107308047,0.0001195146869337356
-0.38765421670977956,-0.38765421670977956,1.0000521304210752,0.00012048671875695605
-0.38657823777393785,-0.38657823777393785,1.000040940722807,0.0001197281645067695
-0.3856983363519248,-0.3856983363519248,1.0000809408299027,0.00011974462398666164
-0.385157734756649,-0.385157734756649,0.9998996132203184,0.00011948142811639577
-0.3840067013821681,-0.3840067013821681,0.9999380676778747,0.00012004178991769051
-0.38290912687589296,-0.38290912687589296,0.999939138152229,0.0001195579515778124
-0.38232350610414867,-0.38232350610414867,0.9998436566714389,0.00011957955420405574
-0.3815567201687372,-0.3815567201687372,0.9998695048567118,0.00011910846232732926
-0.38068828925606796,-0.38068828925606796,1.0000520586775874,0.0001206221724496018
-0.37922626269064497,-0.37922626269064497,1.0001450738322337,0.00011991729240902352
-0.37826538275621713,-0.37826538275621713,0.9997774054242585,0.00012238344201667765
-0.3780196067491488,-0.3780196067491488,0.9999572570928004,0.0001192577158512797
-0.3776550517315627,-0.3776550517315627,1.0000268293512127,0.00011970703581559915
-0.37640868210582995,-0.37640868210582995,1.0000988700520308,0.00012012401739432889
-0.375432638766506,-0.375432638766506,0.9997951946985827,0.00011924879627625283
-0.37464212540144215,-0.37464212540144215,1.0000256139734467,0.00012008683319271411
-0.3743435475815204,-0.3743435475815204,0.9999182647300113,0.00011893956654661182
-0.37389004635770107,-0.37389004635770107,1.0003585166225213,0.00012000153089453327
-0.3726737077369762,-0.3726737077369762,1.0001064733687852,0.00012013801829838121
-0.37191251874537556,-0.37191251874537556,0.9999376016034793,0.00011942889337080848
-0.371243916865933,-0.371243916865933,1.0000392966861582,0.0001200912623666393
-0.37088471480528823,-0.37088471480528823,0.9999237707188444,0.00012342569606438365
-0.3706516645899683,-0.3706516645899683,1.0000620510614115,0.00011983768445272135
-0.3689541122825176,-0.3689541122825176,0.9999882223953716,0.00011992172965746813
-0.3677943117872928,-0.3677943117872928,0.9999816193714827,0.00011941700465461447
-0.3672922875179211,-0.3672922875179211,0.9998218875666378,0.00012171490777883921
-0.3671372118486033,-0.3671372118486033,0.999988632827724,0.00011895419839369011
-0.36678449554819964,-0.36678449554819964,0.9997614811143565,0.00012009873852356716
-0.36566403742472176,-0.36566403742472176,1.000058871206369,0.00012006652360228901
-0.3645423487148946,-0.3645423487148946,0.9998291386313631,0.00011957531377121316
-0.3640245337504894,-0.3640245337504894,1.000014111265158,0.00011908940324268002
-0.36382710936813967,-0.36382710936813967,0.9998505065058441,0.0001200880052947463
-0.36355959020729645,-0.36355959020729645,0.999998835705853,0.00011916422161936773
-0.3631514233216876,-0.3631514233216876,1.0001851014144736,0.0001202141114289335
-0.3617221295098716,-0.3617221295098716,0.9998025851077917,0.00011981545743058029
-0.36057921243700547,-0.36057921243700547,1.0000976176963723,0.00011931541595264245
-0.36011597974065807,-0.36011597974065807,0.9999024726756549,0.00011930691306701586
-0.3588668620068347,-0.3588668620068347,0.9999707033198328,0.00011968382746409622
-0.3574794352061872,-0.3574794352061872,1.000011684609761,0.00011955649671858757
-0.35684370941307864,-0.35684370941307864,0.9999964242477999,0.00011961642272767456
-0.3561110667083994,-0.3561110667083994,0.9999727756824054,0.00011939122131422336
-0.35484359091788065,-0.35484359091788065,0.9999896846175392,0.00011988023806344149
-0.35373740739232745,-0.35373740739232745,1.0000370988550595,0.00011974616150134775
-0.35289241942664373,-0.35289241942664373,1.0001226191940809,0.0001195556503244913
-0.35176902791135944,-0.35176902791135944,0.9998578591514825,0.00012135717590036721
-0.35082702625586537,-0.35082702625586537,1.0001961713416705,0.00011954034293796355
-0.34968290874385277,-0.34968290874385277,1.0002072301909877,0.00011936459429927832
-0.3490772076700523,-0.3490772076700523,1.0002615063645923,0.00011896298000964167
-0.3487494614171737,-0.3487494614171737,1.0000444204287942,0.00011979107879009777
-0.34756199462135556,-0.34756199462135556,0.9999659106663342,0.00011990247797779822
-0.34672586567976393,-0.34672586567976393,1.0000631823950434,0.00011941925706946319
-0.34596546903630954,-0.34596546903630954,1.0001366552933117,0.00012001243666705727
-0.34550798011187,-0.34550798011187,0.9999711868173637,0.00011926505581315124
-0.3449693727932754,-0.3449693727932754,1.000177671904916,0.00011970674170273318
-0.34302735844394194,-0.34302735844394194,0.9999461219722544,0.00011971331825039343
-0.34209881773640516,-0.34209881773640516,1.0001424829442973,0.00012172407428941898
-0.3418242403880868,-0.3418242403880868,1.0001015172051821,0.00011912208200128857
-0.34105713589524383,-0.34105713589524383,0.9999839146671388,0.00011998347867795214
-0.33977455080312213,-0.33977455080312213,1.0000732789888382,0.00011988643239281155
-0.3391489063142217,-0.3391489063142217,0.9999760627815846,0.00011973952856051846
-0.338705703557207,-0.338705703557207,0.9999682022657641,0.00011914430377352243
-0.3383834539890813,-0.3383834539890813,0.9999516882402913,0.00011972845227423148
-0.33798304457159245,-0.33798304457159245,0.9999298417129452,0.00012019220284783616
-0.33689682350013755,-0.33689682350013755,0.9998218961203917,0.000119758207727913
-0.33576693483337294,-0.33576693483337294,1.0000287837546684,0.00011958718434072009
-0.33532510116347114,-0.33532510116347114,1.0000448337340786,0.00011945085966714414
-0.33506044381138056,-0.33506044381138056,1.0000535102043442,0.00011938921073584169
-0.33468978427627005,-0.33468978427627005,1.0000479946053826,0.00011930337520018061
-0.3339411155473499,-0.3339411155473499,1.0002498274082463,0.00011970829351032801
-0.3328112139475706,-0.3328112139475706,0.9998704702157959,0.00011970109266670376
-0.33190698980906747,-0.33190698980906747,0.999966806261636,0.0001196277095180911
-0.33153207630239195,-0.33153207630239195,0.9999919402159007,0.00011943670861359235
-0.3310389165155357,-0.3310389165155357,0.9999164241805569,0.00011911554969768181
-0.3301383172241913,-0.3301383172241913,0.9998434499349116,0.00012010698389215185
-0.32861413661667027,-0.32861413661667027,0.9998170063242693,0.00011987943830202023
-0.3276857160184591,-0.3276857160184591,1.000037746497084,0.00011958303956442198
-0.32627285163398484,-0.32627285163398484,1.0000450803926948,0.00011985736915851161
-0.3250139448151458,-0.3250139448151458,1.0002137764532786,0.00011959332273210252
-0.32445693912450224,-0.32445693912450224,0.9997829389633583,0.00011952810730853478
-0.3237770133826416,-0.3237770133826416,1.0000628770802922,0.00011912548572256733
-0.32320416642105554,-0.32320416642105554,1.0000315803744662,0.00011987830010313948
-0.321737387781468,-0.321737387781468,1.0000142939490195,0.00011973766797828099
-0.320995487277105,-0.320995487277105,1.0001216963006838,0.00011970860592009247
-0.3203688219509786,-0.3203688219509786,1.000143860050581,0.00012097597486639033
-0.3202026370185195,-0.3202026370185195,1.0001607445223129,0.0001189565097187517
-0.3190976172940282,-0.3190976172940282,0.9998692353526893,0.00012011371150922497
-0.3179235086470726,-0.3179235086470726,1.000148952450013,0.00011946445945164586
-0.31717341649637093,-0.31717341649637093,1.0001199404685508,0.00011938202051662745
-0.316641505354346,-0.316641505354346,1.0001046943546839,0.00011896175195522023
-0.31645762855696374,-0.31645762855696374,1.0001696871860193,0.00011929178720033196
-0.315218777298287,-0.315218777298287,1.000121876737939,0.00012022750247850526
-0.3139365726572578,-0.3139365726572578,0.9999482538698838,0.00011956212664337351
-0.31311827679382986,-0.31311827679382986,1.0001423493358625,0.00011971648817217314
-0.3129025676447782,-0.3129025676447782,1.0002069909977351,0.00011980128329595744
-0.31172755018560566,-0.31172755018560566,0.999977007980197,0.00011992050623566971
-0.3103864618606167,-0.3103864618606167,0.9999553668150594,0.00011943078775114649
-0.3099615645260201,-0.3099615645260201,1.0000870872015486,0.00011941520591265598
-0.3095973299285106,-0.3095973299285106,1.0001113753276607,0.00011951022417610079
-0.30915301197746886,-0.30915301197746886,0.9999441538701894,0.000119613868548456
-0.30799222450805247,-0.30799222450805247,0.9998745466141121,0.00011990207254506187
