time,time,flux,flux_err
-0.49949626994384744,-0.49949626994384744,0.999198147169522,0.0010603955830804396
-0.4990218453428194,-0.4990218453428194,1.0000428213958095,0.0009351041310322647
-0.4986262863327283,-0.4986262863327283,0.9994399770831798,0.0010007109896319705
-0.4976308974997664,-0.4976308974997664,0.9999040936763729,0.0008180319618077659
-0.49702436484294593,-0.49702436484294593,1.000213526875619,0.0009043984452868437
-0.496870550323365,-0.496870550323365,0.9999456525467985,0.0009351623887058778
-0.496662392187136,-0.496662392187136,1.0009156124025531,0.0009250725649120033
-0.49653325830586253,-0.49653325830586253,0.9998593198489119,0.0009714748995646484
-0.49637766098749125,-0.49637766098749125,0.9992629113781497,0.0009182676470463419
-0.4959783551181317,-0.4959783551181317,0.999374385507074,0.0009291925571629159
-0.4954178308034898,-0.4954178308034898,1.0008136082522294,0.0009226484341787992
-0.4948688212229172,-0.4948688212229172,0.9983720130781746,0.0008667871562180575
-0.49439374822832177,-0.49439374822832177,1.0002832795452279,0.000982511294372671
-0.4941058161442925,-0.4941058161442925,0.9982403048867532,0.0009141309013256515
-0.49390852085416553,-0.49390852085416553,0.9990324963839701,0.0009215056798795711
-0.4933895471964206,-0.4933895471964206,0.9992264679183794,0.001004832342017235
-0.4926886358734919,-0.4926886358734919,1.0006487347876736,0.0008910215629339798
-0.4921949129246059,-0.4921949129246059,0.9999078300963223,0.000962616477881339
-0.4920018393189821,-0.4920018393189821,1.0005675378289698,0.0009133541014824187
-0.49178106157560253,-0.49178106157560253,1.00076175187479,0.0009734558259403387
-0.49158795490075136,-0.49158795490075136,0.9999086957595015,0.0008906204879579783
-0.49123988738501795,-0.49123988738501795,1.0001527277211228,0.0009888136335398975
-0.4907300880971889,-0.4907300880971889,0.9986768255618964,0.0009056602570664572
-0.49030597119199226,-0.49030597119199226,1.0010394393623598,0.0009115284087652409
-0.48947960779987626,-0.48947960779987626,1.0002132427597492,0.0009584146902370444
-0.4892222568822035,-0.4892222568822035,0.9999450813077244,0.0008419077634134959
-0.4889773817594687,-0.4889773817594687,0.9995875170985853,0.0009657752061890928
-0.48821213374249056,-0.48821213374249056,1.0000939997091887,0.0008646034781766238
-0.4874207038257737,-0.4874207038257737,0.9994723455355274,0.0008817059796108883
-0.4871683095487242,-0.4871683095487242,1.0002568868879511,0.0009454668785989042
-0.4869959646261123,-0.4869959646261123,0.9989642750097755,0.0008726933061234618
-0.48680832883910624,-0.48680832883910624,0.9991546870893397,0.0009862130327165943
-0.48666020019736606,-0.48666020019736606,1.0010348230706867,0.0009463799240967324
-0.48628540620338756,-0.48628540620338756,0.999819981076093,0.0009011981166456521
-0.48571073383573093,-0.48571073383573093,0.999765670144923,0.0010124071575804959
-0.4852009931477369,-0.4852009931477369,1.000312029302405,0.0008372407553841543
-0.4846927813559887,-0.4846927813559887,1.00153138221931,0.000999208912634036
-0.48442843052980605,-0.48442843052980605,1.0000228243464409,0.0009244538688509471
-0.4842573943038587,-0.4842573943038587,1.0003483133637265,0.0008814932007647651
-0.4839114163645718,-0.4839114163645718,1.0002190075708566,0.0009689314983513725
-0.48322753414031466,-0.48322753414031466,1.000287144539222,0.000971188149859445
-0.4825030696498288,-0.4825030696498288,0.9999256238196338,0.0009544162613455805
-0.48228166610060724,-0.48228166610060724,1.0000999156059003,0.0008865510547476221
-0.4821126456910861,-0.4821126456910861,1.0006169088319523,0.0009555345954769699
-0.4819175274875306,-0.4819175274875306,0.9989135036704925,0.0009193841895116702
-0.48167333454985056,-0.48167333454985056,1.0003087793518897,0.000946522259117598
-0.4810796756966738,-0.4810796756966738,0.999931378130231,0.0009055254572587479
-0.48064944026846207,-0.48064944026846207,0.998260349294576,0.0009351080542571449
-0.47984651508741083,-0.47984651508741083,0.9998670050153521,0.0009308725749598106
-0.4794803325246903,-0.4794803325246903,0.9998392716099641,0.000890099010087403
-0.47923758314718723,-0.47923758314718723,0.9990897627674732,0.0009185009757258468
-0.4786270345619414,-0.4786270345619414,0.99994660531605,0.0009148714352138499
-0.4776806214438693,-0.4776806214438693,0.99903828938772,0.0009079361091028498
-0.47741795170586554,-0.47741795170586554,0.9991139098371395,0.0008823138660840146
-0.4772536133103131,-0.4772536133103131,1.000637240266736,0.0009625356324747586
-0.477058168574149,-0.477058168574149,0.9997021474435019,0.000936356409147702
-0.4769029294453503,-0.4769029294453503,1.0001035776636598,0.0009499002061390579
-0.47653679636714513,-0.47653679636714513,0.9989750337626822,0.0009009792571084343
-0.4759403314004885,-0.4759403314004885,1.0006460785782032,0.0009225176611317093
-0.4753273056812759,-0.4753273056812759,0.9996311523460566,0.0008887518266541327
-0.47486592298009783,-0.47486592298009783,0.9981444283162226,0.0010061986844921325
-0.4746179730100266,-0.4746179730100266,1.0003375509328503,0.0008371404265572769
-0.47445657820280757,-0.47445657820280757,1.0000827895136204,0.0009637397458306569
-0.47389601859031244,-0.47389601859031244,0.9991616014447338,0.0010274698980771405
-0.4732026639096148,-0.4732026639096148,1.0000331692136109,0.000890959153991779
-0.4726110088529822,-0.4726110088529822,1.0009570552726206,0.0009328464187192435
-0.4724730187532259,-0.4724730187532259,0.998565581269893,0.00089331029237937
-0.47224485055048715,-0.47224485055048715,1.000786757821625,0.0009355870376248255
-0.47211133206437805,-0.47211133206437805,0.9999157997453549,0.0009793434664715321
-0.4717955854095635,-0.4717955854095635,0.9991644184007897,0.0009448847470982944
-0.4712596628065512,-0.4712596628065512,1.0008137213481894,0.0009050996474944774
-0.4707394274068065,-0.4707394274068065,1.0003450293963967,0.0009064831190198002
-0.47000063702071204,-0.47000063702071204,0.9988740485498665,0.0009652709359291894
-0.4696951674850425,-0.4696951674850425,1.0001055806250085,0.0009146939941472039
-0.46952261656406336,-0.46952261656406336,1.0000582065020907,0.0009198622207930556
-0.4687234919241746,-0.4687234919241746,1.0001849940036518,0.0009046400631258931
-0.467923774755036,-0.467923774755036,1.0004330758889968,0.0009358040025736547
-0.467666466243827,-0.467666466243827,1.0005757780075344,0.0008833063354657366
-0.4674604201754846,-0.4674604201754846,1.0008305207391675,0.0009630664934680872
-0.46722398455822256,-0.46722398455822256,1.0001589559969088,0.0009284611055442934
-0.4670626370985701,-0.4670626370985701,1.000270261841358,0.0009496926993244958
-0.46656714482160166,-0.46656714482160166,0.9997426645889063,0.0009427401271948175
-0.4659239362270455,-0.4659239362270455,1.0005788724956708,0.0008828665598016311
-0.46532432113090183,-0.46532432113090183,0.9996459422166512,0.0009443759019691878
-0.4649702721297217,-0.4649702721297217,1.0006663383276593,0.0009338289337223764
-0.46472639369021634,-0.46472639369021634,0.999933802589332,0.0009270330075113242
-0.46430731705913786,-0.46430731705913786,1.0006984475203446,0.0009590128926751033
-0.4634159983943391,-0.4634159983943391,0.9997892496089961,0.0008515376600235749
-0.46283639018729444,-0.46283639018729444,1.0004744864073765,0.0009353695469532615
-0.4627251669997349,-0.4627251669997349,1.0007951771423689,0.0008958825761533342
-0.4624885758305027,-0.4624885758305027,1.001223646762674,0.0009574301301283053
-0.4623533999067149,-0.4623533999067149,0.9990907604018832,0.0009519048777553605
-0.462116315394087,-0.462116315394087,0.9995741528751353,0.0009078329532597679
-0.46167653634547606,-0.46167653634547606,1.0000941765285212,0.0009052010139722823
-0.46120056275030946,-0.46120056275030946,1.0000867297733333,0.0009043912961084694
-0.46051547049646613,-0.46051547049646613,1.0001881341481265,0.0009660999760329242
-0.4600016772259551,-0.4600016772259551,0.9985982809873276,0.000951807827200524
-0.459844528123358,-0.459844528123358,0.9990649268670622,0.000903252047510307
-0.45957135783683045,-0.45957135783683045,1.0005361164035196,0.0009364482174004108
-0.45878825401887297,-0.45878825401887297,0.9996104157790766,0.0008821120733328634
-0.4580757160074427,-0.4580757160074427,1.0001499526282347,0.0009565358745133284
-0.4578612329925818,-0.4578612329925818,1.0001526184323586,0.0008827986919196925
-0.4576388690111344,-0.4576388690111344,0.9996729440115925,0.0010001217446227507
-0.4573804624502372,-0.4573804624502372,0.9992479167758148,0.0009141052250227356
-0.45715766799257834,-0.45715766799257834,1.000093617895668,0.0009334554186841123
-0.4566642810641497,-0.4566642810641497,1.0001896825360956,0.0009047262768503907
-0.45623259900385166,-0.45623259900385166,1.0002824715701242,0.000994363443822403
-0.45562179568732974,-0.45562179568732974,1.0019591714332332,0.0010037407599787643
-0.455246862785134,-0.455246862785134,1.0002065988195163,0.0009815522598011273
-0.455001588758023,-0.455001588758023,0.9991796397595462,0.0008795705395445912
-0.4546267982463178,-0.4546267982463178,1.000382343988516,0.0009879193260355875
-0.4536178425223625,-0.4536178425223625,0.999877521087248,0.0008184372570522172
-0.453094090938248,-0.453094090938248,1.0002246749348411,0.0008886369303867601
-0.4530021020887943,-0.4530021020887943,0.9990015056514071,0.0009445118974120325
-0.4527968763002718,-0.4527968763002718,1.0007128536685728,0.0009604554485238657
-0.45263446278841,-0.45263446278841,0.9995877359480954,0.0009441000973636696
-0.45247161088555005,-0.45247161088555005,1.0000219652677929,0.0008782020033605781
-0.4521394333045464,-0.4521394333045464,1.000016925091942,0.0009495929088064549
-0.4517083181606722,-0.4517083181606722,1.0000223256939273,0.0009053582641187736
-0.45126135413811425,-0.45126135413811425,1.0002162484177763,0.0009528376947773957
-0.45073240337951576,-0.45073240337951576,0.9992822298425267,0.0009672390979106012
-0.45023744626741974,-0.45023744626741974,1.000330768638387,0.0009523666498128244
-0.4500385353581805,-0.4500385353581805,0.9993890007792906,0.0008736893966396012
-0.4494799302883621,-0.4494799302883621,1.0000204530665378,0.0009985203002769812
-0.44866530038343627,-0.44866530038343627,0.9991509426853652,0.0008619175882747679
-0.44823595102279795,-0.44823595102279795,1.0002030587118969,0.0009566545287534714
-0.4480614523454278,-0.4480614523454278,1.0000531166142335,0.0009006561652614611
-0.4478557732691115,-0.4478557732691115,1.0000625445238487,0.000981854633724895
-0.4476016934379004,-0.4476016934379004,0.9990646645074843,0.0009460679703495676
-0.44729989801926423,-0.44729989801926423,0.9995680268460081,0.0009454781878089093
-0.44680460203890104,-0.44680460203890104,0.9991277671658294,0.0009115185271304184
-0.44630239987091047,-0.44630239987091047,0.9996228910336541,0.0009174461889733963
-0.44559289854514644,-0.44559289854514644,0.9990827874209331,0.0010356085966398549
-0.44533896603898027,-0.44533896603898027,0.9997459942510087,0.0008687339968965451
-0.4450367967954662,-0.4450367967954662,0.9984920278495577,0.0009572590768377291
-0.44403606963533093,-0.44403606963533093,0.9999886647925523,0.000860829997967783
-0.443358848591015,-0.443358848591015,1.0003326160388335,0.0009043802814074608
-0.44323371160789976,-0.44323371160789976,1.0003995386127669,0.0009337119547471268
-0.4430369281275489,-0.4430369281275489,1.000805223098013,0.0009616810253685687
-0.44287977391504685,-0.44287977391504685,1.0004571587566082,0.0009286852316140936
-0.4427449702488957,-0.4427449702488957,0.9985047635311588,0.0009462166549821236
-0.44244759155262725,-0.44244759155262725,0.999656119216272,0.0009074419482562511
-0.4418806589594169,-0.4418806589594169,0.9988914021289815,0.0010016820584417578
-0.4413794024469098,-0.4413794024469098,1.0003020410601342,0.0008777671343826206
-0.44088734452889183,-0.44088734452889183,0.9994734082596501,0.0009720029552788539
-0.44045968205027747,-0.44045968205027747,0.9997924673966191,0.0009515866632604418
-0.4402957575955952,-0.4402957575955952,0.9997644101498386,0.0008819178615150339
-0.4397284579557891,-0.4397284579557891,1.000001141132023,0.0010018365510572511
-0.43913494177832035,-0.43913494177832035,1.000015863569193,0.0009002727949259442
-0.4385757929914689,-0.4385757929914689,1.0001544324816152,0.0009787604280261611
-0.43841229016179567,-0.43841229016179567,0.9993437488534493,0.0009085902803764369
-0.43820395670700235,-0.43820395670700235,0.9999057225512182,0.0009566449811112236
-0.43802867444246657,-0.43802867444246657,1.0004726628092202,0.0009115278620120818
-0.4377435573383991,-0.4377435573383991,0.9994486501106474,0.0009417828067000694
-0.43725168140008464,-0.43725168140008464,0.9999077020675516,0.0009047820984255368
-0.43684358657919803,-0.43684358657919803,1.0007834979026526,0.0009526392641543598
-0.4361367015597352,-0.4361367015597352,1.00064921234642,0.0009325134998118066
-0.4356749267761188,-0.4356749267761188,0.9999562333539102,0.0009264087934524702
-0.4354515009785246,-0.4354515009785246,1.000271549545782,0.0009354503097763637
-0.43500137135124534,-0.43500137135124534,0.9994633879581919,0.000914783148167503
-0.43407429240542117,-0.43407429240542117,1.0015012424642369,0.0008185294988628522
-0.43356682904268384,-0.43356682904268384,0.9990805795006006,0.0009204739670111222
-0.43342360548776926,-0.43342360548776926,1.000857392889491,0.000918393201094152
-0.43320967761101203,-0.43320967761101203,1.0011687265065652,0.0009633937648272437
-0.43307800538023,-0.43307800538023,1.0002658855308746,0.0009524346819687265
-0.43292728032829475,-0.43292728032829475,0.999509731557956,0.0009184291417951625
-0.4324394537557964,-0.4324394537557964,0.9999146425441865,0.0009118184875052842
-0.4318967102008173,-0.4318967102008173,0.9997786764059615,0.0009205533681561181
-0.4313374316538102,-0.4313374316538102,1.0011474775774911,0.0009163162264925646
-0.4309336859951145,-0.4309336859951145,0.9997203166242228,0.0009591612367104355
-0.43068514602055075,-0.43068514602055075,0.9993232582054578,0.0009133164712760971
-0.4304939243658737,-0.4304939243658737,1.0014246053701321,0.0009216167764862362
-0.4299815130674688,-0.4299815130674688,0.9996135662635787,0.0010083628562413212
-0.4293236465869995,-0.4293236465869995,1.0008321069901074,0.0008969523276631385
-0.42881640132691246,-0.42881640132691246,1.0001929019192684,0.0009865900428948987
-0.42862069560942473,-0.42862069560942473,1.0006449340683283,0.0009314769090742215
-0.42840629745842307,-0.42840629745842307,1.0004634498083518,0.000956478797657895
-0.4282373844034737,-0.4282373844034737,1.000038614594922,0.000912233350923701
-0.4278929611638887,-0.4278929611638887,1.001857632871831,0.000944948988443956
-0.4273323041816184,-0.4273323041816184,0.9998494063227386,0.0009727582538364813
-0.42698477317753714,-0.42698477317753714,0.9993854545113384,0.000933415844939074
-0.4262016838794807,-0.4262016838794807,0.9995342788112171,0.0009317083123056092
-0.42586184666433835,-0.42586184666433835,0.9988554360928475,0.0008894010612468548
-0.42559314932805137,-0.42559314932805137,1.0004285544293572,0.0009191406366357759
-0.4250638754478132,-0.4250638754478132,1.0004416429562673,0.0010141504692059286
-0.42431209293281424,-0.42431209293281424,1.0003448838555236,0.0008503185093637284
-0.4238626795413438,-0.4238626795413438,0.9990306199627268,0.000921871351111839
-0.42368920412191075,-0.42368920412191075,1.0011871555839782,0.0009355344610671096
-0.42353774413059,-0.42353774413059,0.9999528382279508,0.0009117606496652876
-0.4233188701145991,-0.4233188701145991,0.9995689325979784,0.0009582939448269338
-0.42317368938893196,-0.42317368938893196,0.9999131683032099,0.0009206897044533541
-0.4226274470041972,-0.4226274470041972,0.9993910942592811,0.0009050037455809991
-0.42198017063492443,-0.42198017063492443,1.0006016977048091,0.0009039313080596037
-0.42135832456478967,-0.42135832456478967,0.999272122756056,0.000999420483102065
-0.42106830193733913,-0.42106830193733913,1.000368062604972,0.0008842808703154591
-0.42089697737028475,-0.42089697737028475,1.0004621967814231,0.0008969984280431022
-0.42066152311163024,-0.42066152311163024,1.00045360564669,0.0009597396852896684
-0.4200912181921012,-0.4200912181921012,1.0007717205727722,0.000986366386182385
-0.4193585268985771,-0.4193585268985771,0.9992224561570797,0.0009101607861971773
-0.41893505019834265,-0.41893505019834265,1.0007681327832074,0.000939819701885899
-0.4187804920700728,-0.4187804920700728,0.9995423009850244,0.0009124069726177111
-0.4185443318303442,-0.4185443318303442,1.0001478194835833,0.0009353932289864808
-0.4183919949566189,-0.4183919949566189,1.0006117945968103,0.0009309032791754253
-0.4180296360558714,-0.4180296360558714,1.0002567619407456,0.0009572668606954755
-0.41750829275915746,-0.41750829275915746,1.0000127157138983,0.0009049814653892729
-0.4170519269457145,-0.4170519269457145,1.0002008679550878,0.0008752721835894234
-0.416273632474622,-0.416273632474622,0.9994443756262411,0.0009148858042941896
-0.4160485260312271,-0.4160485260312271,1.0001168006591203,0.0009144183044716134
-0.4158571578678675,-0.4158571578678675,0.9996404107399407,0.0008724151190641642
-0.4151526360110438,-0.4151526360110438,1.0007790580245743,0.0010157126269722935
-0.41428833700119866,-0.41428833700119866,0.9998020923399865,0.0009141536378135401
-0.41405195851184545,-0.41405195851184545,0.9996092548360791,0.0009209133035303513
-0.4138531497723307,-0.4138531497723307,1.000351152938536,0.0009258656940325545
-0.4136674834837322,-0.4136674834837322,0.9994239497603875,0.0009295029175736454
-0.4134877939177386,-0.4134877939177386,0.9987884829034772,0.000952314487944971
-0.41312575203046437,-0.41312575203046437,1.0006794296282946,0.0009014766565727566
-0.41253400987843636,-0.41253400987843636,0.9991285438558396,0.0009220449667525501
-0.4119091442466015,-0.4119091442466015,1.0001886095730055,0.0008906655277510911
-0.411447612378106,-0.411447612378106,1.001026556051982,0.0010139469831401185
-0.41120509569518615,-0.41120509569518615,0.9997162381319222,0.0008372133089479119
-0.4110358087040368,-0.4110358087040368,0.9981892194035268,0.0009638113947205077
-0.4104851614079962,-0.4104851614079962,1.0004016645626805,0.0010333182374645156
-0.4097852595958102,-0.4097852595958102,1.000509718972836,0.000890087108242269
-0.40918762481669546,-0.40918762481669546,1.0003980617400545,0.0009338157441332809
-0.40906222238045303,-0.40906222238045303,1.0001621765597974,0.0008940697256627583
-0.4088293675682507,-0.4088293675682507,1.0009016504745254,0.0009573978947061341
-0.4086967466661008,-0.4086967466661008,0.9994207452040473,0.0009523771037114227
-0.40845928238413765,-0.40845928238413765,0.9999288495155939,0.0009078640059114885
-0.40800636230633247,-0.40800636230633247,0.9998961389859298,0.0009055767346293516
-0.4075749670402729,-0.4075749670402729,1.0000484542967434,0.0009494617103220294
-0.4069514481983788,-0.4069514481983788,1.0002195355591055,0.0009209729407663343
-0.4063475230817858,-0.4063475230817858,1.0004348211954828,0.0009526191059812319
-0.4061820071437978,-0.4061820071437978,0.9990369473529347,0.0008994257947506762
-0.4056839367571229,-0.4056839367571229,1.0005531438175332,0.0009501022501585292
-0.40479841313135695,-0.40479841313135695,0.9998022168733399,0.0008494463975824396
-0.4043284919025609,-0.4043284919025609,1.0006608992861044,0.0009504877852922585
-0.4041110741622106,-0.4041110741622106,1.000486790186598,0.0009350696770764659
-0.403912579388998,-0.403912579388998,0.9981311563201345,0.0009142610700272098
-0.4037153809069423,-0.4037153809069423,0.9994603037847872,0.0009787747778525068
-0.403377414130955,-0.403377414130955,0.9996585297997665,0.0009016157577618584
-0.40290482180789694,-0.40290482180789694,0.9993732257534518,0.0009051998284640636
-0.40217695264582287,-0.40217695264582287,1.0002567729654313,0.0009072825469141476
-0.40165357053265327,-0.40165357053265327,0.999418083769385,0.0010215777332632052
-0.40138758978791883,-0.40138758978791883,0.9987952043318709,0.000897322099498966
-0.4011481018605991,-0.4011481018605991,0.9996027949214543,0.0009310205171095393
