time,time,flux,flux_err
-0.4998252949329374,-0.4998252949329374,0.9999710591101474,4.751346300421363e-05
-0.49943018160774955,-0.49943018160774955,1.0000717586764114,4.2593413069978765e-05
-0.4990684055563179,-0.4990684055563179,0.9999993529489135,4.233566749848343e-05
-0.49870930493343624,-0.49870930493343624,0.9999579492978563,4.214770019697679e-05
-0.49803974832757375,-0.49803974832757375,0.9996529162015071,4.190224095281226e-05
-0.49687013989532713,-0.49687013989532713,1.000062852246843,4.206950847009814e-05
-0.496097763616126,-0.496097763616126,0.9999688396059616,4.1806630099992235e-05
-0.4943708141334355,-0.4943708141334355,0.9998994722296493,4.194034900078844e-05
-0.49311076002995835,-0.49311076002995835,1.0000266694145175,4.252976482751657e-05
-0.4921356075559743,-0.4921356075559743,1.0000299367803678,4.2914793329373436e-05
-0.49196476198121675,-0.49196476198121675,1.000032036720842,4.292204549450879e-05
-0.49181776698460455,-0.49181776698460455,1.0000611813516187,4.292687610781209e-05
-0.4916639244853286,-0.4916639244853286,0.9999834335044637,4.2922794719297254e-05
-0.49151970042876203,-0.49151970042876203,1.0000624398692814,4.292927890076066e-05
-0.4913687527041475,-0.4913687527041475,1.0000820822539533,4.2932651637053455e-05
-0.49123373085603816,-0.49123373085603816,1.0000836427283268,4.279460017908461e-05
-0.49110476646674217,-0.49110476646674217,0.9998906046397245,4.292326146460063e-05
-0.4909235343897308,-0.4909235343897308,1.0000323934370106,4.265941768000788e-05
-0.49079463619345914,-0.49079463619345914,1.0000202209751752,4.264558053493855e-05
-0.49068593697083995,-0.49068593697083995,0.9999787141757939,4.2763422748114994e-05
-0.49058049262021086,-0.49058049262021086,0.9999284280637445,4.263259925949333e-05
-0.49047146568555033,-0.49047146568555033,1.000073494087741,4.276957846834692e-05
-0.4903616904499358,-0.4903616904499358,0.9999641272256019,4.2636332261503274e-05
-0.49023637510326806,-0.49023637510326806,0.9999300778055196,4.288403949386782e-05
-0.4900764091165911,-0.4900764091165911,0.9999592494753976,4.288781606914353e-05
-0.4899237244942924,-0.4899237244942924,0.9999624951376275,4.2881500500171254e-05
-0.4897668382021948,-0.4897668382021948,0.9999312548562015,4.2887429156156695e-05
-0.4896120868026628,-0.4896120868026628,0.999947145078751,4.28868369012624e-05
-0.48945824849724884,-0.48945824849724884,0.9998564382548938,4.2888331647311576e-05
-0.48930187205114634,-0.48930187205114634,0.9999197615299458,4.2895634651529655e-05
-0.48912171630290685,-0.48912171630290685,0.9999705959158,4.2894780268782765e-05
-0.4888593783834949,-0.4888593783834949,0.9999319676079679,4.289957657907486e-05
-0.48858977820782457,-0.48858977820782457,0.9999926266706218,4.289883540884888e-05
-0.48812677340902155,-0.48812677340902155,1.0000047093232836,4.2909243537217464e-05
-0.4874802518352226,-0.4874802518352226,0.9999503093454127,4.222333369189556e-05
-0.48704520237370164,-0.48704520237370164,0.9999996803407136,4.222642605646593e-05
-0.4866112614414305,-0.4866112614414305,0.9999279947402687,4.2225758979187167e-05
-0.48617833370153674,-0.48617833370153674,0.9999828966374673,4.2246677267221155e-05
-0.4857871722226264,-0.4857871722226264,1.0001079180457189,4.253870986046994e-05
-0.48557683624821946,-0.48557683624821946,0.9999851687860714,4.2534902047165245e-05
-0.4853794309274235,-0.4853794309274235,0.9999365192299979,4.2632377028709544e-05
-0.48517232446320124,-0.48517232446320124,1.000046060338506,4.26351120027588e-05
-0.48496556263562524,-0.48496556263562524,0.9999313346066302,4.26337372898073e-05
-0.48476396817568457,-0.48476396817568457,0.9999849556916531,4.2514742865780385e-05
-0.4845600274806202,-0.4845600274806202,1.0000056799107082,4.2648324636834513e-05
-0.48435421326284994,-0.48435421326284994,1.000051198412812,4.2649743939194615e-05
-0.4841487214827794,-0.4841487214827794,1.000001065439755,4.2652150548839004e-05
-0.4839435453017359,-0.4839435453017359,1.000037877203042,4.265258202617258e-05
-0.4837449055892648,-0.4837449055892648,0.9999379574448026,4.252969486587364e-05
-0.4835769166020327,-0.4835769166020327,0.9998967829714636,4.278706051996349e-05
-0.4833785417278705,-0.4833785417278705,0.9999848045275115,4.254605854953385e-05
-0.4831759590219008,-0.4831759590219008,0.9999881006838786,4.268157708366048e-05
-0.48297211170138327,-0.48297211170138327,1.000025084069909,4.269876478365966e-05
-0.48276852681156013,-0.48276852681156013,1.0001284845535898,4.2730910244783206e-05
-0.48225831910094713,-0.48225831910094713,1.0000131112734796,4.2831450422718455e-05
-0.48031516727278356,-0.48031516727278356,0.9999735886000201,4.295787996177596e-05
-0.4793336091948731,-0.4793336091948731,1.0000135957690737,4.22333313977222e-05
-0.47884677702968476,-0.47884677702968476,1.00012328112322,4.223493512743443e-05
-0.47836482243947104,-0.47836482243947104,1.0000227977911393,4.223101664627717e-05
-0.47792750392254674,-0.47792750392254674,0.9999793984816041,4.236440613860414e-05
-0.47766455495584526,-0.47766455495584526,1.0000485536032513,4.264459606961298e-05
-0.47740579771343616,-0.47740579771343616,0.9999514181094135,4.250471874133073e-05
-0.4771469278224686,-0.4771469278224686,1.0000398634320384,4.250613793079916e-05
-0.47689485888040506,-0.47689485888040506,0.9998997174981834,4.2641255345525906e-05
-0.4766437304191641,-0.4766437304191641,0.9999774653974255,4.2500244469843244e-05
-0.476387317020999,-0.476387317020999,1.0000123478717307,4.2500773715842056e-05
-0.4761326191379339,-0.4761326191379339,1.000040534328397,4.263788715425162e-05
-0.47588853086999733,-0.47588853086999733,0.9999884084169762,4.250264280630693e-05
-0.47546612099249613,-0.47546612099249613,1.0000232067800865,4.291913835899857e-05
-0.47492194800361176,-0.47492194800361176,1.000011078006473,4.291478316031378e-05
-0.47439003879626396,-0.47439003879626396,0.9999863123047316,4.272462224946698e-05
-0.47408950759563595,-0.47408950759563595,0.9999866485238883,4.2316614507843204e-05
-0.47392939336496054,-0.47392939336496054,1.0000772934935496,4.2394523508379585e-05
-0.4736999790809932,-0.4736999790809932,1.0000068266904596,4.227669459495155e-05
-0.4722566652817477,-0.4722566652817477,1.0000715139542145,4.215449346236089e-05
-0.471252322375949,-0.471252322375949,1.0000620559452884,4.2729789562589263e-05
-0.4707170047338877,-0.4707170047338877,1.0000272039906868,4.260603337510384e-05
-0.4702233291325683,-0.4702233291325683,1.000000933737563,4.2231197068115084e-05
-0.47002777509769655,-0.47002777509769655,0.9999620137375199,4.223845992452084e-05
-0.46979001963918565,-0.46979001963918565,0.9999858751362986,4.225476095116276e-05
-0.4694568950071698,-0.4694568950071698,0.9999758648699124,4.226612491738869e-05
-0.4691243856781512,-0.4691243856781512,0.9999916830947031,4.227044580813317e-05
-0.4688930472213542,-0.4688930472213542,1.0000815160887195,4.268909584863514e-05
-0.46872514826463885,-0.46872514826463885,0.9999580177206632,4.254881962297968e-05
-0.4685565153464267,-0.4685565153464267,1.000019103838819,4.2691201821689076e-05
-0.46841485283803197,-0.46841485283803197,1.0000390091327218,4.281556590684512e-05
-0.46825688258613807,-0.46825688258613807,0.9999912415597381,4.2548817280611277e-05
-0.468087341854698,-0.468087341854698,1.0000862627880014,4.2506307046307646e-05
-0.4679658313478285,-0.4679658313478285,1.0000661357175307,4.251891783610856e-05
-0.4678184808981314,-0.4678184808981314,0.9999767407451321,4.268884412224419e-05
-0.46765638334618415,-0.46765638334618415,1.000023040366933,4.2553118346856536e-05
-0.46749915196123765,-0.46749915196123765,0.9999313720373209,4.293983972627418e-05
-0.4672944445657777,-0.4672944445657777,0.9999667996319118,4.2932608431327335e-05
-0.46708990445549714,-0.46708990445549714,0.9999930468040702,4.294127947020611e-05
-0.46688549458849593,-0.46688549458849593,0.999945917609244,4.29387835407625e-05
-0.4666811624345428,-0.4666811624345428,1.0000225445071589,4.2942533081318925e-05
-0.46647683095070536,-0.46647683095070536,0.9999575556561282,4.294047812889014e-05
-0.4663108856992039,-0.4663108856992039,1.0000019502769828,4.2499894040183744e-05
-0.46617483799927867,-0.46617483799927867,0.9998967858080949,4.272227133315422e-05
-0.46603722288200516,-0.46603722288200516,1.0000107053804241,4.2541029239469805e-05
-0.4658545811769727,-0.4658545811769727,1.0000116006437036,4.225329154149094e-05
-0.4656212498761306,-0.4656212498761306,0.9999848956507842,4.247164039623299e-05
-0.46539323710894676,-0.46539323710894676,0.9998772843099262,4.224853972695713e-05
-0.4651590955872962,-0.4651590955872962,0.999931402416987,4.22489703781249e-05
-0.4649257614080852,-0.4649257614080852,1.0000459202405652,4.2248958395061045e-05
-0.46469378956608126,-0.46469378956608126,0.9998842318819026,4.24699875611957e-05
-0.4644697409326909,-0.4644697409326909,0.9998937822150324,4.2250085888741246e-05
-0.46423830840940356,-0.46423830840940356,1.0000415635805582,4.225410167436179e-05
-0.4640074836243002,-0.4640074836243002,0.9999759892828359,4.2254042868527974e-05
-0.46377723137193244,-0.46377723137193244,1.0000157717123401,4.2261569813561834e-05
-0.4632224130065879,-0.4632224130065879,0.9999428809621833,4.272493915705882e-05
-0.4626903923024656,-0.4626903923024656,1.0000206279581607,4.297450321789441e-05
-0.46228999129889414,-0.46228999129889414,1.000094555922294,4.270449614536029e-05
-0.4620017530854966,-0.4620017530854966,1.0000129931996213,4.286844860862552e-05
-0.46152065129936093,-0.46152065129936093,1.0000058181113096,4.308118872119216e-05
-0.4611377035675105,-0.4611377035675105,0.9999412426763046,4.3231507451732436e-05
-0.4608444775105454,-0.4608444775105454,1.0000706642172423,4.317024965933522e-05
-0.460577080436633,-0.460577080436633,0.9999293619648641,4.4002690759354924e-05
-0.45940978900398477,-0.45940978900398477,0.9999544971980198,4.274477608378422e-05
-0.45856837972678477,-0.45856837972678477,0.9999887812936652,4.1811119751937875e-05
-0.4581795112644613,-0.4581795112644613,1.0000300376765772,4.181344542695255e-05
-0.4577919060851855,-0.4577919060851855,0.9998755501026458,4.1807947698588694e-05
-0.45747616340013336,-0.45747616340013336,1.000013159134179,4.1896268139866004e-05
-0.4570973237809085,-0.4570973237809085,0.9999650268677968,4.18091609316251e-05
-0.4567131266652723,-0.4567131266652723,1.000005573908044,4.181121018105164e-05
-0.4554624055926979,-0.4554624055926979,1.0000004986504396,4.228512832185573e-05
-0.45503708806281795,-0.45503708806281795,0.9999526697618819,4.2512810898495306e-05
-0.4548397202663182,-0.4548397202663182,1.000025414617977,4.25214701844035e-05
-0.4546428490706603,-0.4546428490706603,1.0000496203561593,4.252715032880218e-05
-0.4544559974237927,-0.4544559974237927,0.9999075229154041,4.233499871514309e-05
-0.45428974791939253,-0.45428974791939253,1.0000362610752984,4.260219449760051e-05
-0.4541103453979304,-0.4541103453979304,1.00002333376218,4.243077592267046e-05
-0.453946066955541,-0.453946066955541,1.0000221810924574,4.26419092277788e-05
-0.4537942805029161,-0.4537942805029161,1.000019530970763,4.277724211364795e-05
-0.45363583392463624,-0.45363583392463624,0.999992010147601,4.264558194786139e-05
-0.45345709253670063,-0.45345709253670063,0.99998867523561,4.2879170269549776e-05
-0.4533078924694564,-0.4533078924694564,0.9998489766618768,4.283928843033278e-05
-0.45310311507128065,-0.45310311507128065,1.0001175558349111,4.265011520373123e-05
-0.4528979151305975,-0.4528979151305975,1.0000440265052453,4.265107287266749e-05
-0.45272656481101875,-0.45272656481101875,1.0000567828118543,4.277982210460194e-05
-0.45258310282588354,-0.45258310282588354,1.0000587286597526,4.264717614140249e-05
-0.4524287339605507,-0.4524287339605507,1.0000712889120007,4.279065633902564e-05
-0.45224498169336586,-0.45224498169336586,0.9999620846688979,4.2508293502851424e-05
-0.45198999319327415,-0.45198999319327415,1.0000440371432808,4.238995749470793e-05
-0.4517627723311307,-0.4517627723311307,1.0000104335956297,4.224342831396218e-05
-0.45159980767493835,-0.45159980767493835,1.0000085874542861,4.224901305839106e-05
-0.4514384717629582,-0.4514384717629582,1.0000656585871177,4.22349392523235e-05
-0.4512054543054546,-0.4512054543054546,0.9999511855548411,4.222636204502166e-05
-0.4509807909518713,-0.4509807909518713,0.9999985591227434,4.222417688760284e-05
-0.4507457158033503,-0.4507457158033503,0.9999762096403518,4.222383455636478e-05
-0.45051486915908756,-0.45051486915908756,0.999987245512284,4.221872370096584e-05
-0.45027281547008896,-0.45027281547008896,0.9999247250641771,4.218831386790592e-05
-0.45006741903271175,-0.45006741903271175,0.9999662687581139,4.216545188926887e-05
-0.4498711236497911,-0.4498711236497911,0.9999883213579652,4.216080885829402e-05
-0.4496777911524987,-0.4496777911524987,0.9999907131290359,4.21807748946748e-05
-0.44948488916270435,-0.44948488916270435,1.0000352143070388,4.2155402203280343e-05
-0.4492263902342529,-0.4492263902342529,1.0000337590707364,4.219783407669306e-05
-0.44879611390133506,-0.44879611390133506,1.0000145961393465,4.2220222048251475e-05
-0.4484378974768333,-0.4484378974768333,0.9999899215291131,4.248200320105387e-05
-0.4482324069758761,-0.4482324069758761,1.0000795259652264,4.261582028930606e-05
-0.4480255727699841,-0.4480255727699841,0.9999441615976356,4.2611543972977044e-05
-0.4478271579850116,-0.4478271579850116,0.9999512871188838,4.248661512863987e-05
-0.44755434877297373,-0.44755434877297373,0.9999184118936786,4.288583395920159e-05
-0.44717754614903243,-0.44717754614903243,1.0000353892758218,4.288920881292833e-05
-0.4468022732609825,-0.4468022732609825,1.0000146758556134,4.288499585109083e-05
-0.4464284606365254,-0.4464284606365254,1.0000136617558024,4.2888503602728604e-05
-0.4460560502244334,-0.4460560502244334,1.0000501930352097,4.288636206221043e-05
-0.44339548774660215,-0.44339548774660215,1.0001034190819977,4.2963666426021005e-05
-0.44232506213738815,-0.44232506213738815,0.9999606445208515,4.301033958050806e-05
-0.44198916895038565,-0.44198916895038565,0.9999280269496504,4.232647125641531e-05
-0.4417431451343873,-0.4417431451343873,0.9999658832468837,4.2343735016467515e-05
-0.4415054982389847,-0.4415054982389847,0.9999845460886615,4.262602674933465e-05
-0.44124704004643717,-0.44124704004643717,1.0000643884762763,4.2105890028045355e-05
-0.4408301627219771,-0.4408301627219771,0.9999536731654157,4.182999376974151e-05
-0.440385523862642,-0.440385523862642,0.9999809584202458,4.182870326745133e-05
-0.4399706615622563,-0.4399706615622563,0.9999365101142379,4.18244183965112e-05
-0.4397361909439496,-0.4397361909439496,0.9999696434129932,4.181632633596561e-05
-0.43952451455334085,-0.43952451455334085,1.0000299533167607,4.181187494684632e-05
-0.4393228210043162,-0.4393228210043162,1.0000021778836454,4.181510063115498e-05
-0.43839628968562466,-0.43839628968562466,0.9999385494874499,4.190320632710894e-05
-0.4352679276089475,-0.4352679276089475,1.0000286908084632,4.2272665840403393e-05
-0.43492017580429093,-0.43492017580429093,1.0000537752434204,4.226634011527158e-05
-0.43457276084736807,-0.43457276084736807,1.0000481520428908,4.2261590540385744e-05
-0.4339162334195862,-0.4339162334195862,1.0000270394434125,4.218581320498504e-05
-0.4335933923444827,-0.4335933923444827,0.9999893766138935,4.298992816709291e-05
-0.433350921201054,-0.433350921201054,0.9999677084230779,4.240554161834021e-05
-0.43314474564176636,-0.43314474564176636,1.0000196535051737,4.265242136675696e-05
-0.4329855314033921,-0.4329855314033921,0.9999912363221444,4.25258504985229e-05
-0.43283942298803596,-0.43283942298803596,0.9999935697860879,4.265083243357774e-05
-0.43263825237736453,-0.43263825237736453,0.9999973591374081,4.2528180900505564e-05
-0.43240970599872525,-0.43240970599872525,1.0000141972385959,4.240671798855452e-05
-0.4318962598590588,-0.4318962598590588,0.9999350881665343,4.226208291457599e-05
-0.42900337818355183,-0.42900337818355183,1.0000314354027438,4.287503075475013e-05
-0.4285501727987139,-0.4285501727987139,0.9998704226110234,4.2871182043638766e-05
-0.4278322437188763,-0.4278322437188763,0.9999580569539823,4.289720994499677e-05
-0.42749474892261785,-0.42749474892261785,0.9999971159055285,4.265387182026767e-05
-0.4272770164010581,-0.4272770164010581,1.0000875835141976,4.252541360895721e-05
-0.4270784080901649,-0.4270784080901649,0.9999677588089426,4.252833910412466e-05
-0.4268799247322022,-0.4268799247322022,1.0000243881197757,4.2530771229379934e-05
-0.42668156007712243,-0.42668156007712243,0.999975858044278,4.2534216176719276e-05
-0.4264833083376288,-0.4264833083376288,0.999951145032969,4.253219725334237e-05
-0.426285162732529,-0.426285162732529,0.9999702845819105,4.253343510092095e-05
-0.4260871174032218,-0.4260871174032218,1.0000096484082832,4.2533283767903754e-05
-0.42588916556560436,-0.42588916556560436,0.9998154037767932,4.252787365364347e-05
-0.4256913006218383,-0.4256913006218383,1.000010779236207,4.2532941853289735e-05
-0.42549351513807776,-0.42549351513807776,1.0000648863821413,4.253506418597242e-05
-0.42529580162954517,-0.42529580162954517,1.0000125162416,4.253565701516478e-05
-0.4250981516102911,-0.4250981516102911,1.0000496357789201,4.253672218486387e-05
-0.42490055559756,-0.42490055559756,1.0001006700252375,4.2537167864745775e-05
-0.42463878967682833,-0.42463878967682833,1.000077476843095,4.279035913356675e-05
-0.42416387551202206,-0.42416387551202206,0.9999806339248621,4.2915328900863194e-05
-0.4236729845368245,-0.4236729845368245,0.9999298086300479,4.2925863791871276e-05
-0.4223298068776785,-0.4223298068776785,1.0000352378739716,4.29139577224427e-05
-0.4220279258901428,-0.4220279258901428,1.0000276836563087,4.266264393882804e-05
-0.42184408103712484,-0.42184408103712484,0.9999379571254675,4.266401345549618e-05
-0.42154079810352413,-0.42154079810352413,1.0000138714116087,4.292647650489436e-05
-0.4211885389435338,-0.4211885389435338,1.0000790384395977,4.3206523597338066e-05
-0.42089847276947695,-0.42089847276947695,0.9999764403433099,4.292704229912963e-05
-0.4205729151246487,-0.4205729151246487,0.9999702836525991,4.3058338151976106e-05
-0.4202582760655787,-0.4202582760655787,0.9999919380762659,4.2935756370334036e-05
-0.41990292317423156,-0.41990292317423156,1.0000225292189204,4.293927694033093e-05
-0.4195469601392688,-0.4195469601392688,1.0000511593294121,4.299141453037363e-05
-0.41901795264784597,-0.41901795264784597,0.9999542749015073,4.209318722856858e-05
-0.41854869979215437,-0.41854869979215437,1.0001453536442788,4.182805177319899e-05
-0.41811655767742195,-0.41811655767742195,0.9999766732119731,4.182654927540031e-05
-0.41768626921475516,-0.41768626921475516,0.9999547964748992,4.183135134273093e-05
-0.4173689731389459,-0.4173689731389459,1.0000077250568555,4.2474433571877464e-05
-0.41717002249642976,-0.41717002249642976,0.9999740864552276,4.226152874738734e-05
-0.41701498710826856,-0.41701498710826856,1.0000396132610327,4.256868901177863e-05
-0.4168765841626737,-0.4168765841626737,1.0000618533541303,4.234723412274501e-05
-0.4167605706184986,-0.4167605706184986,1.0000741774955462,4.242522524407589e-05
-0.4166459161802777,-0.4166459161802777,0.9999805382889182,4.2554456680387035e-05
-0.41653499788881165,-0.41653499788881165,0.9999377824339255,4.2348874109902375e-05
-0.41642193613224665,-0.41642193613224665,0.999951433014532,4.2556149386537656e-05
-0.4163099914461782,-0.4163099914461782,1.000097446738658,4.256329291662927e-05
-0.4161944264938938,-0.4161944264938938,1.0000766709733533,4.255999823350002e-05
-0.4160885667959519,-0.4160885667959519,0.9999244051942124,4.23511311343723e-05
-0.4159721428688499,-0.4159721428688499,0.9999302784032228,4.256127779352083e-05
-0.41586010117462135,-0.41586010117462135,1.0000000798473159,4.235518047953097e-05
-0.4157689299019694,-0.4157689299019694,1.0000294099608775,4.2211878903999106e-05
-0.4157011712020903,-0.4157011712020903,1.0000191213841452,4.233607081068494e-05
-0.4156288327285438,-0.4156288327285438,1.0000347831157996,4.2428918766491985e-05
-0.4155528696021065,-0.4155528696021065,1.0000268644053463,4.234348070522749e-05
