time,time,flux,flux_err
-0.4992934684094507,-0.4992934684094507,1.0000573764371565,6.429021951206741e-05
-0.4985855894279666,-0.4985855894279666,1.0000389783300152,6.433606701421007e-05
-0.4973594507988309,-0.4973594507988309,0.9999942569355058,6.476390895248548e-05
-0.49620347376767315,-0.49620347376767315,0.9999050901601981,6.408552596443059e-05
-0.4953244645272207,-0.4953244645272207,1.0000758279669129,6.453543421324265e-05
-0.49421451603848254,-0.49421451603848254,0.9999608514419764,6.466389762163066e-05
-0.4936000199231785,-0.4936000199231785,0.9999397775579911,6.437106217943217e-05
-0.49274251397000624,-0.49274251397000624,0.9998938462344353,6.426110188651404e-05
-0.4918173898731766,-0.4918173898731766,1.0000928549781796,6.456081249446525e-05
-0.49055851378143417,-0.49055851378143417,1.0000166625007503,6.441901790014829e-05
-0.4894261814049969,-0.4894261814049969,0.9999072865248767,6.432820550653299e-05
-0.48784756233362714,-0.48784756233362714,1.000134345961588,6.441925488064917e-05
-0.4863144413859118,-0.4863144413859118,0.9999936812666992,6.474641107701395e-05
-0.4844109403151379,-0.4844109403151379,0.9999393034523397,6.419878232417004e-05
-0.48328902267749074,-0.48328902267749074,0.9999313622065318,6.482031988824612e-05
-0.481030119452771,-0.481030119452771,0.9999584255666815,6.456237763118535e-05
-0.47845040939500905,-0.47845040939500905,1.000031629694311,6.450058032852831e-05
-0.47626392592283084,-0.47626392592283084,0.9999236338342985,6.44275455088981e-05
-0.4748468815603701,-0.4748468815603701,1.000017738274189,6.456465551313347e-05
-0.473593023353169,-0.473593023353169,0.9999993981900106,6.444982035218601e-05
-0.4725986149518576,-0.4725986149518576,1.0000325355146973,6.464749374120041e-05
-0.47202968546189367,-0.47202968546189367,1.0000679694979213,6.479631758967467e-05
-0.4703573270511697,-0.4703573270511697,0.9999603031081705,6.472831683283415e-05
-0.4682974178373115,-0.4682974178373115,0.9998950292483372,6.470789372856673e-05
-0.4662897946851444,-0.4662897946851444,0.9999327773126627,6.45970055374468e-05
-0.4642332403775072,-0.4642332403775072,1.0000233460277186,6.45502778114757e-05
-0.46291102594550465,-0.46291102594550465,0.9998391637753302,6.470890969010099e-05
-0.4610099817626178,-0.4610099817626178,0.9999410605896962,6.441652821906571e-05
-0.4589088953573082,-0.4589088953573082,0.9998568844952802,6.466781389441672e-05
-0.45703491263775503,-0.45703491263775503,0.9998722748834765,6.462436706977973e-05
-0.45564779615742734,-0.45564779615742734,0.9999228387792012,6.437749012583058e-05
-0.4540646642482898,-0.4540646642482898,1.000073598620536,6.448480313900933e-05
-0.45322327013200264,-0.45322327013200264,0.9999577537842989,6.475478864847303e-05
-0.45243120222658034,-0.45243120222658034,1.0000136575928658,6.42906301567445e-05
-0.451126177750848,-0.451126177750848,0.9999618592280015,6.459894576955805e-05
-0.4502809127305227,-0.4502809127305227,1.0003040901696756,6.452312820081248e-05
-0.44875959981800406,-0.44875959981800406,1.0000397820250355,6.430924366175327e-05
-0.44769466694488075,-0.44769466694488075,0.9999993657890786,6.414526095495295e-05
-0.4467827959713759,-0.4467827959713759,1.000027452642179,6.461356497061865e-05
-0.44564527692709816,-0.44564527692709816,1.0000103227468107,6.463398309945504e-05
-0.4446702938337694,-0.4446702938337694,1.000062343721303,6.418953249657512e-05
-0.4437744980452408,-0.4437744980452408,0.9999160849765589,6.463652543695367e-05
-0.4424108961124148,-0.4424108961124148,0.9999219115339081,6.457382740859626e-05
-0.4415428909516777,-0.4415428909516777,1.000110580156587,6.416727505310555e-05
-0.4407780843990622,-0.4407780843990622,1.0000317488409463,6.471399293591363e-05
-0.4398775163841492,-0.4398775163841492,1.000037650008985,6.411310824350188e-05
-0.4385689895869291,-0.4385689895869291,0.9998749162964178,6.430377759799311e-05
-0.43755702912967537,-0.43755702912967537,0.9999987547857396,6.444971550220049e-05
-0.4360618035876541,-0.4360618035876541,1.000017032645739,6.427480905414626e-05
-0.43510007614531787,-0.43510007614531787,1.000096894649288,6.449619138780459e-05
-0.4342423425747256,-0.4342423425747256,1.0000632405004881,6.455379595647355e-05
-0.4334367603441933,-0.4334367603441933,1.0000564013798563,6.434178477800896e-05
-0.4325939401336655,-0.4325939401336655,0.9999278144576543,6.453145674239637e-05
-0.4315150250586157,-0.4315150250586157,1.0000260871048305,6.4587656960302e-05
-0.4296387339643843,-0.4296387339643843,1.0000082892625841,6.424617973996649e-05
-0.42829746535790036,-0.42829746535790036,1.0000255792269435,6.462295165687012e-05
-0.4269562042216421,-0.4269562042216421,1.0000551357777911,6.446005055360193e-05
-0.42550992826654693,-0.42550992826654693,0.9999761610515259,6.462589198386543e-05
-0.4229385723367159,-0.4229385723367159,0.9999903602261778,6.460251673660815e-05
-0.4211347111260693,-0.4211347111260693,0.9999802505583941,6.43626821294384e-05
-0.41880488121387316,-0.41880488121387316,0.9999614749255752,6.451763356601502e-05
-0.41755177263185034,-0.41755177263185034,1.0000397184892982,6.461914700241847e-05
-0.41557060834602455,-0.41557060834602455,1.0001368172633869,6.468247732325856e-05
-0.4144778389534622,-0.4144778389534622,1.0000669549666723,6.488525385059256e-05
-0.4126825494764489,-0.4126825494764489,1.0000236782782028,6.444204454909468e-05
-0.41122741622311876,-0.41122741622311876,1.0000807257938795,6.473203449195063e-05
-0.4096207332302583,-0.4096207332302583,1.000022113491243,6.460952683138386e-05
-0.40813222817960193,-0.40813222817960193,1.000166357450521,6.465439389171737e-05
-0.4063205031256075,-0.4063205031256075,1.0000252700448236,6.443719431495712e-05
-0.4048131822331925,-0.4048131822331925,0.9999857446474849,6.472591102565989e-05
-0.40232700702472357,-0.40232700702472357,0.9999542178865459,6.453578068074874e-05
-0.40054416173079516,-0.40054416173079516,1.0001397013427367,6.470711782083222e-05
-0.3980145298439311,-0.3980145298439311,1.000059010276479,6.458041986748083e-05
-0.3962881072977325,-0.3962881072977325,1.0000251358009664,6.470480799976083e-05
-0.39533595203174626,-0.39533595203174626,1.0000165905880263,6.442792812710569e-05
-0.39378656859480543,-0.39378656859480543,0.9999335976275894,6.43669468351844e-05
-0.39223273520328805,-0.39223273520328805,1.000063598374566,6.434073592506223e-05
-0.3907379272583057,-0.3907379272583057,0.9998899445319351,6.433543056618854e-05
-0.3894038824670133,-0.3894038824670133,1.0000123335739055,6.44960907473735e-05
-0.38807794099120657,-0.38807794099120657,0.9999197954241165,6.446446487070259e-05
-0.38736564493592596,-0.38736564493592596,0.9999461315284982,6.41929682869422e-05
-0.3867088114209764,-0.3867088114209764,0.9997829225203239,6.460175841755311e-05
-0.38508234952896603,-0.38508234952896603,0.999886358016402,6.443815967280287e-05
-0.38434769007071734,-0.38434769007071734,1.0000468025407776,6.41496643556416e-05
-0.3835113575209107,-0.3835113575209107,1.0000748295627133,6.464057207581946e-05
-0.38196286643869826,-0.38196286643869826,0.9999999357181245,6.41875447878345e-05
-0.38113072921405544,-0.38113072921405544,1.0000693999541865,6.42902596358567e-05
-0.37971870115434286,-0.37971870115434286,1.000039014862075,6.437668878235242e-05
-0.378315785581799,-0.378315785581799,1.0001173088119013,6.41854737503199e-05
-0.3776365028956207,-0.3776365028956207,0.9999810728917129,6.466724117577595e-05
-0.37654637347732206,-0.37654637347732206,0.9999767422696231,6.464586060787236e-05
-0.376024688983307,-0.376024688983307,1.0001061293526115,6.426241004411218e-05
-0.37496585241751745,-0.37496585241751745,0.999982340047862,6.43013564123085e-05
-0.3737196951122314,-0.3737196951122314,0.9999056339982191,6.458129931081146e-05
-0.37261166177559063,-0.37261166177559063,0.9999820221474807,6.43287723503148e-05
-0.3711514559625357,-0.3711514559625357,0.9998987293750343,6.433210700147351e-05
-0.3694862252792518,-0.3694862252792518,0.9999553291978577,6.464308307484041e-05
-0.3676781205831503,-0.3676781205831503,0.9999921990551451,6.435700971472694e-05
-0.366580915794475,-0.366580915794475,0.9999567732374862,6.444593952701464e-05
-0.36516447094181786,-0.36516447094181786,1.0000125809385856,6.469258933456162e-05
-0.3623978977462684,-0.3623978977462684,0.999936764192684,6.454676091832725e-05
-0.3606097249285085,-0.3606097249285085,1.0000153094156914,6.452080122600979e-05
-0.35833080087322744,-0.35833080087322744,1.0000014522725682,6.45214990074525e-05
-0.3570758199530246,-0.3570758199530246,0.9998404403699709,6.465769823915673e-05
-0.35586848969978746,-0.35586848969978746,0.9999267260357494,6.463252707593983e-05
-0.35511532160453496,-0.35511532160453496,1.0000621448047409,6.473507364211936e-05
-0.3537981633584423,-0.3537981633584423,1.0000595088381756,6.487161200526847e-05
-0.3521877552586375,-0.3521877552586375,1.000010936323474,6.459914151858412e-05
-0.3505028814164689,-0.3505028814164689,0.999981419319225,6.469299509269026e-05
-0.3486436319086351,-0.3486436319086351,1.0000879811292414,6.468254963086015e-05
-0.34663721758988686,-0.34663721758988686,0.9999921122764717,6.470087790760005e-05
-0.3451996004456305,-0.3451996004456305,1.000099660997948,6.468717782387517e-05
-0.3431143428941141,-0.3431143428941141,1.0000029313366454,6.439141098557218e-05
-0.341414497137157,-0.341414497137157,1.0000712159658758,6.467431506136687e-05
-0.33959023625720874,-0.33959023625720874,0.9999871532381093,6.452088556172741e-05
-0.3383413587274845,-0.3383413587274845,1.0000713473445535,6.439336541312369e-05
-0.33715084770010434,-0.33715084770010434,1.0000222700366241,6.460801919295052e-05
-0.3360429922140611,-0.3360429922140611,1.0000299293879111,6.45384796394441e-05
-0.33499406288174216,-0.33499406288174216,1.0000353612927686,6.42934347717394e-05
-0.3335855190285656,-0.3335855190285656,0.9999055481311545,6.452511559871887e-05
-0.33236756321275607,-0.33236756321275607,1.0000544446808657,6.441337600231035e-05
-0.33093814508174546,-0.33093814508174546,0.9999108651159183,6.443804197194629e-05
-0.33002528349679777,-0.33002528349679777,0.9999844852725843,6.429205265585297e-05
-0.32866920783999376,-0.32866920783999376,1.0000811310874915,6.454156050370445e-05
-0.32746204216746266,-0.32746204216746266,0.9999592600666496,6.424287097545787e-05
-0.3267123761404946,-0.3267123761404946,0.9999514811747433,6.459512549692644e-05
-0.32575411688303574,-0.32575411688303574,0.9998917329241946,6.448646872047859e-05
-0.3245028827259375,-0.3245028827259375,1.00002549925571,6.43221241201832e-05
-0.32386551554227483,-0.32386551554227483,1.0000809152625638,6.441213133419502e-05
-0.32315153616436876,-0.32315153616436876,0.9999220343836639,6.456873234648002e-05
-0.3215457134014287,-0.3215457134014287,0.9999690728049521,6.419240742794911e-05
-0.3208241564592754,-0.3208241564592754,0.9999096258379314,6.438009861985405e-05
-0.31940495564267624,-0.31940495564267624,0.9999876257019176,6.428932825495668e-05
-0.31831557699188123,-0.31831557699188123,1.000143746875597,6.439107602747665e-05
-0.3174926010098716,-0.3174926010098716,0.9999776281241349,6.445220781092943e-05
-0.31658879194728795,-0.31658879194728795,0.9999733114619263,6.456415359888157e-05
-0.31579820608894804,-0.31579820608894804,0.9999526203749509,6.457408649691581e-05
-0.31487703578241055,-0.31487703578241055,1.000015755320405,6.435529556821033e-05
-0.31386176839587276,-0.31386176839587276,1.0000538298612394,6.479546517839738e-05
-0.3121723054544418,-0.3121723054544418,0.9999314540087381,6.424384683901828e-05
-0.31123330035989055,-0.31123330035989055,0.9999136218739555,6.447803172739289e-05
-0.3096591417626769,-0.3096591417626769,0.9998793778335887,6.454593076030035e-05
-0.30750185827782844,-0.30750185827782844,0.9999846700373706,6.473921404899164e-05
-0.3053888163587544,-0.3053888163587544,1.0000354745122997,6.45652263396211e-05
-0.3033488124492578,-0.3033488124492578,1.000086644829422,6.440087538234156e-05
-0.30132157361658757,-0.30132157361658757,1.000031841187747,6.450313694277304e-05
-0.2997200074023567,-0.2997200074023567,0.9999130530717413,6.465084164699542e-05
-0.2974071852091583,-0.2974071852091583,0.9999853934230296,6.473570822366589e-05
-0.29593107497858,-0.29593107497858,1.0000398046117869,6.472673997475389e-05
-0.2947974899339897,-0.2947974899339897,0.9999797232473864,6.444759803602339e-05
-0.29326789001424913,-0.29326789001424913,0.9998702023433168,6.475007211873324e-05
-0.29193174912797987,-0.29193174912797987,1.0001095371851103,6.456826859173572e-05
-0.2902276508968498,-0.2902276508968498,0.9999864975806497,6.460309007376774e-05
-0.28864628827941485,-0.28864628827941485,0.999935074318177,6.46466136782148e-05
-0.28657747512334025,-0.28657747512334025,1.0000275829126806,6.454582150241156e-05
-0.28449059001068233,-0.28449059001068233,1.0000472346548073,6.459664586557779e-05
-0.28290217782850957,-0.28290217782850957,1.0000145935598184,6.481166156158904e-05
-0.2804753716896812,-0.2804753716896812,1.0000967702061616,6.457263835616752e-05
-0.27882077047615894,-0.27882077047615894,0.9999493213095292,6.470360193743633e-05
-0.27753805594620645,-0.27753805594620645,1.000016706965034,6.429453434334465e-05
-0.2755709410113923,-0.2755709410113923,1.0000068749997364,6.432386901088673e-05
-0.27420131964463507,-0.27420131964463507,0.9999984113706715,6.44732081942834e-05
-0.27271910469789873,-0.27271910469789873,1.000111521132911,6.43832061780311e-05
-0.2715063667550567,-0.2715063667550567,1.0002336119588093,6.450805336165319e-05
-0.2702582177684235,-0.2702582177684235,0.999890011300214,6.424679759114956e-05
-0.269772314678994,-0.269772314678994,1.000064880609098,6.443641577107938e-05
-0.2687662212672876,-0.2687662212672876,1.0001091218756717,6.460615428510048e-05
-0.26720120929021507,-0.26720120929021507,0.9999911263176042,6.412643792846246e-05
-0.2664469916941016,-0.2664469916941016,1.0000299799346273,6.46255152836941e-05
-0.2651030347151391,-0.2651030347151391,0.9999410253464699,6.42623003740892e-05
-0.2638058675584034,-0.2638058675584034,0.9998840114900658,6.416095652354532e-05
-0.26309955229808113,-0.26309955229808113,1.0000716817608202,6.47650647316581e-05
-0.2614571143370995,-0.2614571143370995,1.0000470709046572,6.408340418994255e-05
-0.2603915115985728,-0.2603915115985728,1.00002508528812,6.453098041592232e-05
-0.25906329396821093,-0.25906329396821093,1.0000567467327073,6.425787288863189e-05
-0.2581294145202264,-0.2581294145202264,0.9999831306764901,6.434253884940055e-05
-0.25719033369605315,-0.25719033369605315,1.0000754239501988,6.455426466177345e-05
-0.25604983780649493,-0.25604983780649493,0.9999557187626177,6.558119412449665e-05
-0.2551445731725835,-0.2551445731725835,0.9999180410707134,6.432466395662379e-05
-0.2540998905009474,-0.2540998905009474,1.0000957715272736,6.4619858973658e-05
-0.2523106498454581,-0.2523106498454581,1.0000708463095394,6.435807742306505e-05
-0.25081337110023016,-0.25081337110023016,0.9999485924039722,6.439043400966531e-05
-0.24918057335962657,-0.24918057335962657,1.0000590361504371,6.449288293403329e-05
-0.24747713079996175,-0.24747713079996175,1.0000396419828754,6.470795205687399e-05
-0.2443178202600393,-0.2443178202600393,0.9999460974936749,6.449436462817669e-05
-0.24258044079178945,-0.24258044079178945,0.9999673656077956,6.466376313373172e-05
-0.2405998996051494,-0.2405998996051494,1.0000533438786685,6.443283811229443e-05
-0.23940391925134463,-0.23940391925134463,1.0000100915440602,6.469605267727399e-05
-0.2379951892682584,-0.2379951892682584,0.9999455832099657,6.468909902915116e-05
-0.23699199888651493,-0.23699199888651493,1.0000212936432145,6.479229380502215e-05
-0.23554513014751138,-0.23554513014751138,1.000060806736578,6.442424305144097e-05
-0.23432170549203873,-0.23432170549203873,0.9999679537977311,6.474484028463163e-05
-0.23296309366778586,-0.23296309366778586,1.000062262220707,6.468834480462343e-05
-0.23145408800628503,-0.23145408800628503,0.9999290580937771,6.464336666674738e-05
-0.229411027624883,-0.229411027624883,1.000032836684968,6.463700560031279e-05
-0.2277329202304827,-0.2277329202304827,0.9999730378706768,6.468376306365849e-05
-0.22596613835557947,-0.22596613835557947,0.9999279573386344,6.458611960352264e-05
-0.2243831891064474,-0.2243831891064474,1.0000745409015708,6.471102069083786e-05
-0.22309973464070937,-0.22309973464070937,0.9999868014073542,6.448049066153658e-05
-0.221248344664491,-0.221248344664491,0.9999332507530674,6.449854435052087e-05
-0.2204192363889888,-0.2204192363889888,1.0001430766001584,6.432845103391559e-05
-0.21917690283808042,-0.21917690283808042,1.000015573217888,6.459746309335374e-05
-0.21785263374258648,-0.21785263374258648,1.0000603543415685,6.443597348016383e-05
-0.2162801070146088,-0.2162801070146088,0.9999876885512282,6.44850416541399e-05
-0.21519250993878813,-0.21519250993878813,0.9998717603415418,6.445033803340058e-05
-0.21351299768721219,-0.21351299768721219,0.9999842405815841,6.44438934987203e-05
-0.21274073562744888,-0.21274073562744888,0.9999651634277799,6.41211784046542e-05
-0.21147767172806198,-0.21147767172806198,0.9999646607867932,6.458591577606351e-05
-0.21017163817741674,-0.21017163817741674,0.9999523453029615,6.442845374341681e-05
-0.20951085492779384,-0.20951085492779384,1.0000722911528208,6.426087962001883e-05
-0.20869852540417924,-0.20869852540417924,1.0000424089329396,6.448437971590312e-05
-0.20724114128606744,-0.20724114128606744,0.9999673898595131,6.437702739375966e-05
-0.20650637069920777,-0.20650637069920777,0.9999611328025164,6.436405213604821e-05
-0.20581436154971017,-0.20581436154971017,1.000011076307679,6.470746113632891e-05
-0.2044495340633148,-0.2044495340633148,1.0000109498284666,6.411879265039425e-05
-0.2033577147820324,-0.2033577147820324,1.000039014773964,6.438247115602546e-05
-0.20206877596210687,-0.20206877596210687,1.0001561073883263,6.438181627781339e-05
-0.2009237674617907,-0.2009237674617907,1.0000342302613754,6.435539881263986e-05
-0.2000714293018973,-0.2000714293018973,1.0000119188387528,6.457865967096333e-05
-0.19890548903786112,-0.19890548903786112,0.9999601471355073,6.459415828512323e-05
-0.19796526236023054,-0.19796526236023054,1.000021895111353,6.433301208266535e-05
-0.19670396214787617,-0.19670396214787617,0.9999309131093025,6.44497798504925e-05
-0.19515976362599757,-0.19515976362599757,1.0001490570266356,6.451488640636931e-05
-0.1941642243124079,-0.1941642243124079,1.0000615773313986,6.448869036457827e-05
-0.1928380853511044,-0.1928380853511044,0.9999980593448905,6.43504014926567e-05
-0.19145646006145398,-0.19145646006145398,0.9998956317170336,6.480194993577436e-05
-0.18999400359680294,-0.18999400359680294,1.0000062527817704,6.446272666514268e-05
-0.1876864373094577,-0.1876864373094577,0.9999201961481144,6.464727774909139e-05
-0.18569502793907305,-0.18569502793907305,1.0000259823725832,6.442407703409321e-05
-0.18389074550868828,-0.18389074550868828,0.9999956125943245,6.449683526317125e-05
-0.18273893064324512,-0.18273893064324512,1.0001480079584621,6.463226598109864e-05
-0.18029990971263032,-0.18029990971263032,1.0001143038601152,6.468606991648441e-05
-0.17866230856016047,-0.17866230856016047,0.9999319857522513,6.479901863901141e-05
-0.176877545555908,-0.176877545555908,1.0000381264789076,6.4642534987413e-05
-0.17535869490457118,-0.17535869490457118,1.0001097955933484,6.462805173806699e-05
-0.17429153888660948,-0.17429153888660948,0.9999061508894931,6.460214368575932e-05
-0.17276047504055897,-0.17276047504055897,0.9999867491719018,6.460349192586645e-05
-0.17100902865859097,-0.17100902865859097,0.999907641460702,6.466928578755772e-05
-0.16867260240614995,-0.16867260240614995,1.0000014884139787,6.457439721804506e-05
-0.1669718327888404,-0.1669718327888404,0.9999712149727245,6.456528840951932e-05
-0.16562967133941128,-0.16562967133941128,0.9999816781031964,6.455216378949058e-05
-0.16368074664496818,-0.16368074664496818,0.9999812673823335,6.45787329193431e-05
-0.161523099639453,-0.161523099639453,1.0000217371459643,6.472024763491658e-05
-0.1601126599111012,-0.1601126599111012,1.0001345643724662,6.443990352095167e-05
