time,time,flux,flux_err
-0.4999553986575734,-0.4999553986575734,1.0002017237325704,0.0002550777476066592
-0.4998441926080147,-0.4998441926080147,1.000217916126507,0.00025823286454011913
-0.49967156016770103,-0.49967156016770103,1.0000708394422069,0.0002462730527274812
-0.4995788745150037,-0.4995788745150037,1.000185300371259,0.0002732786638004059
-0.49946959232564725,-0.49946959232564725,0.9996062419003853,0.0002486942989306525
-0.4992912380876703,-0.4992912380876703,1.0001054652336083,0.0002648490485121648
-0.4991866191397037,-0.4991866191397037,0.9996860601140835,0.00026042016194842925
-0.49910707729899284,-0.49910707729899284,0.9999713180109573,0.0002600241576962732
-0.49897047518368254,-0.49897047518368254,1.0000703193864422,0.0002442652056535914
-0.4988791261256836,-0.4988791261256836,1.0002847288948575,0.0002679802086406119
-0.4986899605306235,-0.4986899605306235,0.9998233417405459,0.00024010406771372722
-0.49860190957914485,-0.49860190957914485,1.0000638709217795,0.0002613867469584138
-0.4984906213120837,-0.4984906213120837,0.9999951330881061,0.000263881452771284
-0.4983164100281158,-0.4983164100281158,1.0003805984382832,0.0002658514131708429
-0.49818498061151784,-0.49818498061151784,0.999938965062357,0.0002603844612591075
-0.49812543548687244,-0.49812543548687244,0.9996135176022009,0.00025782357938808494
-0.49798616300927845,-0.49798616300927845,0.9997380463433784,0.00024931208329026484
-0.4979051446340236,-0.4979051446340236,0.9999763905665976,0.0002683885555370897
-0.49771694364862923,-0.49771694364862923,0.9998769108149684,0.00023717761977520775
-0.49762034365391516,-0.49762034365391516,0.9996263776300394,0.0002572685784296874
-0.497510906559944,-0.497510906559944,1.0002703005181477,0.00026628742526215484
-0.4973646981886077,-0.4973646981886077,1.0000980552322525,0.0002552385220996943
-0.49720468981985844,-0.49720468981985844,0.9999148980819083,0.0002630810501515929
-0.4971466183423104,-0.4971466183423104,1.0001651474549784,0.00026130105943181285
-0.4970464927074204,-0.4970464927074204,0.9995412071292936,0.0002509363936987286
-0.4969351053038338,-0.4969351053038338,1.0008031257682397,0.00026150057532204767
-0.4967966965762571,-0.4967966965762571,0.9999647847869397,0.00024790706211599703
-0.49664231120922864,-0.49664231120922864,1.000125197545255,0.00025459792817246485
-0.496525316141765,-0.496525316141765,0.9998970692901219,0.00026635720217327573
-0.49641649152006834,-0.49641649152006834,0.9999912720294578,0.00025916624989359694
-0.49624550317340665,-0.49624550317340665,1.000368152715781,0.0002584348084858188
-0.49617168327941386,-0.49617168327941386,0.9998533069239111,0.0002537735628632039
-0.49609630775403846,-0.49609630775403846,1.0004210376320546,0.0002629082774866891
-0.49596558087365566,-0.49596558087365566,0.9996748331123246,0.00024422333506539173
-0.4958742345784913,-0.4958742345784913,0.9998312865844656,0.0002680184357564416
-0.49568248880547117,-0.49568248880547117,1.000263548618943,0.00024199180774199741
-0.4955723494772656,-0.4955723494772656,0.9994686083666618,0.0002732750867226928
-0.49546305664709395,-0.49546305664709395,1.0000502416036294,0.00024876289072939175
-0.49527879123684215,-0.49527879123684215,1.0005201702081679,0.00026257207376639174
-0.4951800650441783,-0.4951800650441783,1.0000049113338763,0.0002604313933970526
-0.4951205295483817,-0.4951205295483817,1.000193028616571,0.00025790717142663714
-0.49498128473475733,-0.49498128473475733,0.999906846215668,0.0002492578285282324
-0.49490025483381717,-0.49490025483381717,1.0003611797175505,0.00026823838561900907
-0.49470946169180935,-0.49470946169180935,1.0002616749839106,0.00023906677810208143
-0.4945707182200351,-0.4945707182200351,1.00001539819905,0.0002732492597430796
-0.4944614227319505,-0.4944614227319505,1.0000049492201908,0.0002487388460479499
-0.49428676129246013,-0.49428676129246013,1.0001588303092352,0.00025686169374989384
-0.49418862232230937,-0.49418862232230937,0.9998425017902692,0.0002584411544687086
-0.4941308531600782,-0.4941308531600782,1.0002125078310804,0.00026379188310074545
-0.4940115987016213,-0.4940115987016213,1.0002444762459703,0.0002532064215055153
-0.4939119663237534,-0.4939119663237534,0.9998429098005743,0.000266962804604384
-0.4937534974701293,-0.4937534974701293,0.9999327214813235,0.00023654735150699523
-0.4935937177218534,-0.4935937177218534,0.999700459972338,0.0002614388795776952
-0.4934824498037983,-0.4934824498037983,0.9999935459216257,0.0002638405308608352
-0.4932968085624509,-0.4932968085624509,1.0003375705406985,0.0002577018781077006
-0.49319124302492695,-0.49319124302492695,0.9998100612042414,0.0002612080222219723
-0.49314009070771475,-0.49314009070771475,1.0000502963866325,0.00026129779214462725
-0.49303996783272624,-0.49303996783272624,0.9997976886512865,0.0002508889720328609
-0.49292857991874256,-0.49292857991874256,1.000470577491518,0.00026144960558182776
-0.4927901360385647,-0.4927901360385647,1.0002317758113024,0.000247942168171375
-0.49261923923390327,-0.49261923923390327,0.9998134940216623,0.00025480601619242067
-0.4925027014044076,-0.4925027014044076,1.0001242469657903,0.0002662840129450232
-0.49236828411925443,-0.49236828411925443,0.9998405427984279,0.00026711656322780524
-0.4922183344413952,-0.4922183344413952,1.0002609749788431,0.00025810290525932016
-0.4921663989267245,-0.4921663989267245,1.0000421870280267,0.00025673515944885496
-0.49209521384834715,-0.49209521384834715,0.9996230306964884,0.0002597294754551489
-0.4919647640409096,-0.4919647640409096,1.0000417552237606,0.0002473770452948094
-0.49189536504871967,-0.49189536504871967,1.0004319793625753,0.000268413237753844
-0.49170450614025185,-0.49170450614025185,0.9998006993973487,0.0002390272381937617
-0.4915658244583767,-0.4915658244583767,0.9999395536247345,0.00027324175426498556
-0.49145652101377096,-0.49145652101377096,0.9999913685147515,0.00024869957035159675
-0.4912911653095648,-0.4912911653095648,1.0002163805941564,0.0002644306759082671
-0.491183688383353,-0.491183688383353,1.0003365078622846,0.0002585139019122013
-0.49113265969366465,-0.49113265969366465,1.0003724873026378,0.0002636447562480419
-0.4910067053333876,-0.4910067053333876,0.9999776484852705,0.0002531815405081166
-0.49091567486220244,-0.49091567486220244,1.0004061224891152,0.00025950319170394705
-0.49078685576510567,-0.49078685576510567,0.999945114763453,0.00024799391999394833
-0.4906159643517526,-0.4906159643517526,1.0000398880051402,0.00025487415719628527
-0.49049941933636204,-0.49049941933636204,0.9996456280493412,0.00026603600834509326
-0.49039510015329596,-0.49039510015329596,1.000140908933452,0.0002649035716525918
-0.4902090132534397,-0.4902090132534397,0.9999431404641932,0.00026014668468039273
-0.4901631284008886,-0.4901631284008886,1.000256862507303,0.0002568410266613807
-0.4900919477852653,-0.4900919477852653,1.000085995744294,0.00025969508839024147
-0.4899557923484565,-0.4899557923484565,1.0004594966106002,0.00024414655808705535
-0.48988980715415664,-0.48988980715415664,1.0004490426828894,0.00027134762248035477
-0.48970120242194637,-0.48970120242194637,1.0001513870615315,0.00023910657586944046
-0.4895625619552845,-0.4895625619552845,0.9998709690916989,0.0002731585885206634
-0.4894532532146002,-0.4894532532146002,1.0000541451533238,0.00024867799545437636
-0.4892883481547926,-0.4892883481547926,0.999615780565251,0.00026642838613055947
-0.48918039910562355,-0.48918039910562355,1.0002001938966691,0.0002584525595290201
-0.4891294015820563,-0.4891294015820563,0.999747444096845,0.00026352408883065123
-0.48900344310605987,-0.48900344310605987,0.9995223895900371,0.00025314176149338226
-0.48891240969147703,-0.48891240969147703,1.000086982929452,0.00025950176195749177
-0.4888140334767911,-0.4888140334767911,1.000023570074389,0.000248585963109794
-0.4886223198547611,-0.4886223198547611,0.9999167132553648,0.0002519546942035132
-0.48851220164057735,-0.48851220164057735,1.0003995550593006,0.0002659929402289187
-0.48840735034259525,-0.48840735034259525,0.999814602281296,0.00026453206085993205
-0.48821419867789473,-0.48821419867789473,1.0000000681947852,0.0002624772095436204
-0.488158574044661,-0.488158574044661,0.9997569863985293,0.00025374228547801866
-0.48806200344652095,-0.48806200344652095,0.9998560479988177,0.00025990460507210525
-0.48793582949877534,-0.48793582949877534,1.0001852887451892,0.0002549933669309099
-0.48788313711471004,-0.48788313711471004,0.9999293229504082,0.0002637537872335662
-0.48768641272650937,-0.48768641272650937,0.9997345752934688,0.00024746979331482046
-0.48753076869357415,-0.48753076869357415,0.9997096852242727,0.0002701043214830407
-0.4874499360460277,-0.4874499360460277,1.000080303373717,0.00024357689830806122
-0.4872774360612027,-0.4872774360612027,1.0000526203589608,0.00027393767629772234
-0.4871669569782625,-0.4871669569782625,0.9998682504404975,0.00026034400680414
-0.48708704869431474,-0.48708704869431474,1.0001593966021354,0.0002596905571240527
-0.48695089813683695,-0.48695089813683695,1.0002982710724055,0.0002441152854607749
-0.4868849266288692,-0.4868849266288692,0.9997320175350823,0.00027134157870605603
-0.486686638336954,-0.486686638336954,1.0000557126169047,0.00023978126730490315
-0.48656335973527687,-0.48656335973527687,1.0004788794036101,0.0002579799403448819
-0.48648203239652615,-0.48648203239652615,1.000014577410332,0.0002590606573708053
-0.4863585230663716,-0.4863585230663716,1.000132231291506,0.0002666023429410715
-0.4861866155079554,-0.4861866155079554,1.0002957030508086,0.0002630168846455207
-0.48612825037516244,-0.48612825037516244,0.9996000128174571,0.00026103260105805025
-0.48599854979719337,-0.48599854979719337,0.9998074460002471,0.0002531163187822629
-0.4859117901350885,-0.4859117901350885,1.0000486134707363,0.00025212103802733064
-0.4858213285692671,-0.4858213285692671,1.0002650070436658,0.0002584104331934679
-0.4856238124708227,-0.4856238124708227,1.0003051222724186,0.00025273679686514303
-0.4855188052147696,-0.4855188052147696,0.9994809926371928,0.00026789532742626523
-0.4854290518007588,-0.4854290518007588,1.0001902389560156,0.00025139079186651354
-0.4852597230768083,-0.4852597230768083,1.0005276095786972,0.00026637964460124203
-0.4851636799884204,-0.4851636799884204,1.0000439171674234,0.0002603553594719474
-0.4850837826380882,-0.4850837826380882,0.9998516402558455,0.0002597321450608816
-0.48494763534798724,-0.48494763534798724,0.9998313517687437,0.00024408423692764535
-0.4848816729618761,-0.4848816729618761,1.0001267525662174,0.00027123225775395083
-0.48468147419092134,-0.48468147419092134,1.0001839689614482,0.0002476153078094228
-0.4845372684843312,-0.4845372684843312,1.0000633770674825,0.0002681158614019784
-0.48444672861133425,-0.48444672861133425,1.0000690316474636,0.0002459712923925391
-0.4842796520173067,-0.4842796520173067,0.9999534559755026,0.0002656100355713514
-0.4841721759707355,-0.4841721759707355,1.0001290083653644,0.0002585533973432152
-0.48411091686138547,-0.48411091686138547,1.0002741262354509,0.0002670875856855776
-0.48399256995382417,-0.48399256995382417,0.9999852478414117,0.0002468837673017578
-0.4839042468333332,-0.4839042468333332,1.000010533320069,0.00025952265436036514
-0.4837732998945853,-0.4837732998945853,1.000298273350047,0.0002481832591481662
-0.4835779745387129,-0.4835779745387129,0.999728698338639,0.0002579011053602916
-0.4834895743442644,-0.4834895743442644,1.0000151208348727,0.00026288056659722536
-0.4833837065881482,-0.4833837065881482,1.000161185385355,0.00026446962090808355
-0.4831951322564919,-0.4831951322564919,1.0005165261519071,0.00026053003412267845
-0.48313846825389534,-0.48313846825389534,0.9998850549612236,0.00026544228431195176
-0.48302801703688375,-0.48302801703688375,0.9996416724992517,0.0002496441972008426
-0.48292767593121655,-0.48292767593121655,1.0003308397760216,0.00025503676852912856
-0.48284592085822736,-0.48284592085822736,1.0001106531752544,0.0002614228292649316
-0.4826781818164875,-0.4826781818164875,1.000055073118554,0.00024763762545230853
-0.4825340014771314,-0.4825340014771314,0.999932609236547,0.00026791332485044775
-0.482443455734267,-0.482443455734267,0.9998441066881206,0.0002458939924015629
-0.4822769029285155,-0.4822769029285155,1.0002710636455432,0.0002660894124595583
-0.48216888673906055,-0.48216888673906055,1.0000144218722453,0.0002584042816558037
-0.4821076533082021,-0.4821076533082021,0.9998861931385354,0.0002671253340929907
-0.48196014620291405,-0.48196014620291405,1.0002753017120438,0.00024923585921637594
-0.4818900332812575,-0.4818900332812575,1.0001764758502563,0.0002591597133573039
-0.48176420768268713,-0.48176420768268713,0.9996461169354991,0.00023726051883126245
-0.4815995062361367,-0.4815995062361367,1.000046061069171,0.0002656803646596028
-0.4814862871407968,-0.4814862871407968,0.9999353937182143,0.0002626450174652461
-0.4813850246225286,-0.4813850246225286,0.999810902922877,0.0002642402347505165
-0.4812027065391192,-0.4812027065391192,1.0002160188753115,0.00026263704454687365
-0.4811471034022077,-0.4811471034022077,1.0002343155385565,0.00025366503999571424
-0.48105058382755034,-0.48105058382755034,0.9998786771192412,0.00025990812873336305
-0.4809244145502305,-0.4809244145502305,1.000502973851099,0.00025497466383476883
-0.48084187564759306,-0.48084187564759306,1.000038670042408,0.0002504528817931482
-0.48064769532171,-0.48064769532171,1.0004281471677088,0.0002604625949136903
-0.4805456068461069,-0.4805456068461069,0.9992907675186823,0.0002655445538415018
-0.4804401828748894,-0.4804401828748894,1.0000505510293636,0.0002459558564981698
-0.48028278677259095,-0.48028278677259095,1.0005115325005947,0.0002638899127855929
-0.4801767569879985,-0.4801767569879985,0.9999342284609097,0.00026317729309187707
-0.48011846593677204,-0.48011846593677204,0.999681092586654,0.0002608477517142522
-0.47998876328600204,-0.47998876328600204,1.000055153164936,0.0002531881533477078
-0.4798977166218549,-0.4798977166218549,1.0003009199051864,0.0002595833334548865
-0.4797468154807518,-0.4797468154807518,0.9995713894409862,0.00024788041406578504
-0.47957078064110303,-0.47957078064110303,1.0000091792356591,0.00026165147038676123
-0.479461201682949,-0.479461201682949,1.0000157386859274,0.0002600852366739923
-0.479336376788342,-0.479336376788342,1.0000300321525653,0.00026232127689529005
-0.47917511391462997,-0.47917511391462997,0.9996043983536527,0.0002630152523513153
-0.47911683519535586,-0.47911683519535586,1.0003040517663353,0.0002609403846015729
-0.4789871322140414,-0.4789871322140414,1.0000743056160086,0.00025322182876834674
-0.47890782350345373,-0.47890782350345373,1.0001820696471326,0.0002517411115296066
-0.4787916738533511,-0.4787916738533511,1.0004011857529402,0.00024730527024345724
-0.4785946101983086,-0.4785946101983086,0.9998207038726854,0.00026554805935138356
-0.47848135634079086,-0.47848135634079086,1.0002022633342051,0.00026236303584786243
-0.47839258713237315,-0.47839258713237315,0.999720035879348,0.0002753504372023961
-0.4782172210773069,-0.4782172210773069,1.0002842368006675,0.0002604533364473628
-0.47814218739749775,-0.47814218739749775,0.9999180434519893,0.0002537080036066195
-0.47804568974387396,-0.47804568974387396,1.0000772406369116,0.00025993698377372297
-0.4779195225203921,-0.4779195225203921,1.0005486512886055,0.0002549550113126412
-0.4778158762435737,-0.4778158762435737,1.0003219330054869,0.0002531587224536035
-0.4776165188073378,-0.4776165188073378,0.9995857086353117,0.00026302569490926843
-0.47749423513910755,-0.47749423513910755,0.9998738862795122,0.00026422679654143275
-0.477391006725253,-0.477391006725253,1.0002527250672117,0.00026165271732347733
-0.4772148551595251,-0.4772148551595251,1.0004984474649976,0.00025370288443043467
-0.4771505721372705,-0.4771505721372705,1.000117566948438,0.000260521805976821
-0.4770707184280525,-0.4770707184280525,1.0003790130820547,0.0002597439429918219
-0.47693458435699654,-0.47693458435699654,0.9998571057968049,0.000244137331925357
-0.4768438425297802,-0.4768438425297802,0.9999011085081291,0.0002636398583492787
-0.47663494582870386,-0.47663494582870386,1.0003283633179962,0.00025301910822349185
-0.47654135582939716,-0.47654135582939716,1.0003127336106412,0.0002722205902957756
-0.4764336372059404,-0.4764336372059404,0.9999479299185043,0.0002459066554623868
-0.47625943823508693,-0.47625943823508693,1.0001518927979187,0.0002726190859632992
-0.47614893366783806,-0.47614893366783806,1.0003081349016734,0.00026049194140696097
-0.4760949703155063,-0.4760949703155063,0.9995396931288909,0.0002554383198352788
-0.4759503903111977,-0.4759503903111977,0.9998040557628375,0.00024923168157020575
-0.47587785070008976,-0.47587785070008976,1.0002380540107014,0.0002609176512883307
-0.47565451891953786,-0.47565451891953786,0.9997835157336914,0.0002491969236221985
-0.47556422723459946,-0.47556422723459946,1.0000273553525405,0.000261745736797079
-0.4754546543000515,-0.4754546543000515,0.9999088954321758,0.0002596733884422868
-0.475297820747727,-0.475297820747727,0.9999614256991409,0.00026598570989347554
-0.4751573745336657,-0.4751573745336657,0.9998760015231726,0.00025867307177822264
-0.4751054202211947,-0.4751054202211947,0.9997926006854468,0.00026126305743062907
-0.47498060796062874,-0.47498060796062874,0.9999726192735597,0.0002532234604184718
-0.4748895539544833,-0.4748895539544833,0.9998821731058335,0.0002593875131862211
-0.47473668359098153,-0.47473668359098153,1.0000301588768024,0.00025267291613807915
-0.47460406805181493,-0.47460406805181493,1.0001977630998344,0.00026348460791988807
-0.4744893175859204,-0.4744893175859204,1.000341094795767,0.0002639217217994099
-0.4743861156674427,-0.4743861156674427,0.9999311350484007,0.0002612600587356345
-0.47418033188296815,-0.47418033188296815,0.9999830248650448,0.0002604938748746443
-0.4741351805979491,-0.4741351805979491,1.0000604785642793,0.00025373796449730524
-0.4740658193555703,-0.4740658193555703,1.0003418578202352,0.0002596206660596357
-0.47392969030428844,-0.47392969030428844,1.0006076734698173,0.0002441900812332618
-0.4738538123841238,-0.4738538123841238,0.9999208207873931,0.00027073557034968884
-0.4736432266613292,-0.4736432266613292,1.0004198839369398,0.0002491798230868197
-0.4735609505421962,-0.4735609505421962,0.999918324472681,0.0002616828179837611
-0.47345138061933767,-0.47345138061933767,1.0000892742468843,0.0002596236176212239
-0.47329456015581284,-0.47329456015581284,1.0000601797197957,0.00026582921412665985
-0.47315833991320344,-0.47315833991320344,0.9997928622519568,0.0002582792296563313
-0.47311295077444127,-0.47311295077444127,1.0000220236016992,0.0002588965213544852
-0.47300734420887236,-0.47300734420887236,0.9997871863303225,0.0002508799332459978
-0.4728980754793383,-0.4728980754793383,1.0002191790383468,0.0002542839948515515
-0.47273968424501617,-0.47273968424501617,1.000056909607858,0.00026062088734020406
-0.4725908296579121,-0.4725908296579121,1.000086560774227,0.0002631566403473111
-0.47248603921840415,-0.47248603921840415,0.9999710689492151,0.00026377292637970294
-0.47240622517791736,-0.47240622517791736,0.9998258056203388,0.00025266619957959425
-0.47221211813806574,-0.47221211813806574,1.0002731022703464,0.0002702877356166486
-0.4721416597191876,-0.4721416597191876,1.0001755190910573,0.00025389153859562655
-0.472088411416388,-0.472088411416388,0.9997860349828098,0.00025544283806170064
-0.4719438865027826,-0.4719438865027826,0.9998878859261838,0.0002493166736821556
-0.4718713217740856,-0.4718713217740856,1.0000637114801636,0.000260802262384953
-0.47163984560005473,-0.47163984560005473,0.999742886118125,0.00025331977497832544
-0.47153319970535107,-0.47153319970535107,0.9999743471914153,0.0002717910573985846
-0.47144063052733143,-0.47144063052733143,1.0004854371397196,0.00024455085407680907
-0.4713313477486736,-0.4713313477486736,1.0002750244392902,0.00027084357264410325
-0.47116196946706734,-0.47116196946706734,1.0001732832077928,0.0002633108103130716
-0.4711208961320267,-0.4711208961320267,1.000028648235946,0.00024574354616358277
-0.4710342702928358,-0.4710342702928358,1.000432682468881,0.00025995048654013777
