time,time,flux,flux_err
-0.4998899914838451,-0.4998899914838451,1.0004809475671046,0.0003864415939248671
-0.49964372910180826,-0.49964372910180826,1.0003048869145041,0.0003283826026052954
-0.49931110834368153,-0.49931110834368153,0.9999098989920165,0.0003428113735151056
-0.4991108504342264,-0.4991108504342264,1.0006217730783056,0.0003604261551670596
-0.49880127139840624,-0.49880127139840624,1.0002722868412763,0.00033061133724008267
-0.4984998000480118,-0.4984998000480118,1.0000395137738711,0.00034127279008064256
-0.4981998039431346,-0.4981998039431346,1.0001087988586634,0.0003307826527995508
-0.4978357583800971,-0.4978357583800971,0.999885356707491,0.0003467412821019424
-0.49742464986993584,-0.49742464986993584,1.000126468969949,0.00033066296863684235
-0.4971400517657457,-0.4971400517657457,0.9997346095879969,0.00031376760321924176
-0.4968968145461986,-0.4968968145461986,1.0001173943167267,0.00035791399306672305
-0.4962321482351399,-0.4962321482351399,1.0000973708271204,0.0003970799847541573
-0.4953698518169404,-0.4953698518169404,0.9999444663282773,0.0004217935692091771
-0.49467327051752363,-0.49467327051752363,1.0000437330985883,0.0004219562048447628
-0.4941072607820388,-0.4941072607820388,1.000060192239248,0.000422333398730218
-0.49304543725666006,-0.49304543725666006,1.0002049569817697,0.00037495688295167637
-0.49211247823695886,-0.49211247823695886,1.0001514101145559,0.0002766653005805464
-0.49170690309183557,-0.49170690309183557,0.9999727399665435,0.0003428834539057071
-0.49125425901729614,-0.49125425901729614,0.9997192012575784,0.0003114830856690247
-0.4909421818672854,-0.4909421818672854,1.0001373889104797,0.00034261568763598835
-0.4898743187819491,-0.4898743187819491,0.9997452363723761,0.0005582087967440857
-0.4889444745378569,-0.4889444745378569,1.0000691114823053,0.00038788848986121113
-0.48837995833237074,-0.48837995833237074,0.9999296560153128,0.0003997115523023135
-0.48785185687447663,-0.48785185687447663,0.9999527101989288,0.00036078575104560296
-0.4874592419146211,-0.4874592419146211,1.0000368697248705,0.00036237862488362245
-0.4871574754703033,-0.4871574754703033,0.9995099318956824,0.00034874150958379743
-0.48682167851147823,-0.48682167851147823,0.9998323769814522,0.0003588713846173208
-0.4864807977239252,-0.4864807977239252,0.9999037185722951,0.0003357587333722014
-0.48614758596377217,-0.48614758596377217,0.9999691391252927,0.00032960407251071076
-0.48580047464784004,-0.48580047464784004,1.0001953706249906,0.00040993615991864377
-0.4854360837089189,-0.4854360837089189,1.0001768101078206,0.0004004697497039347
-0.48482881983945847,-0.48482881983945847,0.9997281698397307,0.0003739062576323559
-0.48440605798969044,-0.48440605798969044,1.0006195377863243,0.00034214776359712954
-0.48397954078463956,-0.48397954078463956,0.9999586042023244,0.00037068665141214564
-0.483603573943401,-0.483603573943401,1.000350124327817,0.00037077206905149906
-0.4830940646483214,-0.4830940646483214,1.0000666809967729,0.0003969377416888658
-0.48230603941410666,-0.48230603941410666,1.000171712727287,0.00034248422643946353
-0.4803789199679159,-0.4803789199679159,1.0000362859969207,0.00033104130081477437
-0.4795592457179737,-0.4795592457179737,0.9998747294823987,0.0003449710068534721
-0.4791981695285358,-0.4791981695285358,1.000517548787703,0.00031434257052677866
-0.47861491201183526,-0.47861491201183526,1.0001228303588279,0.00033124052785690966
-0.47773100976482963,-0.47773100976482963,1.0000371690353773,0.000375333047162775
-0.47741083900327796,-0.47741083900327796,1.0003460171199905,0.0003753853949132904
-0.47706765678740337,-0.47706765678740337,0.9999102840106298,0.00038744175204677255
-0.4768465182562068,-0.4768465182562068,1.0004484872624837,0.0003144221553374901
-0.4766644565439492,-0.4766644565439492,0.9999304613024046,0.0003487422444204201
-0.4764336806583742,-0.4764336806583742,1.000107962317521,0.00032865372979967944
-0.4761017707445717,-0.4761017707445717,1.0003151455565777,0.00034474609523912523
-0.47590764877022596,-0.47590764877022596,1.0001885887783821,0.0003728184813159436
-0.4756642692729656,-0.4756642692729656,0.999918987240372,0.00033082145586430927
-0.47531924009745125,-0.47531924009745125,0.9998496971637003,0.0003465856138585258
-0.4749067685654154,-0.4749067685654154,1.0004909910312878,0.0003308185750542544
-0.4745481394136732,-0.4745481394136732,0.999949173484468,0.0003466972085264178
-0.47416018247022296,-0.47416018247022296,0.9997436461644597,0.00031377045710418604
-0.47387752770300723,-0.47387752770300723,1.000479990661276,0.0003445766478180265
-0.47368726284476,-0.47368726284476,0.9998419245806082,0.0003288010493995573
-0.4729196755120938,-0.4729196755120938,1.0001106209131303,0.0004222083501615787
-0.47204069674844507,-0.47204069674844507,1.0003185051320211,0.0004218796693034756
-0.4713665287279582,-0.4713665287279582,1.000248600050576,0.0004221283597188588
-0.4707708602756611,-0.4707708602756611,0.9995929969714414,0.00042196081171498964
-0.4698135309663485,-0.4698135309663485,1.0000540293382743,0.0003738464213013269
-0.4688816065565334,-0.4688816065565334,0.9999873168988433,0.0003427596987633734
-0.46850356042050406,-0.46850356042050406,1.0000990573294615,0.00031169303057367715
-0.4680431203705666,-0.4680431203705666,1.0001776963752256,0.0003118705891561837
-0.4678103396756342,-0.4678103396756342,0.9999831182831743,0.00035166524871743524
-0.46738579123921226,-0.46738579123921226,0.9998006954596734,0.000576722517183852
-0.46628289888540164,-0.46628289888540164,0.9995115888515862,0.0003971707941905811
-0.46542412616036016,-0.46542412616036016,1.0001587902902551,0.00038773572202886194
-0.46483041398678326,-0.46483041398678326,0.9999410580610597,0.00037365439073297143
-0.4643890505140007,-0.4643890505140007,0.9999802224891768,0.0003626784147922231
-0.4639706134847074,-0.4639706134847074,0.999643812230868,0.0003622127914718906
-0.4636596099750022,-0.4636596099750022,1.0001741535338176,0.0003641585711286827
-0.46334262604577814,-0.46334262604577814,1.0003982002101532,0.00033651778020289956
-0.4630771053925855,-0.4630771053925855,1.000189099243057,0.00033217445399510726
-0.4627493624582712,-0.4627493624582712,1.000286200258826,0.0003286558799338892
-0.4624111322184035,-0.4624111322184035,1.0003997949395935,0.00036153943541356194
-0.4620825357436843,-0.4620825357436843,0.9995293009009556,0.00040745100006367544
-0.4615547974324727,-0.4615547974324727,0.99987112463987,0.0003474399620663113
-0.4611113407445373,-0.4611113407445373,1.0006601262277186,0.00037055541925666845
-0.46072665394240175,-0.46072665394240175,1.0003463584994736,0.0003706426613251203
-0.46040526355354816,-0.46040526355354816,0.9999931256271253,0.0003419457804590343
-0.4599043900860124,-0.4599043900860124,0.9996704061772383,0.0003971867548449045
-0.4589438462622638,-0.4589438462622638,1.0001436470325769,0.00037068333602413475
-0.4566942015182576,-0.4566942015182576,1.0000288071353611,0.00033105812658172526
-0.4562310950801475,-0.4562310950801475,1.0002787492098413,0.00033121800329510365
-0.4558204468412441,-0.4558204468412441,0.9997897616688579,0.00031432976951376306
-0.4551618626290292,-0.4551618626290292,1.0003205442797547,0.00033120883866537764
-0.45446659841472864,-0.45446659841472864,0.9999867088780234,0.0003604219129244857
-0.45420490075266573,-0.45420490075266573,1.0006018834879398,0.00037707078394624675
-0.453867067083047,-0.453867067083047,1.0001391123992946,0.0003873825165538759
-0.45357436028207304,-0.45357436028207304,1.000430446519824,0.00036264788671992417
-0.4533713811710186,-0.4533713811710186,0.9997521163126276,0.0002959552058455956
-0.45314059283191455,-0.45314059283191455,0.9998136338969912,0.0003578164466229097
-0.45285111831180985,-0.45285111831180985,0.9998207787354595,0.00033078313005095657
-0.45263470326317473,-0.45263470326317473,1.0000949616926136,0.000353286766364169
-0.4524422232374491,-0.4524422232374491,0.9997687731878694,0.00034454548577209456
-0.4521192609674472,-0.4521192609674472,0.9996848258714953,0.00034654120290404287
-0.4517006427042361,-0.4517006427042361,1.0003140813691203,0.0003307186046843772
-0.45139850837149426,-0.45139850837149426,1.0002419576748718,0.00033069728198560443
-0.45100991213694214,-0.45100991213694214,0.9997263547871696,0.00033073253981451576
-0.45070355349598684,-0.45070355349598684,1.0000140521521197,0.00034461037572335165
-0.45045299982230064,-0.45045299982230064,0.9998329237522834,0.00032831560525866895
-0.449729379315977,-0.449729379315977,1.0001582563060762,0.0003970287368984769
-0.4488559444216662,-0.4488559444216662,0.99941297405305,0.000421897758326791
-0.4481800148532784,-0.4481800148532784,0.9998194339218285,0.0004220835041345961
-0.4475808896648232,-0.4475808896648232,1.0000261690902128,0.00042191361857914727
-0.44642047175293553,-0.44642047175293553,1.0003544415071248,0.00036433943811311494
-0.44556059343231025,-0.44556059343231025,0.999718937823434,0.00031204690562170384
-0.4451843322975037,-0.4451843322975037,0.9997888447752773,0.00034295111357843185
-0.4447251011282788,-0.4447251011282788,1.0001017438773647,0.00031143927457108294
-0.4443985959631391,-0.4443985959631391,0.9999667834512816,0.0003425071619352852
-0.44339292273070896,-0.44339292273070896,0.9992877999690858,0.0004911558161884096
-0.4423340308727347,-0.4423340308727347,1.0001359710357844,0.0003877719730983757
-0.4417689893183706,-0.4417689893183706,1.0004470599331732,0.0003996023904448672
-0.4413772449348471,-0.4413772449348471,1.0000207603210323,0.00037334728472237117
-0.44100175989588025,-0.44100175989588025,0.9995957457969624,0.0003625727164834193
-0.44065743030732846,-0.44065743030732846,1.000030766633472,0.00034704386190107314
-0.4403612983755011,-0.4403612983755011,1.000200617078995,0.00036557449479615643
-0.4399943694807007,-0.4399943694807007,0.999755680564214,0.0003243033548011945
-0.4396737764167483,-0.4396737764167483,0.9996924644081899,0.00034635730812090394
-0.43929829811677334,-0.43929829811677334,1.0003990088091077,0.0003461855795732478
-0.4388964117148134,-0.4388964117148134,1.0001219765464608,0.0004198152007396879
-0.4382489513263863,-0.4382489513263863,1.000087931736289,0.00037142709002475357
-0.4379110715039133,-0.4379110715039133,1.00006787647067,0.00037092509746936865
-0.4375333798292559,-0.4375333798292559,0.9999108888813094,0.0003703064748207947
-0.4371101381868357,-0.4371101381868357,1.000368993891086,0.00034227242716691617
-0.43667899415959255,-0.43667899415959255,1.0002586355236087,0.0003972522885870459
-0.435742763907183,-0.435742763907183,1.0008501649141366,0.00037058937546431263
-0.4334450741109322,-0.4334450741109322,1.0004147555517002,0.00034713291772473897
-0.43293598657546684,-0.43293598657546684,1.0003911698193018,0.000314437312539433
-0.4325170203388552,-0.4325170203388552,0.9996909865823532,0.0003143439353889235
-0.4318422723095864,-0.4318422723095864,1.0002238918402693,0.00036039482843520617
-0.4312591196699941,-0.4312591196699941,1.0002376621477505,0.0003604589978864449
-0.430936047124851,-0.430936047124851,0.9996465701902034,0.00038733246110138873
-0.43060827151639386,-0.43060827151639386,1.0001946381852556,0.0003751769669452514
-0.4303112205721845,-0.4303112205721845,0.9997973438576377,0.0003460149492955831
-0.43011806698777943,-0.43011806698777943,1.0002544764456904,0.00032868644684753707
-0.42987894338584737,-0.42987894338584737,1.000166022657893,0.0003445488504714051
-0.42957288534962573,-0.42957288534962573,1.0000917329565595,0.0003447610408715652
-0.4293601432837022,-0.4293601432837022,1.0001652032906692,0.00035581268944804716
-0.4291261907608714,-0.4291261907608714,0.9995361523200981,0.0003304922315741733
-0.42878102832764853,-0.42878102832764853,0.9999472528690116,0.00031391707749376063
-0.42844460425912984,-0.42844460425912984,1.0001822805689247,0.00034659902016403435
-0.42810774264580687,-0.42810774264580687,0.9998384343847274,0.0003306321772314528
-0.42775689931440863,-0.42775689931440863,0.9998817473570016,0.00033079846219790906
-0.42749741682418974,-0.42749741682418974,0.99987200424495,0.0003339280522506933
-0.4272503964522912,-0.4272503964522912,0.9999982849754344,0.0003138142882062391
-0.42688935426122043,-0.42688935426122043,0.9997372250875353,0.0003970905101790486
-0.42595012223464435,-0.42595012223464435,1.0000900685989276,0.0004213386706154891
-0.42526554233918434,-0.42526554233918434,1.0000804702916297,0.00042192138121745215
-0.4246337012060394,-0.4246337012060394,0.9995228358982707,0.00041082374365812146
-0.4240733612459735,-0.4240733612459735,1.0002291597630173,0.0004246188375109093
-0.4225619202690723,-0.4225619202690723,0.9999630120123136,0.00029573321174626273
-0.42206072127228256,-0.42206072127228256,1.0000414718989679,0.00031153986065610725
-0.42160201254228014,-0.42160201254228014,1.0000986972772183,0.0003426761600425571
-0.4212727585399989,-0.4212727585399989,0.9995511953971151,0.0003114570779954217
-0.4203680097147299,-0.4203680097147299,0.9980386375436534,0.000521861940385051
-0.4191391220687365,-0.4191391220687365,0.9997215070824501,0.000387591393563911
-0.4185560388796148,-0.4185560388796148,1.000032726085031,0.0003997711011627645
-0.41798206402381766,-0.41798206402381766,1.0004400814945673,0.00037541330693331265
-0.41759065745645785,-0.41759065745645785,0.9997436030111404,0.0003748825467121392
-0.4173459559759067,-0.4173459559759067,0.9999906318562584,0.0003495000995277145
-0.417006939460407,-0.417006939460407,1.000829486138557,0.0003564783271247225
-0.41666706087053174,-0.41666706087053174,1.0003550052867263,0.000334232263684262
-0.41633557790773923,-0.41633557790773923,0.9999688868630703,0.00032943405288707116
-0.4159885063512775,-0.4159885063512775,1.0003154631988806,0.0003579843913234737
-0.41565638337124255,-0.41565638337124255,1.0002975762370536,0.00043638635903845736
-0.4150021720321092,-0.4150021720321092,0.99994793436775,0.00037275628968532756
-0.41458538173319537,-0.41458538173319537,0.9999866845138474,0.00034226780052884324
-0.41415533670515287,-0.41415533670515287,1.000136236345097,0.0003704615311988123
-0.41377897385682444,-0.41377897385682444,1.0004403093457075,0.0003707502550608736
-0.41311256007757036,-0.41311256007757036,1.0001341100159835,0.0003971246934772561
-0.4116371743271884,-0.4116371743271884,0.9997545532956333,0.0003446597895430027
-0.4099826683748688,-0.4099826683748688,0.999569084702545,0.00033107023579185684
-0.4096126122283749,-0.4096126122283749,1.0001492276426915,0.0003451024976844627
-0.4092107647600642,-0.4092107647600642,1.000055441952018,0.0002965314416174736
-0.40847259201618724,-0.40847259201618724,0.9999257009961573,0.0003755335879610731
-0.40781199184275463,-0.40781199184275463,1.00002760859054,0.0003753544119010648
-0.40746609176057974,-0.40746609176057974,0.9999784406753189,0.00038745348916592863
-0.4071573513407202,-0.4071573513407202,1.0002893955659864,0.00036127375850195873
-0.4069571755826473,-0.4069571755826473,1.0002011283018226,0.00032051490328263005
-0.40677899400616296,-0.40677899400616296,0.9997615477374715,0.00032830811506006903
-0.40648177554103315,-0.40648177554103315,0.9999265627314395,0.0003447590357639264
-0.4062071468499198,-0.4062071468499198,1.0004242687283296,0.0003583954743547278
-0.4059860298548301,-0.4059860298548301,0.999904142974232,0.00034461625774153326
-0.4056581627948617,-0.4056581627948617,0.999952790090974,0.0003306617308796535
-0.40536587104506905,-0.40536587104506905,1.0004321380803816,0.0003424770352931257
-0.40503622535034084,-0.40503622535034084,1.0002220511169206,0.00033070581761878256
-0.40464619491322085,-0.40464619491322085,0.9998811144474453,0.00034668994973091177
-0.40428697836978245,-0.40428697836978245,0.9999914613915963,0.0003305814118367489
-0.40401844596635783,-0.40401844596635783,0.9999495609829243,0.00031390110072977804
-0.4036982580379117,-0.4036982580379117,0.9998647296729087,0.0003969497297944091
-0.4028411856968887,-0.4028411856968887,1.000349582331043,0.0003972565897553247
-0.40210395155518197,-0.40210395155518197,1.00018185309825,0.0003971118081086673
-0.40153615483941396,-0.40153615483941396,0.9996631265754118,0.0004216176478039265
-0.40093401004414775,-0.40093401004414775,0.9994589857099967,0.0004220112834679497
-0.39978883137737287,-0.39978883137737287,0.9994864705774459,0.0003464326163992084
-0.3989569823366764,-0.3989569823366764,1.0002213074618882,0.0003116333732844693
-0.39847342994253265,-0.39847342994253265,1.0000589977133179,0.0003426909952522657
-0.39812208948496847,-0.39812208948496847,0.999216123785283,0.0003116816512178974
-0.3977052712769364,-0.3977052712769364,0.9996337283320347,0.000524420403188268
-0.39626286745915423,-0.39626286745915423,1.0005049918114086,0.0004106605388689428
-0.3956016571333748,-0.3956016571333748,1.0000584980326863,0.0003879177279557366
-0.39501204505650095,-0.39501204505650095,1.0003208550890583,0.0003736826911845682
-0.3946002389282512,-0.3946002389282512,1.0002066323430878,0.0003625833441127155
-0.39424705163110046,-0.39424705163110046,1.0006344275466195,0.00034713958537523364
-0.39395644207907027,-0.39395644207907027,1.0000181889384563,0.00036380208631791195
-0.39358194401720537,-0.39358194401720537,1.0000024575672841,0.0003479387459558844
-0.3932636091703898,-0.3932636091703898,0.9991875823521961,0.00033107324834756694
-0.39293752823359684,-0.39293752823359684,1.0001822281477901,0.00032805803059486854
-0.3925467079912778,-0.3925467079912778,1.0003652121413005,0.00044845590848619984
-0.3920831611125323,-0.3920831611125323,0.9999673844329313,0.0003630963409187691
-0.39153708878584437,-0.39153708878584437,0.9997725644188368,0.0003704879163008403
-0.3911471204533882,-0.3911471204533882,0.999811132295353,0.0003706465413104784
-0.39071840550823256,-0.39071840550823256,1.000101492631499,0.0003708114010493769
-0.3903407732293999,-0.3903407732293999,1.0005142735403005,0.0003707071118501359
-0.3895560255245073,-0.3895560255245073,1.0003508968703592,0.0003709808747889845
-0.3882993797022209,-0.3882993797022209,1.000040623911312,0.0003448957886280015
-0.38667701101949203,-0.38667701101949203,0.9996806141815486,0.00034485171436640834
-0.38640186145203187,-0.38640186145203187,0.9996069817711876,0.0003215201125614257
-0.3860150253320171,-0.3860150253320171,0.9999270243757774,0.00031427457565231154
-0.38521698955373723,-0.38521698955373723,1.0000726115374978,0.00036051571209012623
-0.38462385651728254,-0.38462385651728254,0.9995891094516534,0.00037544774610610273
-0.3843210910476046,-0.3843210910476046,1.000599796697971,0.00038763101270909727
-0.383998714707559,-0.383998714707559,1.0000889689238524,0.00037552082918908497
-0.3837918218945561,-0.3837918218945561,0.9995509980206603,0.0003183005163483452
-0.3836049698678835,-0.3836049698678835,1.0003650390640022,0.00032842127414174237
-0.38338962042034835,-0.38338962042034835,0.9994247542284785,0.0003285165441540992
-0.3830829731108679,-0.3830829731108679,0.9995460697764598,0.00034474769836835215
-0.3828897399493144,-0.3828897399493144,0.999973285104469,0.0003727805577932443
-0.38264557442598746,-0.38264557442598746,0.9999391821234835,0.0003306747178549159
-0.38230105577385987,-0.38230105577385987,0.9999439694187829,0.0003467074895928938
-0.3818880263796018,-0.3818880263796018,0.9997780082983961,0.0003306407048122179
-0.38152980327795377,-0.38152980327795377,0.9997897777577623,0.00034670235782207346
-0.3811409819718392,-0.3811409819718392,1.000394274248014,0.00031379923718363566
-0.3808590523534804,-0.3808590523534804,0.999836410632272,0.00034459445743429947
-0.38066825875430366,-0.38066825875430366,1.0004827426799277,0.00032840233723144166
-0.38010488276559046,-0.38010488276559046,1.000035854905237,0.0003969755662270824
-0.3791673082399939,-0.3791673082399939,1.0002179238013624,0.00042153569421465224
-0.37847097331978147,-0.37847097331978147,0.9996288450599513,0.0004218783431682409
-0.3778583218780113,-0.3778583218780113,1.0001181900261666,0.00042216518439425085
-0.3770572153669491,-0.3770572153669491,1.000041139209205,0.00038607625306260056
-0.37597655536301317,-0.37597655536301317,1.0000454470985187,0.0003284741104564341
