time,time,flux,flux_err
-0.4996827289602758,-0.4996827289602758,0.9999978632918397,0.00020729634170739845
-0.4991850450896891,-0.4991850450896891,1.0001588145822888,0.00020107571115434418
-0.4984399907334591,-0.4984399907334591,1.000089993993941,0.0002039993382591654
-0.4978867917321622,-0.4978867917321622,1.0002163503476127,0.00019440937253534745
-0.49751815473719035,-0.49751815473719035,1.0002264223121085,0.0001840821843471974
-0.4969958152709296,-0.4969958152709296,0.9999250326759398,0.00017763325695900498
-0.49639524531958157,-0.49639524531958157,1.0000871200575938,0.0001904154570163854
-0.4959699120605364,-0.4959699120605364,1.0001179195019165,0.0001863717671870474
-0.4954919637850253,-0.4954919637850253,1.0001305899764048,0.0001776558839332058
-0.49481853581382895,-0.49481853581382895,1.000034763741367,0.00018905226737349925
-0.49439122106996364,-0.49439122106996364,1.0000824952366307,0.0001926706648490104
-0.49394203722768,-0.49394203722768,0.9998564007846908,0.00017330954247652628
-0.4933147617033683,-0.4933147617033683,0.9999446387987241,0.0001919467378949824
-0.49294066888978705,-0.49294066888978705,0.9999546006918469,0.00019444770683317488
-0.49242729156976567,-0.49242729156976567,1.0000303008228801,0.0001799939540473717
-0.49177737231948415,-0.49177737231948415,1.0000765026815917,0.00018817775078368857
-0.49141110289783685,-0.49141110289783685,1.0000062577296984,0.00019278500794181095
-0.49097253251238726,-0.49097253251238726,1.0002262515975464,0.00019039666536674202
-0.4904502265766496,-0.4904502265766496,0.9999960779704817,0.00017336749952154084
-0.48994786584516986,-0.48994786584516986,0.9998088779069766,0.00019212545505810802
-0.48955608264659534,-0.48955608264659534,0.999750852628544,0.00019564273723817063
-0.48898456037568394,-0.48898456037568394,1.0001348438637334,0.00017575861222127612
-0.48840280925505797,-0.48840280925505797,0.9998501145849754,0.00018818415183187217
-0.48802069475059395,-0.48802069475059395,1.000074160778466,0.0001962717185550375
-0.48744479067390784,-0.48744479067390784,0.9999196264469186,0.00022269924784759832
-0.48705939713981933,-0.48705939713981933,0.9998617845653712,0.00017999064942726616
-0.48659932966984343,-0.48659932966984343,0.9996434318557481,0.00019209074662678775
-0.4861282656289404,-0.4861282656289404,0.9999168120334915,0.00019895858512853818
-0.48563311046746094,-0.48563311046746094,0.9998837023331136,0.0002275887108030149
-0.48517441361327657,-0.48517441361327657,0.9997886817715296,0.00018411692386976735
-0.48480744706175755,-0.48480744706175755,0.9998143862854544,0.0001953958691289825
-0.48422783335845454,-0.48422783335845454,0.9997353350387016,0.0002497080571938821
-0.4837959803204285,-0.4837959803204285,1.0003766233021447,0.00017340754458939112
-0.4834287139907246,-0.4834287139907246,1.0000696906858795,0.00018818765867474754
-0.4830583910021232,-0.4830583910021232,1.0000801840777747,0.00019813431915927012
-0.4824581071297871,-0.4824581071297871,0.9999446153743682,0.00025553171162267553
-0.4820147420919966,-0.4820147420919966,0.9998586103854536,0.00017335007719800592
-0.48170504633744715,-0.48170504633744715,0.9999982500961458,0.00019221996378326948
-0.4812809960159939,-0.4812809960159939,0.9998977132485033,0.00019898899693868854
-0.480687493129517,-0.480687493129517,0.9997111504543827,0.0002640128699577211
-0.4802485741878627,-0.4802485741878627,1.0002654208060633,0.00018000174703649804
-0.48002889997442255,-0.48002889997442255,1.0001534315911886,0.00019009994813394098
-0.479479720708332,-0.479479720708332,0.9999802035800995,0.0002019251074180545
-0.4789276918105315,-0.4789276918105315,1.0003890857123365,0.0002761107860774189
-0.47857351349957755,-0.47857351349957755,0.9997011857010412,0.0001799747604720533
-0.47839023200504016,-0.47839023200504016,0.999819477848239,0.0001900940582956525
-0.47781973872042727,-0.47781973872042727,1.000030153986775,0.000297300992624597
-0.47724845582561104,-0.47724845582561104,0.9999445392133467,0.0001885820511894189
-0.4769047627720283,-0.4769047627720283,1.000328406396519,0.00018199857888995534
-0.4767365997162415,-0.4767365997162415,1.0001881614742179,0.00018408364577552635
-0.4761619580705883,-0.4761619580705883,1.000190106284404,0.0003080791018868497
-0.47564440163841937,-0.47564440163841937,1.000125550940658,0.00018860912828557255
-0.47530282799270934,-0.47530282799270934,0.999909532326581,0.00017772174725472816
-0.47509293938346675,-0.47509293938346675,0.9999678320068609,0.00018813703222468666
-0.4745041672314983,-0.4745041672314983,1.0005026994887676,0.0003156593416595403
-0.4739664079097565,-0.4739664079097565,1.000024469583773,0.00018852992018250316
-0.4736331939289812,-0.4736331939289812,1.0001330272104914,0.00017772190448481378
-0.4734373715269612,-0.4734373715269612,1.0000042627827133,0.00018812029487346794
-0.47283245947328395,-0.47283245947328395,1.0001096569363006,0.00020623774574449514
-0.47218652443843895,-0.47218652443843895,1.0000961713472591,0.00018231120379354792
-0.4719309595093364,-0.4719309595093364,0.9999436540014415,0.0001819177393418998
-0.4717320839205058,-0.4717320839205058,0.9999478967009583,0.0001840386924835872
-0.47117082798504273,-0.47117082798504273,0.9999205176249104,0.00020749257265949118
-0.4705116678727791,-0.4705116678727791,1.0000819095034534,0.00018640486862368737
-0.4702639875002205,-0.4702639875002205,1.0000027647775593,0.00017769540811734297
-0.4700059883412905,-0.4700059883412905,1.0001393174767252,0.00018839897082818655
-0.4694063938310137,-0.4694063938310137,0.9999776452712215,0.00021060797381667698
-0.46874924161238596,-0.46874924161238596,1.0001957434849635,0.0001842302395775515
-0.468562673163251,-0.468562673163251,1.0001735330832628,0.00018187703205510178
-0.46808391519007275,-0.46808391519007275,0.9999126556866017,0.00020571015108937295
-0.4672710117738461,-0.4672710117738461,0.9998706358003645,0.0001926218812912767
-0.46693100513948593,-0.46693100513948593,1.0000588781384376,0.00018181349413615275
-0.46654948479263114,-0.46654948479263114,1.0001038413945706,0.00018876128230548738
-0.46576689014036676,-0.46576689014036676,0.999771667836788,0.00020417670283980624
-0.4652950157498708,-0.4652950157498708,1.000008857728559,0.00018826818238390955
-0.4650536788627505,-0.4650536788627505,1.0001784550479271,0.00017573228919524222
-0.46430593368422707,-0.46430593368422707,1.0002577674507047,0.00019480267971625753
-0.46371650143992155,-0.46371650143992155,1.0000360376203867,0.00019222384976363778
-0.46353702363849153,-0.46353702363849153,1.0000422205568793,0.00018002092174199455
-0.46307566493342167,-0.46307566493342167,1.000355433947487,0.00018871322000389785
-0.46232328287442215,-0.46232328287442215,1.00011111975089,0.00019040661434082683
-0.46198692844482137,-0.46198692844482137,1.0000826163954741,0.00018819811412861575
-0.4616589907411253,-0.4616589907411253,0.9999922736304174,0.00018234509381172745
-0.4609761256520869,-0.4609761256520869,0.999817900538112,0.0001986461834033919
-0.4604285624576733,-0.4604285624576733,0.9999452171216703,0.00018595280835721414
-0.46018583288532683,-0.46018583288532683,0.9997550931621367,0.00018230232526239318
-0.4596001801517559,-0.4596001801517559,1.0001531436922861,0.00019481986547518928
-0.45888391965418124,-0.45888391965418124,0.999961399317546,0.0001881601900041143
-0.4585588246816769,-0.4585588246816769,0.9998316986242024,0.00018640657406359583
-0.4581010265275836,-0.4581010265275836,1.0001093152488005,0.0001887574250536731
-0.45732083768816667,-0.45732083768816667,0.9999705686760574,0.00019037606367897883
-0.4569584522338118,-0.4569584522338118,1.00012782949227,0.00019038426627782573
-0.4565837661823025,-0.4565837661823025,0.9999518682652706,0.00017997786030823806
-0.4560046828031773,-0.4560046828031773,0.9998931406743472,0.00019867475776913789
-0.4554210043424973,-0.4554210043424973,0.9999658136787719,0.00018817122306871115
-0.4550968163443031,-0.4550968163443031,0.9998469737343212,0.00017997245616727852
-0.4545863965206081,-0.4545863965206081,0.9998657596868545,0.00019483389737205736
-0.4538432405155618,-0.4538432405155618,1.0002766574179422,0.00018594762464551397
-0.4534735522320261,-0.4534735522320261,1.0001471330966671,0.00018639463629473003
-0.45307012446864975,-0.45307012446864975,0.9998989044468336,0.00018872301123011798
-0.45239391562063247,-0.45239391562063247,1.000023522629214,0.0001966203228279814
-0.45188559938105755,-0.45188559938105755,1.0000035060814894,0.0001863895552908688
-0.4514712309493916,-0.4514712309493916,1.000092488698683,0.00018881348654634116
-0.4509838738158578,-0.4509838738158578,0.9997034840221494,0.00020312304808291288
-0.4503956610074965,-0.4503956610074965,0.9999372243067878,0.00019046902669559563
-0.4500771908235038,-0.4500771908235038,1.00009724357831,0.00017999250227137311
-0.4496577443438582,-0.4496577443438582,1.0001518417661683,0.00018872015332160543
-0.4491835116816219,-0.4491835116816219,1.0000501206190662,0.00020572398777404674
-0.44861670953105204,-0.44861670953105204,0.9999547491343158,0.00018411255803665074
-0.4481932008435251,-0.4481932008435251,0.9999438708752297,0.00018872747109996443
-0.44764359877735843,-0.44764359877735843,1.0001551502870663,0.0002010190432772366
-0.4470430844841758,-0.4470430844841758,1.0000117331342213,0.00018819868454138795
-0.44662022500124293,-0.44662022500124293,0.999827888427523,0.00018230921820445485
-0.44606250055367125,-0.44606250055367125,1.0000183691380518,0.00020202507793624903
-0.4455143330240389,-0.4455143330240389,0.9999199413558457,0.00018593281158224822
-0.4450567459600279,-0.4450567459600279,0.999935685697985,0.00018231005360146038
-0.44447109357570297,-0.44447109357570297,0.9996753968689761,0.00019563281002569626
-0.4439892555703409,-0.4439892555703409,0.9998483006764513,0.00019372086130234375
-0.4434544003306655,-0.4434544003306655,1.0001776146575536,0.0001864081862912785
-0.44287683950096834,-0.44287683950096834,0.999966251422828,0.0001954462254640793
-0.44233405562117695,-0.44233405562117695,0.9998398088599056,0.0001968411601192771
-0.4417826158867683,-0.4417826158867683,0.9998216637099386,0.00018228901917934673
-0.4412102758331457,-0.4412102758331457,0.9999888645318384,0.0001927052106085367
-0.44066541149804833,-0.44066541149804833,0.9998258971219837,0.0001951086459692558
-0.4400545683747623,-0.4400545683747623,0.999843476492942,0.0001865009814549602
-0.4396099788194988,-0.4396099788194988,0.9996690418864207,0.000192704754489799
-0.439157561774482,-0.439157561774482,0.9998937985008333,0.00019829099529310805
-0.4384588067419827,-0.4384588067419827,1.000207392523182,0.00018646299526088166
-0.4380352133564884,-0.4380352133564884,1.0000394061990314,0.0001865692461560078
-0.4375575594662223,-0.4375575594662223,1.0003762168592298,0.0001946378558067401
-0.43678738560993224,-0.43678738560993224,1.0001048376897093,0.00018639377104225638
-0.43636235552257857,-0.43636235552257857,0.9999905614362061,0.0001865562800440526
-0.4359092597180279,-0.4359092597180279,1.0000359525608828,0.00019450075307641965
-0.4350634233531309,-0.4350634233531309,1.0000816848019116,0.00018232366329654694
-0.4346031508146552,-0.4346031508146552,1.0001273225253053,0.00019268861213086176
-0.4340103375783656,-0.4340103375783656,0.9998799723311732,0.00019047361127430074
-0.4333057707350235,-0.4333057707350235,0.9999377118167312,0.00018238507278016375
-0.43283108223986344,-0.43283108223986344,0.9998755533730179,0.0001905482411968125
-0.43217289784224705,-0.43217289784224705,0.9998782213328962,0.00019976656253709252
-0.4315331193385646,-0.4315331193385646,1.0000356550444427,0.00018246169702962364
-0.4310757157189073,-0.4310757157189073,1.0002714029500681,0.0001904902540618447
-0.4303572609787807,-0.4303572609787807,0.9999949406242438,0.00019460230279726547
-0.42976309048535766,-0.42976309048535766,0.9999346632816399,0.0001824575397478267
-0.42931656406726687,-0.42931656406726687,1.0001639971778158,0.00019440751301843533
-0.42853787759668194,-0.42853787759668194,1.0000695911680126,0.00019209389902170304
-0.42800502527679785,-0.42800502527679785,0.99987329479578,0.0001865492471479117
-0.4275468642095802,-0.4275468642095802,1.0001550172106228,0.0002014908867730559
-0.4266738751815865,-0.4266738751815865,1.0001266714395545,0.0001886532190788201
-0.42628617495065557,-0.42628617495065557,0.9998147221610205,0.00018645127576662708
-0.4258715589443455,-0.4258715589443455,1.0002843493684896,0.00018422910057740933
-0.4249970392585965,-0.4249970392585965,0.9998456273551882,0.00018862224838685327
-0.42462218304572164,-0.42462218304572164,0.9999227018313521,0.00018654171836967386
-0.42419738199096174,-0.42419738199096174,1.000008404476332,0.00018413723703318268
-0.4234247808140935,-0.4234247808140935,0.9998639385037361,0.0002010310531433747
-0.42300155429402364,-0.42300155429402364,0.9999241797230883,0.00019272050073535464
-0.42261478228319904,-0.42261478228319904,0.9998615150133185,0.00018419117056117917
-0.4218981409125263,-0.4218981409125263,1.0002042811992424,0.00020114927146687168
-0.4214253356243717,-0.4214253356243717,1.0001145604966408,0.00018650546115084652
-0.42103617002721877,-0.42103617002721877,1.000054713586959,0.00018412566562981504
-0.42051027923298534,-0.42051027923298534,0.9998372177127592,0.0002047342483150702
-0.41989633649936875,-0.41989633649936875,0.9999881827502298,0.000186422400375579
-0.41955465421197,-0.41955465421197,0.9998708499316006,0.00018651102469386806
-0.41910756697761825,-0.41910756697761825,0.9997716396722283,0.00018410775419039165
-0.4183858882635832,-0.4183858882635832,0.9999268402630654,0.00020068678198466948
-0.41802323269366753,-0.41802323269366753,0.9998612886874356,0.00019266850382434835
-0.4175942966801813,-0.4175942966801813,1.0002281480364943,0.00018425367586233875
-0.4168557320081163,-0.4168557320081163,1.0001174252119154,0.00020019464582304776
-0.41645580319745934,-0.41645580319745934,0.9998879951894264,0.0001864659443602616
-0.41614512488013133,-0.41614512488013133,1.000089329506595,0.00018419662104884389
-0.4155907618463971,-0.4155907618463971,1.0000824864041462,0.00018230663119605536
-0.41499102921807207,-0.41499102921807207,0.9997855868133921,0.00018637283080747926
-0.41462190097663554,-0.41462190097663554,0.999863543176601,0.00019270225895460548
-0.4141267589351628,-0.4141267589351628,1.0001654817668626,0.00018580437679385615
-0.4135599001630908,-0.4135599001630908,0.9998689474662452,0.00018636455989510885
-0.41308609122934287,-0.41308609122934287,1.0000217232671023,0.00018873101034630468
-0.4126932632090757,-0.4126932632090757,1.0000599494468116,0.00018418391132328692
-0.4121640823694179,-0.4121640823694179,1.0003039701736853,0.00017453468148792835
-0.411657676496543,-0.411657676496543,0.9997750041546475,0.00018641222134866957
-0.4112992414389737,-0.4112992414389737,0.9999287925461978,0.00019270156412975477
-0.4107772090850631,-0.4107772090850631,0.9999397787306481,0.00018500668161129953
-0.4101835451525403,-0.4101835451525403,0.9997642285710544,0.00018627537009368792
-0.4097447616804857,-0.4097447616804857,1.000174494523849,0.00018877872989972756
-0.40946770621230827,-0.40946770621230827,0.9999666844006441,0.00018193691544650598
-0.40893097215448504,-0.40893097215448504,1.00022195300428,0.0001807308566148847
-0.4084348104952369,-0.4084348104952369,1.0001957482914199,0.0001903529863312597
-0.40807423179212493,-0.40807423179212493,0.9999789863309381,0.00018867161095597885
-0.4078062473243335,-0.4078062473243335,0.9999240413683482,0.00018192583102568071
-0.40711794429225845,-0.40711794429225845,0.9998315989434848,0.00018686744566427603
-0.40666039152420125,-0.40666039152420125,1.0001997936647347,0.00018647041316135725
-0.4063226331287296,-0.4063226331287296,1.000071766408256,0.00019047494778085347
-0.4058917259942973,-0.4058917259942973,0.9999853860008316,0.00018456759266488625
-0.40525502546224745,-0.40525502546224745,0.9998898025736132,0.00017993186689928124
-0.404800544702448,-0.404800544702448,0.9998210430403127,0.00018647623529763428
-0.40456922619196123,-0.40456922619196123,0.9998855533139885,0.00019044472607157567
-0.4038943535910221,-0.4038943535910221,1.0003177848760518,0.0001844340485414457
-0.40340525888022966,-0.40340525888022966,1.0002966985205535,0.00018226730771769942
-0.40304203021223656,-0.40304203021223656,1.0002583829713068,0.0001927019697134245
-0.40269035553210414,-0.40269035553210414,1.0000930891336581,0.000182077929899355
-0.40197994486952665,-0.40197994486952665,0.9998235365683088,0.0001863263405703677
-0.4015528469375568,-0.4015528469375568,0.9998342431882514,0.00018648567928281287
-0.4012967872840818,-0.4012967872840818,1.0001113441456135,0.00019045821557489592
-0.40061211499560156,-0.40061211499560156,0.9999159299013547,0.00018006550568450767
-0.4000176478963112,-0.4000176478963112,0.999918134952486,0.00018917302823007572
-0.3997179755795514,-0.3997179755795514,1.0001024383799195,0.00019263843792803885
-0.39922292737755927,-0.39922292737755927,0.9999419876146295,0.0001882860471547543
-0.3984991430945229,-0.3984991430945229,0.9998668247044415,0.0001826873713582288
-0.39816903790924696,-0.39816903790924696,1.0001609656942587,0.00019049984712828016
-0.39797538084967526,-0.39797538084967526,0.9998229714828248,0.00019038003183425412
-0.39715216393524316,-0.39715216393524316,0.9998566372452234,0.00018636679172195342
-0.39659166719939093,-0.39659166719939093,1.0001680303758445,0.00019069290750763288
-0.39639555421890693,-0.39639555421890693,0.9998999270112765,0.00019049524600180006
-0.39589740619121583,-0.39589740619121583,0.9998884303231789,0.00018642964250802319
-0.3951267401280347,-0.3951267401280347,0.9999646233367224,0.00018874734803807475
-0.3948583857738413,-0.3948583857738413,1.0001594037145645,0.0001904450202618691
-0.39465167342568747,-0.39465167342568747,1.000043194354666,0.0001907549149259036
-0.39395150671189183,-0.39395150671189183,1.0000389441820938,0.00019046910104303957
-0.3933131135563599,-0.3933131135563599,0.9999982607824105,0.00018422129559441406
-0.3931056795816403,-0.3931056795816403,0.9998750721088815,0.00019042821893758326
-0.39264684494410174,-0.39264684494410174,0.9996790298661358,0.0001841081645058307
-0.391821301044547,-0.391821301044547,1.0002634717787333,0.00019260593061300445
-0.39152953336306384,-0.39152953336306384,0.999881756810951,0.00018635502431219744
-0.39122784703504293,-0.39122784703504293,0.9998945736664322,0.00018423439783616242
-0.39044933671830223,-0.39044933671830223,0.9999340654069531,0.00019049212644172672
-0.3899406394630205,-0.3899406394630205,1.0000452535484468,0.00019645978440844874
-0.3897301619988866,-0.3897301619988866,0.999935443436167,0.0001841102185891475
-0.38932049057038964,-0.38932049057038964,1.0001632570721166,0.00018416627917499281
-0.38847731360583565,-0.38847731360583565,0.9999590698492403,0.00019257122517164543
-0.3881937321857549,-0.3881937321857549,0.9999356893244526,0.0001863693568641363
-0.3879616911814082,-0.3879616911814082,0.9998268018314314,0.00019040232875226168
-0.38731334838666953,-0.38731334838666953,0.9997996980559819,0.000190449780275156
-0.3866579467372503,-0.3866579467372503,0.9999560606043939,0.00019033727810979675
-0.3864457785966806,-0.3864457785966806,1.0000648633414577,0.00018417644271319556
-0.3861088654026389,-0.3861088654026389,0.9998739495840715,0.0001863433912556124
-0.3853039497451391,-0.3853039497451391,0.999879511621727,0.00019432900267393665
-0.38490243162668775,-0.38490243162668775,0.9996162991912474,0.0001925654931570844
-0.38468686990672724,-0.38468686990672724,0.9996962116426138,0.00018670817183923552
-0.38433149562915786,-0.38433149562915786,0.9999917177361798,0.00018413769416536442
-0.38350245633919255,-0.38350245633919255,1.0001321771290141,0.00019644662681589752
-0.38318822847213596,-0.38318822847213596,0.9999104876471854,0.00019046416596367688
-0.38298216259572654,-0.38298216259572654,1.0001311612885615,0.00018946997135608435
-0.38248717130045407,-0.38248717130045407,0.9999689650640498,0.00018426129472094206
-0.38176816602936015,-0.38176816602936015,0.9998525289011901,0.0001963242940365252
