time,time,flux,flux_err
-0.49980231529843877,-0.49980231529843877,0.9999056657281957,0.0001374812337284264
-0.4993857172406327,-0.4993857172406327,1.0000260410115231,0.00014339765291034837
-0.4990446272725724,-0.4990446272725724,1.00025667554742,0.0001367038943791326
-0.49868867644909187,-0.49868867644909187,1.0000305642259453,0.00012433768935467545
-0.49815697352969435,-0.49815697352969435,1.0000408939677359,0.00012403098519260704
-0.4979247861607291,-0.4979247861607291,1.0001175235994055,0.00012786376004930884
-0.4975197775231209,-0.4975197775231209,1.0000883229475623,0.00012453429209181675
-0.4970563361559471,-0.4970563361559471,1.000183282808771,0.0001309995866111705
-0.4966175927125732,-0.4966175927125732,1.0001302759522153,0.0001245815617583439
-0.49634168478296486,-0.49634168478296486,1.000194252031184,0.00012391996572500374
-0.49607736726902657,-0.49607736726902657,0.9999380430756346,0.0001278349700078541
-0.4956005333304347,-0.4956005333304347,1.0001300587060127,0.00012899977698213486
-0.49516513766429854,-0.49516513766429854,1.000023171869995,0.00012607395286346506
-0.494736510169605,-0.494736510169605,1.0001276573754956,0.00012364914938429962
-0.49440680844854795,-0.49440680844854795,0.9998618162988044,0.00012457466698817012
-0.493937840952276,-0.493937840952276,1.0001150856850827,0.00012994620686805858
-0.49353443730651636,-0.49353443730651636,0.9999201687538208,0.00012432789866299697
-0.493280660383607,-0.493280660383607,0.9998246564144949,0.00012596837224887404
-0.49277820085408164,-0.49277820085408164,1.0001359563939929,0.00012471710143302639
-0.492212839864078,-0.492212839864078,0.999958022573433,0.0001227293240450399
-0.49184117847617015,-0.49184117847617015,1.000038388460453,0.00012473893055715165
-0.49147138887419717,-0.49147138887419717,0.9998558717109276,0.0001268304311153915
-0.49114060473875726,-0.49114060473875726,1.0001741171657812,0.0001245541422484798
-0.49076236349937974,-0.49076236349937974,1.000117723222411,0.00012502056553071475
-0.49043434856284873,-0.49043434856284873,1.0000012223231942,0.00012287716657391712
-0.49016278463823254,-0.49016278463823254,1.0001003692257118,0.00012429679682234514
-0.4898877679690486,-0.4898877679690486,1.0001781333715412,0.00012392077760701553
-0.4895176558107778,-0.4895176558107778,0.9998933099107246,0.00012607256449926742
-0.48920938081937493,-0.48920938081937493,0.9998646621093972,0.00012471916897608396
-0.48846142153342953,-0.48846142153342953,0.999654008298742,0.00012573165359757902
-0.4882082203810569,-0.4882082203810569,0.9998476015929925,0.00012399016838216236
-0.4879747071594466,-0.4879747071594466,1.000057466145498,0.0001274081961502778
-0.48717647366502204,-0.48717647366502204,1.0002436171622158,0.00012494124627988038
-0.4867041168792639,-0.4867041168792639,1.0002357179843142,0.0001289862741258877
-0.4861862198820745,-0.4861862198820745,0.9998813621384606,0.00012475494633217626
-0.4858364962987253,-0.4858364962987253,1.0000374546105022,0.0001263200900657227
-0.48540482420503395,-0.48540482420503395,0.9999640623827579,0.00012518977227337713
-0.4852073255475261,-0.4852073255475261,1.0002736573310451,0.00012612974802751997
-0.48484201990286235,-0.48484201990286235,0.9999449901713617,0.0001223383238665604
-0.4842218860227149,-0.4842218860227149,1.0001988625610703,0.00012432080286714018
-0.4838573836110299,-0.4838573836110299,0.9999971042193841,0.00012462358244961407
-0.48353043566166887,-0.48353043566166887,0.9999510115199115,0.0001276262475043006
-0.48324154390138574,-0.48324154390138574,0.9999600653411143,0.00012347886657976994
-0.48280735712251044,-0.48280735712251044,1.0000370205701774,0.00012467132210043587
-0.48262661892440517,-0.48262661892440517,1.0001045733899365,0.00012423644704704986
-0.48239356328194843,-0.48239356328194843,0.9999454681234161,0.00012509985008564802
-0.48207720497375706,-0.48207720497375706,1.0000532018770476,0.000124194323778246
-0.48169350508396747,-0.48169350508396747,1.0001340411871007,0.0001246224709100141
-0.4812805848909193,-0.4812805848909193,0.9999320864361044,0.0001254692490067945
-0.48078636446589373,-0.48078636446589373,1.0000589844977976,0.00012267038503351876
-0.48046805870035314,-0.48046805870035314,1.0000541512232988,0.00012843147388313017
-0.4801766761280305,-0.4801766761280305,0.9999552011085855,0.000124083600779056
-0.47993611747806425,-0.47993611747806425,1.0001775306119138,0.00012750450855269322
-0.47957764715902157,-0.47957764715902157,1.0001433305996152,0.00012919677108583818
-0.47918351992047975,-0.47918351992047975,0.9999735927338381,0.00012284622064685977
-0.47824549290089635,-0.47824549290089635,1.0000088586609615,0.00012663503220900895
-0.47783378219173755,-0.47783378219173755,1.0000641787861217,0.0001250101579801666
-0.4775714363284351,-0.4775714363284351,1.0000278237582134,0.00012254195233214917
-0.4773477137197915,-0.4773477137197915,0.9999949631971351,0.00012706956916224611
-0.4770457888284,-0.4770457888284,0.9998254012554806,0.00012421530930502227
-0.4763838748978742,-0.4763838748978742,1.000290627589907,0.00012444824337509583
-0.4757579517587146,-0.4757579517587146,0.9997919291947278,0.0001261168403075375
-0.4754756615358929,-0.4754756615358929,0.9998504321580036,0.0001253184743744118
-0.47513744043244516,-0.47513744043244516,1.0000339020505824,0.00012261266588446505
-0.4746166853103205,-0.4746166853103205,1.000023623434219,0.00012477452321594122
-0.47430239942113983,-0.47430239942113983,0.9998800928302666,0.0001261064945338739
-0.47397736616258046,-0.47397736616258046,1.0000416125079652,0.00012713075296213588
-0.4736327806327608,-0.4736327806327608,0.9997544475660505,0.00012437462428685196
-0.47333645368853466,-0.47333645368853466,1.000073296026117,0.0001242756162310864
-0.4730076177918818,-0.4730076177918818,0.9999968328468485,0.0001265080774876603
-0.472611191636679,-0.472611191636679,0.999990148532944,0.00012276370343163923
-0.47217658090085024,-0.47217658090085024,1.000152638050229,0.0001276341324047457
-0.4719495865640056,-0.4719495865640056,0.9998528818447271,0.00012623628811515966
-0.4715905971446773,-0.4715905971446773,1.0001674815401953,0.00012593349289604795
-0.4712422866410634,-0.4712422866410634,0.9998950405155627,0.0001230072922687682
-0.4705431351358129,-0.4705431351358129,1.0000444481128339,0.00012483503885827525
-0.46985005579481365,-0.46985005579481365,0.9999951751538259,0.00012692161979913254
-0.46964713814450076,-0.46964713814450076,0.9999613291641205,0.00013098270858678942
-0.4693444246877334,-0.4693444246877334,1.0002048149561127,0.00012306864336865457
-0.469146898433246,-0.469146898433246,1.0001603476368368,0.00012582053244826024
-0.4686771829445206,-0.4686771829445206,0.9999682112572676,0.00012950213477110612
-0.46834161505612426,-0.46834161505612426,1.0001504880135144,0.00012455548385634425
-0.4679808910783322,-0.4679808910783322,0.9999410066917228,0.00012689975830910562
-0.4675700445855909,-0.4675700445855909,1.0002027256755741,0.00012444186699464148
-0.4672620585864934,-0.4672620585864934,1.000013401243354,0.00012277640545439917
-0.4668668056525348,-0.4668668056525348,0.9999109548625956,0.00012252113133080057
-0.46660096315172267,-0.46660096315172267,1.000061073618898,0.00012477436987419732
-0.4662841449913685,-0.4662841449913685,0.9999714429586787,0.00012862711171564322
-0.4656655497819884,-0.4656655497819884,0.9998999958430282,0.00012426106385549863
-0.46538842608060804,-0.46538842608060804,1.0000701191036785,0.00012614334911111637
-0.4649608215993794,-0.4649608215993794,1.0000353956910435,0.0001231534829139445
-0.4645958448323654,-0.4645958448323654,0.9999648242074664,0.00012479549942723972
-0.46408302965355686,-0.46408302965355686,0.9999964785755828,0.00013198835348782631
-0.4637106735557609,-0.4637106735557609,0.9996611779539005,0.00012531947735358067
-0.4632965736840561,-0.4632965736840561,1.0000052127906676,0.0001242909187892939
-0.46263792521640423,-0.46263792521640423,1.0000277830267128,0.00012401549217908248
-0.4621894478361355,-0.4621894478361355,0.9998341100305908,0.00012610982059561406
-0.46165327768030695,-0.46165327768030695,0.9999963281817855,0.000126055952777679
-0.4612949112757633,-0.4612949112757633,1.0001196788145768,0.00012471195353515432
-0.46070818838561534,-0.46070818838561534,1.0000583881314393,0.00012407073076242702
-0.46038932938317884,-0.46038932938317884,1.0000814534327422,0.0001241049912232421
-0.4600115101704432,-0.4600115101704432,0.9999630279605685,0.00012757078311318183
-0.4596088995254831,-0.4596088995254831,1.000361958678624,0.0001245826460702509
-0.4589085182386043,-0.4589085182386043,0.9999686125496486,0.00012457015746081645
-0.4585917106262059,-0.4585917106262059,0.9999529681505397,0.00012390745971949975
-0.4584077665065706,-0.4584077665065706,0.9999967645344331,0.00012788225597564086
-0.4578087115078233,-0.4578087115078233,0.999746454686675,0.00012622642220868618
-0.45720716806681594,-0.45720716806681594,0.9999016228506268,0.00013051826026915092
-0.4566339752054773,-0.4566339752054773,1.0002389906518387,0.00012448836873006023
-0.4564347870473284,-0.4564347870473284,1.0000592049948518,0.00012271883722635174
-0.45611772317060967,-0.45611772317060967,1.00006122726953,0.00013141706553537535
-0.45575584602411257,-0.45575584602411257,1.0001255234844604,0.0001249017305397846
-0.45554902846779444,-0.45554902846779444,0.9999878869589182,0.00012591764915964625
-0.4551470968079229,-0.4551470968079229,0.9999281067773653,0.00012262181037642076
-0.45454648972663564,-0.45454648972663564,1.0000624071579927,0.00012386395450188095
-0.45423048957163703,-0.45423048957163703,1.00011300919012,0.00012468756550501132
-0.45379554216415274,-0.45379554216415274,0.9999537563131555,0.00012612363239978956
-0.45342189881921513,-0.45342189881921513,0.9997931540620787,0.00012587429824841294
-0.4531352853780845,-0.4531352853780845,1.0000488262951042,0.0001230616526012877
-0.45296878826193276,-0.45296878826193276,1.0001695316879673,0.00012424974223645497
-0.4526608129148372,-0.4526608129148372,0.9999895310782385,0.00012301191821864204
-0.45230761932325547,-0.45230761932325547,0.9999847460910223,0.00012497019531270873
-0.4518986903705809,-0.4518986903705809,1.000040403988968,0.00012622629563120428
-0.4514542355165759,-0.4514542355165759,0.9999433123654313,0.00012428104420443098
-0.4510949297975458,-0.4510949297975458,1.0000488908758232,0.00012802381528716336
-0.45073710142678464,-0.45073710142678464,0.999908847275077,0.00012466270881917414
-0.45043716293075703,-0.45043716293075703,1.0002443709091526,0.00012592957863217803
-0.45009357424714835,-0.45009357424714835,0.9999083032835147,0.0001274600092735699
-0.44971305955477875,-0.44971305955477875,1.0000221382472423,0.0001232245244284185
-0.4488311858018278,-0.4488311858018278,1.0000298070502485,0.00012475178553778162
-0.44839832111902067,-0.44839832111902067,0.9997557265947524,0.00012477595489291575
-0.44796199027550754,-0.44796199027550754,1.000241967441156,0.00012431968882438535
-0.44768769887959936,-0.44768769887959936,1.0000564778705128,0.00012674413266729485
-0.44731193764164345,-0.44731193764164345,0.999785026228718,0.00012449471007096687
-0.4466175001856755,-0.4466175001856755,1.0001981864370033,0.00012447396906442744
-0.4461306208606402,-0.4461306208606402,1.0000475479550333,0.00012628284517623748
-0.4458305576867133,-0.4458305576867133,0.9997991164818588,0.0001283868389372075
-0.4455706683664175,-0.4455706683664175,1.0000141786221508,0.00012502401764726516
-0.4449612751683162,-0.4449612751683162,1.0000777202401958,0.00012470931602877612
-0.44457583686889846,-0.44457583686889846,1.0001277760799485,0.000125584147835181
-0.4442579966183985,-0.4442579966183985,0.999955872265172,0.0001241862791710726
-0.4439059319156513,-0.4439059319156513,0.9999837141922827,0.0001316448573148705
-0.44350379809984586,-0.44350379809984586,0.99983469361325,0.00012315445113737463
-0.4430864775982627,-0.4430864775982627,1.000049185306473,0.0001304411564556136
-0.4427119103849691,-0.4427119103849691,1.0001699897016159,0.0001246265004781693
-0.44237927446520187,-0.44237927446520187,0.9999488683645941,0.00012833947716715715
-0.4421174152274034,-0.4421174152274034,1.0001143133545383,0.00012629675325983902
-0.4417836126282054,-0.4417836126282054,0.9999475297280032,0.00012452786960308074
-0.4414195894860313,-0.4414195894860313,0.9999388794790083,0.0001227952961203786
-0.4409334279640461,-0.4409334279640461,0.9999548564390212,0.00012302028096867172
-0.44051165298660633,-0.44051165298660633,1.0000415732366428,0.00012738881025748907
-0.4401971891456924,-0.4401971891456924,0.9999630240839241,0.00012544138898170867
-0.4400302336791356,-0.4400302336791356,1.0000624355835217,0.00013255500723898954
-0.43977889805319137,-0.43977889805319137,0.9999577257935854,0.00012265310054139248
-0.4396151533554075,-0.4396151533554075,1.0001160105999267,0.00012478039514068963
-0.43934779587289086,-0.43934779587289086,0.9997930612036507,0.0001244651375676313
-0.43895709108037406,-0.43895709108037406,0.9996618151139007,0.0001270289806116149
-0.4386910685112525,-0.4386910685112525,1.0001019450895376,0.00012622770701493707
-0.43833567976980703,-0.43833567976980703,0.9999367317694954,0.00012482489430267043
-0.43799216927218365,-0.43799216927218365,1.0000912088995535,0.00012443023644523522
-0.43776627691258907,-0.43776627691258907,1.0000118583413922,0.00012238227503517967
-0.4375090433619334,-0.4375090433619334,0.9999303978481866,0.0001226630170034342
-0.43713150639596277,-0.43713150639596277,0.9998925936351247,0.00012393255013618337
-0.4368239432536939,-0.4368239432536939,0.9998290123167628,0.00012623135499668063
-0.4364224239630857,-0.4364224239630857,1.000112445817997,0.0001274310100940043
-0.4358870251831831,-0.4358870251831831,0.9999512413848188,0.0001243422472886112
-0.43562241232575616,-0.43562241232575616,1.0001974650021572,0.00012456041346884465
-0.4352195896266494,-0.4352195896266494,0.9999347345206638,0.00012289923123634812
-0.43480925754265626,-0.43480925754265626,0.9999386321349434,0.0001260315248213821
-0.4343295175858657,-0.4343295175858657,0.9999422682439659,0.00012783690083463588
-0.4340148145536659,-0.4340148145536659,1.0000297261266007,0.00013141040703195745
-0.43365099240181737,-0.43365099240181737,1.0000769163088061,0.00012517471347205084
-0.43315795669768703,-0.43315795669768703,1.000046148013034,0.0001246275617523671
-0.4327677994791884,-0.4327677994791884,0.9999346400622849,0.0001228254947063868
-0.43249725299392594,-0.43249725299392594,0.999981699906247,0.0001245396118729232
-0.43216172406682746,-0.43216172406682746,0.9999411495755226,0.00012700157308682427
-0.43187498113911715,-0.43187498113911715,0.9997890464654485,0.00012356393955674782
-0.43161210473044775,-0.43161210473044775,0.9999268414279003,0.00012451680176042706
-0.43139606307522627,-0.43139606307522627,0.9998602706171977,0.00012416721932166088
-0.43081090374835185,-0.43081090374835185,0.9999623456778443,0.00012420186231865826
-0.43058569061395247,-0.43058569061395247,0.9999235277409975,0.0001284625819479123
-0.43027514349014384,-0.43027514349014384,1.0000630091367717,0.00012480413488185092
-0.4297620699675463,-0.4297620699675463,0.9999217462866745,0.0001246705757017253
-0.4290267252079502,-0.4290267252079502,1.0000603721675945,0.00012452337193060234
-0.42868570178179655,-0.42868570178179655,1.0000469247781947,0.00012642538310299306
-0.42818629907342254,-0.42818629907342254,1.000255713402267,0.00012627558648671376
-0.42765728194863184,-0.42765728194863184,0.999949089755652,0.0001278059559834199
-0.4273471497443097,-0.4273471497443097,1.000043051901312,0.00012827001320062087
-0.4270057409805304,-0.4270057409805304,1.000052406010986,0.00012531654512002715
-0.42661285433423474,-0.42661285433423474,0.9999110768515527,0.00012626033765221912
-0.4262833278393373,-0.4262833278393373,1.0001192322050094,0.00012932470450945248
-0.42606425326812314,-0.42606425326812314,0.9999852601988828,0.00012444033118254007
-0.4258118353347527,-0.4258118353347527,1.0000568529291778,0.00013053333903704053
-0.42543087485973957,-0.42543087485973957,0.9999250157600459,0.00012261825718270987
-0.42504683304941865,-0.42504683304941865,0.9999385533476861,0.0001242655105577012
-0.42466018392806293,-0.42466018392806293,0.9998373290571321,0.000124654060572623
-0.4242136754903186,-0.4242136754903186,0.9999518532338637,0.00012605726922777625
-0.42380294068934743,-0.42380294068934743,1.0001632869536297,0.00012512405114081804
-0.42347085523433636,-0.42347085523433636,1.0001168202227182,0.00012456767002482673
-0.42321857216302305,-0.42321857216302305,1.0004077570186516,0.00012263748789932642
-0.42294864097057144,-0.42294864097057144,1.000003584136306,0.00012283267142734636
-0.42269622676831203,-0.42269622676831203,1.0001517827013795,0.00012276888854834605
-0.42226903963528456,-0.42226903963528456,0.999897273056121,0.00012748661477188689
-0.42194574908717186,-0.42194574908717186,0.9997650582243548,0.00012446981292262146
-0.4214822248752171,-0.4214822248752171,1.0000023515380767,0.00012296687985325342
-0.42099569541969684,-0.42099569541969684,0.9999285764784416,0.00012419544997415726
-0.4207849144557258,-0.4207849144557258,0.9999852367334785,0.00012439216509253716
-0.42055613434640693,-0.42055613434640693,1.000051590384519,0.0001274410430313219
-0.4201402569786296,-0.4201402569786296,0.9999039807300054,0.00012487209027635377
-0.4195715225017921,-0.4195715225017921,1.0001060495343146,0.00012326191702968819
-0.41906678013183407,-0.41906678013183407,1.0002500236381149,0.00012494496624342844
-0.41863742967761935,-0.41863742967761935,1.000114341873342,0.00012483159869109496
-0.4181624700948305,-0.4181624700948305,0.9998463959198552,0.00012683545830828369
-0.4179285577025439,-0.4179285577025439,1.0001079548374632,0.00012475218300645957
-0.4175691607480985,-0.4175691607480985,0.999873656676866,0.0001242253477833709
-0.4171489048334479,-0.4171489048334479,1.0000635957566804,0.00012414273521900402
-0.4165956783268484,-0.4165956783268484,1.0001060804000697,0.0001244062183621048
-0.41632336807379033,-0.41632336807379033,0.9998822289134734,0.00012464873703482617
-0.416041904220765,-0.416041904220765,0.999898227335976,0.0001260077134291661
-0.4156050976154802,-0.4156050976154802,0.9999954404615254,0.00012984934805325773
-0.4153058769989002,-0.4153058769989002,0.9998881131749133,0.000123351430253772
-0.4150266445889429,-0.4150266445889429,0.9998781345977685,0.00012521085528200112
-0.4148133774921007,-0.4148133774921007,0.9999847926601,0.0001227619778302948
-0.4144806761054497,-0.4144806761054497,0.9999626403697072,0.000124046718009682
-0.41415277764826897,-0.41415277764826897,0.9997977264509135,0.00012591223126655538
-0.41378193482451026,-0.41378193482451026,0.999974066076437,0.00012251176946788734
-0.4133583165188611,-0.4133583165188611,0.999992376211609,0.00013011170046244022
-0.4131072578318708,-0.4131072578318708,1.000227811136703,0.00012429691075744117
-0.4127887971684686,-0.4127887971684686,1.0000582152607684,0.00012574226428955005
-0.41261559222184585,-0.41261559222184585,0.9999577823669142,0.00012659997932693755
-0.4121406158672471,-0.4121406158672471,0.9998799162151318,0.00012504594935344986
-0.4116049939926597,-0.4116049939926597,0.9999387669298896,0.00012250208877431348
-0.41109555029906913,-0.41109555029906913,0.9999863911827532,0.00012613624110349288
-0.4107331295504991,-0.4107331295504991,0.9999303229022803,0.00012297732456292542
-0.410469538338657,-0.410469538338657,1.0000769925460866,0.00012602829668757913
-0.410279046951473,-0.410279046951473,1.0001990867438022,0.0001305577975582345
-0.4100376715774473,-0.4100376715774473,1.00011128090232,0.0001226021724913248
-0.40985220388756716,-0.40985220388756716,0.999910931139668,0.00012598298924207222
-0.4096021930905408,-0.4096021930905408,1.000102276078891,0.00012394951631754947
-0.40918834510957824,-0.40918834510957824,1.0000887164391972,0.0001285726964444192
-0.40888477431362846,-0.40888477431362846,0.9997903757472905,0.00012520532108019624
-0.40840311495558124,-0.40840311495558124,0.9999723426281125,0.00012443068577465687
