time,time,flux,flux_err
-0.4995744806201401,-0.4995744806201401,0.9999633435827487,7.118060518895763e-05
-0.49894040988995886,-0.49894040988995886,0.9999564855332014,7.099573591114893e-05
-0.4980850265249804,-0.4980850265249804,1.0000791352721325,7.150957542877838e-05
-0.49727778939147055,-0.49727778939147055,1.0000023765570851,7.112487324530703e-05
-0.4960042493941728,-0.4960042493941728,1.0001113642043093,6.545780044198169e-05
-0.49461571049832853,-0.49461571049832853,1.0001343276356345,6.498357182977137e-05
-0.4941846546018496,-0.4941846546018496,0.9999853633316492,6.540011071212537e-05
-0.4936688869187492,-0.4936688869187492,1.0000305847923059,6.505686073300033e-05
-0.4932091378061159,-0.4932091378061159,1.0000667826129495,6.47682878215998e-05
-0.492684130732232,-0.492684130732232,0.9999438414643491,6.492793532947237e-05
-0.49188426163455007,-0.49188426163455007,1.000041466875741,6.549444697100172e-05
-0.4910343559073226,-0.4910343559073226,0.9999625610490875,6.504938190028503e-05
-0.49019440082702204,-0.49019440082702204,1.0000676671245232,6.506372674589726e-05
-0.4897520189653733,-0.4897520189653733,0.9999663207525339,6.509829404312651e-05
-0.48909512077298134,-0.48909512077298134,1.0000694279169429,6.502383242196222e-05
-0.48858136201451996,-0.48858136201451996,0.9999535350635774,6.517099369271678e-05
-0.4877548527016188,-0.4877548527016188,1.000109077777374,6.518504857278048e-05
-0.4871295127217309,-0.4871295127217309,1.000101317061998,6.476037511571766e-05
-0.4862864981281746,-0.4862864981281746,1.0000123361192106,6.494549738108164e-05
-0.4853941209621553,-0.4853941209621553,0.999905918156859,6.509020729041025e-05
-0.4848230234194489,-0.4848230234194489,0.9999641377798965,6.501204586765006e-05
-0.4843273204904108,-0.4843273204904108,0.9999845154620806,6.487675450899906e-05
-0.48361668579454997,-0.48361668579454997,1.0000408715120384,6.482492332243953e-05
-0.4832177568176121,-0.4832177568176121,0.9999710333858,6.529153313439642e-05
-0.4827193313547468,-0.4827193313547468,1.0000164361734507,6.502414112309333e-05
-0.481810637084709,-0.481810637084709,1.0002115519352563,6.531290376155628e-05
-0.4811993538685783,-0.4811993538685783,1.0000357611599304,6.548407035222617e-05
-0.48046933976293077,-0.48046933976293077,1.0000057107416391,6.502626346630038e-05
-0.47953078121790893,-0.47953078121790893,0.9999717246711542,6.490252492307573e-05
-0.47908198099539734,-0.47908198099539734,0.9999610409019454,6.489654883633458e-05
-0.4787287796694727,-0.4787287796694727,1.0001961886265212,6.511085928084941e-05
-0.4782732108440541,-0.4782732108440541,1.0000316312389654,6.493498065076434e-05
-0.47749584614866764,-0.47749584614866764,1.0000531922433384,6.527304857003882e-05
-0.47649020535027375,-0.47649020535027375,1.000025898296167,6.51935726367771e-05
-0.4756020559638273,-0.4756020559638273,1.0000949170501088,6.534364430133845e-05
-0.474992763975024,-0.474992763975024,0.9999019296688212,6.508986308624859e-05
-0.4745968416260439,-0.4745968416260439,0.9998712688601978,6.494130904708599e-05
-0.4739827374389279,-0.4739827374389279,1.0000433226924554,6.506433374815301e-05
-0.47277192696346904,-0.47277192696346904,1.0000261037937026,6.504287293755203e-05
-0.47168425238123746,-0.47168425238123746,1.000024665489526,6.516466323304703e-05
-0.4709033148967137,-0.4709033148967137,1.0000006024926082,6.514875480160202e-05
-0.4703181223580032,-0.4703181223580032,0.9999953543497252,6.485372814116517e-05
-0.4698552694331738,-0.4698552694331738,1.0000318942944204,6.51340638731279e-05
-0.46912628877398677,-0.46912628877398677,1.0000379266960198,6.518233936966251e-05
-0.468593440442055,-0.468593440442055,1.000037696929328,6.486076900333265e-05
-0.4676875141252822,-0.4676875141252822,1.0000372050132325,6.502145310313913e-05
-0.4667132253467571,-0.4667132253467571,1.0000251699681002,6.528673296950754e-05
-0.4658524915088492,-0.4658524915088492,1.0000266869522427,6.521528992623136e-05
-0.46530817368402494,-0.46530817368402494,0.9999728625017023,6.498609664234292e-05
-0.46454223810942497,-0.46454223810942497,1.000044591349349,6.476097588203378e-05
-0.4640476552733162,-0.4640476552733162,1.0000557354974773,6.50567711692681e-05
-0.4632689165038755,-0.4632689165038755,0.9999301881252247,6.505529055421095e-05
-0.4626120570101193,-0.4626120570101193,1.0000620190345342,6.502205663339616e-05
-0.4620643408590695,-0.4620643408590695,1.0000043867273583,6.50069211316279e-05
-0.4614458915370051,-0.4614458915370051,1.0000041463492313,6.484455639464866e-05
-0.46084616822408864,-0.46084616822408864,0.9999999282939023,6.524650014103565e-05
-0.46018581406751763,-0.46018581406751763,1.0000455375900354,6.524607251070147e-05
-0.4594962421098899,-0.4594962421098899,1.000089293452107,6.502808121537095e-05
-0.45869411676030725,-0.45869411676030725,1.000019122828191,6.507400970533692e-05
-0.4582319092711259,-0.4582319092711259,1.0001320189174163,6.497908745100328e-05
-0.4574794227621169,-0.4574794227621169,1.0000637421463887,6.4932787380083e-05
-0.45651609651249603,-0.45651609651249603,1.0000170880350303,6.491882122478554e-05
-0.4557504345146299,-0.4557504345146299,1.0000245446579352,6.534278275709655e-05
-0.45476390371550224,-0.45476390371550224,1.0001027298776843,6.475390916339543e-05
-0.4543478025807417,-0.4543478025807417,0.9999402893021475,6.524498290224015e-05
-0.4536818143860728,-0.4536818143860728,1.0000101372187529,6.501918263383023e-05
-0.45206516277976333,-0.45206516277976333,1.0000393705101422,6.524467641557857e-05
-0.45144229645011363,-0.45144229645011363,1.000030420158348,6.553050503665364e-05
-0.45042736022078317,-0.45042736022078317,0.999976165213494,6.462388170991899e-05
-0.449942289518367,-0.449942289518367,0.9999443053918208,6.494994450703822e-05
-0.44939700877075667,-0.44939700877075667,0.9999589154036036,6.516984491079257e-05
-0.44808462132132265,-0.44808462132132265,1.0001485549944178,6.52239635914712e-05
-0.4474394147080602,-0.4474394147080602,0.9999742485340903,6.509067273062093e-05
-0.4470007064010133,-0.4470007064010133,0.9999104079845564,6.533265606560504e-05
-0.4462786734351539,-0.4462786734351539,1.0000733117441851,6.508010194300212e-05
-0.44553904959684587,-0.44553904959684587,0.9999466272195534,6.468991552331247e-05
-0.4450221433369734,-0.4450221433369734,0.9998777166991284,6.527371873335012e-05
-0.4444537742907414,-0.4444537742907414,1.000159899052536,6.53823616545985e-05
-0.4438291065605881,-0.4438291065605881,1.000121216072473,6.501373464023739e-05
-0.44294900347304067,-0.44294900347304067,0.9999851421709758,6.516796770678033e-05
-0.44210023388659464,-0.44210023388659464,1.0000026017736026,6.508077145476316e-05
-0.4409784671384841,-0.4409784671384841,0.9999117616051831,6.537448309001776e-05
-0.44036544302725816,-0.44036544302725816,0.9999788770278355,6.503576212220023e-05
-0.4400380872473761,-0.4400380872473761,0.9999461847066236,6.493599316552839e-05
-0.43934724041901063,-0.43934724041901063,0.999964218862206,6.466262927958924e-05
-0.4384958730675862,-0.4384958730675862,1.0002133494901262,6.5214004308411e-05
-0.4379720888442534,-0.4379720888442534,1.0000936677569026,6.525971005588352e-05
-0.4372503644466633,-0.4372503644466633,1.0000179246508103,6.496075658963385e-05
-0.43670372709384536,-0.43670372709384536,1.000118779621874,6.501515590543223e-05
-0.4359609356994042,-0.4359609356994042,1.0000489417063751,6.497087597843414e-05
-0.43523615705635166,-0.43523615705635166,1.0001092181799263,6.499801553930864e-05
-0.43468402657308614,-0.43468402657308614,1.0000090856587753,6.525074025652292e-05
-0.43399597547904706,-0.43399597547904706,1.0000580793911,6.537070513475035e-05
-0.4333472504164092,-0.4333472504164092,1.000079120195481,6.480186949538009e-05
-0.43266584584707746,-0.43266584584707746,1.0000042687287065,6.520389118737832e-05
-0.431718674566946,-0.431718674566946,1.0000793245473516,6.534407228191834e-05
-0.4308726202856633,-0.4308726202856633,1.0000805085151845,6.503470216763342e-05
-0.4299742981878808,-0.4299742981878808,1.0001235962950812,6.46812821414839e-05
-0.42954116746841464,-0.42954116746841464,0.9999767163520259,6.529130962257043e-05
-0.4287399355598609,-0.4287399355598609,1.0000051479600298,6.490632240511215e-05
-0.4278967187914532,-0.4278967187914532,1.0000016726975332,6.487194184446407e-05
-0.42706249130060314,-0.42706249130060314,0.9999968139199218,6.531826018872903e-05
-0.4266219435412495,-0.4266219435412495,1.0000724190793318,6.5104327800868e-05
-0.42605096600600517,-0.42605096600600517,0.9998720127860243,6.502122253817659e-05
-0.42562694546722923,-0.42562694546722923,1.0000874691676507,6.490695267138512e-05
-0.42523015655169727,-0.42523015655169727,0.999955936830978,6.520514177747618e-05
-0.424815105975722,-0.424815105975722,1.00008129858722,6.525342331481672e-05
-0.4243216419359669,-0.4243216419359669,0.9999697734716559,6.471924593922354e-05
-0.4236690255114809,-0.4236690255114809,1.000014850013255,6.509579995679411e-05
-0.42286800596339164,-0.42286800596339164,1.0000451113453934,6.494776060741905e-05
-0.4221692693885416,-0.4221692693885416,1.0000215868697075,6.513416151393678e-05
-0.42134620146243834,-0.42134620146243834,1.0000367230954272,6.490798466618479e-05
-0.42083796119113687,-0.42083796119113687,0.9999620281570536,6.511340746928764e-05
-0.4202909127561725,-0.4202909127561725,1.0000784822863218,6.509078147692175e-05
-0.4197027533577057,-0.4197027533577057,1.0000744997375073,6.497789576431049e-05
-0.41891795717019703,-0.41891795717019703,1.0000253341546421,6.503718400835e-05
-0.4178066003682034,-0.4178066003682034,0.9999865037446997,6.515668906479045e-05
-0.41691539752864626,-0.41691539752864626,1.0000205282753356,6.514267231573028e-05
-0.4164000111602945,-0.4164000111602945,1.0000816526221663,6.499396606587093e-05
-0.4156710592083982,-0.4156710592083982,0.9999719511258764,6.504366793817376e-05
-0.41505791697854877,-0.41505791697854877,0.9999799987569931,6.476514586086319e-05
-0.41460304287829786,-0.41460304287829786,0.9999895720454169,6.46925211867577e-05
-0.4134435782812943,-0.4134435782812943,1.0001263002213938,6.53357323627938e-05
-0.412617829687224,-0.412617829687224,1.0000381188761256,6.48724709996746e-05
-0.41202894946618474,-0.41202894946618474,0.9999488231201721,6.531525369913739e-05
-0.4117653069348307,-0.4117653069348307,1.000094886754629,6.542259605054121e-05
-0.411197008437739,-0.411197008437739,1.000021927322619,6.500355064488113e-05
-0.41063798938921536,-0.41063798938921536,0.9999680066365068,6.477494409283433e-05
-0.40987740210548507,-0.40987740210548507,0.9999798909451775,6.496566506680169e-05
-0.40931914433822386,-0.40931914433822386,0.9999764608009103,6.528812079177624e-05
-0.4086155431199586,-0.4086155431199586,1.000011823522548,6.501074104869611e-05
-0.4081197047227761,-0.4081197047227761,1.0000766488411426,6.494679290599509e-05
-0.4073551106012019,-0.4073551106012019,1.0000016186329581,6.518785767294896e-05
-0.4067185485262598,-0.4067185485262598,1.0000056842934795,6.499780014413957e-05
-0.40623631072812716,-0.40623631072812716,1.0000249978434141,6.485580774104545e-05
-0.4052354065461259,-0.4052354065461259,1.000010541572112,6.506355657611726e-05
-0.4046864517971699,-0.4046864517971699,0.9999123198234201,6.498456250278175e-05
-0.40418011318033675,-0.40418011318033675,0.9999949827412307,6.55652739097183e-05
-0.4034837352912291,-0.4034837352912291,1.0000651097871907,6.507058520464767e-05
-0.40277342857734766,-0.40277342857734766,0.999984555653944,6.498012708364324e-05
-0.4021781057017506,-0.4021781057017506,0.9999393676398822,6.519957066562318e-05
-0.401395816126751,-0.401395816126751,1.000067726546213,6.496531479341921e-05
-0.4009681906078185,-0.4009681906078185,0.9999493725178695,6.469847470656961e-05
-0.4004066389235959,-0.4004066389235959,0.999988656129446,6.526573503559636e-05
-0.3996824463720259,-0.3996824463720259,1.0001228772553445,6.500626048140169e-05
-0.3983992973306158,-0.3983992973306158,1.0000404647355183,6.516947657264678e-05
-0.3972787732571305,-0.3972787732571305,0.9999976780286689,6.532407126503246e-05
-0.3967852665431565,-0.3967852665431565,1.000026724159152,6.488017355256292e-05
-0.39633436552103374,-0.39633436552103374,1.0001089098974607,6.495858685835949e-05
-0.3954528494316037,-0.3954528494316037,0.9999439901683495,6.484413489561629e-05
-0.39411122483870714,-0.39411122483870714,1.000012035579186,6.503521840796358e-05
-0.3932868128293194,-0.3932868128293194,1.0000237746166083,6.508071164422462e-05
-0.39247969607095,-0.39247969607095,1.0001224913700117,6.482923584442098e-05
-0.3919336547667626,-0.3919336547667626,0.9999574148696813,6.489706113361846e-05
-0.39142283799228605,-0.39142283799228605,0.9999679890573617,6.516617963581217e-05
-0.39086523261939876,-0.39086523261939876,1.000054654975256,6.513093213313108e-05
-0.39031722582585643,-0.39031722582585643,1.0000922613743317,6.474757809122449e-05
-0.3895589724874299,-0.3895589724874299,1.0000935040324124,6.50371458043724e-05
-0.38880857444964934,-0.38880857444964934,0.9999439143079755,6.511737263907356e-05
-0.3876993078105443,-0.3876993078105443,0.9999566399114979,6.520474793529353e-05
-0.3871643834281713,-0.3871643834281713,1.000024958861544,6.520014479371936e-05
-0.38643119162952644,-0.38643119162952644,1.0000984625816582,6.490739962233237e-05
-0.3858870411881071,-0.3858870411881071,1.0000837618156158,6.515090077882726e-05
-0.3851756709998881,-0.3851756709998881,1.0001034243008962,6.486828056301377e-05
-0.3845013154139451,-0.3845013154139451,0.9999610025667038,6.503216668580361e-05
-0.3838378106811433,-0.3838378106811433,1.000041275635074,6.51116106128754e-05
-0.3831793072735309,-0.3831793072735309,0.999983072689654,6.485106171107395e-05
-0.3824704489343276,-0.3824704489343276,0.9999600073937783,6.518574137290147e-05
-0.3819028050020279,-0.3819028050020279,0.9998910445837181,6.526326725120806e-05
-0.38111857458206944,-0.38111857458206944,0.999998528084841,6.491256560814031e-05
-0.3804402443187428,-0.3804402443187428,0.9999703545787572,6.505708498747138e-05
-0.37990909708314574,-0.37990909708314574,1.0000456263977502,6.494093087228993e-05
-0.3793076328736788,-0.3793076328736788,1.0000193998103613,6.503842535544753e-05
-0.37857861192242126,-0.37857861192242126,1.0001095443373202,6.502828538658615e-05
-0.3777076794503955,-0.3777076794503955,0.9999666294116694,6.525982238393593e-05
-0.37699218172492693,-0.37699218172492693,0.9999612917866052,6.478618150409111e-05
-0.3764026408782229,-0.3764026408782229,0.9999689532591706,6.485398603316467e-05
-0.3758595404331572,-0.3758595404331572,0.9999733785171602,6.518820841045179e-05
-0.3751874469104223,-0.3751874469104223,0.9999946319518621,6.50540865955413e-05
-0.37445816587278385,-0.37445816587278385,0.9999501180558866,6.525335160837464e-05
-0.37397099059962785,-0.37397099059962785,0.9999652002358914,6.514813459948239e-05
-0.3731431144937233,-0.3731431144937233,1.0000834516514978,6.546971067826066e-05
-0.3722958189624478,-0.3722958189624478,1.0000589821017565,6.469668612470765e-05
-0.3719163999616285,-0.3719163999616285,1.000115384142738,6.492029297163947e-05
-0.37157683220648324,-0.37157683220648324,0.9999734411916228,6.530321225402265e-05
-0.3708136330802517,-0.3708136330802517,1.0000340420337366,6.481479601026392e-05
-0.3697996666764084,-0.3697996666764084,1.0000258818347443,6.519073694486844e-05
-0.36904761748664894,-0.36904761748664894,1.0000666984151352,6.527279934829683e-05
-0.3685844641258882,-0.3685844641258882,1.0001099185409053,6.531787454042868e-05
-0.3679204265048611,-0.3679204265048611,1.000042668421314,6.491238827528675e-05
-0.36730473850402634,-0.36730473850402634,0.9999050577601691,6.485951130118277e-05
-0.3665705093626457,-0.3665705093626457,0.999978461396498,6.525357134764637e-05
-0.36614932725569815,-0.36614932725569815,0.9999965206519436,6.51481634086054e-05
-0.36534810470257073,-0.36534810470257073,1.0000407747200761,6.481473639633393e-05
-0.36451054560748164,-0.36451054560748164,1.0001268208569352,6.552641673509021e-05
-0.36317209423941677,-0.36317209423941677,0.99991352539387,6.463781383807993e-05
-0.3624567074817605,-0.3624567074817605,1.0000980350964626,6.538890679402655e-05
-0.3618417632205819,-0.3618417632205819,0.9999455639516579,6.472730826682425e-05
-0.3612219611168257,-0.3612219611168257,1.0001305792388595,6.490929456870028e-05
-0.3606364827450307,-0.3606364827450307,0.9999352959001186,6.509851131229037e-05
-0.3601964692090405,-0.3601964692090405,0.9999966043951798,6.545037245141839e-05
-0.35959182488149966,-0.35959182488149966,0.9998896826923236,6.525777378907248e-05
-0.35858204428732277,-0.35858204428732277,0.9999431497208567,6.482174295916032e-05
-0.3580468821732211,-0.3580468821732211,0.9998971433721533,6.507148517878906e-05
-0.3573113656661008,-0.3573113656661008,1.0000186804183013,6.52160679579123e-05
-0.35698138464358636,-0.35698138464358636,1.000053416014556,6.534463218286879e-05
-0.3563450283276325,-0.3563450283276325,1.0000200111326225,6.504849651477811e-05
-0.3556211117502244,-0.3556211117502244,1.0000290658741167,6.514910706588964e-05
-0.3549667074279569,-0.3549667074279569,1.0001327581662671,6.494117118479792e-05
-0.3542382669234939,-0.3542382669234939,0.9999569743378632,6.5094432182851e-05
-0.3535094331011351,-0.3535094331011351,1.0000077999499575,6.48859429504787e-05
-0.35295314352842977,-0.35295314352842977,0.999891794529943,6.522528225895284e-05
-0.3523327795592195,-0.3523327795592195,1.0000965302582254,6.476319514649821e-05
-0.3517900476064824,-0.3517900476064824,1.000076544814974,6.484304237195623e-05
-0.3513443212621496,-0.3513443212621496,0.9999844221771049,6.520911881090926e-05
-0.35056229219408125,-0.35056229219408125,0.999929262332999,6.515733898463066e-05
-0.3496984261648322,-0.3496984261648322,0.9999618846786443,6.532358849766787e-05
-0.34900184344805896,-0.34900184344805896,1.0000580290720225,6.52257136305413e-05
-0.34838531719069576,-0.34838531719069576,1.000016928526141,6.528889489618674e-05
-0.34770805582229514,-0.34770805582229514,1.0000568768183125,6.495208858327145e-05
-0.347389510586072,-0.347389510586072,0.9998818256977181,6.489366058024341e-05
-0.3470360096471268,-0.3470360096471268,0.99992551492549,6.510281778779096e-05
-0.3466022987071483,-0.3466022987071483,1.0000601271739753,6.518439153691607e-05
-0.3456969383456453,-0.3456969383456453,1.0000506574747066,6.513670213398546e-05
-0.3447970773246197,-0.3447970773246197,0.9999605794258292,6.519624506512523e-05
-0.34390897726480035,-0.34390897726480035,0.999993312494953,6.533877219686638e-05
-0.34330093681855944,-0.34330093681855944,0.9998961832228337,6.508524068306665e-05
-0.342904073112004,-0.342904073112004,0.9999562910432029,6.494443914070306e-05
-0.34228959126994596,-0.34228959126994596,0.9999438867225026,6.506107191801925e-05
-0.34113364141012426,-0.34113364141012426,0.9998826541879497,6.515644564206978e-05
-0.3404627330644871,-0.3404627330644871,1.000031912466455,6.490033886007744e-05
-0.3394259907800006,-0.3394259907800006,0.9999748184141521,6.542161874984999e-05
-0.33881481856224127,-0.33881481856224127,0.9999461030043342,6.485675113032193e-05
-0.3383457685362373,-0.3383457685362373,0.999952118531608,6.475027735631298e-05
-0.3376960232839338,-0.3376960232839338,0.9999984345751448,6.521235618967914e-05
-0.33711223152422465,-0.33711223152422465,0.9999674831112054,6.509329420064576e-05
-0.3365957957568753,-0.3365957957568753,1.0000222831210095,6.512141986229341e-05
-0.33612731952234753,-0.33612731952234753,1.000023568062121,6.502698300250428e-05
-0.33512046848554744,-0.33512046848554744,0.9999634207417578,6.505375598365735e-05
-0.33398980313213544,-0.33398980313213544,0.9999075342048765,6.537364595798373e-05
-0.33331571180024183,-0.33331571180024183,0.9999165669004025,6.471914372650417e-05
-0.33263141004354113,-0.33263141004354113,0.9999519583913108,6.488232635475363e-05
-0.3319580039227731,-0.3319580039227731,1.000116576060577,6.490447549479888e-05
-0.33115500354469984,-0.33115500354469984,0.9999639587204532,6.51797531109295e-05
-0.3304666677671776,-0.3304666677671776,0.9999876338795272,6.500355203164285e-05
