time,time,flux,flux_err
-0.499918520913828,-0.499918520913828,0.9999935872841094,9.160626666766285e-05
-0.49974253784209094,-0.49974253784209094,0.9999014172218188,9.294504370219145e-05
-0.4996190840878019,-0.4996190840878019,1.0000549974651134,9.448660881923192e-05
-0.499422634947526,-0.499422634947526,1.0000169514348878,9.253198665676683e-05
-0.49925300681425144,-0.49925300681425144,1.000080943150457,8.757207800797072e-05
-0.4991312401427422,-0.4991312401427422,0.9999677812512033,8.352124316113712e-05
-0.4990144759853138,-0.4990144759853138,1.000011294265927,8.839423760446705e-05
-0.4989025879967812,-0.4989025879967812,0.999986557870769,8.619470315404186e-05
-0.4987882958543196,-0.4987882958543196,1.0000204608576337,8.468920013962894e-05
-0.49859837616422736,-0.49859837616422736,1.0000040294449213,8.40243211571136e-05
-0.49849325649665843,-0.49849325649665843,0.9999704591015988,8.658878164640627e-05
-0.4983904903507209,-0.4983904903507209,0.9999542687722615,8.391408237461066e-05
-0.49827990748490264,-0.49827990748490264,0.9998111002802423,8.400748949318223e-05
-0.49822173536558695,-0.49822173536558695,0.9999155948537769,8.607989720726531e-05
-0.49808697630869575,-0.49808697630869575,0.9999816428805179,9.054722340018543e-05
-0.4978609909769148,-0.4978609909769148,1.000014124451731,8.409206799533162e-05
-0.4977332935428421,-0.4977332935428421,0.9998798930776343,8.853011742191507e-05
-0.4976200843826518,-0.4976200843826518,0.999977164647043,8.388129854180557e-05
-0.4974950704941875,-0.4974950704941875,1.0001052794034406,8.746925690856879e-05
-0.49736841547855876,-0.49736841547855876,0.9999613192720757,8.655744315589804e-05
-0.497166587952961,-0.497166587952961,1.00004163512939,8.770919197252805e-05
-0.4970307499745104,-0.4970307499745104,0.9999816952016924,8.710248812861393e-05
-0.4969025799058727,-0.4969025799058727,0.9999418509396616,8.425355399047689e-05
-0.4967774785724032,-0.4967774785724032,0.999944486339,8.819870656892656e-05
-0.4966316738922615,-0.4966316738922615,0.9999574255373904,8.625617346035267e-05
-0.49642739024202454,-0.49642739024202454,1.00001126353706,8.773756569717306e-05
-0.49626829833505326,-0.49626829833505326,1.0000667430252659,8.771835724271111e-05
-0.49614885368646355,-0.49614885368646355,1.000079857207998,8.517398933549418e-05
-0.4959976318423287,-0.4959976318423287,0.9998985964146112,8.869887113722026e-05
-0.4958738054116111,-0.4958738054116111,1.0000243824933306,8.830295754567793e-05
-0.49565791441709733,-0.49565791441709733,1.0000108632726723,8.409172525768066e-05
-0.4955005823081592,-0.4955005823081592,0.9999981032920857,8.843348821027151e-05
-0.49537717400307885,-0.49537717400307885,1.000041184594908,8.669867578695213e-05
-0.495192924524963,-0.495192924524963,0.9998718816169234,8.76169532830035e-05
-0.49504229709637004,-0.49504229709637004,0.9999315571620263,8.805925810848884e-05
-0.4948670269663126,-0.4948670269663126,0.9999055982625842,8.447580977283053e-05
-0.4947038704005536,-0.4947038704005536,0.999870821251195,8.879613839404948e-05
-0.49443002601037733,-0.49443002601037733,1.0000046312287136,8.920653412079813e-05
-0.49423757891891,-0.49423757891891,1.0000216847371977,8.405301073516333e-05
-0.4941245594571228,-0.4941245594571228,0.9999014065622177,8.286334722886592e-05
-0.49400121271391984,-0.49400121271391984,1.0000056439214415,8.489855773933055e-05
-0.4937569776207965,-0.4937569776207965,0.9998852633454985,8.835353538073036e-05
-0.4936063585544616,-0.4936063585544616,0.9998854001896726,8.403604511624854e-05
-0.4934082468153065,-0.4934082468153065,0.999993629810066,8.399626814839432e-05
-0.49326670856316923,-0.49326670856316923,0.9999472998406521,8.535469527613484e-05
-0.4930713742622174,-0.4930713742622174,1.0001295553554943,8.6150256002552e-05
-0.4928653241142456,-0.4928653241142456,1.0001617808440788,8.677397611937382e-05
-0.4926774955492874,-0.4926774955492874,1.000029395142501,8.409667124464598e-05
-0.49255233582298386,-0.49255233582298386,1.000035802346842,8.534564615075498e-05
-0.49234075739550465,-0.49234075739550465,0.9999809470073066,8.490363874881428e-05
-0.4921823619275528,-0.4921823619275528,1.0000482122519352,8.778498940092112e-05
-0.4920228696850245,-0.4920228696850245,0.9999523899062337,8.466396336989635e-05
-0.4918846766024217,-0.4918846766024217,1.000006996244184,8.383751579526042e-05
-0.491782860836247,-0.491782860836247,0.9998158596677259,8.52176832774596e-05
-0.49148970305723194,-0.49148970305723194,0.9998461379008413,8.598427712732063e-05
-0.4913655389857013,-0.4913655389857013,1.0000449791029398,8.852881001555566e-05
-0.49123180076276185,-0.49123180076276185,1.000014221700459,8.403439437241022e-05
-0.4910906513370719,-0.4910906513370719,0.9999653977049263,8.21943178579665e-05
-0.49094343298856985,-0.49094343298856985,0.999901453191467,8.674601302703536e-05
-0.49070688904030246,-0.49070688904030246,0.9999511942186332,8.755739611040354e-05
-0.4905805974289251,-0.4905805974289251,1.0000981286453166,8.385385690726368e-05
-0.49042401847473227,-0.49042401847473227,1.0001012457563578,8.42379732311596e-05
-0.49028068503357647,-0.49028068503357647,1.000009701595401,8.519093391313494e-05
-0.4899817201621772,-0.4899817201621772,1.0000397764124842,8.837579859716097e-05
-0.48986405812574957,-0.48986405812574957,0.9996822950345597,8.369633290842353e-05
-0.48972343960776926,-0.48972343960776926,1.0001645053437567,8.435062698162885e-05
-0.4895807628661714,-0.4895807628661714,0.9999418653419895,8.500971959534432e-05
-0.4893750426192128,-0.4893750426192128,1.0000366646274768,8.657117346666189e-05
-0.4891950994824583,-0.4891950994824583,0.9999639731011405,8.706342328489375e-05
-0.4890935373536195,-0.4890935373536195,0.9999017268004275,8.426794149720947e-05
-0.48895464795205046,-0.48895464795205046,0.9997771587640514,8.528014092416811e-05
-0.48879308800060245,-0.48879308800060245,1.0000391783495675,8.466546756853412e-05
-0.48855604162017696,-0.48855604162017696,0.9998705235638223,8.587368761957976e-05
-0.4884164855884592,-0.4884164855884592,0.9998395671271935,8.737170093316771e-05
-0.48832302391965643,-0.48832302391965643,0.9999542332522523,8.46300751279296e-05
-0.4881985182531935,-0.4881985182531935,1.0001067118971076,8.629330798486136e-05
-0.48790082301056825,-0.48790082301056825,0.9999181793857657,8.605762997158719e-05
-0.4876924437368871,-0.4876924437368871,0.9999781436544343,8.707488103692996e-05
-0.4876018826482323,-0.4876018826482323,1.0001259394195725,8.464556088718876e-05
-0.4874452516422025,-0.4874452516422025,0.9997540920055963,8.68442673972871e-05
-0.48710072962931006,-0.48710072962931006,1.0001542367338039,8.457704286807773e-05
-0.48698443385001156,-0.48698443385001156,1.000040510572257,8.40243766614963e-05
-0.48689606578082023,-0.48689606578082023,0.9999831398789958,8.724428555855236e-05
-0.48680703021564115,-0.48680703021564115,0.9999165457118758,8.546802586909413e-05
-0.48660560650350815,-0.48660560650350815,0.9998345189476797,8.510434179835479e-05
-0.4863126491560251,-0.4863126491560251,0.9998454068523239,8.410043376152958e-05
-0.48616289029450854,-0.48616289029450854,0.9999396362638846,8.780369806718636e-05
-0.4860709815937298,-0.4860709815937298,0.9997775061179652,8.542833874343495e-05
-0.48591369060522993,-0.48591369060522993,0.9999461824510657,8.443008197088501e-05
-0.4855812766894815,-0.4855812766894815,0.9999960386757945,8.470725770701445e-05
-0.48540700387748076,-0.48540700387748076,1.0000321743967564,8.731908384236852e-05
-0.48531191760594083,-0.48531191760594083,0.9999675765755265,8.532083060474253e-05
-0.4852270634837623,-0.4852270634837623,0.9999088913248773,8.605072082950816e-05
-0.48499083537753906,-0.48499083537753906,0.999957286768975,8.601989544217541e-05
-0.48469800522652806,-0.48469800522652806,0.9999603091843154,8.382080190156267e-05
-0.48460642882164395,-0.48460642882164395,0.9999405581513457,8.69064070553688e-05
-0.48450596381953803,-0.48450596381953803,0.9998411199921406,8.729363598967518e-05
-0.48429161354870304,-0.48429161354870304,1.0000792495656732,8.43380452364829e-05
-0.48398292199563003,-0.48398292199563003,0.9998975199561165,8.386628847273799e-05
-0.4838460746432247,-0.4838460746432247,1.000091169540846,8.95691733449656e-05
-0.48376534499620905,-0.48376534499620905,0.9998532729020978,8.777189716751127e-05
-0.4836318969235435,-0.4836318969235435,0.999827672872987,8.414114511652605e-05
-0.48336261892291077,-0.48336261892291077,1.0000799991788276,8.374751096649642e-05
-0.4832315498166281,-0.4832315498166281,0.9999129214033141,8.381735880761787e-05
-0.4831172074409551,-0.4831172074409551,0.9999870983593475,8.947900211691602e-05
-0.4830345335878519,-0.4830345335878519,0.9999182490812025,8.796857020026936e-05
-0.4829549405527359,-0.4829549405527359,0.9999308341281026,8.348537461962103e-05
-0.48276218151222566,-0.48276218151222566,1.0000046074897218,8.475099250904117e-05
-0.4825510795835726,-0.4825510795835726,0.9999245700036143,8.327222418998846e-05
-0.4823916718363762,-0.4823916718363762,0.9999127200446093,8.985881369007698e-05
-0.48227350925299106,-0.48227350925299106,0.9998802213738444,8.506423987569709e-05
-0.4821500077341625,-0.4821500077341625,1.0000420525756368,8.333234464676789e-05
-0.4818756703865802,-0.4818756703865802,0.9999200641001258,8.347846606909646e-05
-0.4817235815178719,-0.4817235815178719,0.9998373367062688,8.483561078707598e-05
-0.48158279809358645,-0.48158279809358645,0.999912020573426,9.226999935891144e-05
-0.4814876529708272,-0.4814876529708272,1.0000147151955392,8.402302644088409e-05
-0.48122873706452085,-0.48122873706452085,1.0000782772407963,8.326652887909832e-05
-0.48105617947367135,-0.48105617947367135,1.0000294468041275,8.26605681396826e-05
-0.48091831793499296,-0.48091831793499296,1.0000233344794618,8.957317238950567e-05
-0.480831205499635,-0.480831205499635,0.9999518054300139,8.410213909523039e-05
-0.4807717129930097,-0.4807717129930097,1.0000408605514246,8.738821480662818e-05
-0.48058985842144464,-0.48058985842144464,0.9999473475017225,8.25166216131699e-05
-0.4803921972921671,-0.4803921972921671,1.0000050174431536,8.286581627341202e-05
-0.4802649805547844,-0.4802649805547844,0.9999287531723702,8.409825067522085e-05
-0.4801361919693591,-0.4801361919693591,0.9999769706337908,8.871659979668812e-05
-0.4800602078281372,-0.4800602078281372,0.9999343909189863,8.674161743956636e-05
-0.4799802695772087,-0.4799802695772087,0.9998500673766622,8.356328760993314e-05
-0.4797143333551503,-0.4797143333551503,1.0000376165324474,8.270125994461739e-05
-0.47955447588537936,-0.47955447588537936,1.0000358840746977,8.31681325060731e-05
-0.4794664069922874,-0.4794664069922874,0.9999587883389989,8.499777016722887e-05
-0.47935891086999616,-0.47935891086999616,0.9999738026972478,8.767732529111431e-05
-0.47927762490362513,-0.47927762490362513,0.9999322930863308,8.730741597494345e-05
-0.4791329842126288,-0.4791329842126288,0.9999626517034583,8.256010384997241e-05
-0.4788462392003566,-0.4788462392003566,1.0000318379059738,8.434823649681173e-05
-0.47874109295516976,-0.47874109295516976,1.0000225370642235,8.362887780413059e-05
-0.4786439736839384,-0.4786439736839384,1.0002715644323932,8.767369133332e-05
-0.4784744052856695,-0.4784744052856695,0.9998484031400251,8.612946890069089e-05
-0.4782149126262084,-0.4782149126262084,1.0001751681984645,8.331487396822178e-05
-0.4780050443630898,-0.4780050443630898,1.0000009338936515,8.341110234032831e-05
-0.4778703177253192,-0.4778703177253192,0.9999559604401067,9.115574298753999e-05
-0.4776686326964409,-0.4776686326964409,0.9999143899199707,8.23719400423624e-05
-0.47742296655451355,-0.47742296655451355,0.9998673274363548,8.32877584667251e-05
-0.47726289558122514,-0.47726289558122514,0.9999201152598853,8.538160210518918e-05
-0.47718033963101336,-0.47718033963101336,0.9998942793581771,8.409861405986733e-05
-0.4769487674326228,-0.4769487674326228,1.0000253733417397,8.600112300352809e-05
-0.4767239018172404,-0.4767239018172404,1.0000977976093566,8.328044016672282e-05
-0.47656204267332214,-0.47656204267332214,0.9998806657412105,8.322520615366469e-05
-0.47648079100472385,-0.47648079100472385,1.0001366656753137,8.522782982845429e-05
-0.4763640507211676,-0.4763640507211676,1.0001273636638042,9.161298296745006e-05
-0.47617146626944307,-0.47617146626944307,1.0000628830543978,8.306036172254784e-05
-0.4759721540853207,-0.4759721540853207,0.999872051006761,8.259844438531212e-05
-0.47580358211926066,-0.47580358211926066,0.9999188110957602,8.635000544976968e-05
-0.4757401724076772,-0.4757401724076772,0.9999364551118839,8.471573410734039e-05
-0.4755607067840174,-0.4755607067840174,0.999920206866976,9.001198337249586e-05
-0.47537008571052863,-0.47537008571052863,0.999814870653271,8.657776980150536e-05
-0.4752061517199763,-0.4752061517199763,1.000069735760881,8.207354767158563e-05
-0.4750600942868914,-0.4750600942868914,1.000023512087419,8.590375678823331e-05
-0.4749745964363683,-0.4749745964363683,0.9999417307750837,8.762363961902357e-05
-0.47478012406754716,-0.47478012406754716,0.9999798320710218,8.689149399067719e-05
-0.47461238370233333,-0.47461238370233333,0.9998621269691601,8.60420206585317e-05
-0.474396327904833,-0.474396327904833,1.000100578969376,8.381759980456131e-05
-0.4742985719727585,-0.4742985719727585,1.0000315954090848,8.62741177460828e-05
-0.474181898911047,-0.474181898911047,0.9998503344719477,8.915386128945902e-05
-0.47398306531540585,-0.47398306531540585,1.0000016575604294,8.676276434114412e-05
-0.4737404055540537,-0.4737404055540537,0.9999314293044514,8.358768079409799e-05
-0.47358286212620443,-0.47358286212620443,1.0001002288933751,8.491092662403198e-05
-0.47342920925293586,-0.47342920925293586,0.9999923387960402,9.056098092195904e-05
-0.473191854772449,-0.473191854772449,1.0000494032588467,8.618631478729857e-05
-0.47299186443888175,-0.47299186443888175,1.0000032350501247,8.357386626570836e-05
-0.4728563735181524,-0.4728563735181524,0.9998951551302431,8.437416500065103e-05
-0.47272517193196106,-0.47272517193196106,0.9998958645627163,8.759687375757797e-05
-0.472466098492805,-0.472466098492805,0.9999755458554234,8.971553035356322e-05
-0.47226657583851195,-0.47226657583851195,1.0001565930166423,8.358812236462368e-05
-0.4721318818119471,-0.4721318818119471,1.0000538310288984,8.710140909488493e-05
-0.4720339402651007,-0.4720339402651007,0.9998395758956434,8.403816497661327e-05
-0.4718058680802642,-0.4718058680802642,1.0002422776806685,8.96320509755242e-05
-0.47154924336100523,-0.47154924336100523,1.000057609955879,8.625714833779601e-05
-0.47139684796638903,-0.47139684796638903,0.9999549290108979,8.4911251012156e-05
-0.4713391940211295,-0.4713391940211295,0.9999598801514973,8.398343083031302e-05
-0.47111424471440844,-0.47111424471440844,0.9999313672173136,8.785106931362614e-05
-0.4709082105793641,-0.4709082105793641,0.9999696435542222,8.650537155612931e-05
-0.47072421663797287,-0.47072421663797287,1.0001170468527514,8.480874752629853e-05
-0.4706077285842184,-0.4706077285842184,0.9999927895378524,8.405773545747511e-05
-0.4704123937204713,-0.4704123937204713,0.9999039182869127,8.625096938621083e-05
-0.4701354640063073,-0.4701354640063073,0.999935249273129,8.613631779642229e-05
-0.4699574243833922,-0.4699574243833922,1.0000579016259754,8.494513254291608e-05
-0.4698387169271882,-0.4698387169271882,0.9999923821601577,8.388638618662232e-05
-0.4696015213659848,-0.4696015213659848,0.999970801302192,8.629719652763469e-05
-0.4693791345878708,-0.4693791345878708,0.9998822694020607,8.589243963753177e-05
-0.46923499051627005,-0.46923499051627005,1.000007206477851,8.681976869058902e-05
-0.46904278230285856,-0.46904278230285856,1.0000267972198582,8.287041251699169e-05
-0.4688287481818406,-0.4688287481818406,0.9999635362112824,8.614120495290221e-05
-0.4686144445098762,-0.4686144445098762,1.0000479603905252,8.704294291436858e-05
-0.46850222384236984,-0.46850222384236984,1.0000675382617055,8.554707434771658e-05
-0.4683700843095721,-0.4683700843095721,0.9999213340906532,8.259993014901478e-05
-0.468178818411252,-0.468178818411252,0.9999899825574469,8.396239856310508e-05
-0.4680398351407348,-0.4680398351407348,0.9998369368164939,8.624832738013898e-05
-0.46784193884232084,-0.46784193884232084,1.0000806455247084,8.84475058152886e-05
-0.4677465105589363,-0.4677465105589363,0.9999629367232551,8.467990671892273e-05
-0.46757299382734346,-0.46757299382734346,0.9999841486691604,8.26406707928367e-05
-0.46736001617027795,-0.46736001617027795,0.999996130287783,8.294835525969091e-05
-0.46722653669385183,-0.46722653669385183,0.9999950334095636,8.639678052083856e-05
-0.46710170650840155,-0.46710170650840155,0.9997850025295701,8.842032366034276e-05
-0.4670095572822902,-0.4670095572822902,0.9999792420946859,8.466106760098104e-05
-0.4667636992751795,-0.4667636992751795,0.9998655506601815,8.245870211821856e-05
-0.46656320790716566,-0.46656320790716566,0.9998220001114231,8.665613242503595e-05
-0.46641077212079834,-0.46641077212079834,0.9999136697208811,8.643408837682434e-05
-0.46632292311769563,-0.46632292311769563,0.999989965671643,8.675194442581816e-05
-0.4661208003275533,-0.4661208003275533,0.9999568511352382,8.253566067829138e-05
-0.465852005808847,-0.465852005808847,1.0000459609516452,8.2824145880383e-05
-0.46571777230965383,-0.46571777230965383,0.9999425420213326,8.694993338908671e-05
-0.4656160557373369,-0.4656160557373369,0.9999697328765647,8.609172147478484e-05
-0.4655461733513221,-0.4655461733513221,0.9999569311241036,8.771629662263234e-05
-0.46533192429342307,-0.46533192429342307,0.9999985220559833,8.247454587816847e-05
-0.4650643817076343,-0.4650643817076343,1.0001386146359135,8.303295226621212e-05
-0.46497216871139246,-0.46497216871139246,1.0000392162644576,8.695149933837183e-05
-0.46488441046167284,-0.46488441046167284,0.9999011212675836,8.669511491854312e-05
-0.46480180837315854,-0.46480180837315854,0.9999449144552554,8.72580393377971e-05
-0.46465803714199866,-0.46465803714199866,0.9999239319287062,8.249645700040432e-05
-0.4644083832303295,-0.4644083832303295,0.9999774628974502,8.270914739625933e-05
-0.4642726451220369,-0.4642726451220369,0.9999500351731658,8.260771943695148e-05
-0.46421370988027777,-0.46421370988027777,1.0000839109940236,8.706278421848727e-05
-0.46412521154779823,-0.46412521154779823,1.0000398305416778,8.828250796159227e-05
-0.46395081774207936,-0.46395081774207936,1.000104932430037,8.219613563918764e-05
-0.4637376147595205,-0.4637376147595205,0.9999273008874978,8.353874420419824e-05
-0.4635530190473219,-0.4635530190473219,0.999835182620816,8.21462600378174e-05
-0.46349257542970007,-0.46349257542970007,0.9998630141566514,8.442901772581748e-05
-0.4634435633546673,-0.4634435633546673,0.9999203296825575,8.740549879195469e-05
-0.463313171241316,-0.463313171241316,0.9998968236977669,8.652604465668985e-05
-0.4631198752926139,-0.4631198752926139,0.9999849712901667,8.243168517868981e-05
-0.4628943353454815,-0.4628943353454815,1.000029570860637,8.271888402894541e-05
-0.46276559062171146,-0.46276559062171146,1.0001070201809925,8.451451512386407e-05
-0.4627288264477102,-0.4627288264477102,1.0001075873655794,8.534786880336437e-05
-0.4626232400391018,-0.4626232400391018,0.9999620371183682,9.023097127611896e-05
-0.46245662570254353,-0.46245662570254353,0.9999675636953362,8.293051595623288e-05
-0.462293806785965,-0.462293806785965,1.000034174813399,8.230555680924992e-05
-0.46211461654711455,-0.46211461654711455,0.9999867983229678,8.400859634566416e-05
-0.46202294470203925,-0.46202294470203925,0.9999607509644216,8.46189993213655e-05
-0.46199631546514863,-0.46199631546514863,1.000076130434813,8.359365220825493e-05
-0.4618795567243069,-0.4618795567243069,0.9998796727041752,9.092491714949898e-05
-0.46175342639326117,-0.46175342639326117,1.0000083137023386,8.287878224928439e-05
-0.46159307493544477,-0.46159307493544477,1.000109665012301,8.24527760928839e-05
-0.46139929795681384,-0.46139929795681384,1.0000875837464838,8.325526692354944e-05
-0.4612944698877982,-0.4612944698877982,1.000058011863727,8.648324956980417e-05
-0.46126547997482703,-0.46126547997482703,0.9998635082656625,8.356758417253219e-05
