time,time,flux,flux_err
-0.4998443516687985,-0.4998443516687985,0.9997739502561993,0.00020545823539917752
-0.4994976790767396,-0.4994976790767396,0.9997464843629031,0.00019708191936081525
-0.4992277978326456,-0.4992277978326456,1.0000488107865473,0.00019819686740578886
-0.49898627617282426,-0.49898627617282426,0.9999208905779357,0.0001943217665476547
-0.49865854807794674,-0.49865854807794674,0.9998607515649451,0.0001754011351320672
-0.49843918529732034,-0.49843918529732034,1.0000573577985534,0.00018005273731515816
-0.4981915561125788,-0.4981915561125788,0.999817744443914,0.00018684591905095596
-0.49801633783936267,-0.49801633783936267,1.000202282648999,0.00017852403138889262
-0.49773712291789707,-0.49773712291789707,1.0000389149765585,0.0001848872260100853
-0.49747951222525444,-0.49747951222525444,0.9998833804534447,0.00017749771013163566
-0.4969308840110898,-0.4969308840110898,1.000089232402734,0.00017995764539625343
-0.4965108039272309,-0.4965108039272309,1.0002086446069236,0.00017199067299508816
-0.49636972872758633,-0.49636972872758633,0.9998915600754051,0.00017813106660328142
-0.495988173927617,-0.495988173927617,0.9999179860102491,0.00018211913595264664
-0.4955551060724247,-0.4955551060724247,0.9997983615937039,0.00018276486843708743
-0.495029346406227,-0.495029346406227,1.0002599506081349,0.0001813544251929018
-0.4947330867340497,-0.4947330867340497,1.0002688877381982,0.00017591221141801435
-0.49441426430639696,-0.49441426430639696,0.9997663026969368,0.0001818639526071648
-0.49425709900897347,-0.49425709900897347,1.0000795569082648,0.0001784738746006377
-0.4940897802138352,-0.4940897802138352,0.9999641162062621,0.00017465341187149504
-0.4938125380882411,-0.4938125380882411,1.0001920536610545,0.00017635167767298838
-0.4935601481847698,-0.4935601481847698,1.0002632386136292,0.00018375097634036375
-0.49332064233894923,-0.49332064233894923,1.0000067072609324,0.0001765095628764215
-0.49304395405124524,-0.49304395405124524,1.000089289345338,0.00017205007918985227
-0.492769433282956,-0.492769433282956,1.0001024820333204,0.0001738533046117324
-0.4924727678182535,-0.4924727678182535,0.9999691321725102,0.00017774488064758743
-0.49224626358700335,-0.49224626358700335,1.0001134111733632,0.00017648895933554789
-0.49212463382573335,-0.49212463382573335,1.0001666753064105,0.00017656288125012784
-0.4918344016718038,-0.4918344016718038,0.9998260304343356,0.00017669522783147362
-0.4915787309379084,-0.4915787309379084,0.9998398291980617,0.00018050933430335594
-0.49133895358318114,-0.49133895358318114,1.0001317480824756,0.00018222420288128882
-0.49117296009935674,-0.49117296009935674,1.0001165091427997,0.00018301551585187022
-0.4909280786770978,-0.4909280786770978,0.9996427947702932,0.00018283612231176106
-0.490735290684097,-0.490735290684097,1.000095513699041,0.0001777829249991804
-0.4903718612004013,-0.4903718612004013,0.999900940171562,0.0001796808669310611
-0.49003989336124504,-0.49003989336124504,1.0002320333883024,0.00017938014095155808
-0.48975299652593096,-0.48975299652593096,0.9998957507729435,0.00017194458324048325
-0.4895583688048646,-0.4895583688048646,0.9996690241897337,0.00018319664099177276
-0.48925984703964787,-0.48925984703964787,0.9998755476263901,0.0001791808157445207
-0.48865885585182695,-0.48865885585182695,0.9996036037916014,0.00017458709289392638
-0.48820976093338686,-0.48820976093338686,0.9999807704560677,0.00017726947497050019
-0.4879050254188769,-0.4879050254188769,1.000027054325977,0.00017280741893550055
-0.48762282789393796,-0.48762282789393796,0.9998706169616657,0.0001765184359582438
-0.4873827399802394,-0.4873827399802394,0.999982996502552,0.0001809946687686805
-0.4868825361481868,-0.4868825361481868,0.9998830783937864,0.0001824547690982389
-0.48651911349516014,-0.48651911349516014,0.9999304473573115,0.00017967140779817675
-0.48623563666333214,-0.48623563666333214,1.0000573379882673,0.00017625900451728027
-0.48591799906716915,-0.48591799906716915,1.0002925162231713,0.00018262495061138815
-0.48567454923977493,-0.48567454923977493,0.9998510505947303,0.00018848631729319183
-0.48527719088160665,-0.48527719088160665,1.000101232482183,0.00017662382909365573
-0.48500346762812113,-0.48500346762812113,0.9999495006553432,0.00018442981260380513
-0.4846505505447567,-0.4846505505447567,1.000097914345314,0.00018265091090077326
-0.4843562867237779,-0.4843562867237779,0.9998852493266414,0.00017297332553627633
-0.4840852243527479,-0.4840852243527479,1.0005696291198336,0.00018016023575131578
-0.48380088339326904,-0.48380088339326904,1.0002030160175515,0.00018012128727970658
-0.48362993879418353,-0.48362993879418353,0.9999961603808968,0.00018234857659961802
-0.4833218821397168,-0.4833218821397168,1.000106034648161,0.00017340148035473464
-0.48303259749736754,-0.48303259749736754,1.000139247522211,0.00017396989239069696
-0.4828993769478984,-0.4828993769478984,0.9998878841800579,0.0001865544875193808
-0.4827763231944118,-0.4827763231944118,1.000073741384293,0.00017670016605653
-0.4825276563067746,-0.4825276563067746,0.9998507596632832,0.00019516155076463692
-0.48235956051867107,-0.48235956051867107,1.0002916940029156,0.00017353889407417292
-0.4821500749414554,-0.4821500749414554,0.9998624201275839,0.0001730578411040563
-0.4816742482522386,-0.4816742482522386,0.9998818215731996,0.00017502679256128014
-0.4812586149266281,-0.4812586149266281,0.9997970701490676,0.00017800053807341448
-0.4809884168629651,-0.4809884168629651,1.0000087586255282,0.00018729030605129808
-0.48065906163756156,-0.48065906163756156,0.9999910905479066,0.00017549942962937122
-0.48038040458486647,-0.48038040458486647,1.000231836144645,0.00017597375659033347
-0.4799887545334059,-0.4799887545334059,0.9997822710146753,0.00018520000520484947
-0.47957864152631374,-0.47957864152631374,0.9999703695996212,0.00017378923691864644
-0.47939375191490396,-0.47939375191490396,1.0000625676352768,0.0001758175675917246
-0.4790633030010213,-0.4790633030010213,0.9998854510438765,0.00016891422971946886
-0.4789608207975107,-0.4789608207975107,1.0000145648922503,0.00017968868434977968
-0.4786899384300341,-0.4786899384300341,0.9997142962573857,0.00017705160471407212
-0.4784100833734556,-0.4784100833734556,1.0001148916435445,0.00018139842534525412
-0.47814519256935456,-0.47814519256935456,1.0001899234504363,0.00019402604542255312
-0.47798568740618064,-0.47798568740618064,1.0000049456393512,0.00017578090672973405
-0.47771047221976914,-0.47771047221976914,1.0001368285411982,0.00017595420950021246
-0.4774748263633228,-0.4774748263633228,1.0000427378360575,0.0001837727700593266
-0.47718823650066045,-0.47718823650066045,0.9999809072926743,0.00017735596916238985
-0.47679586126832874,-0.47679586126832874,1.0000298981575821,0.0001783500445406196
-0.4766394090009271,-0.4766394090009271,1.0001959492535448,0.00019009186865457775
-0.47638215065817346,-0.47638215065817346,1.0000468570186591,0.00017885379069831078
-0.47611228648456744,-0.47611228648456744,1.00025577451455,0.00018412610008965976
-0.47573152199329344,-0.47573152199329344,1.0001111436147099,0.00018124596564047233
-0.47544404749132807,-0.47544404749132807,1.0001556007985637,0.00018149891655597003
-0.47529311322723516,-0.47529311322723516,1.0000973463596663,0.00018469190136871189
-0.47503481265957814,-0.47503481265957814,0.9999154293269419,0.00017784449740620474
-0.47483732385444455,-0.47483732385444455,0.9999213902888314,0.00018155861493933487
-0.47454922650722436,-0.47454922650722436,0.9999772975543832,0.0001896757592697542
-0.47436716141164653,-0.47436716141164653,1.0000002396790244,0.00017669765840942552
-0.4741070500211208,-0.4741070500211208,0.9998011158554483,0.00017896675156814368
-0.4739647761605738,-0.4739647761605738,1.0002057649150597,0.00018112771460128478
-0.4737691634443763,-0.4737691634443763,0.9999371065827525,0.0001706001399465764
-0.4732638386383769,-0.4732638386383769,0.9999085372895309,0.00017584168269953006
-0.4727463473405805,-0.4727463473405805,1.0000443172755753,0.00017832044130608105
-0.4723056995855586,-0.4723056995855586,1.0002344230452918,0.00017951546919960703
-0.4719541368140199,-0.4719541368140199,0.999806691718487,0.00018192977589452853
-0.47151932976557875,-0.47151932976557875,1.0001496904102527,0.00018025644280012426
-0.471169423370884,-0.471169423370884,1.0000858549799352,0.00017478926686778816
-0.47095934455137467,-0.47095934455137467,0.9997212980983091,0.0001777755558022101
-0.4706877183765755,-0.4706877183765755,1.0000967803896383,0.00018533372111273204
-0.4704929627761885,-0.4704929627761885,1.0000842052396668,0.0001754739648524723
-0.4701045111592975,-0.4701045111592975,1.0000582728690386,0.0001720399009094562
-0.4698019626208406,-0.4698019626208406,0.9999202861218105,0.0001787047211535054
-0.469595163653139,-0.469595163653139,0.9997660315168403,0.0001762807976323424
-0.4691546082387504,-0.4691546082387504,0.9999585118624644,0.000180352262305837
-0.46889017030553076,-0.46889017030553076,1.0000162616004118,0.00017497402497170393
-0.468587236674648,-0.468587236674648,1.0000365312562471,0.00017693788028118164
-0.46838677742998697,-0.46838677742998697,0.9999954533711193,0.0001771873989281495
-0.4681651524202607,-0.4681651524202607,1.0001334320497004,0.00018014782672158206
-0.46785401743254623,-0.46785401743254623,0.9997504437522619,0.00018083051657156353
-0.46758564225383453,-0.46758564225383453,1.000092215749651,0.00017756220127413335
-0.46741970474467964,-0.46741970474467964,1.0001262914491034,0.0001773935903459326
-0.4671725169857382,-0.4671725169857382,1.0001022690322825,0.00018209950213061624
-0.46707094849116404,-0.46707094849116404,0.999787071985095,0.0001786522258353862
-0.46682748731036555,-0.46682748731036555,0.9999269188499534,0.00018104225803812897
-0.4663915372788324,-0.4663915372788324,0.999779860214072,0.00018074776969768128
-0.46603402641849245,-0.46603402641849245,0.9999272797011983,0.00017797814486326117
-0.4657676087786967,-0.4657676087786967,1.0000112917961719,0.00018558317189052
-0.46551168419027816,-0.46551168419027816,0.9998400493013762,0.00017935191666114847
-0.46512060420718626,-0.46512060420718626,1.0000998264004783,0.00017484822416076047
-0.4645442608860321,-0.4645442608860321,1.0001752064111398,0.00017913254996558436
-0.4643246513900522,-0.4643246513900522,0.9999617031852919,0.0001739457159221073
-0.46416570718429284,-0.46416570718429284,1.0001431643461038,0.0001764649984872029
-0.46374543153870035,-0.46374543153870035,0.9997032305708731,0.0001799745001697921
-0.4631745583275915,-0.4631745583275915,1.0001792942022125,0.00017873566966825262
-0.4627693569906114,-0.4627693569906114,0.9998759114769813,0.00018209772170246996
-0.46253130485638394,-0.46253130485638394,1.0000943296620206,0.00017650238536971768
-0.4621997455404198,-0.4621997455404198,1.0001389709236352,0.00018391424601734135
-0.46202982763861655,-0.46202982763861655,1.0000848774479687,0.0001748254721996485
-0.46172491755423833,-0.46172491755423833,0.9997632723740557,0.00017383352526737406
-0.4614517938978679,-0.4614517938978679,1.00001380605431,0.00018352884786886994
-0.4612207874401065,-0.4612207874401065,1.000263562570525,0.00017895487971505012
-0.4609895836598298,-0.4609895836598298,0.9999683710906361,0.00016851025499241347
-0.4606884003966115,-0.4606884003966115,0.9999782491672761,0.00017400375281839952
-0.46039733516736303,-0.46039733516736303,0.9997390034763644,0.0001768928800317308
-0.460085762298695,-0.460085762298695,0.9999433972741795,0.0001752902374581292
-0.45986928922793596,-0.45986928922793596,0.9999483417663958,0.00018443240389474886
-0.45960799006279557,-0.45960799006279557,1.0002095458547822,0.00017831109783501397
-0.45935842984399644,-0.45935842984399644,0.9999633566222252,0.00017903050408961694
-0.45919671966621534,-0.45919671966621534,1.0003125494990095,0.0001828895590324005
-0.4588881243042124,-0.4588881243042124,0.9999173511992892,0.0001829241674863049
-0.4586053191589599,-0.4586053191589599,1.0001447648501163,0.00018112602509233559
-0.4582303730974672,-0.4582303730974672,0.9999961244681662,0.00018016290400832015
-0.45781429840353666,-0.45781429840353666,0.9999689663939708,0.00017595275324892935
-0.45744986179925035,-0.45744986179925035,1.0000139953906781,0.00018514678946992478
-0.45712043777602956,-0.45712043777602956,1.0005497898614728,0.00017939091898104014
-0.4567385112248303,-0.4567385112248303,0.9999448048304886,0.00018430381745083017
-0.4562624537182273,-0.4562624537182273,1.0001284210300732,0.00018168568645490364
-0.45592915439337955,-0.45592915439337955,1.0000717125884628,0.00017948972728944483
-0.45570270620373776,-0.45570270620373776,1.0000065039046004,0.00017192808765907833
-0.4554143704379385,-0.4554143704379385,1.0001082453905588,0.00017815232632247831
-0.45520430534161277,-0.45520430534161277,1.0002720139350552,0.0001806066763259943
-0.45464990369218866,-0.45464990369218866,1.0004390015768272,0.0001828603698761769
-0.45436315182159887,-0.45436315182159887,1.000161536830095,0.00018059257460130372
-0.4541007625281054,-0.4541007625281054,1.000175178466305,0.00017461201189603466
-0.45371128441547626,-0.45371128441547626,1.0000243414088583,0.0001794358152568347
-0.45337218138738533,-0.45337218138738533,0.9998598408384256,0.00017566874853136173
-0.45298872942148594,-0.45298872942148594,0.9998198278567394,0.0001805592190617338
-0.45282281030522425,-0.45282281030522425,0.9998604737677821,0.00018347965327828662
-0.4524862966100045,-0.4524862966100045,1.0000457838580246,0.00018389439996097323
-0.45219637735863216,-0.45219637735863216,1.0000728640509364,0.00017620365054860803
-0.45196358169050654,-0.45196358169050654,1.0001475425034216,0.00017712763673694904
-0.4517336221644655,-0.4517336221644655,1.00003107593079,0.0001807876840209284
-0.45159884177483034,-0.45159884177483034,1.0002571872067072,0.00017768295479167354
-0.451236386103119,-0.451236386103119,0.9998650694802368,0.0001762480310310839
-0.45097250300386804,-0.45097250300386804,1.0001920560016266,0.00018272069950148482
-0.45078332483390116,-0.45078332483390116,1.000088647711663,0.00018829951279340215
-0.4505808980873553,-0.4505808980873553,1.000133056850577,0.00017718946743824616
-0.45025576283733243,-0.45025576283733243,1.000229974387916,0.00018541891685382812
-0.45004152370165684,-0.45004152370165684,0.9999202545092742,0.00018076064639999483
-0.4494141817762284,-0.4494141817762284,1.0001077236252285,0.00017964412914628597
-0.44898856280124166,-0.44898856280124166,0.9998935589921384,0.00018858087589552913
-0.44863779900188094,-0.44863779900188094,1.000067384106046,0.00017737352145880188
-0.4482944126313669,-0.4482944126313669,0.9999958991829168,0.00017339753337760076
-0.4480231931214803,-0.4480231931214803,1.0001933120067383,0.0001834339143778169
-0.4475544161519792,-0.4475544161519792,1.0003545505763776,0.00017347990563247297
-0.4473598992968618,-0.4473598992968618,1.0003862862703339,0.00017398134521834949
-0.4471846963024291,-0.4471846963024291,0.9999914270955603,0.00017856063221482587
-0.4468396990356268,-0.4468396990356268,1.0002071297583028,0.00018175834419551393
-0.44646427457628307,-0.44646427457628307,1.000115016933727,0.00017250914698280795
-0.44612857172032816,-0.44612857172032816,0.9999292541343058,0.00018443799322757855
-0.44586386905648395,-0.44586386905648395,0.9997923127811081,0.00017672481404124312
-0.44547067528619666,-0.44547067528619666,1.0000181778512278,0.00017979415722824376
-0.44505977474182146,-0.44505977474182146,0.9999636872841486,0.00017870198190356678
-0.44471943654862117,-0.44471943654862117,0.9999760033064315,0.00017928048428415133
-0.4445159583614441,-0.4445159583614441,1.0002416300701384,0.00018211928709104455
-0.4442467201508407,-0.4442467201508407,0.9999210189720964,0.0001804480934088846
-0.4439236053294735,-0.4439236053294735,1.0002574581832313,0.00018679862819720593
-0.44361150973927577,-0.44361150973927577,1.0000790547738034,0.00018031048360667715
-0.4433701394329546,-0.4433701394329546,0.9998613575866084,0.00017961945127757515
-0.4432068461901508,-0.4432068461901508,1.000069578693412,0.00017982604085167128
-0.4429554632406507,-0.4429554632406507,0.9999588631124892,0.00018030656276448798
-0.44264714972741787,-0.44264714972741787,1.0001017996130477,0.00018128971025299707
-0.44243477088966754,-0.44243477088966754,1.0000009152902247,0.00018497496525871106
-0.44224136224147514,-0.44224136224147514,1.0000549869724227,0.0001805346335843723
-0.4420651762666239,-0.4420651762666239,0.9998434129514224,0.00018857583820867198
-0.44189311549052945,-0.44189311549052945,1.0001127680524922,0.00017523973673267107
-0.44173908683806073,-0.44173908683806073,0.9998873512886496,0.00017413767314683609
-0.4413216084547457,-0.4413216084547457,1.0002576974760187,0.00017429195541723128
-0.44099507258142695,-0.44099507258142695,1.0000264392600018,0.00017380323278955932
-0.44061521835028544,-0.44061521835028544,1.0001144622816027,0.00017460422839709144
-0.44036683345693745,-0.44036683345693745,0.9999796189794647,0.00018135784315783315
-0.43989874730759765,-0.43989874730759765,0.9997074173910161,0.00017731407305476542
-0.4393819823286321,-0.4393819823286321,0.999822805522405,0.00018025355364959523
-0.4390711051019025,-0.4390711051019025,1.0000990144791864,0.0001726924158879731
-0.4388253102020826,-0.4388253102020826,1.0002524688307124,0.00017608175659540639
-0.43850427771394607,-0.43850427771394607,0.999695661213137,0.00018531879098135872
-0.43831006410255213,-0.43831006410255213,1.0000332092989657,0.00017161186130050665
-0.4380029407373513,-0.4380029407373513,1.0000640141123593,0.00017812792574846891
-0.4376999182342843,-0.4376999182342843,0.9998860795676787,0.00018349637073255743
-0.43753328176753714,-0.43753328176753714,1.0001841523695114,0.00017327826307950698
-0.4373291399300797,-0.4373291399300797,0.9998833939884332,0.00017453426863296863
-0.4369550869581872,-0.4369550869581872,0.9999860928853463,0.0001797749770177466
-0.4365923088938871,-0.4365923088938871,1.0000480017595135,0.0001737073359474825
-0.43641467426277814,-0.43641467426277814,1.0003380243924678,0.00017776809055661776
-0.4362826579119428,-0.4362826579119428,1.0001311098889774,0.00017261702129710407
-0.43609968327073145,-0.43609968327073145,0.999977663810909,0.0001820458010670564
-0.43584060345674513,-0.43584060345674513,0.9998657214555701,0.00017848767209114003
-0.4355497505348467,-0.4355497505348467,0.9998577529235115,0.00018319531930566395
-0.43532357808580857,-0.43532357808580857,1.0000480828677256,0.00017516093926179768
-0.4350366623890295,-0.4350366623890295,0.9997429438812319,0.00018235309157777638
-0.4348885772102221,-0.4348885772102221,0.9995969255657811,0.00017941899508226093
-0.43457109157534435,-0.43457109157534435,1.0002091308888832,0.00019067497942686903
-0.43420756020277623,-0.43420756020277623,1.0002241451898368,0.00018172957988229403
-0.4338785328160156,-0.4338785328160156,1.0001044404704664,0.00017408719449269519
-0.43359654696687355,-0.43359654696687355,0.999804654613526,0.00018035859669285936
-0.43332766459716365,-0.43332766459716365,1.0001652671129073,0.00018016656215305452
-0.43269727383958523,-0.43269727383958523,1.0001028183638587,0.0001732732961913334
-0.43238998559172614,-0.43238998559172614,1.000290463597512,0.0001761707460684225
-0.4321722140055499,-0.4321722140055499,1.0001600453938948,0.0001744917423107234
-0.4319876793473668,-0.4319876793473668,0.9999575269338248,0.00017433803011386993
-0.4316545350542583,-0.4316545350542583,0.9999880804808046,0.0001800392780657079
-0.43133065443544183,-0.43133065443544183,1.0002082515166744,0.00017582712535709624
-0.43097610807744785,-0.43097610807744785,0.9998950047672984,0.0001795288519385472
-0.4306869487125368,-0.4306869487125368,1.0002429461263922,0.00018264711072088797
-0.4304315731416864,-0.4304315731416864,1.0000020433739967,0.00017738349755158148
-0.43012538343900814,-0.43012538343900814,0.9999413754449986,0.00018244064125876592
-0.4299298427569738,-0.4299298427569738,0.999879890396995,0.00018116922988430965
-0.42961643125963744,-0.42961643125963744,1.0003501858879533,0.00017509381041840662
-0.4292496389592998,-0.4292496389592998,1.0001888581533127,0.00018445365328613236
