time,time,flux,flux_err
-0.49994401067548705,-0.49994401067548705,0.9999937408892903,9.086129074660208e-05
-0.49981717589859426,-0.49981717589859426,1.000144392508983,8.999166417845282e-05
-0.49973949271407037,-0.49973949271407037,0.9999710214986145,9.059212218803186e-05
-0.49963174958732753,-0.49963174958732753,1.0000071359739566,8.957902177598719e-05
-0.4995544178127602,-0.4995544178127602,0.999958250956389,8.519385003155016e-05
-0.4994399145638454,-0.4994399145638454,0.9999333324073604,8.249829132180141e-05
-0.4993266744975699,-0.4993266744975699,1.0000414825315485,8.42452847963792e-05
-0.4992123035983241,-0.4992123035983241,1.0000053891677658,8.075758992932491e-05
-0.49907868574373426,-0.49907868574373426,0.9999652061917601,8.252743990434332e-05
-0.49898983835519173,-0.49898983835519173,0.9999146888164457,8.268325375980575e-05
-0.4989255346932623,-0.4989255346932623,1.0000425348238107,8.201907282498254e-05
-0.4988406631964608,-0.4988406631964608,1.0001205727180145,8.508511805483052e-05
-0.4987262048220146,-0.4987262048220146,1.0000367579089529,8.386446456903122e-05
-0.49855063350551065,-0.49855063350551065,1.0000822970663097,8.166926165039407e-05
-0.49843526663098603,-0.49843526663098603,1.0000598887133514,8.308794157315706e-05
-0.4983583174944215,-0.4983583174944215,0.9999800833211735,8.206090098440268e-05
-0.4983098229422467,-0.4983098229422467,0.9999609265841105,8.178913823679412e-05
-0.4982587129197782,-0.4982587129197782,0.9997593805946252,8.139247041713032e-05
-0.49821548999025256,-0.49821548999025256,0.9999112845604909,8.508600379070102e-05
-0.4981371382476937,-0.4981371382476937,0.9999071533536796,8.233454339345416e-05
-0.49805662956714514,-0.49805662956714514,1.0000277619122402,8.402771524126396e-05
-0.4979728651604091,-0.4979728651604091,0.9999856389855987,8.164562320991294e-05
-0.4978222660305619,-0.4978222660305619,0.9999720327596104,8.259135342728238e-05
-0.4977415403809573,-0.4977415403809573,0.9999084128783993,8.249632996824724e-05
-0.49768323121606955,-0.49768323121606955,1.0000736101537253,8.31197465867204e-05
-0.49762386661168423,-0.49762386661168423,1.0000645779838249,8.253643517219947e-05
-0.49739665232700647,-0.49739665232700647,0.9999872078507304,8.290401306941539e-05
-0.49731945738749345,-0.49731945738749345,0.9998459378120437,8.448567727518059e-05
-0.4972494575362362,-0.4972494575362362,1.0001613251738397,8.459498374936068e-05
-0.4970774039204116,-0.4970774039204116,1.000033127355739,8.274957505035606e-05
-0.4969431599070958,-0.4969431599070958,0.9999673257856493,8.332355833588905e-05
-0.49682244325595093,-0.49682244325595093,0.9999021844032867,8.251246125329135e-05
-0.4967070975828392,-0.4967070975828392,1.0000663351055954,8.354951945068307e-05
-0.4966191950668872,-0.4966191950668872,0.9999903697644095,8.359791140627184e-05
-0.49652312753751177,-0.49652312753751177,1.0000053104137447,8.197001568339954e-05
-0.49638000038903557,-0.49638000038903557,1.0000217461811887,8.363558152518567e-05
-0.4962928857006773,-0.4962928857006773,1.0000788985834983,8.162113139397701e-05
-0.4961786988846143,-0.4961786988846143,1.0000271771398397,8.229376255514871e-05
-0.49613179520238193,-0.49613179520238193,0.9999734867841301,8.332888579933094e-05
-0.49602446505668923,-0.49602446505668923,1.000048609785216,8.198652136000935e-05
-0.49588054054329406,-0.49588054054329406,0.9998512666061588,8.345486745815307e-05
-0.49575714856473496,-0.49575714856473496,1.0000606100152605,8.242910818801442e-05
-0.49562435066254695,-0.49562435066254695,0.9998855991538651,8.465360748031967e-05
-0.4954924956058676,-0.4954924956058676,0.9999373217634965,8.32381077747165e-05
-0.4953509782324545,-0.4953509782324545,0.9997945672935327,8.232807841586574e-05
-0.49526134837724384,-0.49526134837724384,1.0000874318339323,8.380283272667042e-05
-0.495193169596314,-0.495193169596314,0.9998140900166452,8.174795767403667e-05
-0.49513398515919105,-0.49513398515919105,0.999942500243091,8.354439369793365e-05
-0.4950009042622696,-0.4950009042622696,1.0000497499055563,8.212696586984594e-05
-0.49493141914135774,-0.49493141914135774,1.0000332468511695,8.383293788341243e-05
-0.49483781321541753,-0.49483781321541753,1.000012622412453,8.069217927604956e-05
-0.49472585906478345,-0.49472585906478345,1.0000184821158427,8.16251923080854e-05
-0.49466321917570893,-0.49466321917570893,0.9998937754509978,8.46008436513385e-05
-0.49456980073882734,-0.49456980073882734,1.0000957700919026,8.258708630420962e-05
-0.4944152969299466,-0.4944152969299466,1.0000304248437994,8.180894022527573e-05
-0.49435858592842125,-0.49435858592842125,1.0000245678621997,8.323196248625701e-05
-0.49426286739835634,-0.49426286739835634,0.9999893649660034,8.309921428308459e-05
-0.49408581276511543,-0.49408581276511543,1.000092237175074,8.0877308685642e-05
-0.49384391230269103,-0.49384391230269103,0.9999369999113055,8.298512844747562e-05
-0.49376304561810686,-0.49376304561810686,1.000026809945802,8.367357666019363e-05
-0.4936213667591801,-0.4936213667591801,0.9998715632295246,8.245789874144443e-05
-0.49356650772169813,-0.49356650772169813,0.9999700666152492,8.211395436077292e-05
-0.493495433798671,-0.493495433798671,1.0000065589233422,8.189638165023811e-05
-0.4933871969798929,-0.4933871969798929,0.9999912561049559,8.234762131030053e-05
-0.49324359247184474,-0.49324359247184474,1.0000416371964165,8.39510878991824e-05
-0.4931524720203015,-0.4931524720203015,1.0001502868531236,8.455129696910741e-05
-0.49305978765696634,-0.49305978765696634,1.000209374228716,8.239305107879673e-05
-0.4929664897048497,-0.4929664897048497,1.0000353244344922,8.362978301732499e-05
-0.4928453535583685,-0.4928453535583685,0.9999775942238776,8.113871718672732e-05
-0.49267874377183035,-0.49267874377183035,1.0000607027620987,8.492114015339336e-05
-0.49248248793373933,-0.49248248793373933,1.0001058734645067,8.298721668182183e-05
-0.492235175838141,-0.492235175838141,0.9998557287582297,8.273200417059489e-05
-0.4920249724826135,-0.4920249724826135,1.000127146465546,8.268886861316633e-05
-0.4919054474121367,-0.4919054474121367,1.0000339577050712,8.133245913043393e-05
-0.4917993774528441,-0.4917993774528441,1.000046465866017,8.471216742145213e-05
-0.49168897086346985,-0.49168897086346985,0.9999017211612239,8.265243470258984e-05
-0.49164153533638455,-0.49164153533638455,1.0000980498491547,8.453462020005303e-05
-0.49150659735751107,-0.49150659735751107,1.000003884488336,8.282687690250178e-05
-0.49142393169386195,-0.49142393169386195,1.0000102661621908,8.190268180935498e-05
-0.4913174054432602,-0.4913174054432602,0.9999311040511344,8.21335856613703e-05
-0.4912280709577317,-0.4912280709577317,0.999927152360377,8.78086857958442e-05
-0.49118762806028826,-0.49118762806028826,0.9999592933175464,7.962178703509136e-05
-0.49111600315591203,-0.49111600315591203,0.9999972709333445,8.358575833454629e-05
-0.49104827461997047,-0.49104827461997047,0.9999328394421028,8.164383927895146e-05
-0.4908143426058814,-0.4908143426058814,1.000029753996555,8.082545679068919e-05
-0.49043808198475747,-0.49043808198475747,1.000002539902836,8.212190665222191e-05
-0.49036898551275954,-0.49036898551275954,1.0000063934566525,8.193423863518275e-05
-0.49024238310958024,-0.49024238310958024,1.000066494349382,8.249994970250128e-05
-0.4901759151092847,-0.4901759151092847,1.0000674959270062,8.437499656491332e-05
-0.4901101012226718,-0.4901101012226718,0.9999766888649455,8.23034757204093e-05
-0.4899259179088403,-0.4899259179088403,1.000123233841902,8.400562921183501e-05
-0.4898239413290867,-0.4898239413290867,0.9999712361420598,8.265501839680112e-05
-0.48972631067808836,-0.48972631067808836,1.0000946015214283,8.25487072122468e-05
-0.48962070137640695,-0.48962070137640695,1.000110439918079,8.224034137020145e-05
-0.4895098903514736,-0.4895098903514736,0.9998966644598497,8.317796332511726e-05
-0.4894268574018497,-0.4894268574018497,0.9999940305923858,8.21265100819965e-05
-0.48930775858170816,-0.48930775858170816,0.9998974979822044,8.163772582318491e-05
-0.489106092939619,-0.489106092939619,1.0001697921110348,8.145609026752032e-05
-0.4889103007662925,-0.4889103007662925,1.0001334460923297,8.240367791277575e-05
-0.48874461839150174,-0.48874461839150174,1.0000672881528723,8.202013467971725e-05
-0.4886620708224655,-0.4886620708224655,1.0001397049976457,8.283372395810604e-05
-0.48855237959432996,-0.48855237959432996,0.9999426678614085,8.280025014009743e-05
-0.4883976480930869,-0.4883976480930869,1.0000146194110417,8.43317680052698e-05
-0.48827858839649707,-0.48827858839649707,1.000012998840215,8.298997213774112e-05
-0.48819338768153103,-0.48819338768153103,0.9999583309536992,8.284355171706164e-05
-0.488106490336213,-0.488106490336213,0.9999862362649748,8.36478889233674e-05
-0.4880372016952606,-0.4880372016952606,1.0000282035526156,8.302768430744169e-05
-0.4879566819181491,-0.4879566819181491,1.0001030872410346,8.353296497005789e-05
-0.4878290335800557,-0.4878290335800557,1.000124369499097,8.249239959322421e-05
-0.48774480506326656,-0.48774480506326656,0.9999493024638492,8.241971126573806e-05
-0.4874831711545994,-0.4874831711545994,1.0000496594520936,8.26235289533024e-05
-0.48735353379597657,-0.48735353379597657,0.9999121676254994,8.058972333155847e-05
-0.48713096383726223,-0.48713096383726223,0.9998934564250372,8.389246383211947e-05
-0.48697387820939186,-0.48697387820939186,1.0001005084686696,8.292622997544462e-05
-0.486856588057708,-0.486856588057708,0.9997854942249665,8.260539298399304e-05
-0.48674552791344466,-0.48674552791344466,0.9999302321907768,8.322797131782456e-05
-0.48663956082018556,-0.48663956082018556,0.999960205518484,8.27100474861461e-05
-0.4865367857069941,-0.4865367857069941,1.0001929796854396,8.188737618362334e-05
-0.48644525250565496,-0.48644525250565496,0.9999547338639221,8.217257294476304e-05
-0.48635140431943,-0.48635140431943,0.9999624054248077,8.305589587617867e-05
-0.48626874977271656,-0.48626874977271656,0.9999973721926565,8.499504319942185e-05
-0.4861372826853767,-0.4861372826853767,0.9998394122322557,8.376107986908697e-05
-0.4860380068748782,-0.4860380068748782,1.0000646067036048,8.044078004428284e-05
-0.48587554464902494,-0.48587554464902494,1.000120686375857,8.155852744424572e-05
-0.4857093467398954,-0.4857093467398954,1.0000966658734263,8.810358383958493e-05
-0.4855668879776204,-0.4855668879776204,1.000066987687929,8.120680237366272e-05
-0.4854445484765165,-0.4854445484765165,1.0000134213182374,8.282579562325418e-05
-0.48526504724795816,-0.48526504724795816,0.9999596676712402,8.473071323742155e-05
-0.48509819181635977,-0.48509819181635977,1.000085034098507,8.298500145868535e-05
-0.4850368466861255,-0.4850368466861255,1.0000862417111764,8.321647127634e-05
-0.4849447292428522,-0.4849447292428522,0.9999943510966831,8.267541433792835e-05
-0.4848442916685599,-0.4848442916685599,1.0000801410659292,8.309814667888633e-05
-0.4847295949177351,-0.4847295949177351,0.999987102605831,8.193287290251473e-05
-0.4845840186426358,-0.4845840186426358,0.9999453525572687,8.293474145513344e-05
-0.4844712763231655,-0.4844712763231655,1.0001707750460924,8.12996517824922e-05
-0.4843972793678404,-0.4843972793678404,1.0000101331727935,8.187183860359633e-05
-0.4842861016157258,-0.4842861016157258,0.9999463318373405,8.099305543158651e-05
-0.48418340925782105,-0.48418340925782105,1.0001368584276278,8.156395962519841e-05
-0.48405035653267986,-0.48405035653267986,0.9999227267263441,8.224623195849686e-05
-0.4839043643667537,-0.4839043643667537,0.9999191380497383,8.48564976828819e-05
-0.4837762436029152,-0.4837762436029152,1.0000009103581369,8.22167340166981e-05
-0.4836251107612043,-0.4836251107612043,0.999982500567063,8.438168921214188e-05
-0.4834966079943115,-0.4834966079943115,0.999940231191714,8.204602995947771e-05
-0.4833876646742283,-0.4833876646742283,0.9999462764409894,8.228319758440845e-05
-0.48332268326921624,-0.48332268326921624,1.000032438648064,8.312689022463743e-05
-0.4832487459963886,-0.4832487459963886,1.000017139916751,8.462847042259941e-05
-0.48312435522311714,-0.48312435522311714,0.9999252070574121,8.299666089048184e-05
-0.48294421186947145,-0.48294421186947145,0.9999309119841484,8.122754567042824e-05
-0.4828058211431198,-0.4828058211431198,1.0000752086960136,8.377817813032772e-05
-0.48274611475499113,-0.48274611475499113,1.0000221651900794,8.230358044913723e-05
-0.4826554122606467,-0.4826554122606467,0.9999492320066606,8.424372340748478e-05
-0.48254005798953586,-0.48254005798953586,0.9999195855339437,8.236055145036887e-05
-0.4823659180598042,-0.4823659180598042,1.0001049965085558,8.586809994389586e-05
-0.48220881519519027,-0.48220881519519027,0.9999010771722409,8.204928344351828e-05
-0.4820604870044917,-0.4820604870044917,0.9999580894521882,8.337353771279107e-05
-0.48192263713863215,-0.48192263713863215,1.0001625091970676,8.233269086381608e-05
-0.4818338561046403,-0.4818338561046403,0.9999891169949915,8.1578253243103e-05
-0.48177138440078127,-0.48177138440078127,1.0001281557276551,8.323788678596407e-05
-0.4816897520002385,-0.4816897520002385,1.0000014023001056,8.21703234316895e-05
-0.4816076784140023,-0.4816076784140023,0.9999916203463792,8.275678838974741e-05
-0.481503653654363,-0.481503653654363,0.9999489107429482,8.324148180617616e-05
-0.48142667630891084,-0.48142667630891084,0.9999526060787911,8.306468638541445e-05
-0.48128813071234616,-0.48128813071234616,0.9999579107931773,8.255786185197011e-05
-0.48114271900485617,-0.48114271900485617,1.0000656834356212,8.255211799794229e-05
-0.48106056813558096,-0.48106056813558096,1.0000254234071388,8.35519724307852e-05
-0.48100060225042396,-0.48100060225042396,0.9999541739060145,8.177162575325378e-05
-0.48091684012906627,-0.48091684012906627,1.0002186059303355,8.418970072452198e-05
-0.4808592803790816,-0.4808592803790816,1.000004586465599,8.362929077082724e-05
-0.48071861901044033,-0.48071861901044033,0.9999222587470605,8.304341600292019e-05
-0.48054476340621477,-0.48054476340621477,0.9999966457828261,8.215625801209631e-05
-0.48040350004594073,-0.48040350004594073,0.9999419595876089,8.098576569888036e-05
-0.4803618043646566,-0.4803618043646566,1.0000062542618315,8.12846439036998e-05
-0.4802836542396108,-0.4802836542396108,1.0000873361036933,8.490241729500094e-05
-0.4802123226232652,-0.4802123226232652,1.0000045324326394,8.185676649449294e-05
-0.48012211164459584,-0.48012211164459584,1.0001026139967804,8.39708149121063e-05
-0.48001398189735484,-0.48001398189735484,1.0002760130582422,8.123812692032922e-05
-0.47987262816022846,-0.47987262816022846,0.9998236326715892,8.266421934002355e-05
-0.47979337473152556,-0.47979337473152556,0.9999662442668182,8.296080030406554e-05
-0.47972546520686593,-0.47972546520686593,1.0000224973292164,8.160418555257304e-05
-0.4796688005568285,-0.4796688005568285,1.0000270344804367,8.357643631363534e-05
-0.47948821472891723,-0.47948821472891723,1.0000155773835273,8.263977940537975e-05
-0.47939415501605254,-0.47939415501605254,0.9997815918853561,8.279455703282107e-05
-0.47934299262997226,-0.47934299262997226,1.00018970990851,8.469355558542068e-05
-0.47918425757816296,-0.47918425757816296,1.0001333593263657,8.320348963318142e-05
-0.4790765675032162,-0.4790765675032162,0.9999968758326947,8.446879505461616e-05
-0.47898278178763576,-0.47898278178763576,1.0000594294223564,8.038542475987287e-05
-0.47888517593746655,-0.47888517593746655,0.999829352986132,8.316056312865452e-05
-0.47878995471910457,-0.47878995471910457,0.9999385686507066,8.413764572807551e-05
-0.47871434367407345,-0.47871434367407345,0.9999441162297966,8.405033869412942e-05
-0.4786145299258351,-0.4786145299258351,1.0000258157669917,8.216914316629932e-05
-0.47844171633551014,-0.47844171633551014,1.0000922848591178,8.188935473706557e-05
-0.4783654369355645,-0.4783654369355645,0.9998978347850457,8.175053916532371e-05
-0.47823816868112773,-0.47823816868112773,0.9999166351171269,8.227198350058417e-05
-0.4782002695443225,-0.4782002695443225,1.0000037037769958,8.437466005818918e-05
-0.47805373282171787,-0.47805373282171787,0.9998734596146273,8.247381173594652e-05
-0.47787807349523065,-0.47787807349523065,0.9999011735281081,8.307952450947872e-05
-0.47770965558956957,-0.47770965558956957,1.00011625317983,8.020408195945351e-05
-0.477577220263629,-0.477577220263629,1.0000225960160989,8.230115650568012e-05
-0.4774277916556457,-0.4774277916556457,0.999923018178548,8.163311693139908e-05
-0.4773377374003758,-0.4773377374003758,0.9999520589130961,8.4811555453935e-05
-0.4772705444294843,-0.4772705444294843,1.0000768104868318,8.070263504895145e-05
-0.4771740047406638,-0.4771740047406638,1.0000947071779873,8.324132786063005e-05
-0.47701693119524863,-0.47701693119524863,0.9999512406738422,8.328341543301658e-05
-0.47692195823619843,-0.47692195823619843,1.0000384285503732,8.126689542610928e-05
-0.47679146837399455,-0.47679146837399455,1.0000048741111196,8.195329441671977e-05
-0.4767245615192223,-0.4767245615192223,1.0001156227315433,8.463257626289078e-05
-0.47663397876603997,-0.47663397876603997,0.9999999202314098,8.171572162681573e-05
-0.47648422382408173,-0.47648422382408173,1.0000145962177336,8.350326347780174e-05
-0.47643598203503645,-0.47643598203503645,0.9999151259014137,8.163279402888827e-05
-0.47629128948101424,-0.47629128948101424,1.0001896620444424,8.264949426316086e-05
-0.4760460165583936,-0.4760460165583936,0.9999646107785953,8.343954026658177e-05
-0.475869411243184,-0.475869411243184,0.9999881524361012,8.290036297135586e-05
-0.47580304653965866,-0.47580304653965866,1.0001069618427496,8.184621918420955e-05
-0.47569534950962405,-0.47569534950962405,0.9999827881725623,8.296359736164421e-05
-0.47563319969485746,-0.47563319969485746,0.9999331627345776,8.265911348142777e-05
-0.4755559097844525,-0.4755559097844525,1.0000105755100333,8.161998617652897e-05
-0.47540505983124604,-0.47540505983124604,1.0000745003540306,8.328128200479448e-05
-0.47526761782792165,-0.47526761782792165,0.9999076095238786,8.38633175087837e-05
-0.47520541703997876,-0.47520541703997876,0.9998721947735522,8.357005485623228e-05
-0.4751186188790598,-0.4751186188790598,1.0001564847051465,8.292238426235e-05
-0.4749973331177898,-0.4749973331177898,1.0001920375441078,8.377962509277883e-05
-0.4749158956881729,-0.4749158956881729,0.9999754108732148,8.243133175066174e-05
-0.4748095453083806,-0.4748095453083806,1.000032568878774,8.340323711801121e-05
-0.4746967863473401,-0.4746967863473401,1.0001545775451532,8.278037557471059e-05
-0.4744465651019709,-0.4744465651019709,1.0000715528750097,8.265651804308026e-05
-0.4741771476714348,-0.4741771476714348,0.9999964992476634,8.307523284140276e-05
-0.4740906797560456,-0.4740906797560456,0.9999614373450367,8.156993030963668e-05
-0.4739877575630089,-0.4739877575630089,0.9999812271100389,8.200310527187228e-05
-0.4738563456601696,-0.4738563456601696,1.0001133725417766,8.468361629272603e-05
-0.4737518814930809,-0.4737518814930809,1.0001688918786455,8.265073339739795e-05
-0.4736900549345592,-0.4736900549345592,1.0001823954230362,8.371796911570117e-05
-0.4735637678255443,-0.4735637678255443,0.9999327955509212,8.349074584238934e-05
-0.47350256257122963,-0.47350256257122963,1.0000815682981998,8.18172562461941e-05
-0.4733752543812443,-0.4733752543812443,1.0001002274849111,8.33644885920961e-05
-0.4732849867461482,-0.4732849867461482,1.0000443201888425,8.114539419888076e-05
-0.47324478320515484,-0.47324478320515484,0.999887703922991,8.33647797143295e-05
-0.4731477715191431,-0.4731477715191431,1.0000520646900641,8.235671641605019e-05
-0.4730184370040661,-0.4730184370040661,1.000056680863295,8.175718570641627e-05
-0.4726430630951654,-0.4726430630951654,0.9999788607256617,8.29018088977581e-05
-0.4724807052531105,-0.4724807052531105,0.9998797187316864,8.346647390910403e-05
-0.4723816981393611,-0.4723816981393611,1.0000697015418962,8.103562228882693e-05
-0.47226932073317585,-0.47226932073317585,0.9999461320768981,8.299174615664218e-05
-0.47223429758741986,-0.47223429758741986,0.9999362832213882,8.40470284034778e-05
-0.47210359484597575,-0.47210359484597575,1.0001556786221644,8.376983080387908e-05
