time,time,flux,flux_err
-0.49993214318480267,-0.49993214318480267,1.0000203996290387,4.353480799781837e-05
-0.49967783467764093,-0.49967783467764093,1.0000451517533724,4.3807815976814955e-05
-0.4993377620600465,-0.4993377620600465,1.0000368350040645,4.353934199813533e-05
-0.49913837769709063,-0.49913837769709063,0.9999689898613642,4.032180403317879e-05
-0.4990336630522506,-0.4990336630522506,1.0000093722247523,4.001895448631624e-05
-0.4989139714089106,-0.4989139714089106,1.000015455699494,4.0242479284023065e-05
-0.49865888521017043,-0.49865888521017043,0.9999914795907994,3.965694759965375e-05
-0.4984788210858824,-0.4984788210858824,0.9999528443937233,3.9658408646190385e-05
-0.4982550940978399,-0.4982550940978399,0.9998994116898203,3.9852865574523634e-05
-0.49801789462508167,-0.49801789462508167,1.000074783214368,3.959385026640696e-05
-0.49783469055910246,-0.49783469055910246,0.999977772706592,3.988273793091053e-05
-0.49767140983458374,-0.49767140983458374,1.0000277149083434,4.008277688242275e-05
-0.4974343228248472,-0.4974343228248472,1.0000009537475825,3.954630931989101e-05
-0.4972069236835523,-0.4972069236835523,1.0000167897002379,3.992066983054849e-05
-0.49703763197321676,-0.49703763197321676,0.9999900557763206,4.016648189496786e-05
-0.4969488119393645,-0.4969488119393645,1.0000226953436664,3.940307483492823e-05
-0.49680777228932127,-0.49680777228932127,1.0000151135793467,3.9851514164791095e-05
-0.4965760596387554,-0.4965760596387554,0.9999622014948845,4.0039549852379706e-05
-0.4964270936281537,-0.4964270936281537,0.9999455415780186,4.009627404447016e-05
-0.4962540744847502,-0.4962540744847502,1.0000015191923395,3.9814856384343826e-05
-0.49616401387174847,-0.49616401387174847,0.9999700514287072,3.9938103768030867e-05
-0.49605444700137014,-0.49605444700137014,1.0000270813521797,3.9948756230604157e-05
-0.49591517957815084,-0.49591517957815084,1.0000253978805063,3.969054772907325e-05
-0.49574134977156065,-0.49574134977156065,1.0000132155282715,3.974836453545201e-05
-0.495621469336038,-0.495621469336038,0.9999522428610919,3.944832208787863e-05
-0.49545321069599596,-0.49545321069599596,1.000019736202054,3.9737464349925985e-05
-0.49520692927762866,-0.49520692927762866,1.0000088406352687,4.005275323702021e-05
-0.49495037660526575,-0.49495037660526575,1.0000135509032904,4.00833461261587e-05
-0.49474838257883674,-0.49474838257883674,0.9999815844986382,4.030580832626332e-05
-0.4945682388395653,-0.4945682388395653,0.9999678835921422,3.9395314958141895e-05
-0.49439385428631794,-0.49439385428631794,1.0000232789921533,3.972129213684958e-05
-0.4941917449250468,-0.4941917449250468,0.999974770491667,3.9759477031939615e-05
-0.49393901542789537,-0.49393901542789537,1.0000102340418058,4.0029188552701006e-05
-0.4936560160691442,-0.4936560160691442,1.000081474136336,4.0329014520733804e-05
-0.4934262622678943,-0.4934262622678943,1.0000172733658819,3.981136377806481e-05
-0.4932865984912496,-0.4932865984912496,1.0000375961610106,3.994829220997454e-05
-0.49319727931797386,-0.49319727931797386,1.0000008478883256,3.9848943599972466e-05
-0.49301037813129367,-0.49301037813129367,0.9999988890396629,3.959222335939245e-05
-0.49279933606958365,-0.49279933606958365,0.999935912252797,3.997248300946706e-05
-0.4924434424145147,-0.4924434424145147,0.9999731100446526,4.024989463798944e-05
-0.49228054010818595,-0.49228054010818595,0.9999833158319298,3.959886382982798e-05
-0.4920860074365919,-0.4920860074365919,1.0000294822368043,3.974784788393343e-05
-0.4918554984178627,-0.4918554984178627,0.9999273162137892,4.0152713123120225e-05
-0.49164898902163257,-0.49164898902163257,1.0000703312388473,4.002246499218847e-05
-0.4914690873687505,-0.4914690873687505,1.0000739135405916,3.977674480924519e-05
-0.49125134259156766,-0.49125134259156766,1.000063223908613,3.968994592299609e-05
-0.4910377988773689,-0.4910377988773689,0.9999980726270239,3.9979383663447486e-05
-0.49081141242859305,-0.49081141242859305,1.0000664793027332,4.0008733830277374e-05
-0.4906850128514634,-0.4906850128514634,1.000054833352366,3.993976205384036e-05
-0.4904405033637886,-0.4904405033637886,0.9999900040462467,3.9858469445794e-05
-0.4903009590016154,-0.4903009590016154,0.9999911613952058,3.99837259249462e-05
-0.4902312276586599,-0.4902312276586599,0.999908482364426,4.004548195264223e-05
-0.4899786828602373,-0.4899786828602373,0.9999751608693064,3.9333099281608865e-05
-0.48978382647110263,-0.48978382647110263,0.9999235327809439,3.9545204583957903e-05
-0.48945329867638065,-0.48945329867638065,1.000015735887668,3.997755236164789e-05
-0.48923191345093076,-0.48923191345093076,1.0000426666941078,3.98488440271758e-05
-0.489085574803903,-0.489085574803903,1.00001866514666,3.9856169919571624e-05
-0.48898346509304247,-0.48898346509304247,1.000054481859228,4.091091977795131e-05
-0.4888135652625351,-0.4888135652625351,1.0000150437142419,3.969657452936782e-05
-0.4886055323324399,-0.4886055323324399,1.0000137502227864,3.971630603724951e-05
-0.4883857026965416,-0.4883857026965416,0.9999777219131566,4.0003495813292796e-05
-0.4881799138871429,-0.4881799138871429,0.9999714307364089,3.992913829195191e-05
-0.48804613568572675,-0.48804613568572675,1.0000383333489928,4.006308871378038e-05
-0.48791123105402223,-0.48791123105402223,0.9999981342613481,4.0075101955472946e-05
-0.48781947924871927,-0.48781947924871927,0.9999818104259555,3.996088720963609e-05
-0.4877052683237707,-0.4877052683237707,1.0000347084798853,3.9587828137304445e-05
-0.4874914009800705,-0.4874914009800705,1.0000066204870082,3.987355287285387e-05
-0.4872143818902259,-0.4872143818902259,0.9999246173714951,3.957454230981947e-05
-0.4869413723194157,-0.4869413723194157,0.9999987837438995,3.971713422306761e-05
-0.48671858387679096,-0.48671858387679096,1.0000749914561733,3.9781340221568777e-05
-0.48658245716869714,-0.48658245716869714,0.9999756968423318,4.0124315534106226e-05
-0.48642581360254555,-0.48642581360254555,0.9999109184547116,4.0212114796564955e-05
-0.4862797478970606,-0.4862797478970606,0.9999972570766008,3.955158052366645e-05
-0.4860348788017291,-0.4860348788017291,1.0000242976647207,3.990373866404544e-05
-0.4859201399704034,-0.4859201399704034,1.0000041710954026,3.996114524865194e-05
-0.48579428615557846,-0.48579428615557846,0.9999946729599125,3.971480758063905e-05
-0.4856120065036521,-0.4856120065036521,0.9999805405509802,4.028112938986614e-05
-0.4854520630244224,-0.4854520630244224,1.0000162605261806,3.9767730655283435e-05
-0.4852864153799601,-0.4852864153799601,0.9999542327945662,4.006691764416973e-05
-0.4851266206103901,-0.4851266206103901,1.0000255718310738,3.9320946588629505e-05
-0.48500914524120164,-0.48500914524120164,1.0000123066882018,3.999989060641354e-05
-0.4849225286307046,-0.4849225286307046,1.0000227074549355,4.041921619257494e-05
-0.4847309468066669,-0.4847309468066669,1.0000585594878706,3.958405839802837e-05
-0.4845678910256538,-0.4845678910256538,1.0000425859564301,3.966264573097833e-05
-0.48440323349495884,-0.48440323349495884,0.9999930005542325,3.949751365559618e-05
-0.4842042820571805,-0.4842042820571805,1.000026245772449,3.941036870082644e-05
-0.48405632711655927,-0.48405632711655927,1.0000554264960748,3.977154016641786e-05
-0.48385892022342886,-0.48385892022342886,1.000042960070637,4.011290801878257e-05
-0.4836267108148604,-0.4836267108148604,0.9999866532795524,4.004882960037424e-05
-0.48346010212480905,-0.48346010212480905,0.9999713143218243,3.9696173123899826e-05
-0.48322768830694257,-0.48322768830694257,1.0000411484783465,3.9830717370391676e-05
-0.48305439404211936,-0.48305439404211936,1.0000041582253023,3.982256769982851e-05
-0.48286511691330813,-0.48286511691330813,0.9999400985358069,4.002853069962093e-05
-0.48262162630198874,-0.48262162630198874,1.000003810856266,4.013395019747291e-05
-0.48242853758929416,-0.48242853758929416,1.0000325305754678,4.011164296614134e-05
-0.48218112693939474,-0.48218112693939474,1.0000932861933307,3.9776730943692305e-05
-0.482043850064656,-0.482043850064656,1.000025356871075,4.0107316595837194e-05
-0.48194290904139053,-0.48194290904139053,0.9999664734481565,3.9837527561183675e-05
-0.4818054360926908,-0.4818054360926908,1.0000540930694863,3.955435538143648e-05
-0.481560141184309,-0.481560141184309,0.9999972053395529,3.9664992757717164e-05
-0.4813322619942483,-0.4813322619942483,1.000042968631283,4.025366925974256e-05
-0.48104837117571153,-0.48104837117571153,0.9998883238729814,3.969272980859937e-05
-0.4808982615322748,-0.4808982615322748,1.0000046742654276,3.9912505662978076e-05
-0.48076807112811365,-0.48076807112811365,0.9999201684407568,3.940226030457569e-05
-0.48063243977085224,-0.48063243977085224,0.9999718133757399,4.012000678406432e-05
-0.480400806068792,-0.480400806068792,1.0000626699162596,4.000293440855391e-05
-0.4802447700574703,-0.4802447700574703,1.0000353243261024,3.988838712545241e-05
-0.4800202134945721,-0.4800202134945721,0.9999544181877511,3.991018852228625e-05
-0.47988319669893825,-0.47988319669893825,0.999956879178464,4.0273219998060485e-05
-0.4797019448669744,-0.4797019448669744,0.9999786509501849,3.968330290356702e-05
-0.479531785632571,-0.479531785632571,0.9999990653273659,3.9880057272200496e-05
-0.4793629545034491,-0.4793629545034491,0.9999978725481699,3.97603880487053e-05
-0.47925478612814915,-0.47925478612814915,0.9999869303865105,3.970474463339386e-05
-0.4791254434749135,-0.4791254434749135,1.0000102658563657,3.984979932518521e-05
-0.4789976404281333,-0.4789976404281333,0.9999815910598452,3.9893767673230274e-05
-0.4787680506815377,-0.4787680506815377,1.0000043387679456,3.957624238662405e-05
-0.4785372457547055,-0.4785372457547055,1.0000107393198225,3.9589723611309974e-05
-0.47829183433714206,-0.47829183433714206,1.0000708170501544,3.980701465519773e-05
-0.47807898516839487,-0.47807898516839487,1.0000877625908378,3.982156669125505e-05
-0.4779956612575916,-0.4779956612575916,0.9999994926739948,3.958229567440254e-05
-0.477854328493413,-0.477854328493413,0.9999870917227389,4.0378711129052724e-05
-0.47774101841423544,-0.47774101841423544,0.9999695896591303,4.039430681637486e-05
-0.47762026105992844,-0.47762026105992844,1.0000229954478974,3.911894299341706e-05
-0.4774355936940992,-0.4774355936940992,1.0000059763922384,3.98144599223191e-05
-0.4772722261332092,-0.4772722261332092,1.0000002505538865,3.9983103976440616e-05
-0.47710803449590455,-0.47710803449590455,0.9999861829258408,4.027937481935823e-05
-0.47691278610291193,-0.47691278610291193,0.999971388744469,3.989854497009084e-05
-0.4767264893234824,-0.4767264893234824,1.000029227117715,4.0198896910908306e-05
-0.4765637122633052,-0.4765637122633052,1.0000448068824492,3.963596547085719e-05
-0.47630289704029566,-0.47630289704029566,1.0000065315705973,3.968331981423689e-05
-0.47610847605756135,-0.47610847605756135,0.9999325030980533,3.967803746942723e-05
-0.4758764682475885,-0.4758764682475885,0.999938267444394,3.984573469779076e-05
-0.47556984242910405,-0.47556984242910405,0.99997727685461,3.981285992471436e-05
-0.4753622578289651,-0.4753622578289651,1.0000277864145597,4.0240730886994665e-05
-0.4752575107377197,-0.4752575107377197,1.0000461471812865,3.99831728955725e-05
-0.47516194952186197,-0.47516194952186197,1.0000232524655375,4.001671976257996e-05
-0.4750092197158665,-0.4750092197158665,1.0000293951586947,3.959335664821294e-05
-0.47484295914910035,-0.47484295914910035,0.9999997522162196,3.963644383171881e-05
-0.4747324353462318,-0.4747324353462318,0.9999705907413295,3.990489211110959e-05
-0.47457441735896283,-0.47457441735896283,1.0000326509040853,3.985388922809666e-05
-0.474327790854295,-0.474327790854295,1.0000259923937156,4.0176444198865864e-05
-0.4740457716034143,-0.4740457716034143,0.9999746307902779,3.986019251157612e-05
-0.4739034025595174,-0.4739034025595174,0.9999286566446338,4.0030544731053364e-05
-0.47377469074126566,-0.47377469074126566,1.0000207188347803,4.006790018081512e-05
-0.4736279451848532,-0.4736279451848532,0.9999639788643636,3.9875901619957195e-05
-0.47340147223585516,-0.47340147223585516,0.9999335707300444,3.9452547554156206e-05
-0.4732717866587336,-0.4732717866587336,1.0000055169303552,4.056038784772355e-05
-0.47310681076196487,-0.47310681076196487,1.0000219462275577,3.959855112513123e-05
-0.4728404590925493,-0.4728404590925493,1.0000477637557996,3.970120167474796e-05
-0.4726013959007105,-0.4726013959007105,1.000038911946423,4.0088051823124364e-05
-0.4724490097432863,-0.4724490097432863,1.0000639263366295,4.020702374063912e-05
-0.47216810079771676,-0.47216810079771676,0.9999961529564555,3.9975490173817154e-05
-0.47191797872728786,-0.47191797872728786,1.0000211034441535,3.992129995208921e-05
-0.4717922943542362,-0.4717922943542362,1.0000545976878092,3.985403002232728e-05
-0.4715373880651896,-0.4715373880651896,1.0000745931275965,3.9884578140498386e-05
-0.47135218209878077,-0.47135218209878077,0.9998858670443715,4.032042783487841e-05
-0.47123463395182624,-0.47123463395182624,1.0000356671800157,3.9925058397299605e-05
-0.47103556796428164,-0.47103556796428164,0.9999532808444827,3.955337493772888e-05
-0.4709281433846627,-0.4709281433846627,0.9999780254746107,3.985661543841441e-05
-0.4708181314083049,-0.4708181314083049,1.0001265658814937,4.005001913656168e-05
-0.4707067261821066,-0.4707067261821066,1.0000015011184602,3.995184487398325e-05
-0.4705411514994921,-0.4705411514994921,1.0000234770849494,3.951018697237298e-05
-0.4703601801447803,-0.4703601801447803,0.999967087141971,3.982992452513097e-05
-0.4701940248669416,-0.4701940248669416,0.9999257150642504,4.02682800678066e-05
-0.4698625893688586,-0.4698625893688586,1.0000632147258295,3.995035015552164e-05
-0.46958932690686195,-0.46958932690686195,1.0000672254728982,3.9838265779078935e-05
-0.46943411890315473,-0.46943411890315473,0.9999992442228114,3.9724462716037125e-05
-0.46926191656748417,-0.46926191656748417,1.0000747980516065,3.9781260184602525e-05
-0.4691025489701133,-0.4691025489701133,1.0000866995214355,4.024075560235905e-05
-0.46887456470576583,-0.46887456470576583,1.0000187167916477,3.965867779028857e-05
-0.4686355880679912,-0.4686355880679912,0.9999643265842227,3.9943566718501087e-05
-0.4684189771563979,-0.4684189771563979,0.999985612512658,4.038752810622068e-05
-0.4682842536582029,-0.4682842536582029,1.0000463472717303,3.9648730632659954e-05
-0.4681333740358241,-0.4681333740358241,1.0000317232759228,4.004780917056531e-05
-0.46801045668835284,-0.46801045668835284,1.0000182815914826,3.961342225120449e-05
-0.46787953156526785,-0.46787953156526785,1.0000403013948174,3.9898240037205136e-05
-0.4676812183912261,-0.4676812183912261,0.9999901381555052,3.952125264431256e-05
-0.46736288054016767,-0.46736288054016767,0.9999971374972677,3.964085074845946e-05
-0.46712333169489284,-0.46712333169489284,0.999959953824618,3.9761179628951525e-05
-0.4669437245531299,-0.4669437245531299,1.000020738281997,3.9822540539469046e-05
-0.4667663417611038,-0.4667663417611038,1.000003111014405,3.9513815351541775e-05
-0.4666499549377477,-0.4666499549377477,0.9999313487374948,4.038249254982845e-05
-0.4664973522543733,-0.4664973522543733,0.999935504847603,4.012885103456521e-05
-0.46628130457902445,-0.46628130457902445,1.0000006475851715,3.994800378265583e-05
-0.4660546969185816,-0.4660546969185816,0.9999235520843127,3.9896210635138636e-05
-0.4659268376410182,-0.4659268376410182,0.9999427502966045,3.936229541763312e-05
-0.46577427642114344,-0.46577427642114344,0.9999839131919144,3.9854142161024775e-05
-0.46561699015073826,-0.46561699015073826,0.9999637133392971,3.960662189684465e-05
-0.4655491660741973,-0.4655491660741973,1.0000620494820531,3.9829985174204e-05
-0.4654493020934751,-0.4654493020934751,0.9999307011677996,4.016830054666531e-05
-0.465308936672227,-0.465308936672227,1.0000344452535006,3.986551541044286e-05
-0.46514942833018724,-0.46514942833018724,1.0000807964717364,4.000071416224254e-05
-0.4650426112675632,-0.4650426112675632,1.000073689544768,4.005266398417464e-05
-0.4649099409565679,-0.4649099409565679,1.0000229115434613,3.958771285764276e-05
-0.4646764561846794,-0.4646764561846794,1.0000140535671374,3.963827141788345e-05
-0.46446275884736676,-0.46446275884736676,0.9999643642084391,3.995637406189806e-05
-0.46417008103380797,-0.46417008103380797,1.0000619317345498,3.9970003143142964e-05
-0.4639874378030072,-0.4639874378030072,1.0000813029559066,4.036906245763644e-05
-0.46383837180255794,-0.46383837180255794,0.9999551067350169,4.006299720518621e-05
-0.46366632556091647,-0.46366632556091647,1.000011088592245,3.9984719229679234e-05
-0.4635303781280527,-0.4635303781280527,1.0000171148641257,3.963200477951656e-05
-0.463378827041015,-0.463378827041015,0.9999913997943345,3.987638391136148e-05
-0.46299746185686674,-0.46299746185686674,0.9999165820912783,3.9920456081070124e-05
-0.4627949775553134,-0.4627949775553134,1.0000249896940339,4.0159960808757526e-05
-0.46264811048313276,-0.46264811048313276,1.0000337407642965,4.0049141803257446e-05
-0.46254518695277513,-0.46254518695277513,1.0000230766014844,4.019682490749671e-05
-0.4623595199365809,-0.4623595199365809,0.9999920378863763,3.975527396195425e-05
-0.4621230660100991,-0.4621230660100991,1.0001293343277742,3.9750306784047944e-05
-0.46192364578018896,-0.46192364578018896,0.9999753168162323,3.954863683776828e-05
-0.461690409109724,-0.461690409109724,1.0000159800780841,3.96971200469386e-05
-0.4614774374720582,-0.4614774374720582,1.0000865950633635,3.986015384533622e-05
-0.4612935689263395,-0.4612935689263395,0.9999956199872722,4.025921814171189e-05
-0.46110379761012155,-0.46110379761012155,1.0000185064113578,3.934215880997723e-05
-0.46086132991767953,-0.46086132991767953,1.000019252370961,4.008386749663616e-05
-0.46066853714655737,-0.46066853714655737,0.9999196710726629,4.001359163591988e-05
-0.46056474220458765,-0.46056474220458765,1.0000367375191295,3.971281201433881e-05
-0.46040456254559103,-0.46040456254559103,0.9999619818527966,4.0060001195746436e-05
-0.4601763116639631,-0.4601763116639631,1.000010465777342,4.0262349991607156e-05
-0.460042669752147,-0.460042669752147,1.0000407591239735,4.005184033170595e-05
-0.45984050176120944,-0.45984050176120944,0.9999136766361547,3.981225259269714e-05
-0.459727469086647,-0.459727469086647,1.0000133114533638,4.0067285266817514e-05
-0.4595631546450022,-0.4595631546450022,1.000065211594864,3.9777862066237455e-05
-0.459457308826677,-0.459457308826677,0.999983375554949,3.986094965407189e-05
-0.4592813328556076,-0.4592813328556076,1.0000016910217666,3.9583447783506614e-05
-0.45909223885682876,-0.45909223885682876,0.9999608792569792,3.9712086700071285e-05
-0.45884697902583865,-0.45884697902583865,0.999993000683638,3.9692601480518426e-05
-0.45857542080775604,-0.45857542080775604,1.0000791649101965,3.97714829908102e-05
-0.45841335172153774,-0.45841335172153774,0.9999882341380799,4.025557059370698e-05
-0.4582525553560117,-0.4582525553560117,0.9999355610349682,3.9614290652513915e-05
-0.4581220382198808,-0.4581220382198808,0.9999881121528411,3.978681386821719e-05
-0.4579095288463577,-0.4579095288463577,1.0000262647193778,3.98769469767124e-05
-0.4576376843710023,-0.4576376843710023,0.9999728259363938,3.981137409269984e-05
-0.4573826749488944,-0.4573826749488944,1.000000557047318,4.013465126190747e-05
-0.4571687092859065,-0.4571687092859065,1.0000440717007375,4.00643254554374e-05
-0.4570022657448135,-0.4570022657448135,1.000048868072714,3.977094429589066e-05
-0.4568773587088799,-0.4568773587088799,0.9999866154146122,3.9738652812085515e-05
-0.4567789597931551,-0.4567789597931551,1.0000433372593576,4.01173718204959e-05
-0.45655490412391375,-0.45655490412391375,1.0000138593625496,3.976581438543366e-05
-0.4563464402592217,-0.4563464402592217,1.00001625130347,3.9872677433403116e-05
-0.45606483463998304,-0.45606483463998304,0.9999976669372941,3.967229470006578e-05
-0.4558501208492089,-0.4558501208492089,1.000016410193208,3.969611554990713e-05
-0.45566345965780786,-0.45566345965780786,0.9999441730257237,3.9596701863810104e-05
-0.4554646658012643,-0.4554646658012643,0.9999185360735874,4.0216995791356636e-05
-0.4552877502377669,-0.4552877502377669,0.9999632752948665,4.0361910997276024e-05
