time,time,flux,flux_err
-0.499186679750693,-0.499186679750693,1.0000694003787438,6.876937663434375e-05
-0.4973167230548559,-0.4973167230548559,1.0000322229498793,6.875540247764911e-05
-0.49550072689953595,-0.49550072689953595,0.9999757317920243,6.877787637170549e-05
-0.49385787907400525,-0.49385787907400525,1.0000671588630543,6.273458583868595e-05
-0.49239503366115966,-0.49239503366115966,1.0001213757109486,6.274351494723876e-05
-0.49080459010310734,-0.49080459010310734,1.000063331789867,6.278245532963392e-05
-0.4889577595201331,-0.4889577595201331,0.9999874822989365,6.279329754312299e-05
-0.4875017773632635,-0.4875017773632635,0.9998977655698817,6.273642028507511e-05
-0.48605588007727646,-0.48605588007727646,0.9999941395670977,6.274338628719104e-05
-0.48443155099980684,-0.48443155099980684,0.9998504681607882,6.277618739129314e-05
-0.48311366698387703,-0.48311366698387703,0.999937859286519,6.2716633017713e-05
-0.4815443149877524,-0.4815443149877524,1.0000228548831616,6.274079863626632e-05
-0.4801123750253396,-0.4801123750253396,1.0000202226256159,6.278358287889513e-05
-0.47838103535052595,-0.47838103535052595,1.000047821191051,6.278534179062568e-05
-0.4771411310452208,-0.4771411310452208,1.0000073607945157,6.267339831262298e-05
-0.47570546371040334,-0.47570546371040334,1.0001764919954428,6.27830814329025e-05
-0.47411892898809355,-0.47411892898809355,0.9998911425983312,6.277309154143989e-05
-0.4727759035542022,-0.4727759035542022,1.00005244311008,6.267954714815177e-05
-0.4714027515132216,-0.4714027515132216,0.9999807575137899,6.274871781636516e-05
-0.46957392337139936,-0.46957392337139936,0.9998862887856491,6.280390090315217e-05
-0.46824171360526634,-0.46824171360526634,1.000018004960557,6.26878566103176e-05
-0.4666994232807838,-0.4666994232807838,1.0000861477188663,6.274182765069826e-05
-0.4652028519539385,-0.4652028519539385,1.0000117319709672,6.275760695055334e-05
-0.46361803983962774,-0.46361803983962774,1.0000014456291537,6.2791812891068e-05
-0.46215384457645997,-0.46215384457645997,1.0000186496428256,6.273339566610537e-05
-0.46063974461271756,-0.46063974461271756,1.0000061793766704,6.27457297625616e-05
-0.4591088946236027,-0.4591088946236027,1.0000563863359102,6.27756981004372e-05
-0.45746508800854147,-0.45746508800854147,1.0000707433022764,6.278870108704127e-05
-0.4559275223829786,-0.4559275223829786,0.9999289231531885,6.269392704468546e-05
-0.4541963545413751,-0.4541963545413751,0.9999326646150518,6.277811404332515e-05
-0.45268551472341867,-0.45268551472341867,1.0000554708554623,6.279262443134501e-05
-0.4509753864205209,-0.4509753864205209,1.0000238311108984,6.274647953829061e-05
-0.44970078804421976,-0.44970078804421976,1.000003979840227,6.272730919425153e-05
-0.44826116322169585,-0.44826116322169585,0.999931744202976,6.278213113218521e-05
-0.4470386894628405,-0.4470386894628405,1.0000142010192252,6.269597618244706e-05
-0.4455877505698709,-0.4455877505698709,0.9998532491983173,6.276860554243299e-05
-0.4442881588230307,-0.4442881588230307,0.9999415265630912,6.2759207230992e-05
-0.4430628355282238,-0.4430628355282238,1.0000456786791287,6.271128446224243e-05
-0.44150106498317426,-0.44150106498317426,1.0000555910179652,6.278734797736922e-05
-0.4401902783260653,-0.4401902783260653,0.9999688846371371,6.26990699725942e-05
-0.43885542563418767,-0.43885542563418767,0.9999897977356218,6.276946760184777e-05
-0.43725714061578175,-0.43725714061578175,0.9999868549039801,6.27676961852754e-05
-0.4360950068605575,-0.4360950068605575,1.0000643906475537,6.271891551888373e-05
-0.4345163205289168,-0.4345163205289168,1.0000551133622753,6.277142975536895e-05
-0.43324146080256015,-0.43324146080256015,1.0001759943135446,6.274901583382034e-05
-0.43182233583876267,-0.43182233583876267,0.9998925002003869,6.274231946787372e-05
-0.4302111148671884,-0.4302111148671884,0.9999773246801367,6.27712812737603e-05
-0.42871593311791684,-0.42871593311791684,1.0000522865965231,6.273865173415529e-05
-0.427584935624634,-0.427584935624634,1.00001194561064,6.274531613354398e-05
-0.4259737086611494,-0.4259737086611494,1.0000319093113854,6.277135409256003e-05
-0.42446017338343156,-0.42446017338343156,0.9999250602684974,6.27675154376109e-05
-0.42299845665203295,-0.42299845665203295,1.000022239973966,6.277417216124799e-05
-0.42147482172125594,-0.42147482172125594,0.9999644898464817,6.273924803113076e-05
-0.4199075821093402,-0.4199075821093402,1.000008545105323,6.279296835695443e-05
-0.4184299230388433,-0.4184299230388433,1.0000398928514829,6.278588020155775e-05
-0.41705504163110163,-0.41705504163110163,0.9999746901736192,6.26655097954798e-05
-0.4156701512350992,-0.4156701512350992,1.0000372217427902,6.279553248719247e-05
-0.41419253136041334,-0.41419253136041334,0.9999638315495201,6.27830299816748e-05
-0.41272013588301204,-0.41272013588301204,0.9999867801866686,6.274755410864768e-05
-0.4111886344643153,-0.4111886344643153,0.9999424728805252,6.272009219345847e-05
-0.4098756548464621,-0.4098756548464621,1.0000563851509132,6.276224911557052e-05
-0.4085776593174387,-0.4085776593174387,1.0000014818800966,6.270072771380381e-05
-0.4070909800963477,-0.4070909800963477,1.00003874410017,6.279430709439559e-05
-0.40555350320992145,-0.40555350320992145,1.0000433466669434,6.276223142043378e-05
-0.404039296120402,-0.404039296120402,0.9999850548361875,6.277829909501293e-05
-0.40266301875942645,-0.40266301875942645,1.000030306352873,6.271561264548919e-05
-0.4013161005805614,-0.4013161005805614,1.000007538133676,6.276160050806496e-05
-0.39980188718947146,-0.39980188718947146,0.9999426067208047,6.277876792272903e-05
-0.3982373990683527,-0.3982373990683527,0.9999761525279645,6.274798075000434e-05
-0.3967438651197199,-0.3967438651197199,0.9998106773333146,6.277809036973946e-05
-0.39544347170200356,-0.39544347170200356,0.9999551018957492,6.271827489329322e-05
-0.3939152691337199,-0.3939152691337199,1.000113498492658,6.275299777793624e-05
-0.39267359460985746,-0.39267359460985746,1.0000400128508993,6.273071757372776e-05
-0.39124232033216233,-0.39124232033216233,0.9999965591905691,6.277649619705969e-05
-0.3896778885014555,-0.3896778885014555,1.0001195611940012,6.275360143164295e-05
-0.38826905064587436,-0.38826905064587436,1.0001320149129695,6.278607664120627e-05
-0.38670710486397863,-0.38670710486397863,0.9999633636676697,6.272438279719789e-05
-0.3853543647105312,-0.3853543647105312,0.9999642046115579,6.275478672688106e-05
-0.3835682374970702,-0.3835682374970702,0.999966546532977,6.273720127110779e-05
-0.38210970302538955,-0.38210970302538955,0.9999469168208617,6.279414420598723e-05
-0.3806778605311365,-0.3806778605311365,1.0000166426883126,6.273182226170863e-05
-0.379330859950619,-0.379330859950619,0.9999375939418578,6.273434215284992e-05
-0.37787227273086044,-0.37787227273086044,0.9999711571513487,6.279697734277069e-05
-0.37624189197512126,-0.37624189197512126,1.0000156409136376,6.277558453760969e-05
-0.3747705522200704,-0.3747705522200704,0.9999692878316854,6.275830406614718e-05
-0.37334513229881167,-0.37334513229881167,0.999993256960477,6.276822928657419e-05
-0.37175326778678935,-0.37175326778678935,0.9998491057484648,6.278804299893206e-05
-0.3702183593269524,-0.3702183593269524,1.0001421402448032,6.276330940277805e-05
-0.36846621971963034,-0.36846621971963034,0.9999927412760504,6.27351911231136e-05
-0.367005082765138,-0.367005082765138,0.9999711040605044,6.27908376695042e-05
-0.36545238225445476,-0.36545238225445476,1.0000640086672345,6.27370225178824e-05
-0.36411650373352134,-0.36411650373352134,0.9999997106023901,6.27591700118761e-05
-0.3628340254669865,-0.3628340254669865,1.0001665946899494,6.274138096965074e-05
-0.3612251409540136,-0.3612251409540136,1.0000181278552365,6.278819769985368e-05
-0.3599352652635616,-0.3599352652635616,1.0000092666361022,6.268457772355454e-05
-0.3584455140370551,-0.3584455140370551,0.9999690095408118,6.279248491254847e-05
-0.35679897319997733,-0.35679897319997733,0.9998417305457101,6.27456317996022e-05
-0.35527859833835007,-0.35527859833835007,0.9999160571639972,6.275186478803407e-05
-0.35352299862630615,-0.35352299862630615,0.9999535271177967,6.276086941347665e-05
-0.35198860712279156,-0.35198860712279156,1.0000413027639372,6.27740557308449e-05
-0.350396713574537,-0.350396713574537,1.00017056714205,6.280102635720705e-05
-0.34893879695870283,-0.34893879695870283,1.0000600299893811,6.274792260296125e-05
-0.3475092525937612,-0.3475092525937612,1.0000512136267925,6.272053752537688e-05
-0.3461593025921161,-0.3461593025921161,1.0000036658259197,6.279852829496804e-05
-0.3447013980515862,-0.3447013980515862,0.9999668476414802,6.274536966925373e-05
-0.3432362034748394,-0.3432362034748394,0.999915394853575,6.274842698297208e-05
-0.34168461906126596,-0.34168461906126596,0.9999840287495758,6.280104108404191e-05
-0.3401151396296768,-0.3401151396296768,1.0000797719888077,6.277960280400713e-05
-0.3386242926799241,-0.3386242926799241,1.000003442530017,6.276009685529191e-05
-0.33715768914411226,-0.33715768914411226,1.0000211109927168,6.277207289955597e-05
-0.33539627673100086,-0.33539627673100086,1.0000258020144348,6.280242320376775e-05
-0.3340025503199513,-0.3340025503199513,0.9999838603911921,6.268656761750613e-05
-0.3328515580406588,-0.3328515580406588,1.0000037763595058,6.279589982864135e-05
-0.3310956625927247,-0.3310956625927247,0.9998706464533808,6.274895460242283e-05
-0.3300656710862654,-0.3300656710862654,0.9999891885234293,6.274144023069618e-05
-0.32852708386111545,-0.32852708386111545,0.9999778654848999,6.278598925442229e-05
-0.32715856282407,-0.32715856282407,0.9999396155267293,6.274838601717678e-05
-0.32610204779093693,-0.32610204779093693,0.9999370581440796,6.27519780425307e-05
-0.32445138902439796,-0.32445138902439796,1.0000685750340186,6.27709732727005e-05
-0.32313869200136197,-0.32313869200136197,0.999993897187467,6.278627831463645e-05
-0.32191835520094403,-0.32191835520094403,0.9999887137695627,6.271781903657117e-05
-0.3204127233625968,-0.3204127233625968,1.0000064779756705,6.280676641524737e-05
-0.31916891923492585,-0.31916891923492585,0.9999497031197959,6.27400169837974e-05
-0.3178219054044916,-0.3178219054044916,1.0000547564864166,6.276196069322741e-05
-0.3164224837379834,-0.3164224837379834,1.0000056122478902,6.277526104361973e-05
-0.3152543958273554,-0.3152543958273554,1.0000577601764553,6.274994826000724e-05
-0.313775439185531,-0.313775439185531,0.9998849908219893,6.277956228196738e-05
-0.3124411706796309,-0.3124411706796309,1.0000232718708597,6.277103288966376e-05
-0.3111724272420361,-0.3111724272420361,0.9999661966681656,6.270869525293797e-05
-0.30981914980588954,-0.30981914980588954,0.9999410115933955,6.280496317623882e-05
-0.3084059733000345,-0.3084059733000345,0.9999927931954968,6.273052655717505e-05
-0.30714195035020564,-0.30714195035020564,1.0000849098263687,6.27640654450224e-05
-0.3056950833554765,-0.3056950833554765,0.9999807484035053,6.276805859469452e-05
-0.30440674691981257,-0.30440674691981257,1.0000871422482351,6.274713049108301e-05
-0.3031819240073446,-0.3031819240073446,1.0000880098797875,6.278720528695074e-05
-0.3016612140353345,-0.3016612140353345,1.000093336342396,6.277293035204679e-05
-0.30035391614449053,-0.30035391614449053,0.9999971735714503,6.275325537203924e-05
-0.29912866461148724,-0.29912866461148724,0.9999314526669772,6.276280630933785e-05
-0.2975582840096081,-0.2975582840096081,1.0000033345163226,6.2734180419208e-05
-0.296463751953479,-0.296463751953479,0.9999121794496286,6.276172237996896e-05
-0.29498287920580424,-0.29498287920580424,0.9999498656218438,6.27680451043813e-05
-0.29366515636304485,-0.29366515636304485,1.0000198517299186,6.276884471369323e-05
-0.29256710067838865,-0.29256710067838865,0.9999534072947279,6.275474056587046e-05
-0.2908982099688501,-0.2908982099688501,0.9999919443973218,6.277023283797694e-05
-0.28976046797959043,-0.28976046797959043,0.9999680033373443,6.275099789489128e-05
-0.28851820743157075,-0.28851820743157075,1.0000322935996375,6.276626949904744e-05
-0.2869309361480873,-0.2869309361480873,1.00000405483606,6.273265743607124e-05
-0.28587030042293693,-0.28587030042293693,0.9999867386902144,6.276380821119008e-05
-0.2843098256413441,-0.2843098256413441,0.9999199564599671,6.280198848569984e-05
-0.2829816950204645,-0.2829816950204645,0.999988994435802,6.273290318119058e-05
-0.28180415061500524,-0.28180415061500524,1.0000120953335974,6.275922893055084e-05
-0.2802349064906139,-0.2802349064906139,1.0001041999988518,6.277974323070429e-05
-0.2788639281614678,-0.2788639281614678,0.9998171748839837,6.273348056856259e-05
-0.27775748903666225,-0.27775748903666225,1.0001243790276582,6.278584756670919e-05
-0.2760672952653408,-0.2760672952653408,1.0000200563441308,6.277366083274778e-05
-0.2750791215497088,-0.2750791215497088,0.9999548031516377,6.27045893373219e-05
-0.27372796524623483,-0.27372796524623483,0.9999697320241244,6.277063927431955e-05
-0.27263546839501485,-0.27263546839501485,1.000094416213249,6.274189421222638e-05
-0.271401380637883,-0.271401380637883,0.9999506501834128,6.277977954579879e-05
-0.27010671804106323,-0.27010671804106323,0.9999749287149011,6.271786837192721e-05
-0.26901618351171236,-0.26901618351171236,1.0000876911408416,6.276210310899544e-05
-0.26776198048623884,-0.26776198048623884,0.9999860945935243,6.277119136269114e-05
-0.26660612299618835,-0.26660612299618835,0.9999483436255785,6.269948124883832e-05
-0.26540393101729476,-0.26540393101729476,1.0000136440285519,6.277885077005543e-05
-0.26416573064483373,-0.26416573064483373,1.0000281681940197,6.270220277126766e-05
-0.2631226781286955,-0.2631226781286955,0.9999920261988879,6.280271453098355e-05
-0.2617189633583621,-0.2617189633583621,1.0000188390211266,6.27365864768488e-05
-0.2607867267241318,-0.2607867267241318,1.000068415088125,6.275526634333547e-05
-0.25929607917182695,-0.25929607917182695,0.9999219014153102,6.278075945322533e-05
-0.25838562727146835,-0.25838562727146835,1.000043964318022,6.270099335342556e-05
-0.2569290851909841,-0.2569290851909841,1.0000357359653396,6.278248291736179e-05
-0.25599612593372284,-0.25599612593372284,0.9999771283887015,6.270121278001669e-05
-0.2546478164444125,-0.2546478164444125,0.999909305270017,6.27988955041683e-05
-0.25351123305814555,-0.25351123305814555,1.000072075709482,6.271275356017003e-05
-0.2523330473748956,-0.2523330473748956,1.0000342272541158,6.277991087886854e-05
-0.25102152718466186,-0.25102152718466186,0.999961293890097,6.271974376457699e-05
-0.24994790596537086,-0.24994790596537086,0.9999783930200566,6.276308364865873e-05
-0.24860891453772638,-0.24860891453772638,1.0000629791449085,6.277296904772535e-05
-0.24762271529900773,-0.24762271529900773,0.999924963417628,6.269962853646199e-05
-0.2462507791526832,-0.2462507791526832,0.9999553007370933,6.277937192545737e-05
-0.2452332679255619,-0.2452332679255619,1.0000887800849672,6.270687837014958e-05
-0.24385823245925167,-0.24385823245925167,1.0000043038075936,6.27775888944434e-05
-0.24276710218150582,-0.24276710218150582,0.9999947118416065,6.272157581219759e-05
-0.24149301077933388,-0.24149301077933388,0.999912067379312,6.278284411575113e-05
-0.24036846105511814,-0.24036846105511814,1.0000374225394144,6.27483369023443e-05
-0.2391767217426491,-0.2391767217426491,0.9999508987940079,6.273439751403136e-05
-0.23800144063877723,-0.23800144063877723,1.0000016109166525,6.27498076839934e-05
-0.2368737641489588,-0.2368737641489588,0.9999957085005586,6.272825606128178e-05
-0.23563368975546836,-0.23563368975546836,0.9999085204341543,6.27769527175987e-05
-0.23449393901966004,-0.23449393901966004,1.000046949558707,6.272266154974673e-05
-0.233179966850048,-0.233179966850048,0.9999774447078226,6.277497731729013e-05
-0.2320888914382749,-0.2320888914382749,0.9999577340991053,6.273900982883239e-05
-0.2307948812305085,-0.2307948812305085,1.0000189319248274,6.275601394543307e-05
-0.22968795599615532,-0.22968795599615532,1.0001116139350805,6.274229828809343e-05
-0.228441113355359,-0.228441113355359,0.9999557312258013,6.274671428958395e-05
-0.22728629646418314,-0.22728629646418314,1.0000179125691493,6.278372142823879e-05
-0.2259426570958567,-0.2259426570958567,1.0000767553404581,6.277058053349584e-05
-0.224620410383568,-0.224620410383568,1.0000301488757548,6.277365425560259e-05
-0.2232272941756719,-0.2232272941756719,0.9999511883816,6.274001255187123e-05
-0.22196469896288135,-0.22196469896288135,1.0001791163927585,6.281918594833206e-05
-0.2206607103689066,-0.2206607103689066,1.0000058543898722,6.27348432540519e-05
-0.21952277959397862,-0.21952277959397862,0.9999316233188523,6.281669900740013e-05
-0.2179979495079351,-0.2179979495079351,1.000049356183733,6.275744537479552e-05
-0.21674365396926304,-0.21674365396926304,0.9999229149554832,6.281687150065248e-05
-0.21553207893050513,-0.21553207893050513,1.0000073584360774,6.27546469603085e-05
-0.21432741216995055,-0.21432741216995055,0.9999822857789775,6.279681086293773e-05
-0.21308740382072527,-0.21308740382072527,1.0000083790393088,6.283565826792639e-05
-0.2118743006877139,-0.2118743006877139,1.0001079778506958,6.277099455065437e-05
-0.2107155356852445,-0.2107155356852445,0.9999331580548979,6.280856460786556e-05
-0.20943841324608456,-0.20943841324608456,0.9999806245778846,6.275632222530378e-05
-0.20832202107861802,-0.20832202107861802,0.9999656033872132,6.283306359030723e-05
-0.20706032624342469,-0.20706032624342469,1.000022677772248,6.273132912431628e-05
-0.20592981536590288,-0.20592981536590288,1.0000913284805677,6.28383069573663e-05
-0.20475582346000465,-0.20475582346000465,1.000022526341547,6.282912544453856e-05
-0.20350995633301636,-0.20350995633301636,1.000023474057135,6.274341410532903e-05
-0.20240150817777475,-0.20240150817777475,1.0000465051483853,6.284370153340435e-05
-0.2009636258684168,-0.2009636258684168,1.0000073037566777,6.275643278301779e-05
-0.19993201574582145,-0.19993201574582145,1.000002147331266,6.28383557833442e-05
-0.19858555017727894,-0.19858555017727894,0.9998944628505605,6.272876533752526e-05
-0.19740417314149,-0.19740417314149,1.0000291455048935,6.283872791563221e-05
-0.19628109140967354,-0.19628109140967354,1.000104384673218,6.284574059953036e-05
-0.1950351527861926,-0.1950351527861926,0.9999768634615978,6.274090905167634e-05
-0.19392674284252961,-0.19392674284252961,1.0000864476001294,6.286491439389097e-05
-0.19267804760775106,-0.19267804760775106,0.999965542948232,6.277498648712225e-05
-0.19154562054166036,-0.19154562054166036,0.9999886092546755,6.284637744116491e-05
-0.19037014222176368,-0.19037014222176368,0.9999975548221262,6.275714352015218e-05
-0.18910127549503386,-0.18910127549503386,0.9999629021770673,6.287278150316632e-05
-0.18799208060879663,-0.18799208060879663,0.9999436830082151,6.273300397384493e-05
-0.1866920342545882,-0.1866920342545882,0.9999465517216025,6.288165083895418e-05
-0.18568767711819872,-0.18568767711819872,0.9999566462214968,6.289593259456008e-05
-0.1842721509808257,-0.1842721509808257,1.0000376694429847,6.274545382046319e-05
-0.18323290164413492,-0.18323290164413492,1.0000817681092669,6.293362125471177e-05
-0.18187981378960102,-0.18187981378960102,1.0000496800533296,6.27744941308695e-05
-0.1807670407290857,-0.1807670407290857,1.000027151725903,6.292285797313441e-05
-0.17952353996082593,-0.17952353996082593,0.99995129133487,6.275211298539938e-05
-0.17816639334280354,-0.17816639334280354,1.0000129406559697,6.295939248578802e-05
-0.17721294633511206,-0.17721294633511206,0.9999403789989575,6.298758847551578e-05
-0.17579734794486512,-0.17579734794486512,1.0000607985121488,6.274586840977219e-05
-0.17476754008156375,-0.17476754008156375,1.0000412114226895,6.30024637173334e-05
-0.1734464408823669,-0.1734464408823669,0.9999965333387836,6.279842855946091e-05
-0.17236319581849102,-0.17236319581849102,1.0000599122688767,6.299851514564344e-05
-0.17116183762436776,-0.17116183762436776,1.0000390766169946,6.278688373876791e-05
-0.16983277718574072,-0.16983277718574072,0.9999615135925286,6.303345874513821e-05
-0.16881904447099033,-0.16881904447099033,1.0000187516256474,6.276755773956614e-05
