time,time,flux,flux_err
-0.498140945474006,-0.498140945474006,0.9999995781672545,9.023274233359681e-05
-0.4962401536383065,-0.4962401536383065,1.0000083844587786,9.055768782274308e-05
-0.4944862954762357,-0.4944862954762357,1.000044313376107,9.020880496323913e-05
-0.49303098987074917,-0.49303098987074917,1.0000608002179212,8.275498136687921e-05
-0.4918297090327542,-0.4918297090327542,1.0000748348731197,8.230147082035808e-05
-0.49076938631988015,-0.49076938631988015,1.0000880192001302,8.249860318906434e-05
-0.49001022444135744,-0.49001022444135744,1.0001165406427828,8.273146412519298e-05
-0.4891276914131595,-0.4891276914131595,0.9999942815342606,8.224037827531363e-05
-0.4884844511085248,-0.4884844511085248,0.9998365021831821,8.254557691893426e-05
-0.48772701813722963,-0.48772701813722963,0.9998655592837146,8.240141418274652e-05
-0.48601924514368877,-0.48601924514368877,1.0000333056833708,8.251801246470823e-05
-0.48454512507742037,-0.48454512507742037,0.999993150166334,8.284771202266273e-05
-0.48312131604980096,-0.48312131604980096,0.9999006492178033,8.238538955100955e-05
-0.4818931517889723,-0.4818931517889723,0.9999803484800658,8.23202631915063e-05
-0.4809785662924696,-0.4809785662924696,1.0000835401681598,8.236009509936636e-05
-0.48005368198573706,-0.48005368198573706,1.0000176181873093,8.226811206201703e-05
-0.47842564224338274,-0.47842564224338274,0.9999587573553411,8.237800243223423e-05
-0.4762398092847434,-0.4762398092847434,0.999999577278742,8.234497203817383e-05
-0.4747577377289417,-0.4747577377289417,0.9999585352501841,8.239495720364287e-05
-0.47340694785743836,-0.47340694785743836,1.0001061542543233,8.231179837475637e-05
-0.4725282860803418,-0.4725282860803418,1.0002385692300326,8.257738595077016e-05
-0.471643242011487,-0.471643242011487,1.0000015056522777,8.231014933079139e-05
-0.4690914353021071,-0.4690914353021071,0.9999469614025853,8.240339510886798e-05
-0.4672412992520549,-0.4672412992520549,1.0000203600401316,8.239679419943848e-05
-0.4658294288579782,-0.4658294288579782,0.9999866965150318,8.237883332417768e-05
-0.4644653392941109,-0.4644653392941109,0.9999820849224644,8.227363210794164e-05
-0.4633185975551896,-0.4633185975551896,1.0000064248145568,8.237606500046673e-05
-0.46209669850868523,-0.46209669850868523,1.0000377677830743,8.257563326306413e-05
-0.4598045333135815,-0.4598045333135815,0.999794987242999,8.233174222091718e-05
-0.4582139654281491,-0.4582139654281491,0.9999581199886386,8.228373322385187e-05
-0.4572644128020329,-0.4572644128020329,0.9999326897977138,8.238855585517515e-05
-0.45559125237559783,-0.45559125237559783,1.0000568628085769,8.224941504440467e-05
-0.45464763746495007,-0.45464763746495007,1.0000618057076216,8.245532133415347e-05
-0.45321087932679804,-0.45321087932679804,0.9998272028098126,8.265904574748788e-05
-0.452086280813819,-0.452086280813819,0.9999689054885028,8.258923201848987e-05
-0.4510577785418718,-0.4510577785418718,1.0000520863676399,8.231280416773205e-05
-0.44955020958004754,-0.44955020958004754,1.0000647373044165,8.287006112795124e-05
-0.4482819403288886,-0.4482819403288886,0.9999494994406246,8.2344331973341e-05
-0.44733434072550154,-0.44733434072550154,0.9998968227953602,8.262549164490921e-05
-0.4465110206983809,-0.4465110206983809,1.0001161071454345,8.235125868878549e-05
-0.44565237272836383,-0.44565237272836383,1.0000995174816545,8.252422676305028e-05
-0.4439426374883624,-0.4439426374883624,1.000110919944699,8.250966593765859e-05
-0.44199180410505506,-0.44199180410505506,0.9999848503034965,8.235377048152076e-05
-0.44088957043495614,-0.44088957043495614,0.9999537251920823,8.282770128395758e-05
-0.43962997147100397,-0.43962997147100397,1.0001675607528582,8.239725432060879e-05
-0.4384807367285248,-0.4384807367285248,1.000146817345809,8.23143933205757e-05
-0.4373347953762277,-0.4373347953762277,1.0000083279601069,8.231979940952799e-05
-0.43556086725511706,-0.43556086725511706,0.9999102798661454,8.25164397302857e-05
-0.4329923366152798,-0.4329923366152798,0.9999445317402899,8.236635067876721e-05
-0.4318402373653953,-0.4318402373653953,0.9999918370485522,8.246891836643795e-05
-0.4305827102733019,-0.4305827102733019,0.9999154685252822,8.227102332740583e-05
-0.42966917864687276,-0.42966917864687276,1.0001068274245029,8.258663134925578e-05
-0.4287561757540971,-0.4287561757540971,1.0001059107930574,8.231290615103209e-05
-0.4270796996745048,-0.4270796996745048,1.0001128957833192,8.259424902671683e-05
-0.4257665438533877,-0.4257665438533877,0.9999856505314405,8.231985462031112e-05
-0.4238834718176804,-0.4238834718176804,1.000029027365424,8.237235761583224e-05
-0.4219473806348105,-0.4219473806348105,1.0000271482040035,8.228037391880903e-05
-0.42065797061950433,-0.42065797061950433,0.9999923240477173,8.2455191825927e-05
-0.41959332916594577,-0.41959332916594577,0.9998270222096981,8.251743347113314e-05
-0.41728088165618826,-0.41728088165618826,0.999914239429132,8.233369275623698e-05
-0.41533833803332526,-0.41533833803332526,1.000074205645644,8.228838561299617e-05
-0.4145153663601377,-0.4145153663601377,1.000087659005299,8.268451089404564e-05
-0.4136034336210287,-0.4136034336210287,1.0000557754444983,8.234598089575451e-05
-0.4124828305670235,-0.4124828305670235,0.9999948342908187,8.2349813588521e-05
-0.4115979945287108,-0.4115979945287108,1.0000190606992756,8.246067300186701e-05
-0.4104596841338207,-0.4104596841338207,1.000104394529122,8.253939342723261e-05
-0.4086668097952497,-0.4086668097952497,0.9999760091575279,8.254253881497458e-05
-0.40714240804809376,-0.40714240804809376,1.0000701124357256,8.292607175776305e-05
-0.405865651887143,-0.405865651887143,0.9999634452869332,8.226128219864294e-05
-0.4046049053715251,-0.4046049053715251,1.0000426752827736,8.232038314367274e-05
-0.40360201409057483,-0.40360201409057483,0.9999657780882508,8.236535303578913e-05
-0.4028567682937137,-0.4028567682937137,1.000048504813054,8.237592092678069e-05
-0.40136426427416155,-0.40136426427416155,1.0000936206661657,8.25209809765683e-05
-0.3998157005058601,-0.3998157005058601,0.9999721891081211,8.227852347400746e-05
-0.3982896948480629,-0.3982896948480629,0.9998811041725503,8.286717422361566e-05
-0.396441864658118,-0.396441864658118,0.9998286900583089,8.230524178980796e-05
-0.39532662411074854,-0.39532662411074854,0.999985113109968,8.238814742836265e-05
-0.39405693680091647,-0.39405693680091647,1.0000315142524623,8.228261416701744e-05
-0.3905990152117738,-0.3905990152117738,1.000096846017946,8.232203199194997e-05
-0.3892365414561937,-0.3892365414561937,1.0000886597795737,8.239502578615198e-05
-0.38784169560894954,-0.38784169560894954,0.9999447428174995,8.239065387695104e-05
-0.38696514403927723,-0.38696514403927723,0.9999479202870539,8.236229839218903e-05
-0.3858691646884836,-0.3858691646884836,1.0002246044352519,8.231463231802734e-05
-0.3842839121323777,-0.3842839121323777,1.000010048854544,8.308622318000593e-05
-0.3828838598368748,-0.3828838598368748,1.0002077001836844,8.233807751699708e-05
-0.3812008105276618,-0.3812008105276618,1.0000801185998018,8.236736959814378e-05
-0.3786434864654439,-0.3786434864654439,1.0000736842157487,8.235415247699895e-05
-0.3771059731414425,-0.3771059731414425,1.0000459931495347,8.234006412862736e-05
-0.3758344333720743,-0.3758344333720743,1.0001159165618798,8.274949402209445e-05
-0.37461931377401925,-0.37461931377401925,1.0001537670903842,8.233732010182682e-05
-0.37329797804850384,-0.37329797804850384,0.9999773217667925,8.271919763121053e-05
-0.37208994890243047,-0.37208994890243047,0.9999752619266864,8.242000630862435e-05
-0.37112948655922084,-0.37112948655922084,0.9999781413714937,8.24959413649625e-05
-0.3703998007447808,-0.3703998007447808,0.9999005803838301,8.267455658979598e-05
-0.36963710298005026,-0.36963710298005026,0.9999513898068049,8.231871312394815e-05
-0.36890597729870933,-0.36890597729870933,1.0000810534343212,8.252023989869088e-05
-0.3683319849093095,-0.3683319849093095,1.000113038756325,8.245547748018788e-05
-0.3668051999695308,-0.3668051999695308,1.000233509459705,8.253504346583927e-05
-0.3652092521726445,-0.3652092521726445,1.000166325347308,8.27058794025873e-05
-0.3643149732968595,-0.3643149732968595,1.0000716077043683,8.283245201533385e-05
-0.36292228944003,-0.36292228944003,0.9999063103864806,8.23673856035683e-05
-0.36172290871472795,-0.36172290871472795,0.9997522741730689,8.230494666010934e-05
-0.36058060156865396,-0.36058060156865396,0.9999772698634055,8.232563305884177e-05
-0.3591830330522498,-0.3591830330522498,0.9998897057038241,8.228528327947372e-05
-0.35703808356483935,-0.35703808356483935,1.0001435745965928,8.241159990336581e-05
-0.355451513085427,-0.355451513085427,1.0000854711473064,8.244288334762178e-05
-0.35395285570411944,-0.35395285570411944,0.9998760171130643,8.229836594529778e-05
-0.3529722490879067,-0.3529722490879067,1.000019990346791,8.254265897621478e-05
-0.35200412942504045,-0.35200412942504045,1.000069157279434,8.231318467698486e-05
-0.3494516176921024,-0.3494516176921024,1.000190496211772,8.241695349838281e-05
-0.34776782352128066,-0.34776782352128066,0.9999981059203942,8.240923055372455e-05
-0.34638879569101844,-0.34638879569101844,0.9999318844787156,8.240882912377226e-05
-0.34483866999216845,-0.34483866999216845,1.0000666015674025,8.229343582194897e-05
-0.34390093083056855,-0.34390093083056855,0.999895505960608,8.239712407503114e-05
-0.3427891494655341,-0.3427891494655341,1.0000003079097302,8.226093717048727e-05
-0.34064388827173386,-0.34064388827173386,1.0000879789898551,8.262790958082717e-05
-0.33857342675401014,-0.33857342675401014,1.0001081450138265,8.228861252206682e-05
-0.33762415748497004,-0.33762415748497004,1.0001795192715632,8.240006134047604e-05
-0.33609437916893514,-0.33609437916893514,1.0000384257137473,8.225117094189165e-05
-0.3350073503796011,-0.3350073503796011,1.000062047813764,8.245655198210912e-05
-0.333571148365445,-0.333571148365445,1.0000635483736282,8.267247174191154e-05
-0.3323681630237843,-0.3323681630237843,0.9999419623951704,8.261085318230375e-05
-0.3312562636710936,-0.3312562636710936,0.9999595519561965,8.225745963196549e-05
-0.32991003224233284,-0.32991003224233284,1.000000851414752,8.286724761576637e-05
-0.32864126431013574,-0.32864126431013574,0.9998608742279972,8.233740925646111e-05
-0.3276953731896356,-0.3276953731896356,0.9999659472378596,8.263014874771805e-05
-0.3268713324148848,-0.3268713324148848,1.0001924589382363,8.23556619193276e-05
-0.3260122175292054,-0.3260122175292054,0.9999544431731622,8.251990264572008e-05
-0.32409859866456825,-0.32409859866456825,0.9998958612134722,8.250285115369966e-05
-0.3221519198275928,-0.3221519198275928,1.0000633100244745,8.235536746499555e-05
-0.32122464229541947,-0.32122464229541947,0.9999849055968546,8.281826916028472e-05
-0.3197734436747851,-0.3197734436747851,1.0000085974025739,8.238030258257427e-05
-0.318593686982058,-0.318593686982058,1.0001137414844365,8.237395996794881e-05
-0.31748732996566104,-0.31748732996566104,0.9999654305814338,8.228954886418394e-05
-0.31482035090230054,-0.31482035090230054,1.000127200847465,8.24698568302248e-05
-0.31318032855851924,-0.31318032855851924,1.000040082592768,8.235793282380554e-05
-0.3120568040103535,-0.3120568040103535,1.00017114427362,8.237391183445666e-05
-0.31070530442011657,-0.31070530442011657,1.0000356787525477,8.229176311339607e-05
-0.309919789552805,-0.309919789552805,0.999909179799444,8.259079583174254e-05
-0.30888878810656023,-0.30888878810656023,0.9999342042967146,8.227888753000653e-05
-0.3075190106967057,-0.3075190106967057,1.000063627446478,8.270015741228197e-05
-0.3063437161152251,-0.3063437161152251,1.0000587644336814,8.229080491253254e-05
-0.30424230835269556,-0.30424230835269556,1.000034045024576,8.237432966214267e-05
-0.30194654086735684,-0.30194654086735684,0.9999876655771847,8.227396801545661e-05
-0.3009812715179578,-0.3009812715179578,0.9999404347783981,8.246919378432908e-05
-0.29938822949916355,-0.29938822949916355,1.0000898294171734,8.256931593646785e-05
-0.29719148905569454,-0.29719148905569454,1.0000614240816588,8.238613352105182e-05
-0.2956977852401906,-0.2956977852401906,0.9999150250808096,8.228167659580886e-05
-0.29484060089307607,-0.29484060089307607,0.9998792203874804,8.246217913051235e-05
-0.29378891460437445,-0.29378891460437445,0.9998160864447879,8.24269976409343e-05
-0.2926467151242832,-0.2926467151242832,1.0001166169085827,8.228919263278749e-05
-0.29180707116029225,-0.29180707116029225,1.0000575504671232,8.243203529833244e-05
-0.2904482309204468,-0.2904482309204468,1.0001789084642443,8.279521103375458e-05
-0.2888553441262047,-0.2888553441262047,1.0000776035657748,8.229142450610425e-05
-0.28750246753770625,-0.28750246753770625,0.9999027243771174,8.291967831319204e-05
-0.2861636766057927,-0.2861636766057927,0.9999831024270073,8.22692698502211e-05
-0.28505413402599517,-0.28505413402599517,0.9998821233677335,8.256219860767672e-05
-0.2841212118692056,-0.2841212118692056,1.000048184578204,8.231942176282496e-05
-0.2832909964483406,-0.2832909964483406,0.9999053770061355,8.236410016557187e-05
-0.2815744997205911,-0.2815744997205911,1.0000926099424337,8.239110828228585e-05
-0.27973507044880536,-0.27973507044880536,1.0000155910298645,8.233799494243644e-05
-0.2783655252736935,-0.2783655252736935,0.9999642921690981,8.281809905181569e-05
-0.2768313529064471,-0.2768313529064471,1.0001088160261635,8.229945485144071e-05
-0.2757099680500687,-0.2757099680500687,0.9998406525645935,8.235447053615747e-05
-0.27441675593072434,-0.27441675593072434,1.000206610694984,8.228992672873304e-05
-0.2716078548328369,-0.2716078548328369,1.0000038715669728,8.231182148983261e-05
-0.2697126237559132,-0.2697126237559132,0.9999393565688927,8.244142709583578e-05
-0.26820131802669495,-0.26820131802669495,1.0000893368734165,8.240765370075111e-05
-0.26734325260986225,-0.26734325260986225,1.0001074647113608,8.249671550256608e-05
-0.26685439701759606,-0.26685439701759606,0.999970786824913,8.229474028559268e-05
-0.26563653064731624,-0.26563653064731624,0.999936482363981,8.261857591516071e-05
-0.2638715395129111,-0.2638715395129111,1.0001636826672138,8.231232643931698e-05
-0.2619570107068284,-0.2619570107068284,0.9998506364660417,8.23503203890181e-05
-0.2597460481039889,-0.2597460481039889,0.9999558470768687,8.232276340289976e-05
-0.25809244911943097,-0.25809244911943097,1.0000235105257298,8.243711746041098e-05
-0.25636572551957215,-0.25636572551957215,1.0000998490842055,8.271665423078155e-05
-0.25484247478452743,-0.25484247478452743,1.00001668557223,8.228453572600963e-05
-0.2533808300744568,-0.2533808300744568,1.0001384830303377,8.271141517925742e-05
-0.2521606728041661,-0.2521606728041661,1.0001214727693144,8.237553364849345e-05
-0.2514077367923164,-0.2514077367923164,0.9999032533596814,8.250732824636707e-05
-0.25059881032866543,-0.25059881032866543,1.000115027347499,8.272953670846378e-05
-0.24984984458351392,-0.24984984458351392,1.0000510844703336,8.223909810136305e-05
-0.24920344564088737,-0.24920344564088737,0.9999429665157187,8.254905990848132e-05
-0.24844559742487035,-0.24844559742487035,0.9999213893241257,8.240425093308154e-05
-0.2467372131148295,-0.2467372131148295,0.9999775684551666,8.25182758977122e-05
-0.24543836969460245,-0.24543836969460245,1.0000736451604697,8.27543486325184e-05
-0.24440841671894303,-0.24440841671894303,1.0000726579780115,8.278719101343487e-05
-0.2428012169773865,-0.2428012169773865,1.000196155818361,8.23211176606883e-05
-0.24160095262195683,-0.24160095262195683,1.0001033951085838,8.235493695123186e-05
-0.2405874899333867,-0.2405874899333867,0.9999600015058547,8.231776608361414e-05
-0.2391460641469166,-0.2391460641469166,1.0000663044959643,8.238199315300005e-05
-0.23722497005510376,-0.23722497005510376,1.0000298418636393,8.230339570523391e-05
-0.2360492382773373,-0.2360492382773373,0.9999659592545918,8.242986603244525e-05
-0.23454287171625765,-0.23454287171625765,1.0000096193029222,8.233691585795896e-05
-0.2336175504118728,-0.2336175504118728,1.0000847353109257,8.253056670993967e-05
-0.2328021399465797,-0.2328021399465797,0.9999466359766199,8.23789891383195e-05
-0.23148442629608326,-0.23148442629608326,0.9999309996776266,8.267991328356962e-05
-0.2294896011611854,-0.2294896011611854,1.0000960002894472,8.24585428140051e-05
-0.2278187703632284,-0.2278187703632284,1.000025561370736,8.247584832730521e-05
-0.22615214704273967,-0.22615214704273967,1.0000374655994722,8.239169415333971e-05
-0.22471294430142735,-0.22471294430142735,1.0000052933575143,8.232813648517919e-05
-0.22357870129926596,-0.22357870129926596,0.9999784356151619,8.235366738403042e-05
-0.22156967845803593,-0.22156967845803593,1.000078186717106,8.258401446840523e-05
-0.2192593558160297,-0.2192593558160297,0.9999649756035062,8.232197312904119e-05
-0.21822608718357514,-0.21822608718357514,0.9999446550333996,8.237279850894956e-05
-0.21680646717795754,-0.21680646717795754,0.9997520782820052,8.224201730490343e-05
-0.21536706329789013,-0.21536706329789013,0.9999844823910753,8.245561769987733e-05
-0.21393141771914087,-0.21393141771914087,1.0000817289026815,8.267811029226655e-05
-0.21255348999693524,-0.21255348999693524,1.0001140453483486,8.232884994473534e-05
-0.21144317184080136,-0.21144317184080136,0.999944483856589,8.270605155431858e-05
-0.20993288850586395,-0.20993288850586395,0.9999098149840195,8.245301998192438e-05
-0.20881625943511609,-0.20881625943511609,1.0001561164286976,8.232820420320498e-05
-0.20785234407376266,-0.20785234407376266,0.9999773472173157,8.263850520300292e-05
-0.2071685773153149,-0.2071685773153149,1.0001145317725748,8.232442681861464e-05
-0.2063720626545546,-0.2063720626545546,1.0000486796187444,8.252564176691705e-05
-0.2044575019433978,-0.2044575019433978,1.000296110967645,8.252011786520236e-05
-0.20258209973180782,-0.20258209973180782,1.000116925646687,8.234204489915558e-05
-0.20130600105621851,-0.20130600105621851,0.9997239716259951,8.281149910579943e-05
-0.20013344155086088,-0.20013344155086088,0.9998977958679343,8.238071120163244e-05
-0.1989541565810214,-0.1989541565810214,0.9999964142894002,8.236979963961399e-05
-0.19789106077587348,-0.19789106077587348,1.0000953451349972,8.227446767760002e-05
-0.1959163854466169,-0.1959163854466169,0.9999770496556929,8.24102665553854e-05
-0.19353866897290573,-0.19353866897290573,0.9999848374554953,8.235419401309486e-05
-0.19259524663211777,-0.19259524663211777,1.0001381770971014,8.238987103768373e-05
-0.19130242587998508,-0.19130242587998508,1.0000637659837195,8.227489514620314e-05
-0.19038698873628163,-0.19038698873628163,1.0000757143203383,8.258965774363215e-05
-0.1894779364585702,-0.1894779364585702,1.0000104692532672,8.231026429728488e-05
-0.1882474574049411,-0.1882474574049411,0.9998965830991697,8.290033931422865e-05
-0.1869079108670121,-0.1869079108670121,1.00013368357432,8.230869336751713e-05
-0.1852880912963883,-0.1852880912963883,0.9999332546653832,8.240360911571574e-05
-0.18319083767783012,-0.18319083767783012,1.0000577052000195,8.231200615493581e-05
-0.18161856045553576,-0.18161856045553576,0.999940987582043,8.237520500413863e-05
-0.18043569779983953,-0.18043569779983953,0.9999095667528783,8.238778116872658e-05
-0.1783644187475147,-0.1783644187475147,0.9998865740555078,8.259699907196881e-05
-0.1765607938490575,-0.1765607938490575,1.000020428506449,8.24138701815647e-05
-0.1754481325930101,-0.1754481325930101,1.000080044042111,8.232512614829919e-05
-0.17425618523993763,-0.17425618523993763,1.0000841311687256,8.244699039625594e-05
-0.17300751595394104,-0.17300751595394104,0.9999077558896557,8.231313442678749e-05
-0.17216675866875447,-0.17216675866875447,0.9998540193947585,8.239404144128208e-05
-0.1708087005208654,-0.1708087005208654,1.0000120751851067,8.279405610592865e-05
-0.1692768758664897,-0.1692768758664897,1.0001786137246511,8.232326969258434e-05
-0.16808091410639464,-0.16808091410639464,0.9999966782239744,8.298026406779933e-05
-0.16673749338224297,-0.16673749338224297,1.0000226473879663,8.232025916394905e-05
-0.16532541487977143,-0.16532541487977143,0.9999657001978324,8.231642850486065e-05
