time,time,flux,flux_err
-0.498476159456186,-0.498476159456186,0.9999334150579233,0.00022988498104946413
-0.4975147485383786,-0.4975147485383786,0.9999665493625983,0.00023068798373128475
-0.4960177522545564,-0.4960177522545564,1.0001681860611815,0.00023064536780597196
-0.4949941219048924,-0.4949941219048924,0.9999074617315641,0.0002294283849767936
-0.4936932062948472,-0.4936932062948472,0.9999831624110842,0.00023010168425685552
-0.49260126966109963,-0.49260126966109963,1.0000457751541232,0.00023087069415671054
-0.49075588399136905,-0.49075588399136905,0.9999057314447297,0.00022988783249764804
-0.4890352431451902,-0.4890352431451902,0.9997828245572846,0.0002292658786420694
-0.4870663377267192,-0.4870663377267192,0.999667407364513,0.00023031765223270584
-0.48629500164388445,-0.48629500164388445,0.9997613447510181,0.00022999745411016268
-0.48482202473678626,-0.48482202473678626,0.9999309946490689,0.0002299560309676709
-0.4831425833835965,-0.4831425833835965,1.0001610307298694,0.00023048430997346563
-0.48015998963819584,-0.48015998963819584,1.0001170772380383,0.00023079009744204839
-0.47853720900602637,-0.47853720900602637,0.9996542079050801,0.00022954500343268783
-0.477727035083808,-0.477727035083808,1.0000516981395158,0.0002306925635713126
-0.4770955610583769,-0.4770955610583769,0.9999852017811361,0.0002304416041688675
-0.47623790909710806,-0.47623790909710806,1.000258034886251,0.000229237329219505
-0.4750731261025066,-0.4750731261025066,0.9998249177309055,0.00023029433044575577
-0.4734112984529929,-0.4734112984529929,0.9999613508131114,0.0002299514835945246
-0.47211737274337795,-0.47211737274337795,0.999779017794026,0.0002308899488050869
-0.47146185617748415,-0.47146185617748415,0.9998676820281064,0.00023033051384511717
-0.46997099496802547,-0.46997099496802547,1.0001208763024714,0.00022936803678573768
-0.4688779033967876,-0.4688779033967876,1.000014351480558,0.0002305822717807457
-0.4672341581870569,-0.4672341581870569,0.9994847042284322,0.00023078734045097949
-0.46556135928840375,-0.46556135928840375,0.9998941625873741,0.00022919526492901678
-0.4631263704606681,-0.4631263704606681,0.9996327821695431,0.00022993326166949145
-0.46169513714994537,-0.46169513714994537,0.999913070058256,0.00023092117897553603
-0.46062785747781165,-0.46062785747781165,0.9996286224807356,0.00023052605415244202
-0.45918572704395044,-0.45918572704395044,0.9996377871225102,0.000228800285058973
-0.45819185450673106,-0.45819185450673106,0.9998983368913367,0.00022967230374761703
-0.45710634225979446,-0.45710634225979446,1.0000360922930032,0.00023061874056805985
-0.45516325590724593,-0.45516325590724593,0.9997765914066212,0.00023063205026829775
-0.45349752730835463,-0.45349752730835463,0.9999073368184069,0.0002298130246342628
-0.4524849786568666,-0.4524849786568666,1.0001911496784914,0.00022968684309374884
-0.45102011458657215,-0.45102011458657215,0.99974579458073,0.0002299667683295281
-0.4503647980687674,-0.4503647980687674,0.9996782774176631,0.00022950861018031379
-0.44892372240428813,-0.44892372240428813,1.000072465621113,0.0002298808904825424
-0.44753345920471477,-0.44753345920471477,1.0002976618583592,0.00022949836439953053
-0.4451675725707901,-0.4451675725707901,0.9999085630282749,0.0002292264880269901
-0.4432227062716265,-0.4432227062716265,1.000370881067904,0.0002308976495913056
-0.4419816377092502,-0.4419816377092502,1.000069556799072,0.00022865791777160085
-0.44125518302753336,-0.44125518302753336,1.0000309850221665,0.00023121147904972797
-0.4400411512950086,-0.4400411512950086,0.9997948675485244,0.00022912464949822708
-0.4390143510478083,-0.4390143510478083,1.0002525621379774,0.00023113648649697032
-0.4383169663618901,-0.4383169663618901,1.0000425611310981,0.0002301335466704505
-0.43641339546011293,-0.43641339546011293,0.9995866632321091,0.0002301574208752653
-0.4354732296182192,-0.4354732296182192,1.000161408233028,0.00023030946881542492
-0.4340720598876942,-0.4340720598876942,1.0001086063700217,0.00023014806102654006
-0.433242806493945,-0.433242806493945,0.9995723218500355,0.00023156105986640467
-0.4316691634681774,-0.4316691634681774,1.000112654231573,0.00023015401157221128
-0.4299376124603441,-0.4299376124603441,0.9999515615638961,0.00023059231125335976
-0.4279170621637604,-0.4279170621637604,0.999923209265902,0.0002307977406602517
-0.4265946032173815,-0.4265946032173815,1.000355177022954,0.00023084092682835626
-0.4256374267526553,-0.4256374267526553,1.0002080755173721,0.0002304865254587237
-0.4242880385339959,-0.4242880385339959,0.9996612939517153,0.0002309546036093331
-0.422907769952144,-0.422907769952144,0.9997888051160789,0.00022873948244962308
-0.4217923337593675,-0.4217923337593675,0.9996510651684403,0.00023074908277282373
-0.4206283522726153,-0.4206283522726153,1.0000995583980226,0.00022969564429495504
-0.4192971428637975,-0.4192971428637975,0.999635989147795,0.00022945618405491872
-0.4177196280157659,-0.4177196280157659,0.9999789554974223,0.00023070464291604503
-0.41627817686967317,-0.41627817686967317,0.9998806161605021,0.00022927861815528601
-0.4146369986032369,-0.4146369986032369,0.9999682788142603,0.0002304261317498241
-0.414301897000405,-0.414301897000405,0.9997204972766465,0.00022942959622669198
-0.4130478136605234,-0.4130478136605234,1.000121605725791,0.00023485940283077652
-0.41171376396814596,-0.41171376396814596,0.9998558297470138,0.00022937468877624228
-0.41010176060954107,-0.41010176060954107,0.999925171443248,0.00023022299056391847
-0.4076368468726287,-0.4076368468726287,1.0003645607270948,0.00023062523821760066
-0.4063659875682788,-0.4063659875682788,0.9998823393602215,0.0002298113866228679
-0.4057892456126865,-0.4057892456126865,0.9998325384997535,0.00023041520612463866
-0.4046807290520519,-0.4046807290520519,1.0000620345367808,0.00023062846771364855
-0.40359868824016304,-0.40359868824016304,1.0001499829377054,0.00022873316927555942
-0.40218490121187644,-0.40218490121187644,1.0002229801164102,0.00022993412907000525
-0.40119986774079736,-0.40119986774079736,0.9998114847829866,0.0002298388444644976
-0.4000375941133825,-0.4000375941133825,1.0002908460677227,0.0002309376479149113
-0.3989713748873328,-0.3989713748873328,0.9998956974226945,0.00022996428360489706
-0.3975601662605186,-0.3975601662605186,1.0002386107977226,0.00023005489467604767
-0.3963191266171634,-0.3963191266171634,1.0003912638978532,0.0002299066773571473
-0.3950642152354703,-0.3950642152354703,0.9999477128054585,0.00023000130968596732
-0.3929162611835636,-0.3929162611835636,0.9996510648299021,0.00023003059433505222
-0.3898227034471347,-0.3898227034471347,0.9998694985311856,0.00023186000789515628
-0.3878816868746071,-0.3878816868746071,0.99978636723235,0.00023033337359551248
-0.38683669804158854,-0.38683669804158854,0.9997212190191931,0.00022924072925916534
-0.38616752526140774,-0.38616752526140774,0.999662311707546,0.00023041745808542995
-0.3850763858790742,-0.3850763858790742,0.9999995395158601,0.00023069045399951065
-0.383790516902809,-0.383790516902809,0.9997449399230518,0.00022973958171244052
-0.38261218370025746,-0.38261218370025746,1.0000805316132122,0.00023063654858007616
-0.3808591765264282,-0.3808591765264282,0.9998506699132659,0.0002284808926834506
-0.3788883900473593,-0.3788883900473593,1.0000419751200031,0.00022964455038919303
-0.3778510175339761,-0.3778510175339761,0.9999498025421781,0.00023072922909586326
-0.37621253145771333,-0.37621253145771333,0.9999610508832909,0.00022950267733070538
-0.37506563117494807,-0.37506563117494807,0.9999010709792693,0.00022999330400795683
-0.3734442039683927,-0.3734442039683927,1.000230839076411,0.00022979099466052455
-0.37102718673995694,-0.37102718673995694,0.9996894601481051,0.00023170604368649887
-0.3697449948522262,-0.3697449948522262,0.9997913453598082,0.00022990198391494157
-0.36866619570937476,-0.36866619570937476,0.9997990073639572,0.00023070636838267767
-0.3676105056059896,-0.3676105056059896,1.0000448503279142,0.0002290347027833478
-0.3663796256223577,-0.3663796256223577,0.9995983345529893,0.0002294191776356258
-0.3654351469493122,-0.3654351469493122,1.0002310334382558,0.00023039234642695136
-0.36385275828797603,-0.36385275828797603,0.9998180887050729,0.00023034618522568134
-0.36145549292268697,-0.36145549292268697,0.9999990356384263,0.000229809849170791
-0.3600618503274745,-0.3600618503274745,1.0004767005973305,0.00023020447756193674
-0.3592064530341304,-0.3592064530341304,1.000420321675406,0.00022978817611387834
-0.3581050995242549,-0.3581050995242549,1.0001744951964782,0.00022981077108198824
-0.3573212413699366,-0.3573212413699366,0.9995977358250423,0.00023078860477723887
-0.3559764604753582,-0.3559764604753582,0.9998073522375727,0.00023012104683087643
-0.3529135648132069,-0.3529135648132069,0.999837943996176,0.00023116443283068225
-0.3512526063699625,-0.3512526063699625,0.9997701974517751,0.00022956218155648477
-0.3504271932601114,-0.3504271932601114,1.0000830765093431,0.0002293879716424578
-0.3498164046832244,-0.3498164046832244,1.0003423919027166,0.00023078559248238692
-0.3489384192143916,-0.3489384192143916,0.9999342371568123,0.00023038308765003707
-0.34775733502028744,-0.34775733502028744,0.9998443706929683,0.00022945925925942656
-0.3464154458604753,-0.3464154458604753,1.0000715199757557,0.0002303482162706111
-0.34471656485256974,-0.34471656485256974,0.9999076359920366,0.00023085464514651486
-0.34378977238520747,-0.34378977238520747,1.0001997056799954,0.00022990589139681395
-0.34244277271063767,-0.34244277271063767,0.9998536664619986,0.00022992020056024739
-0.34145577475137545,-0.34145577475137545,1.0002792340063922,0.00023071295002820568
-0.33983001780870836,-0.33983001780870836,0.9997714865948758,0.00023078037938196054
-0.3382307179927011,-0.3382307179927011,1.0001769045653335,0.0002297622018167269
-0.3357685995681095,-0.3357685995681095,0.9999009371206593,0.00023077558907913455
-0.33431271597219164,-0.33431271597219164,1.0002972385533384,0.00023108581018017844
-0.33326053851487814,-0.33326053851487814,0.999930762299303,0.00023054849379679915
-0.3319238976109773,-0.3319238976109773,0.9998298695132011,0.00022895091755063143
-0.3304798623750685,-0.3304798623750685,0.9998491616710006,0.00022963792614240776
-0.3295275509241037,-0.3295275509241037,1.0002219919939166,0.0002305612253474142
-0.3278172652295325,-0.3278172652295325,0.9999649715838889,0.00023009946367828646
-0.32627078676159726,-0.32627078676159726,0.9999677063724668,0.00023034541242351615
-0.3247957533589215,-0.3247957533589215,1.0000237065393769,0.0002302260196135186
-0.3234540628705872,-0.3234540628705872,0.999880094135506,0.00022905723186517727
-0.32272480175597595,-0.32272480175597595,0.9999353364823828,0.00022994004918435416
-0.3207579763344256,-0.3207579763344256,0.999743884280553,0.00023012327296435906
-0.31827490463183494,-0.31827490463183494,0.9996976404368152,0.00023114672855782849
-0.31593450543150536,-0.31593450543150536,0.9999788145177412,0.00023065287463902204
-0.3148275965751964,-0.3148275965751964,0.9999449898327539,0.0002291769215308648
-0.31422912987181917,-0.31422912987181917,1.0000367952932383,0.00023056717212824803
-0.31339459553564664,-0.31339459553564664,1.0002594320961165,0.0002307306177714896
-0.3122724683911656,-0.3122724683911656,1.000095746734301,0.00022910680494375282
-0.311294290976366,-0.311294290976366,0.999792525870558,0.00023107145734065792
-0.30945523804111874,-0.30945523804111874,0.9999434043958274,0.0002296467956227649
-0.30828851247933925,-0.30828851247933925,1.0000666905214048,0.00022988809133757436
-0.3073717457140447,-0.3073717457140447,0.9998103136882979,0.0002307828489641199
-0.3063287643235526,-0.3063287643235526,0.9997941853581448,0.00022927166744494046
-0.3057621268773801,-0.3057621268773801,1.0001407575319903,0.00023150819853570508
-0.30432222875388104,-0.30432222875388104,1.000001062022561,0.00023060502393352556
-0.30221952855790735,-0.30221952855790735,0.9995924494801475,0.0002305983512803029
-0.30040169456624427,-0.30040169456624427,0.9999968030719177,0.00023038698225763405
-0.29822810596524507,-0.29822810596524507,0.999971277515656,0.0002305076807191671
-0.29698942579707366,-0.29698942579707366,0.9998480808019018,0.00023033204489268286
-0.29597319603926736,-0.29597319603926736,1.0000586224810164,0.0002298437860819927
-0.29501379897264995,-0.29501379897264995,1.0002562787889198,0.00022894671031252283
-0.294138519653643,-0.294138519653643,1.0000566841642855,0.00023088660375966122
-0.29285092497302684,-0.29285092497302684,0.9998636292293168,0.00022978976183473304
-0.29141663062764567,-0.29141663062764567,0.9999079471134428,0.0002305352966504006
-0.2898186318139778,-0.2898186318139778,0.9997053939705347,0.0002292704571046926
-0.28833807691844415,-0.28833807691844415,0.9998309807478505,0.00022981059686659296
-0.2870774396258639,-0.2870774396258639,1.000144044979579,0.00022940449073685694
-0.2865537825418869,-0.2865537825418869,1.0003081022204765,0.00023057169165581078
-0.28503875020251146,-0.28503875020251146,0.9999863330001266,0.000230439448124313
-0.28407688064471587,-0.28407688064471587,0.9999689213916831,0.0002294975942085722
-0.2819634378844057,-0.2819634378844057,1.000095277078247,0.00023032466364796158
-0.27908999199135,-0.27908999199135,0.9998049606995897,0.00022996916911665653
-0.27821973604586675,-0.27821973604586675,0.9998217445373683,0.00023025570186239238
-0.2770324211422121,-0.2770324211422121,0.9999136988215355,0.00023097446680010871
-0.2760199183991062,-0.2760199183991062,1.000607889113074,0.00022909373543948024
-0.27476659522799307,-0.27476659522799307,0.9997677262950783,0.00023006689170733692
-0.27286435182468266,-0.27286435182468266,0.9999146556733706,0.0002308229449204059
-0.2719424201219226,-0.2719424201219226,0.9998910550606096,0.00023036968708490982
-0.270432180359785,-0.270432180359785,1.0000118029064562,0.00023008228592174968
-0.26933477887068874,-0.26933477887068874,0.9997110680779653,0.00023048153028146345
-0.2678675806266256,-0.2678675806266256,0.9999482533100282,0.00022921302107900893
-0.26654528908402425,-0.26654528908402425,0.999950683174076,0.00023035708806039482
-0.26362280172179453,-0.26362280172179453,0.9998335042122912,0.00023028220448849472
-0.26185757108032703,-0.26185757108032703,1.0002673245374558,0.00023075704917668196
-0.25992469403572616,-0.25992469403572616,1.0002115842276513,0.00022975399368278392
-0.25900541572336805,-0.25900541572336805,1.0001805268830455,0.00023019377294829015
-0.25814998275018297,-0.25814998275018297,0.9999955969162132,0.00023051223463172043
-0.2568402798831812,-0.2568402798831812,1.0001096943309118,0.00022955747462130222
-0.255486152676167,-0.255486152676167,1.0002589267294242,0.00023098106518485096
-0.2538526200776687,-0.2538526200776687,1.0000707363190844,0.0002287407396158034
-0.2521762127216789,-0.2521762127216789,0.9996641191779718,0.00023046291667314775
-0.2510134747673874,-0.2510134747673874,1.0003534891201735,0.00023002688318012548
-0.24952455755992559,-0.24952455755992559,0.9997047053130522,0.0002310164104968548
-0.24773387332097627,-0.24773387332097627,0.9998475919981225,0.00022925712168359461
-0.24542002974485513,-0.24542002974485513,0.9999279120376994,0.00022996287892404482
-0.2430846330607892,-0.2430846330607892,1.000003406776062,0.00023005389217974987
-0.24216926026856528,-0.24216926026856528,1.0000608826994477,0.00022976831554198245
-0.24126441532716852,-0.24126441532716852,0.9997383144780148,0.00023040596591507824
-0.24047079835872864,-0.24047079835872864,0.9998676136421786,0.0002289374814809111
-0.2391609905040241,-0.2391609905040241,0.9999911729681829,0.00022958404492600168
-0.23802913440740667,-0.23802913440740667,1.00016366126598,0.00023040790653873025
-0.2366358251849306,-0.2366358251849306,1.0000547906040003,0.000230178561170635
-0.23529703437670832,-0.23529703437670832,1.000156393466467,0.00023076160822321778
-0.23385764725826447,-0.23385764725826447,0.9998043211765296,0.00023019252465033982
-0.2320495533218491,-0.2320495533218491,0.9997899653600066,0.000229594833354774
-0.2308645806100685,-0.2308645806100685,0.9999056359201427,0.00023101972425294354
-0.22954142607195535,-0.22954142607195535,1.0000842659177605,0.00023025455632849447
-0.2266078421540442,-0.2266078421540442,1.0003641673501338,0.00023161010394619195
-0.22409850489057134,-0.22409850489057134,0.9998544365069524,0.00023010866938678268
-0.22331674885208486,-0.22331674885208486,1.0000040475505618,0.00022821808156191448
-0.2225944212768809,-0.2225944212768809,0.9999634221036879,0.00023077144751680346
-0.2217166831062059,-0.2217166831062059,0.9998519755827985,0.00023063516739286956
-0.22060317476425553,-0.22060317476425553,1.0003686894182997,0.00022984569756134571
-0.21941835034231189,-0.21941835034231189,0.9998321042226793,0.00023082713662617225
-0.21809222692536423,-0.21809222692536423,0.9997066176596521,0.0002297415484407204
-0.21693391891312785,-0.21693391891312785,0.9997017236677799,0.00023040959313119823
-0.21526778110710437,-0.21526778110710437,0.9998185090630326,0.00022931805887571773
-0.21469966660370118,-0.21469966660370118,1.0000154049467558,0.00023096150439809378
-0.21342119743931107,-0.21342119743931107,0.9995356534597871,0.0002305871495175788
-0.21217968075652607,-0.21217968075652607,1.000140794955057,0.0002305291128549168
-0.21082500737538795,-0.21082500737538795,0.999692595867127,0.000229775030734458
-0.20911541671521264,-0.20911541671521264,0.9996863289462482,0.00023139534901780943
-0.20710082328296267,-0.20710082328296267,1.0000586783640761,0.000230789410880387
-0.20580240712297382,-0.20580240712297382,1.0001663529816465,0.00023064544570403013
-0.20445722849835873,-0.20445722849835873,1.0000215951913898,0.00022926590262183872
-0.20312194191355956,-0.20312194191355956,0.9996410727128129,0.00022925404478786469
-0.20186056432721672,-0.20186056432721672,1.0001530422168439,0.00023056497358384825
-0.19964155992493032,-0.19964155992493032,0.9999837686283589,0.00023009599467974256
-0.19838558208866744,-0.19838558208866744,0.9998494145856032,0.000228717482983657
-0.1970473722642055,-0.1970473722642055,1.0003082639760152,0.00023035945115754166
-0.195780399692012,-0.195780399692012,0.9995134858833519,0.00022970395681103697
-0.19457544913166203,-0.19457544913166203,1.0003507865901293,0.000230131211769079
-0.19276154566905462,-0.19276154566905462,1.0000256562627432,0.000230367065178715
-0.18996663979487494,-0.18996663979487494,0.9999458756058953,0.00023115701776355528
-0.18815497161995154,-0.18815497161995154,0.9996290704306823,0.0002305028247644628
-0.1871481293317629,-0.1871481293317629,0.9997907844289016,0.0002286217204449121
-0.18628167998831485,-0.18628167998831485,0.9998863899051298,0.00023057916335865558
-0.1852176541578956,-0.1852176541578956,1.0003220914583797,0.00022914647805491982
-0.18432159473741194,-0.18432159473741194,0.9998834576555208,0.00023067678816883524
-0.18340740857966012,-0.18340740857966012,1.0004483061235117,0.00023101715548114302
-0.18137989320239284,-0.18137989320239284,0.9998532632203361,0.0002302154991723697
-0.18076634747121717,-0.18076634747121717,1.0002846625781157,0.00023010053747044742
-0.179675793016213,-0.179675793016213,1.0002403330979868,0.00023067960379511747
-0.17860321447951719,-0.17860321447951719,0.9996749756940304,0.00023054371449306144
-0.1771353912379709,-0.1771353912379709,1.0005670696609585,0.00022940451882132211
-0.17605353412072872,-0.17605353412072872,0.9998627845859362,0.00023055920430288432
-0.17444098016130738,-0.17444098016130738,1.0003245993538732,0.00022977246684903653
-0.17171733542927542,-0.17171733542927542,0.9996865509807099,0.00023115324019684196
-0.17006143129838164,-0.17006143129838164,1.0001265766697778,0.00023016609203742677
-0.16874466244044015,-0.16874466244044015,1.0006912635845469,0.0002295133097747417
-0.16759802538581425,-0.16759802538581425,0.9999806518459369,0.00022891695774104962
-0.1667326694499934,-0.1667326694499934,0.9999756433349276,0.00023097016389238425
-0.16527961716928985,-0.16527961716928985,1.000172082028988,0.00022986719393339972
-0.1638793071571854,-0.1638793071571854,1.00003291687349,0.00023113725602895243
