time,time,flux,flux_err
-0.4997913619029963,-0.4997913619029963,1.0000277868801433,0.00012589883273265523
-0.49933478491392663,-0.49933478491392663,1.0000327451347004,0.00012583040356545558
-0.4989162560202459,-0.4989162560202459,0.9999465456048122,0.0001148045976406224
-0.4985357752195849,-0.4985357752195849,1.0000864508790301,0.00011476586116966037
-0.4981552944294858,-0.4981552944294858,0.999974192145445,0.00011473567821672114
-0.4977748136503063,-0.4977748136503063,0.9999065535995735,0.00011469749933294869
-0.49739433288189294,-0.49739433288189294,1.000104868852412,0.0001146763895537945
-0.4970138521242465,-0.4970138521242465,0.9999365418119218,0.00011463692516255265
-0.49663337137741764,-0.49663337137741764,1.0001053507181572,0.00011461982001343919
-0.4962528906413528,-0.4962528906413528,1.0000999000665929,0.00011460920573025947
-0.49587240991595605,-0.49587240991595605,0.9998265615570399,0.00011460228578913874
-0.4954901028939965,-0.4954901028939965,1.000141199683103,0.00011461026011507861
-0.4950962292695159,-0.4950962292695159,0.9999285244174951,0.00011457884706496177
-0.49471574857697787,-0.49471574857697787,1.000051309723354,0.00011458707492643865
-0.49433526789520704,-0.49433526789520704,0.9999853292347017,0.00011460685278194644
-0.4939547872242027,-0.4939547872242027,0.9999509186375359,0.00011462082217977558
-0.4935743065638622,-0.4935743065638622,1.0000811592942136,0.0001146480964471107
-0.49319382591439015,-0.49319382591439015,0.9999537970340834,0.00011465812433757207
-0.4928133452757379,-0.4928133452757379,1.0000045742779105,0.00011467841197477717
-0.4924328646478493,-0.4924328646478493,0.999993978419449,0.00011471197369155115
-0.4920523840306785,-0.4920523840306785,1.0000048640198091,0.00011471764178672707
-0.4916719034241691,-0.4916719034241691,1.0000554388512948,0.0001147383489373171
-0.4912914228286837,-0.4912914228286837,0.999852020840007,0.00011474019638209599
-0.49091094224391085,-0.49091094224391085,1.000034560551639,0.00011475710210455048
-0.49053046166991016,-0.49053046166991016,1.0000806885166074,0.00011475933026442342
-0.4901499811067733,-0.4901499811067733,0.9999520498090566,0.00011473778522103073
-0.4897695005543031,-0.4897695005543031,1.0000222750370158,0.00011475628380861556
-0.4893890200127018,-0.4893890200127018,1.0000019830423577,0.00011474116211346579
-0.4890085394819149,-0.4890085394819149,1.0000471335123016,0.00011472600898068737
-0.48862805896194955,-0.48862805896194955,1.0000400452927547,0.00011472101821483882
-0.4882475784526452,-0.4882475784526452,0.9998369719900555,0.00011469155513651463
-0.4878670979544154,-0.4878670979544154,1.0001999124114156,0.00011468465749548017
-0.48748661746674743,-0.48748661746674743,0.999947677514006,0.00011463389377440499
-0.48710613698999977,-0.48710613698999977,1.0000127173597748,0.00011462635218408671
-0.4867256565239657,-0.4867256565239657,1.0000072831878417,0.00011461033446025858
-0.4863451760689035,-0.4863451760689035,1.0001056318984567,0.00011458343536248188
-0.48596469562455624,-0.48596469562455624,0.9998996995844459,0.00011455155262202101
-0.48558421519112793,-0.48558421519112793,1.0000153823089646,0.00011452706679733224
-0.4852037347684693,-0.4852037347684693,1.0000506105067077,0.00011449175583747235
-0.48482325435662366,-0.48482325435662366,1.000016804625061,0.00011445811154616561
-0.48444277395559965,-0.48444277395559965,1.000070666567931,0.00011442621876018783
-0.4840622935654409,-0.4840622935654409,1.0000467952751628,0.00011438936801115549
-0.48368181318615167,-0.48368181318615167,0.9998714435457673,0.00011435652974084523
-0.4833013328178847,-0.4833013328178847,1.0001005751494243,0.00011433796906774036
-0.48292085246012845,-0.48292085246012845,0.9999710165149545,0.00011428535320993471
-0.48254037211334405,-0.48254037211334405,1.0001607971138538,0.00011426929548468449
-0.48215989177752866,-0.48215989177752866,0.9999085959561855,0.0001142279036330637
-0.4817794114524808,-0.4817794114524808,1.0000416018865068,0.00011421700813097439
-0.4813989311384521,-0.4813989311384521,1.00000583307631,0.00011419110202330408
-0.4810184508351941,-0.4810184508351941,1.0000067850056709,0.00011416631149372777
-0.48063797054269874,-0.48063797054269874,1.0000930163597643,0.00011416116022305075
-0.4802574902611763,-0.4802574902611763,0.9999509486182905,0.00011416544220470115
-0.479877009990674,-0.479877009990674,1.0000163380835754,0.0001141767747662083
-0.47949652973104123,-0.47949652973104123,1.0000505171002598,0.00011419094039314073
-0.4791160494821245,-0.4791160494821245,0.9998914386260391,0.00011420378123499762
-0.4787355692443306,-0.4787355692443306,1.0000913890546104,0.00011425052709222077
-0.4783550890174048,-0.4783550890174048,1.0001298115190997,0.00011430534545435816
-0.4779746088013489,-0.4779746088013489,0.9999123847644394,0.00011434823940775177
-0.47759412859631356,-0.47759412859631356,0.9999601007710437,0.00011440141161191665
-0.47721364840214625,-0.47721364840214625,1.0000433795066657,0.00011446327174749746
-0.4768331682189498,-0.4768331682189498,0.999980107193726,0.0001145232555874878
-0.4764526880466736,-0.4764526880466736,1.0000255555959998,0.00011458107429768276
-0.4760722078854197,-0.4760722078854197,0.9999624922963722,0.00011464811125196054
-0.4756917277352368,-0.4756917277352368,1.0000270940390088,0.00011471770661400434
-0.4753112475959213,-0.4753112475959213,1.0000490360236303,0.00011478945191066112
-0.4749307674675297,-0.4749307674675297,1.0000139947819187,0.00011484242388360719
-0.47455028735020727,-0.47455028735020727,1.0000057393126573,0.00011489382712289707
-0.4741698072439092,-0.4741698072439092,0.9999837354080574,0.00011494893293003993
-0.47378932714847577,-0.47378932714847577,0.9999991386350869,0.00011500930812915688
-0.473282223295821,-0.473282223295821,1.0002389396568911,0.00011510821664324823
-0.4728171244592726,-0.4728171244592726,0.9996738641305216,0.00011507964337017972
-0.47233558890217964,-0.47233558890217964,0.999853060836317,0.00011516037228062102
-0.4719307581377311,-0.4719307581377311,1.0001122289143771,0.0001151936214408886
-0.47151253448915115,-0.47151253448915115,1.000029758527,0.00011521748108022308
-0.4710571760047408,-0.4710571760047408,0.9999752400100379,0.0001152578997346121
-0.47064321375998086,-0.47064321375998086,0.9999665106069365,0.00011525327804085118
-0.4702584723912036,-0.4702584723912036,1.000129000013216,0.0001152584425731476
-0.4698779924096609,-0.4698779924096609,0.999856482183181,0.00011523056442527202
-0.46947011788202103,-0.46947011788202103,1.0001339093552226,0.00011525229460438689
-0.4690841590122702,-0.4690841590122702,0.9999253655047946,0.00011523709598788292
-0.4686908949390265,-0.4686908949390265,1.0000078658446179,0.00011521885953983475
-0.46831041500335824,-0.46831041500335824,1.000071547998225,0.00011519026911185669
-0.467929935079119,-0.467929935079119,1.000026342695544,0.00011518490375299535
-0.46754945516590174,-0.46754945516590174,0.9999379118267335,0.00011512612929132741
-0.4671689752638091,-0.4671689752638091,0.9999549286094345,0.00011511171699611185
-0.4667884953731427,-0.4667884953731427,1.0000291867948798,0.00011506361668672812
-0.46640801549355154,-0.46640801549355154,0.9999660025095725,0.00011499303462924389
-0.46602753562528854,-0.46602753562528854,1.0000232391895267,0.00011497235980746504
-0.4656470557681988,-0.4656470557681988,1.000033848540049,0.00011493192369341982
-0.46526657592254034,-0.46526657592254034,0.9999823893624846,0.00011488696028040781
-0.4648860960881585,-0.4648860960881585,0.9999920278120588,0.00011483970646661867
-0.464505616264951,-0.464505616264951,1.0000018222335414,0.00011480111745169343
-0.46412513645317366,-0.46412513645317366,1.0001568671344672,0.000114771072976036
-0.4637446566527757,-0.4637446566527757,0.9999348528150094,0.00011469698542668149
-0.4633641768634476,-0.4633641768634476,1.0000412787029251,0.00011469195121061019
-0.46298369708560366,-0.46298369708560366,0.9999493984111771,0.00011467410087859743
-0.4626032173192399,-0.4626032173192399,1.0000882772918391,0.00011465980542146282
-0.46222273756440657,-0.46222273756440657,0.9999542409904985,0.00011461066813674302
-0.4618422578209003,-0.4618422578209003,0.999936346334381,0.00011462625487572175
-0.46146177808862204,-0.46146177808862204,1.0000112964741057,0.00011462854222484724
-0.46108129836792455,-0.46108129836792455,0.9999744508735471,0.00011461505323364873
-0.4607008186587603,-0.4607008186587603,0.999971213683121,0.00011461745558901246
-0.4603203389609746,-0.4603203389609746,1.000004309733801,0.00011462800518259112
-0.4599398592747711,-0.4599398592747711,1.0000199238695802,0.00011464746791577053
-0.4595593796001015,-0.4595593796001015,1.0000670515121435,0.00011466367431210708
-0.4591788999369612,-0.4591788999369612,0.9998997992447315,0.0001146773781727023
-0.4587984202853036,-0.4587984202853036,1.0000511223442747,0.00011469391735564175
-0.4584179406453803,-0.4584179406453803,1.0000376311554953,0.00011472367135006986
-0.45803746101714393,-0.45803746101714393,0.9998109014206561,0.00011473122328070513
-0.4576569814003353,-0.4576569814003353,1.000192521873846,0.00011474941396320288
-0.45727650179511203,-0.45727650179511203,0.9999630061711418,0.00011472363869076573
-0.4568960222017758,-0.4568960222017758,0.9999384334205992,0.00011472741163004263
-0.4469603432262407,-0.4469603432262407,1.0000728756876784,0.0001140092868972109
-0.42627506562653605,-0.42627506562653605,0.9999494347334703,0.00011234128295386935
-0.42589458710418737,-0.42589458710418737,1.0001980353924826,0.00011233846710770453
-0.4255141085973502,-0.4255141085973502,1.0000335982181539,0.00011251965637698194
-0.42513363010587,-0.42513363010587,0.999990015666581,0.00011263045056980198
-0.42475315162990446,-0.42475315162990446,1.0000687889979232,0.00011276547146675506
-0.4243726731696519,-0.4243726731696519,1.0000832051262851,0.00011293711112076293
-0.42399219472501526,-0.42399219472501526,0.9998818722759788,0.00011312619501050242
-0.4236117162961449,-0.4236117162961449,0.9999706615292231,0.00011333524181665281
-0.42323123788304073,-0.42323123788304073,0.9999382811599009,0.0001135220334896165
-0.4228507594857593,-0.4228507594857593,1.0001559753515743,0.00011372884306595709
-0.42247028110464735,-0.42247028110464735,0.9999421922973706,0.00011391692655455792
-0.42208980273940677,-0.42208980273940677,1.0001558903633203,0.00011407959976112431
-0.4217093243902905,-0.4217093243902905,0.9999738956849258,0.00011420426240656713
-0.421328846057348,-0.421328846057348,0.999969232658669,0.00011434517151668779
-0.42094836774058386,-0.42094836774058386,1.0000622571643736,0.00011447204307188448
-0.42056788944019735,-0.42056788944019735,0.9999676397581778,0.00011455225572411083
-0.4201874111560887,-0.4201874111560887,0.9999850752496833,0.00011462446249307543
-0.41980693288830684,-0.41980693288830684,1.0000553858467907,0.00011469453454841802
-0.41942645463695777,-0.41942645463695777,0.999931422222365,0.00011475026793209591
-0.4190459764021927,-0.4190459764021927,1.0001830050628484,0.00011481002195607595
-0.418665498183854,-0.418665498183854,0.999857880648257,0.00011483469659777208
-0.4182850199822042,-0.4182850199822042,1.0001125097040995,0.00011488401018995083
-0.4179045417969853,-0.4179045417969853,1.0000076078700517,0.00011490421130763602
-0.41752406362844924,-0.41752406362844924,0.9999093541547378,0.00011492337464013708
-0.4171435854764969,-0.4171435854764969,1.000080770837399,0.00011493960437147896
-0.4167631073412313,-0.4167631073412313,0.9999111734509265,0.00011491909859826169
-0.4163826292224478,-0.4163826292224478,1.000069135465914,0.00011492148925695142
-0.4160021511202977,-0.4160021511202977,1.000026707141158,0.00011496865625413864
-0.415621673034833,-0.415621673034833,0.9998887419845188,0.00011516319048938107
-0.41524119496554235,-0.41524119496554235,1.0000822674104963,0.00011554435434066384
-0.41486071691278814,-0.41486071691278814,1.0000368084274807,0.00011615123602043752
-0.4144802388764113,-0.4144802388764113,0.9999413720754011,0.00011697417315129966
-0.41409976085651545,-0.41409976085651545,1.000122104521005,0.00011799595280760174
-0.4137192828522327,-0.4137192828522327,0.9998710820055458,0.00011918568677933673
-0.4133388048642292,-0.4133388048642292,1.0000416972912487,0.00012056145766685957
-0.41295832689158446,-0.41295832689158446,1.0000414629025203,0.00012207363292727184
-0.4125778489346036,-0.4125778489346036,1.0000078948761328,0.000123705007430367
-0.4121973709929311,-0.4121973709929311,1.0001253299185522,0.00012539209220751077
-0.4118168930661071,-0.4118168930661071,0.9998598961105623,0.00012710265187347987
-0.41143641515397783,-0.41143641515397783,1.000047735341422,0.00012895874186300075
-0.4110559372560839,-0.4110559372560839,0.99999474170936,0.00013096816636090291
-0.41067545937171557,-0.41067545937171557,0.999968474953528,0.0001331789421496204
-0.4102949815006106,-0.4102949815006106,1.0000486631939032,0.00013577337263127328
-0.40991450364216214,-0.40991450364216214,0.9998976710125487,0.00013875442826760226
-0.40953402579555026,-0.40953402579555026,0.9999241261754083,0.00014199338361712828
-0.409153547960268,-0.409153547960268,0.9999298638818676,0.00014549745153134532
-0.408773070135393,-0.408773070135393,0.9999977352356202,0.00014926197576557303
-0.4083925923196521,-0.4083925923196521,1.000146055567034,0.00015293274498845896
-0.4080121145123815,-0.4080121145123815,0.9999390718035167,0.0001563827005595737
-0.40744596354872475,-0.40744596354872475,1.0000280060667877,0.0001617367732450886
-0.40697721490910793,-0.40697721490910793,1.000028009188993,0.00016649642675499476
-0.40659673712168426,-0.40659673712168426,0.9998356938512039,0.00017072306723268428
-0.4062162593357456,-0.4062162593357456,1.0000942370714747,0.00017499942494729107
-0.4058357815496489,-0.4058357815496489,0.9998492187176655,0.00017887303489969372
-0.40545286870354535,-0.40545286870354535,1.0000646430793056,0.0001822680037044065
-0.4050596068567728,-0.4050596068567728,0.9999657433458831,0.00018531530728807405
-0.4046712151184309,-0.4046712151184309,0.9999624905179152,0.0001881411009851763
-0.4042834321349115,-0.4042834321349115,0.9997179730413166,0.00019055120342515767
-0.40390295431274054,-0.40390295431274054,1.000031272133231,0.0001918461936085243
-0.4035224764758752,-0.4035224764758752,0.9998758317089014,0.00019136400394697382
-0.4031419986204853,-0.4031419986204853,1.000102163594436,0.0001885670690179219
-0.4027615207439208,-0.4027615207439208,0.9999206104619314,0.0001837254907207933
-0.40238104284296233,-0.40238104284296233,0.9999788002426466,0.00017820150639618525
-0.40200056491399466,-0.40200056491399466,1.000113293535301,0.0001726034622222126
-0.40162008695420576,-0.40162008695420576,1.000115152391987,0.0001662354202285252
-0.39025260197992323,-0.39025260197992323,1.0000040417482021,0.00011695511204840787
-0.38941433086017946,-0.38941433086017946,0.9999729075207815,0.00011468923061089077
-0.3890338516626425,-0.3890338516626425,1.0000467036559078,0.00011470362523928305
-0.3886533724552589,-0.3886533724552589,1.0000166065996072,0.00011470783333114047
-0.3882728932390972,-0.3882728932390972,0.9999727395760637,0.00011472392973932237
-0.38789241401574015,-0.38789241401574015,0.9999681296905314,0.00011474078133468855
-0.38751193478605683,-0.38751193478605683,1.000127085821291,0.00011475247763528781
-0.3871314555514743,-0.3871314555514743,0.9998815711433705,0.00011474864134099437
-0.38675097631286304,-0.38675097631286304,1.0001976083529114,0.000114771918327476
-0.38636197433635894,-0.38636197433635894,0.9999644690838551,0.00011475510995567248
-0.3859486216859917,-0.3859486216859917,1.0001984041207934,0.0001147443161939532
-0.38556388107371403,-0.38556388107371403,0.9999440642773761,0.00011476661616925525
-0.38518340182872246,-0.38518340182872246,0.9999573010929954,0.00011476303812042426
-0.38480292258413795,-0.38480292258413795,1.0000077557880336,0.00011474427125166056
-0.3844224433405756,-0.3844224433405756,1.00012843001217,0.00011473803203933955
-0.38403100629697173,-0.38403100629697173,0.9999149436036767,0.00011472263541254142
-0.3836286114536868,-0.3836286114536868,1.000055807956495,0.0001147410921319588
-0.3832353481154577,-0.3832353481154577,1.00002929468201,0.00011472442910526225
-0.3828548688830189,-0.3828548688830189,0.9999708267320034,0.00011472415526720813
-0.3824743896545595,-0.3824743896545595,1.0000111582245321,0.00011471599230665707
-0.38209391043079355,-0.38209391043079355,0.9999471946554183,0.00011469216960874047
-0.38171343121157053,-0.38171343121157053,1.000040848522025,0.00011466764571513711
-0.3813329519977525,-0.3813329519977525,0.99996910805764,0.0001146425844438372
-0.3809524727895514,-0.3809524727895514,1.0000182447523767,0.00011462293412384506
-0.3805719935872155,-0.3805719935872155,1.0000428938450807,0.00011460058534000324
-0.38019151439131066,-0.38019151439131066,0.9999280157018362,0.00011457586679435043
-0.37981103520152787,-0.37981103520152787,1.0000214918840542,0.00011456060545843639
-0.37943055601883735,-0.37943055601883735,1.0000296179243169,0.00011453819718286226
-0.37905007684308745,-0.37905007684308745,0.9999974649771689,0.0001145110685981553
-0.37866959767448094,-0.37866959767448094,0.9999220288036156,0.00011450628875686265
-0.37828911851373376,-0.37828911851373376,0.9999628796145581,0.0001144980261348415
-0.37790863936053504,-0.37790863936053504,0.999990003944428,0.00011449762642459937
-0.37752816021519636,-0.37752816021519636,1.0000623209497541,0.00011451827074617673
-0.37714768107812413,-0.37714768107812413,0.9999869941190219,0.00011452999133745665
-0.37676720194895985,-0.37676720194895985,1.0000893270407363,0.00011456337160767991
-0.3763867228283694,-0.3763867228283694,1.0000004883654745,0.00011458571963770849
-0.37600624371635016,-0.37600624371635016,0.9998997246202116,0.00011462401495019496
-0.3756257646131068,-0.3756257646131068,1.0001237531979048,0.00011465889870158254
-0.3752452855184366,-0.3752452855184366,0.9999238503889224,0.00011466996436081307
-0.37486480643284886,-0.37486480643284886,1.0001015258803991,0.00011472933869696856
-0.37448432735629283,-0.37448432735629283,0.9999311734961245,0.00011475876884931625
-0.37410384828881965,-0.37410384828881965,1.000054283930138,0.00011480414897308514
-0.3737233692307356,-0.3737233692307356,0.9999991131834294,0.00011484204156443284
-0.3733428901818353,-0.3733428901818353,0.9999433904531869,0.00011487243409405152
-0.3729624111424258,-0.3729624111424258,1.000065246340005,0.00011490421138366637
-0.3725819321125073,-0.3725819321125073,0.999947446538922,0.00011494617733929233
-0.3722014530920294,-0.3722014530920294,1.0000113921547191,0.00011499260019036137
-0.37182097408134923,-0.37182097408134923,0.9999565669416282,0.0001150390937606855
-0.3714404950803619,-0.3714404950803619,1.0002089798132254,0.00011509832019031071
-0.3710600160890696,-0.3710600160890696,0.9998465362187263,0.00011512262319878046
-0.37067953710767687,-0.37067953710767687,1.00015338407619,0.00011517468093585168
-0.3702990581360819,-0.3702990581360819,0.9999651149977549,0.00011520362838604646
-0.3699185791745364,-0.3699185791745364,0.9999835417160629,0.00011524213705136122
-0.36953810022289313,-0.36953810022289313,1.0000668424939414,0.00011528380980806861
-0.36915762128114765,-0.36915762128114765,0.9999927369355086,0.0001152904172532948
-0.36877714234965886,-0.36877714234965886,1.0000819044621756,0.00011530472058771358
-0.36839666342822247,-0.36839666342822247,0.9999667706330795,0.00011528714614747004
-0.3680161845169895,-0.3680161845169895,0.9999875959402905,0.00011526829965791434
-0.36763570561570835,-0.36763570561570835,1.0000711903378487,0.00011525630241797224
-0.3672552267247838,-0.3672552267247838,0.999942802787752,0.00011524796196981772
-0.36687474784396557,-0.36687474784396557,1.0000158405597375,0.00011522887351353713
-0.3664942689734499,-0.3664942689734499,1.0000700455639262,0.00011520149868297755
-0.3661137901131454,-0.3661137901131454,0.9999948530301488,0.00011517086667917549
-0.3657333112631928,-0.3657333112631928,0.9998899100874927,0.00011514311965839256
