time,time,flux,flux_err
-0.49991837789336085,-0.49991837789336085,0.9999236889136748,0.00026279663744148413
-0.49972023448208347,-0.49972023448208347,0.9999137800570087,0.0002755054451790928
-0.4995538083341671,-0.4995538083341671,1.0000697355949248,0.0002516457757695423
-0.49923452382572575,-0.49923452382572575,1.0002825607164936,0.0002413885173421462
-0.49897822102939243,-0.49897822102939243,0.9998010576219677,0.00025095675160945495
-0.4988356287074566,-0.4988356287074566,0.9998554287090988,0.00022534573338165885
-0.49870274585700824,-0.49870274585700824,0.9996295470908347,0.000247079224294916
-0.4985225463664392,-0.4985225463664392,0.9999733500242598,0.0002560589100109743
-0.4984095278792665,-0.4984095278792665,0.9998285057326355,0.00025500344918120234
-0.4982918652785884,-0.4982918652785884,1.0000328376705216,0.0002494130137309404
-0.498067412355158,-0.498067412355158,1.0000598220467336,0.00024300832254695032
-0.4978721120649425,-0.4978721120649425,1.0002575165532313,0.0002403068625346443
-0.4977047983578814,-0.4977047983578814,0.9999549977037917,0.00025350878334480634
-0.497590551632311,-0.497590551632311,1.000224342704005,0.0002400828559110509
-0.49748450525075893,-0.49748450525075893,1.000010227795366,0.0002496147553315484
-0.49717965387462754,-0.49717965387462754,0.9996942220684426,0.00026146839758151984
-0.49699398605225725,-0.49699398605225725,0.999872226031077,0.00024205063438178728
-0.4968053197560948,-0.4968053197560948,0.9998832447522711,0.00024098738536961075
-0.4965745052337297,-0.4965745052337297,1.000156809071991,0.00024751271100712755
-0.49647791608513214,-0.49647791608513214,1.000112943405476,0.00022444997218061226
-0.49641783675106127,-0.49641783675106127,1.0002516544500477,0.00026247764635068917
-0.49634850815782555,-0.49634850815782555,0.9997438553816813,0.00024541633766342926
-0.49614226093835895,-0.49614226093835895,0.9996320529931211,0.0002707530271245192
-0.49592952902021353,-0.49592952902021353,0.9996808936839411,0.0002453308099756758
-0.49578249804399094,-0.49578249804399094,0.999991817212425,0.00023170549203418671
-0.4956697793502826,-0.4956697793502826,1.0000334326804583,0.00021946814129167298
-0.49540882264991526,-0.49540882264991526,0.9998591349219913,0.00024033474458481455
-0.49525103199339354,-0.49525103199339354,1.0002106556202905,0.00025398869701276003
-0.49507853295799575,-0.49507853295799575,0.9999579218677745,0.00024710191755570427
-0.4949049575072422,-0.4949049575072422,1.0004227438924858,0.000252583117727544
-0.49478870721068235,-0.49478870721068235,0.9999478147795372,0.00023736291903416712
-0.4946966789379076,-0.4946966789379076,1.0000912355983549,0.00023907402433499353
-0.4945707493046939,-0.4945707493046939,1.0000175664500195,0.000249305690828997
-0.49433045791083713,-0.49433045791083713,1.0000328467636368,0.00023089299231581
-0.4941214089267305,-0.4941214089267305,1.0000389416575035,0.0002409671325871868
-0.49391581754316577,-0.49391581754316577,0.9994733815644439,0.00025210076523352645
-0.49369847628913704,-0.49369847628913704,0.9997073224681676,0.00025551473199537743
-0.49356143709956085,-0.49356143709956085,0.9997339850535575,0.0002474601455116722
-0.4934051719283161,-0.4934051719283161,1.0002997053192493,0.00023298044487787156
-0.49319170859089356,-0.49319170859089356,1.0001244288538806,0.0002288923164899895
-0.49300069451055606,-0.49300069451055606,1.00019925368725,0.00023366678900163458
-0.49275260687136324,-0.49275260687136324,1.0001156078595979,0.00026026883292074054
-0.49264886941964503,-0.49264886941964503,0.9997906307053791,0.0002350215942913726
-0.492544632028148,-0.492544632028148,1.000068898738406,0.00024685383577450576
-0.4923707310917962,-0.4923707310917962,1.0000571630900075,0.00025345472149291664
-0.4922141974675469,-0.4922141974675469,0.9998633646527745,0.00023235583657790006
-0.4919810118364694,-0.4919810118364694,0.9997260925432802,0.00023103438649377754
-0.4917564170136757,-0.4917564170136757,1.0000486948451708,0.00022983738327090505
-0.4915964613603137,-0.4915964613603137,0.9999119046772927,0.0002460530106143243
-0.491550953945989,-0.491550953945989,1.0001355996861463,0.00027348835208519385
-0.49139065172639673,-0.49139065172639673,0.9996996918581857,0.00026639267128730754
-0.49125657167387543,-0.49125657167387543,1.0002034768068955,0.00026128989747253596
-0.4911310542389401,-0.4911310542389401,1.0000105997819264,0.0002544511465574864
-0.49100308916167706,-0.49100308916167706,1.0003714392563812,0.00023614481007278417
-0.4907962455989036,-0.4907962455989036,1.0001318583690604,0.00024024656646941915
-0.49063968963455407,-0.49063968963455407,1.0000420982276708,0.0002280801706217558
-0.49047303455517977,-0.49047303455517977,1.000619096242788,0.00025756243301515024
-0.4902978757112578,-0.4902978757112578,1.0001870863731714,0.00026690681560957285
-0.4900893347956298,-0.4900893347956298,0.9997558876621703,0.00023372190698056684
-0.4900022730915225,-0.4900022730915225,1.00013206994801,0.0002627330341963731
-0.4899033660702116,-0.4899033660702116,0.9999125574865401,0.00023967537644847362
-0.4896939726917481,-0.4896939726917481,0.9997714812052896,0.00024164927564985784
-0.4893691705125093,-0.4893691705125093,0.9997570374391568,0.00023259355369338895
-0.4891379206426791,-0.4891379206426791,1.0000498939248568,0.0002636703414072442
-0.4889386991795618,-0.4889386991795618,0.9998096268628263,0.00022918583182366956
-0.48883420841229963,-0.48883420841229963,0.999953318996376,0.00025562438455656577
-0.48867526819885826,-0.48867526819885826,1.0001651001699168,0.0002402375886391607
-0.4885386768117314,-0.4885386768117314,0.9999251549058312,0.00024411409255599127
-0.4883002819158719,-0.4883002819158719,1.000357353701094,0.0002438443909948401
-0.4881323291687295,-0.4881323291687295,0.9997186554439196,0.0002370146942663772
-0.4880002211277315,-0.4880002211277315,1.0002110225387641,0.0002471336684136833
-0.4878184581764799,-0.4878184581764799,1.000269342352063,0.00025265580263065276
-0.48764427640126085,-0.48764427640126085,1.0000405274327426,0.00025216505271621003
-0.4875389989858377,-0.4875389989858377,1.0001417443582723,0.00023658437026264143
-0.48733642782317477,-0.48733642782317477,1.0001940827778562,0.00024927720445998557
-0.4871787686512107,-0.4871787686512107,0.9999293174489872,0.0002295549668568471
-0.48697754394306686,-0.48697754394306686,0.9999567281436506,0.00024387441819515135
-0.48680292010249104,-0.48680292010249104,0.9999021246977151,0.0002460259066215389
-0.4866534582368331,-0.4866534582368331,1.0000729094356757,0.0002444717873832561
-0.4865013426016958,-0.4865013426016958,1.000123907106175,0.00022683199775760864
-0.48636855201184515,-0.48636855201184515,0.9996074131219839,0.00024892316151710613
-0.4861272221103718,-0.4861272221103718,0.9999134308951758,0.00024908967521563777
-0.4859523874183651,-0.4859523874183651,0.999954165257896,0.0002640526307557892
-0.4858523099959712,-0.4858523099959712,0.9997806694585435,0.00023111569781858934
-0.4856942130369134,-0.4856942130369134,1.0003833450504909,0.00024230404498600664
-0.4854434750362998,-0.4854434750362998,0.9999500424406682,0.000228278675251794
-0.4852869718641159,-0.4852869718641159,0.9999485913147348,0.0002458511928000881
-0.4849809521670977,-0.4849809521670977,1.000197373907905,0.0002478728714208525
-0.48485643351741603,-0.48485643351741603,0.9998235872192559,0.0002362855756276406
-0.4846456529026909,-0.4846456529026909,1.0000907826473695,0.00025269633429505047
-0.48451750660387916,-0.48451750660387916,1.0000841334203256,0.0002614804878708444
-0.48432814063344265,-0.48432814063344265,0.999977800475215,0.0002364338750832663
-0.4841850594159041,-0.4841850594159041,1.000014652649615,0.00025157382565811946
-0.4839738832451985,-0.4839738832451985,0.9999423828945886,0.0002502177885281353
-0.4837302874548186,-0.4837302874548186,1.0001526035941621,0.0002456267353577297
-0.48358046437206215,-0.48358046437206215,0.999876173214257,0.0002527443688635952
-0.4833646783255972,-0.4833646783255972,0.9999202272422849,0.0002487909457459013
-0.4832063429385016,-0.4832063429385016,1.0000963897084851,0.00026702824262167394
-0.48300484407445765,-0.48300484407445765,0.9996637704064273,0.0002481142177297179
-0.48292588342737874,-0.48292588342737874,0.999983785371732,0.0002620845954160321
-0.48273154443886596,-0.48273154443886596,0.9996998601939042,0.00023749630221855288
-0.48251746028472553,-0.48251746028472553,1.0004199639006963,0.00023637795624325167
-0.48233875903242734,-0.48233875903242734,0.9995635975858939,0.0002491364440085173
-0.48219442447589245,-0.48219442447589245,0.9999230003618085,0.00024787360678139614
-0.48203064060289763,-0.48203064060289763,0.999858677154565,0.00026375058556841726
-0.48186794947541783,-0.48186794947541783,1.0000563817503694,0.0002339896463390753
-0.4817267129088577,-0.4817267129088577,1.0001231218079056,0.00025051124042414086
-0.4815537023714569,-0.4815537023714569,0.9997961568875274,0.00024394002008272297
-0.48137738439108946,-0.48137738439108946,0.9998183694322742,0.00023195716342926505
-0.4812029882938077,-0.4812029882938077,0.9997057227622032,0.0002474310550913921
-0.48102089625172084,-0.48102089625172084,0.999752415983375,0.0002572895961135553
-0.48083051302746754,-0.48083051302746754,1.0000127600075284,0.0002406452787338508
-0.4807357572964975,-0.4807357572964975,0.9997128384986503,0.00025337940872256423
-0.4805279596905166,-0.4805279596905166,0.9999056594487474,0.00023776498039585473
-0.4802996407634055,-0.4802996407634055,0.9998942761274107,0.00023779910894912486
-0.4800294034037506,-0.4800294034037506,0.999980647932793,0.0002337534386312753
-0.47988526366025325,-0.47988526366025325,0.9999292966821341,0.00024402845582344643
-0.47970492793319863,-0.47970492793319863,0.9998561329574261,0.00025320286771102316
-0.479549837756349,-0.479549837756349,0.9998612782771218,0.0002363145752942015
-0.479460641060723,-0.479460641060723,0.9999453862914935,0.0002529038099204803
-0.4792012468322355,-0.4792012468322355,0.999697704022223,0.00024589376562619006
-0.4788884638343006,-0.4788884638343006,0.9996997023811224,0.00023396636035713606
-0.47875491185623104,-0.47875491185623104,0.9997352475116983,0.00024105708870001452
-0.4786063173196453,-0.4786063173196453,0.9999736924359546,0.00024441359817001956
-0.4784391103232338,-0.4784391103232338,1.0000858172113474,0.00024091785700733635
-0.4782883858795685,-0.4782883858795685,0.999743926978528,0.0002522435624710814
-0.47817648347481734,-0.47817648347481734,0.9998968217239727,0.00025167082202374075
-0.4779701939682127,-0.4779701939682127,1.0002604749622728,0.00024517860269605217
-0.47765991187116014,-0.47765991187116014,1.0000518587488079,0.00024398945812433
-0.4774920875344833,-0.4774920875344833,0.9999757240507204,0.0002393464703296767
-0.4774157516447303,-0.4774157516447303,1.0002998935037233,0.00024634604790492866
-0.4773020096690743,-0.4773020096690743,1.0002743556015996,0.00024144124931052086
-0.47699593701036064,-0.47699593701036064,1.0001922538003805,0.0002695722492201319
-0.4768314133747481,-0.4768314133747481,0.9998885901822998,0.00024872873525898475
-0.47658055981664804,-0.47658055981664804,0.9999933440244895,0.000239107464981482
-0.4763530406955397,-0.4763530406955397,1.0000708934397153,0.00023920881146813512
-0.4762649031523324,-0.4762649031523324,0.9999416157786204,0.00024310187963235102
-0.4761164484865731,-0.4761164484865731,1.0000470969196678,0.00027045938667650193
-0.4758913572048186,-0.4758913572048186,0.9998270401907172,0.00024915559654292653
-0.4757370130981144,-0.4757370130981144,0.9997617480823239,0.00024419762465356095
-0.47560617128910965,-0.47560617128910965,0.9998811339822913,0.00022881781636396428
-0.4754964202526025,-0.4754964202526025,0.999821623613564,0.00022781269341896367
-0.47520491338436843,-0.47520491338436843,1.0000587088286375,0.00024334942086247585
-0.47505339839626687,-0.47505339839626687,1.0001769872567177,0.00024288832386207835
-0.47490885542720207,-0.47490885542720207,1.0005111485446403,0.0002582176910616503
-0.47472106377608725,-0.47472106377608725,1.0002249452864351,0.00024495766450905983
-0.47459819696377964,-0.47459819696377964,1.0000060023849986,0.00024231559367837951
-0.47451989676555967,-0.47451989676555967,1.0000828936197332,0.00024218014355804405
-0.47440000401547877,-0.47440000401547877,0.9998752442118641,0.000230024525571697
-0.4741202256780525,-0.4741202256780525,1.0000780373319516,0.00023520090176563677
-0.47389658957836217,-0.47389658957836217,0.9999253651739449,0.0002477815846512495
-0.4737444537691772,-0.4737444537691772,0.9999646890904902,0.000250278045725825
-0.473545029154775,-0.473545029154775,0.9999102856535924,0.00025469705727127574
-0.473414080018847,-0.473414080018847,0.9999376135870115,0.0002436103492764395
-0.4733105024002725,-0.4733105024002725,0.999681140529035,0.00022573793698192507
-0.4731413734429225,-0.4731413734429225,0.9998350726707365,0.00022892351160140137
-0.4729805550799938,-0.4729805550799938,1.000267157932098,0.00022923527112376062
-0.47282275314355504,-0.47282275314355504,0.9995253587075302,0.0002347922835722877
-0.4725900681434723,-0.4725900681434723,0.9997611182267343,0.0002543315834716588
-0.4724925407637784,-0.4724925407637784,1.0002410257553538,0.0002467334101937365
-0.47239131172609633,-0.47239131172609633,1.0000800695453664,0.0002465373333949411
-0.47223704408606865,-0.47223704408606865,1.0000897523658616,0.00025491757496350184
-0.4720620210660854,-0.4720620210660854,0.9997669462664618,0.00023731754608104948
-0.4717867335137271,-0.4717867335137271,1.0000995438780798,0.00023513634746213097
-0.47153145474294433,-0.47153145474294433,1.000014712434591,0.00023010491775066178
-0.47141698183040714,-0.47141698183040714,1.000142343840848,0.00024482206988763003
-0.471352558748913,-0.471352558748913,0.9998863318937994,0.0002822453735316923
-0.4711815531416505,-0.4711815531416505,0.9997943085744424,0.0002685327493717171
-0.47102246814392856,-0.47102246814392856,1.0000874888533473,0.0002497367044282679
-0.47087446527875726,-0.47087446527875726,0.9998010011502185,0.0002262435607465653
-0.4707631176257564,-0.4707631176257564,1.0000501285629544,0.00023571226591813187
-0.4705267018573068,-0.4705267018573068,0.9999448288512338,0.00022517518972119452
-0.47035421968466834,-0.47035421968466834,0.9997460019250308,0.00024587514273174927
-0.47016486581997013,-0.47016486581997013,0.9999792391341945,0.0002637199833749068
-0.4699382850209076,-0.4699382850209076,1.000086642046605,0.00024898346493702474
-0.46984751495037924,-0.46984751495037924,1.0000701840386892,0.00025451378517539773
-0.4697449841456546,-0.4697449841456546,0.999949384791044,0.00023914021317836552
-0.4696048487079679,-0.4696048487079679,0.9999349106621833,0.00024188236580941898
-0.4694008799000585,-0.4694008799000585,1.0000858598325333,0.00024282100154137225
-0.4691537973150844,-0.4691537973150844,1.000282033800484,0.00022486721680166477
-0.4690100792067824,-0.4690100792067824,0.9997983468370636,0.0002346858133710065
-0.4688981243452872,-0.4688981243452872,1.0001269985630583,0.00025613025078019915
-0.4687032199486566,-0.4687032199486566,0.9999603112659387,0.00024859869867536213
-0.46862198216986145,-0.46862198216986145,1.000550627917498,0.00024740849639673764
-0.46846563727594914,-0.46846563727594914,1.0000345802170907,0.00024225516902972007
-0.4683438111322175,-0.4683438111322175,1.000236482785088,0.00024531135662203497
-0.4680961305588426,-0.4680961305588426,1.0000782095659635,0.00024060584908015318
-0.4679454481352877,-0.4679454481352877,0.9998234520007706,0.00023406656370458397
-0.4678234037288348,-0.4678234037288348,1.0001899461180004,0.00024416421997574666
-0.46764594544292776,-0.46764594544292776,0.9997528664974235,0.0002523189627002576
-0.46747493067232426,-0.46747493067232426,1.0002815840173593,0.0002522079753030509
-0.46735891175994765,-0.46735891175994765,0.9997603392952632,0.00025088345576346373
-0.4671924276888603,-0.4671924276888603,1.0000290639921454,0.00023228357617674175
-0.46701626620924797,-0.46701626620924797,1.0003598847011532,0.0002316939684091222
-0.4668249664537143,-0.4668249664537143,0.9999520248184709,0.0002565508690715717
-0.4666864791317494,-0.4666864791317494,1.0001611792979943,0.00023495024138277444
-0.4665337052436371,-0.4665337052436371,0.9999754105182845,0.0002464230806483208
-0.4664229246423929,-0.4664229246423929,0.9996585599717587,0.00022970181632458718
-0.4663343274689396,-0.4663343274689396,1.00003605601757,0.00024356695244143637
-0.4661600789557269,-0.4661600789557269,0.9995607449502195,0.0002588288553287682
-0.46594236099117553,-0.46594236099117553,0.999753709312,0.00024152097404799957
-0.46572009431183686,-0.46572009431183686,0.9997988289660931,0.0002520262447552193
-0.4656231552784448,-0.4656231552784448,0.9999967571223871,0.00023732172294321357
-0.46548907615215285,-0.46548907615215285,1.0001332106646512,0.0002344592975451064
-0.4652668947856,-0.4652668947856,1.0002176088180907,0.00023807814433731965
-0.46515799725384566,-0.46515799725384566,1.0001740203147087,0.0002301987334005102
-0.46493492049485213,-0.46493492049485213,0.9997679176259708,0.0002455302293623993
-0.46472880929504756,-0.46472880929504756,0.999940720650156,0.0002482777756237061
-0.4645999705309805,-0.4645999705309805,1.0001043951583557,0.0002613995144336923
-0.4644089599147264,-0.4644089599147264,1.0002001678042587,0.00024177925581000612
-0.4642328873196675,-0.4642328873196675,0.9999130242840837,0.00023186083538715064
-0.4640760537033202,-0.4640760537033202,0.9999750022391887,0.00025828073922028123
-0.46396317589315006,-0.46396317589315006,0.9998465196964134,0.0002376291628600216
-0.4637335518506006,-0.4637335518506006,0.9998077901711173,0.00026191738109483935
-0.4635387193789938,-0.4635387193789938,1.0000357365566939,0.00023874494100836513
-0.46342101028130855,-0.46342101028130855,1.0000263706706174,0.00023614787063676776
-0.4632223176304251,-0.4632223176304251,1.000050971080997,0.00026430167653742373
-0.46307287222953164,-0.46307287222953164,0.9999219472239951,0.0002423605909537801
-0.4628509698901325,-0.4628509698901325,0.9997943073824678,0.00024026155840111788
-0.46276095622088176,-0.46276095622088176,0.9996519206322407,0.00026671143854175466
-0.4625494642699778,-0.4625494642699778,1.0001179834050444,0.0002370834965879995
-0.4623846723538009,-0.4623846723538009,1.00004903986182,0.00023176328248905204
-0.46224009752695566,-0.46224009752695566,0.9997782165532876,0.00023587465360743308
-0.4621087398139935,-0.4621087398139935,0.9998953389031293,0.0002602661743293409
-0.46196728464710757,-0.46196728464710757,1.0001401273585429,0.0002565322412678663
-0.46176321015664146,-0.46176321015664146,1.0002333829604715,0.0002555053727540132
-0.46162825107385286,-0.46162825107385286,0.9997927918590032,0.0002446032427413242
-0.4614805870078271,-0.4614805870078271,1.0000314089866176,0.000249065404208747
-0.4612518848916807,-0.4612518848916807,1.0001715334063424,0.00023948639936753708
-0.4610615188306838,-0.4610615188306838,0.9997222030520323,0.00023885488165406506
-0.4608729536543251,-0.4608729536543251,1.0000035862157846,0.0002569141146212234
-0.46065432965187936,-0.46065432965187936,0.9999832154044069,0.00023918335929233483
-0.460573313110217,-0.460573313110217,0.9999487354414487,0.00026211285969462755
-0.46039411613237463,-0.46039411613237463,1.0000580460878663,0.0002383736817586715
-0.46020059709335326,-0.46020059709335326,0.9996346930003159,0.00023310936651797253
-0.4599334316488239,-0.4599334316488239,1.0004038767109364,0.00023764310216005884
-0.45974393807482555,-0.45974393807482555,0.9999477245381696,0.00024121524604719464
-0.45957573446721656,-0.45957573446721656,0.9998913337674002,0.0002451356798274098
-0.4593784268749005,-0.4593784268749005,1.0000129471289476,0.00025472915317172295
-0.45928855486345127,-0.45928855486345127,0.9995926760810384,0.0002481171744914512
-0.45902269546495517,-0.45902269546495517,0.9999987175310027,0.0002455114260041484
-0.45873323326159154,-0.45873323326159154,0.9998811943854982,0.000229313427575223
-0.45858149488267375,-0.45858149488267375,1.0000173775909318,0.00024295534015401134
