time,time,flux,flux_err
-0.4998630213427532,-0.4998630213427532,1.0000472544525931,9.497742644880031e-05
-0.4996158691828896,-0.4996158691828896,0.9999628017989874,9.323897299729289e-05
-0.499353692762088,-0.499353692762088,1.0000077813086177,9.295529905018255e-05
-0.4990059288378689,-0.4990059288378689,1.0000909978114454,9.461600800940651e-05
-0.49866394281052634,-0.49866394281052634,0.999983333226959,9.387647145185387e-05
-0.498421956684615,-0.498421956684615,0.999895978548424,9.60199695177067e-05
-0.49829477193998173,-0.49829477193998173,0.999883391087527,0.00010005580060109721
-0.49807789028272964,-0.49807789028272964,0.9998561948183028,9.404198604362233e-05
-0.4975773786340142,-0.4975773786340142,1.0001465077025191,9.281043627142258e-05
-0.4973056046263082,-0.4973056046263082,1.0001080431515827,9.394382388755695e-05
-0.49712075933493904,-0.49712075933493904,0.9999598550293246,9.193044473250688e-05
-0.49696634671709033,-0.49696634671709033,1.000090261400664,9.413234139803575e-05
-0.4968326702823106,-0.4968326702823106,0.9999288976023684,9.484532942367899e-05
-0.49663836163817904,-0.49663836163817904,1.0000627466694993,9.25587950235376e-05
-0.4964338497527933,-0.4964338497527933,1.000035729104522,9.24273830910023e-05
-0.4962188033416169,-0.4962188033416169,0.9999139275405323,9.333249720912735e-05
-0.4960633304464864,-0.4960633304464864,0.9999245395618713,9.56713971616445e-05
-0.4959331689919054,-0.4959331689919054,1.0001789986461662,9.288197019100109e-05
-0.49571012548040017,-0.49571012548040017,0.9999247229263449,9.289747893941321e-05
-0.4955034957936732,-0.4955034957936732,1.0001008292129843,9.421962886367065e-05
-0.4953318158339243,-0.4953318158339243,0.9999208865398105,9.248085984467477e-05
-0.49498093449365116,-0.49498093449365116,1.0001920784866478,9.35829394622596e-05
-0.4946696488907037,-0.4946696488907037,1.000159965656773,9.518655449047214e-05
-0.49449499506663414,-0.49449499506663414,1.0002733663018346,9.611175016318696e-05
-0.4942538631890784,-0.4942538631890784,0.9999197323566664,9.255526129521731e-05
-0.49387290980957915,-0.49387290980957915,1.0000133957535153,9.390253330875142e-05
-0.4936371214360406,-0.4936371214360406,0.9997779380741662,9.503432904374925e-05
-0.49331766949326267,-0.49331766949326267,0.9999828591885768,9.378759985565778e-05
-0.49292234256427037,-0.49292234256427037,1.0000319376344675,9.724503000026817e-05
-0.49269424079320745,-0.49269424079320745,0.9998505071155963,9.231092698185415e-05
-0.4925352954371192,-0.4925352954371192,1.0002080025929747,9.308831264040249e-05
-0.4923898015076702,-0.4923898015076702,1.0000496059815183,9.353131967481868e-05
-0.49224866128206485,-0.49224866128206485,1.0000557184613463,9.442818329208721e-05
-0.4920446217278368,-0.4920446217278368,0.999927266487964,9.30784064107276e-05
-0.49181770789436996,-0.49181770789436996,0.9999677435609755,9.244051790700869e-05
-0.49162824930172067,-0.49162824930172067,0.9999946701691252,9.320895401503264e-05
-0.4914165837930341,-0.4914165837930341,1.0002197725891617,9.410851350913041e-05
-0.4912314268411137,-0.4912314268411137,1.0000718192945723,9.367174979239837e-05
-0.49105684700480196,-0.49105684700480196,1.000043160569454,9.320130316054523e-05
-0.4908791752910474,-0.4908791752910474,1.0000141994056204,9.496654764480526e-05
-0.4906425969566044,-0.4906425969566044,0.999930661456266,9.254905415329427e-05
-0.4904116061996319,-0.4904116061996319,0.9999951408194623,9.335178437053632e-05
-0.49017416777132894,-0.49017416777132894,0.9999610513197071,9.582111959580496e-05
-0.48989920879612325,-0.48989920879612325,1.0000708931757667,9.410320572467906e-05
-0.48945090088891446,-0.48945090088891446,1.0000011534992506,9.297493493609436e-05
-0.4891558908537263,-0.4891558908537263,0.9999909665697142,9.331562602826456e-05
-0.48897573606082007,-0.48897573606082007,1.0000187920019439,9.291367634536648e-05
-0.4887774476213963,-0.4887774476213963,0.9999408413975093,9.38010815507066e-05
-0.48856242411929995,-0.48856242411929995,0.9999100694376644,9.354783889486586e-05
-0.488372575527319,-0.488372575527319,1.0000207552391043,9.23129744685878e-05
-0.48823146057038685,-0.48823146057038685,1.0000037270986786,9.231800054766351e-05
-0.48805439683637813,-0.48805439683637813,0.9998114503666089,9.378186634536685e-05
-0.48789010198888716,-0.48789010198888716,1.0001367437054554,9.424807598917011e-05
-0.48774401572954956,-0.48774401572954956,1.0001256456938747,9.464244273000409e-05
-0.48762755249263134,-0.48762755249263134,1.000134954640331,9.416263115989438e-05
-0.48740222182532306,-0.48740222182532306,1.0002254570467815,9.323678269254202e-05
-0.4872218075601268,-0.4872218075601268,0.9998727950022521,9.272449974808158e-05
-0.4870883083611261,-0.4870883083611261,1.0000410057805327,9.29818034259205e-05
-0.4868943407280312,-0.4868943407280312,1.000165201274896,9.299789398435554e-05
-0.48666491730109557,-0.48666491730109557,1.0001737731192073,9.383382934753328e-05
-0.4865184522670461,-0.4865184522670461,0.9998964325055024,9.440672092082139e-05
-0.48625587644273766,-0.48625587644273766,1.0001025068412792,9.54781465138681e-05
-0.48587524772447066,-0.48587524772447066,0.999858228778552,9.332674249393508e-05
-0.4856829258525977,-0.4856829258525977,0.9999931952964115,9.585963327212715e-05
-0.48544707048422425,-0.48544707048422425,0.9999777187269642,9.420653022686197e-05
-0.48516145535104443,-0.48516145535104443,0.9999860826228906,9.366077925787238e-05
-0.4849273579886358,-0.4849273579886358,1.0000773448988869,9.26429677334078e-05
-0.48470504822253135,-0.48470504822253135,0.9999387738322753,9.40792707138711e-05
-0.48451252339145867,-0.48451252339145867,1.0000958433689717,9.29054158612741e-05
-0.4843394949028152,-0.4843394949028152,1.000122748972175,9.325291047251144e-05
-0.48422571046394297,-0.48422571046394297,1.000030806118417,9.315560026499625e-05
-0.48406013668209197,-0.48406013668209197,1.0001975616404628,9.444503508667263e-05
-0.48389596971755966,-0.48389596971755966,0.9999904519297061,9.295596233213638e-05
-0.4837030000933737,-0.4837030000933737,1.0000551555406463,9.256850582145556e-05
-0.48351247043319745,-0.48351247043319745,1.0000382600419344,9.395658870576241e-05
-0.4833566150315164,-0.4833566150315164,0.9999681045249318,9.458211292762371e-05
-0.4831420668917417,-0.4831420668917417,1.0000532448440451,9.442915998804423e-05
-0.4829525786728482,-0.4829525786728482,0.9999438246155646,9.286170996740137e-05
-0.4826538605193491,-0.4826538605193491,0.9999784574002414,9.398077975825405e-05
-0.48248898334713886,-0.48248898334713886,0.9999786368126287,9.26691599856053e-05
-0.4822675782641454,-0.4822675782641454,1.0002670262460789,9.355417803075465e-05
-0.48200870743967245,-0.48200870743967245,0.9999517710375997,9.550384784019037e-05
-0.48173270007318936,-0.48173270007318936,1.0003898113151855,9.407978550376413e-05
-0.48144865889917127,-0.48144865889917127,1.0001509994241442,9.545006535649858e-05
-0.48123527343996103,-0.48123527343996103,1.000022934606987,9.4210646287047e-05
-0.4809760328433185,-0.4809760328433185,1.0001269221142408,9.322989544785136e-05
-0.4807649094473163,-0.4807649094473163,0.9999749519974468,9.31431781091421e-05
-0.4805876806633023,-0.4805876806633023,0.9999172508928185,9.362880009299715e-05
-0.4802943100279663,-0.4802943100279663,0.9998589886102373,9.304259207621336e-05
-0.480098422721494,-0.480098422721494,1.0000426272604603,9.268237323469268e-05
-0.47985873905199694,-0.47985873905199694,1.0000860647628769,9.355662202433298e-05
-0.4796811206491839,-0.4796811206491839,0.9999358476093413,9.503853890583685e-05
-0.4795085938676493,-0.4795085938676493,1.0000321303182471,9.224838028016191e-05
-0.4793090662809846,-0.4793090662809846,0.9999342749000604,9.465074218670722e-05
-0.47910120096494213,-0.47910120096494213,0.9997466911254145,9.352666133509679e-05
-0.47894271227633,-0.47894271227633,1.000066445272592,9.239682314265738e-05
-0.4787804558582138,-0.4787804558582138,1.000058850637324,9.350721090817285e-05
-0.4786424925507163,-0.4786424925507163,1.0000873092652731,9.45172882481513e-05
-0.4784063930885168,-0.4784063930885168,1.0000130452333729,9.363707217417984e-05
-0.47819852613756664,-0.47819852613756664,1.0000915862679771,9.353581562496383e-05
-0.4779492473178834,-0.4779492473178834,1.00001177353957,9.33852270687882e-05
-0.47767244000497155,-0.47767244000497155,1.00011832155473,9.296557566566024e-05
-0.477404636052961,-0.477404636052961,0.9999884793381982,0.00010084557063030923
-0.47721398358771694,-0.47721398358771694,1.0000589240516127,9.32878559716593e-05
-0.4768418168016069,-0.4768418168016069,1.0000395301484017,9.392092041966408e-05
-0.47669520339695737,-0.47669520339695737,1.00022866781338,9.450736220083899e-05
-0.47640230316246746,-0.47640230316246746,0.9998735430947061,9.393117385976889e-05
-0.47617979414280853,-0.47617979414280853,0.9999804149127558,9.265136714365596e-05
-0.4760518517898163,-0.4760518517898163,0.9999087858756373,9.332926774928856e-05
-0.475895819147263,-0.475895819147263,1.000045033932437,9.413168652365894e-05
-0.47578533033592973,-0.47578533033592973,1.00004287488822,9.26547817275092e-05
-0.47560738742104147,-0.47560738742104147,1.0001622069487996,9.280702771939664e-05
-0.47550213717404405,-0.47550213717404405,0.9999833028413724,9.195234063016144e-05
-0.4752976852018037,-0.4752976852018037,1.0000104735490836,9.263741666039708e-05
-0.4751686500254436,-0.4751686500254436,0.9999929386479549,9.465036888886799e-05
-0.47507673934305783,-0.47507673934305783,0.9999367340292945,9.3402140685926e-05
-0.4749439771723701,-0.4749439771723701,1.0001045374053885,9.158522946999693e-05
-0.4747858495371474,-0.4747858495371474,1.000191932528567,9.346487643987491e-05
-0.474581751858932,-0.474581751858932,0.9998904058078715,9.332616663970078e-05
-0.474354605247936,-0.474354605247936,1.0001760046185306,9.360729298525886e-05
-0.4741537498346588,-0.4741537498346588,0.9998906869962653,9.378592443181182e-05
-0.4739439827120805,-0.4739439827120805,1.0001242031125046,9.31016080730056e-05
-0.473729419628944,-0.473729419628944,0.9999296953070493,9.51848949268816e-05
-0.4734171330193931,-0.4734171330193931,1.000094857956921,9.479869908971247e-05
-0.4731383102000109,-0.4731383102000109,0.9999754037037935,9.479301801571105e-05
-0.4729314395073743,-0.4729314395073743,1.0001060374497013,9.497638246887197e-05
-0.47277929104384386,-0.47277929104384386,0.9999716671802892,9.242428851117913e-05
-0.47255468907897014,-0.47255468907897014,0.9997604629625169,9.285401008254626e-05
-0.47240029890017465,-0.47240029890017465,0.9999632265241314,9.453374499193648e-05
-0.4722316364692233,-0.4722316364692233,1.0001595394769485,9.315527008593784e-05
-0.4718801180169976,-0.4718801180169976,0.9999055813218032,9.30275023029585e-05
-0.4716316527046729,-0.4716316527046729,1.000066299936536,9.35736926670608e-05
-0.4715412301447941,-0.4715412301447941,1.0001719886587703,9.268959250794174e-05
-0.471385963830835,-0.471385963830835,0.9999824691490538,9.431662688735885e-05
-0.47122086721938106,-0.47122086721938106,0.9999758069138036,9.302998069225888e-05
-0.47099119618869734,-0.47099119618869734,1.0000073677766328,9.390333299109787e-05
-0.47079449479933827,-0.47079449479933827,1.0000978106497938,9.343603550596833e-05
-0.470631149282417,-0.470631149282417,0.999947656158993,9.418116773697523e-05
-0.47039806779284843,-0.47039806779284843,0.9999775579558804,9.301088771583576e-05
-0.47021231116523265,-0.47021231116523265,1.0000859520125058,9.29550223806867e-05
-0.46990051659959137,-0.46990051659959137,0.999862227927324,9.439831111188934e-05
-0.46964744848082773,-0.46964744848082773,1.000128154195678,9.42537202484303e-05
-0.4694375612089061,-0.4694375612089061,0.9999935565117462,9.744430007954547e-05
-0.4692238636693219,-0.4692238636693219,0.9999696492923456,9.608919405108471e-05
-0.4689738619541458,-0.4689738619541458,0.9998203834171859,9.40735883011169e-05
-0.4685816770106612,-0.4685816770106612,0.9999700890883106,9.346924146053331e-05
-0.4682068318281381,-0.4682068318281381,1.0000479272558527,9.393181538628229e-05
-0.46799614542542256,-0.46799614542542256,1.000090198174329,9.226561648123139e-05
-0.4678596579389705,-0.4678596579389705,1.0001586155637063,9.36635268992898e-05
-0.4677159659164317,-0.4677159659164317,0.9999606441047739,9.495285978024278e-05
-0.46756437312287746,-0.46756437312287746,0.9998693274327092,9.255145289370495e-05
-0.46735384305065963,-0.46735384305065963,1.0000511817661597,9.231003274144487e-05
-0.46717968694720186,-0.46717968694720186,0.9999522129948086,9.232557610063987e-05
-0.46702121927955886,-0.46702121927955886,1.0001307681611329,9.453430875855343e-05
-0.46692987454807733,-0.46692987454807733,1.0000193806596185,9.343904134648822e-05
-0.46680744517216227,-0.46680744517216227,1.00013392565699,9.150490787190452e-05
-0.4666892071363691,-0.4666892071363691,1.000008620283773,9.364005939078479e-05
-0.4664942718562088,-0.4664942718562088,0.9999633877791553,9.355979622335053e-05
-0.46635447034350364,-0.46635447034350364,0.999882918973506,9.28766068816049e-05
-0.46605774220006424,-0.46605774220006424,0.9999976317974365,9.239914341095545e-05
-0.4656756564399984,-0.4656756564399984,0.9999331278742531,9.391390226002758e-05
-0.46548338405991674,-0.46548338405991674,1.000166378593046,9.492470675687084e-05
-0.46520724509464345,-0.46520724509464345,1.0000639571470973,9.378659946631682e-05
-0.46473398484959033,-0.46473398484959033,0.9999861890942496,9.38407507253707e-05
-0.46454294011928143,-0.46454294011928143,1.0000128811693936,9.485808928219475e-05
-0.4643345700460486,-0.4643345700460486,1.00002764723432,9.26659367211171e-05
-0.46407855770594325,-0.46407855770594325,1.0000327217035845,9.530274010762943e-05
-0.4638401449585217,-0.4638401449585217,1.0001050352306258,9.19525171044118e-05
-0.46360828287579353,-0.46360828287579353,1.0001060721340873,9.303499746861888e-05
-0.46339815542451107,-0.46339815542451107,1.0000213874641173,9.346157320748093e-05
-0.46329297682241305,-0.46329297682241305,1.0001344391287368,9.276357499685512e-05
-0.46316548360482557,-0.46316548360482557,1.0000381813602441,9.428162944230768e-05
-0.4629795686734724,-0.4629795686734724,0.9998728988208482,9.39543494902853e-05
-0.46279050307712166,-0.46279050307712166,0.9999942306845757,9.2956101455028e-05
-0.46261979271657766,-0.46261979271657766,0.9999955552015175,9.329886313423493e-05
-0.4623457883368246,-0.4623457883368246,0.9999835582760234,9.386467571687393e-05
-0.4621199552966573,-0.4621199552966573,0.9999663927545888,9.358509648584888e-05
-0.4620242934288399,-0.4620242934288399,1.0002618751492904,9.29228523122854e-05
-0.46188200549368047,-0.46188200549368047,1.0000246097703862,9.492247751911667e-05
-0.4616498145383957,-0.4616498145383957,1.0000002418786418,9.424088671976946e-05
-0.46139403931738343,-0.46139403931738343,1.0001555192380212,9.298000323042107e-05
-0.4611776190366072,-0.4611776190366072,0.9998437445342058,9.448894487893045e-05
-0.46099411504983434,-0.46099411504983434,1.0001889701823266,0.00010185475473655764
-0.4607100230139622,-0.4607100230139622,1.0000840263611752,9.321256800687432e-05
-0.4603538564420887,-0.4603538564420887,1.0000150942983386,9.266541592184904e-05
-0.46006270208526984,-0.46006270208526984,1.0000794115884208,9.266720406587718e-05
-0.45990300191333516,-0.45990300191333516,1.0000049911243512,9.38211849029668e-05
-0.4597401678955066,-0.4597401678955066,1.0001929983978244,9.512066623699011e-05
-0.45959901785099644,-0.45959901785099644,1.0001415914240392,9.42327964731035e-05
-0.45943497643966114,-0.45943497643966114,1.0000443168865125,9.27601119592604e-05
-0.4592622579315503,-0.4592622579315503,1.000238405298369,9.264419997120756e-05
-0.45911050891227206,-0.45911050891227206,1.0001253246188635,9.244755212481645e-05
-0.4589396454524831,-0.4589396454524831,1.0000138782335044,9.463837474886369e-05
-0.4588094069687941,-0.4588094069687941,0.9999244019613613,9.372812248276068e-05
-0.45871372982510367,-0.45871372982510367,1.0000460048844553,9.535875778241164e-05
-0.4585855871962849,-0.4585855871962849,1.0001604451280584,9.256089675659558e-05
-0.4583617136551766,-0.4583617136551766,0.999975950838673,9.356343648759952e-05
-0.4581348856649129,-0.4581348856649129,0.9999132932150298,9.26902874039651e-05
-0.4578639210703841,-0.4578639210703841,0.9999505317582423,9.226539852883119e-05
-0.4575694359948102,-0.4575694359948102,0.9999931623291811,9.312626017611784e-05
-0.45733878801693206,-0.45733878801693206,1.000067456152045,9.432988277252095e-05
-0.45712659782584525,-0.45712659782584525,1.0001870149246908,9.508581675937986e-05
-0.4567369983313256,-0.4567369983313256,1.0001215389964249,9.39119611693859e-05
-0.45644937083998227,-0.45644937083998227,1.0002259077243534,9.553044092017513e-05
-0.4562169956334401,-0.4562169956334401,0.9998689201384838,9.427794414716143e-05
-0.45597856378517465,-0.45597856378517465,1.000047656633211,9.413089323531785e-05
-0.4556555512128398,-0.4556555512128398,0.9999857864853492,9.785201064165571e-05
-0.4554215189731622,-0.4554215189731622,1.0000137790768224,9.28959933222999e-05
-0.4552400111504539,-0.4552400111504539,1.0001928825614939,9.34721803358517e-05
-0.4550940814391652,-0.4550940814391652,0.9998923414486154,9.314506410727634e-05
-0.4549498373693496,-0.4549498373693496,1.0000366399972773,9.467146748786079e-05
-0.45480714707591685,-0.45480714707591685,0.9999410056865606,9.209732943528921e-05
-0.45463214678384245,-0.45463214678384245,1.000008440550618,9.268406877211375e-05
-0.4544309144941508,-0.4544309144941508,0.999876801773401,9.387969966956668e-05
-0.454291569666384,-0.454291569666384,1.0000116692915022,9.363202849931409e-05
-0.45402083656954345,-0.45402083656954345,1.0000681110941898,9.320278294745553e-05
-0.45375238432534387,-0.45375238432534387,0.9999265430139073,9.241663834457233e-05
-0.4534422720542352,-0.4534422720542352,0.9999012437895726,9.31946680349909e-05
-0.45320389307526054,-0.45320389307526054,0.9999750598161933,9.313983545807215e-05
-0.4530107142258203,-0.4530107142258203,1.0000930146982285,9.330746463688525e-05
-0.45275332411911223,-0.45275332411911223,0.9999353040438036,0.00010216826086461915
-0.4524304817103257,-0.4524304817103257,1.0001245539969061,9.375953470022538e-05
-0.45200210660041196,-0.45200210660041196,1.0000096790029793,9.277604418635581e-05
-0.451798045536998,-0.451798045536998,1.000174174386557,9.419458367999995e-05
-0.451586567069171,-0.451586567069171,0.999915523377149,9.22661659878422e-05
-0.4514099667743722,-0.4514099667743722,1.0001050729459044,9.41601268266792e-05
-0.4511977965034021,-0.4511977965034021,0.9999091422665574,9.231999467364405e-05
-0.4510480824865226,-0.4510480824865226,1.0000085248822657,9.23264045706802e-05
-0.45090056798726436,-0.45090056798726436,1.0002277124600158,9.231339754251034e-05
-0.45070594875287495,-0.45070594875287495,1.000091264705289,9.345211929600152e-05
-0.4505196164158406,-0.4505196164158406,0.9998735703851731,9.554734669900341e-05
-0.4503762562912016,-0.4503762562912016,1.0001006775703964,9.289860459023967e-05
-0.4501752799616952,-0.4501752799616952,0.9997910167320366,9.271373258468637e-05
-0.4499445307796123,-0.4499445307796123,1.0000144837777043,9.336980242087944e-05
-0.4497718675389478,-0.4497718675389478,1.0000599990228498,9.207374679206747e-05
-0.4496074123388098,-0.4496074123388098,0.9998173080228675,9.370668156483231e-05
-0.449382178990345,-0.449382178990345,1.0000957226435456,9.310495605557632e-05
-0.44919071412077755,-0.44919071412077755,1.0002129662128432,9.271079580450806e-05
-0.44902720097161364,-0.44902720097161364,0.9999612736034695,9.377901754309966e-05
-0.4487131216359558,-0.4487131216359558,1.000072562573366,9.411367965970056e-05
-0.4483854613165022,-0.4483854613165022,1.000048363516126,9.689801554489102e-05
-0.44813274194893893,-0.44813274194893893,1.0000649738563359,9.42056293501158e-05
-0.4478488520398969,-0.4478488520398969,0.9999500981457772,9.370168056452188e-05
-0.44757027311861747,-0.44757027311861747,0.9999531881845283,9.177621766140262e-05
-0.4473731176854926,-0.4473731176854926,1.0001443837894421,9.453674566497915e-05
