time,time,flux,flux_err
-0.4995044737540108,-0.4995044737540108,0.9999436841908826,0.0002658725395128352
-0.49839337349597673,-0.49839337349597673,1.0001148392537895,0.0002658018799384178
-0.49738787951840396,-0.49738787951840396,0.9997033451279554,0.00027463129354086556
-0.49628112125355983,-0.49628112125355983,0.9999444571854257,0.000265709701748252
-0.4954280579840997,-0.4954280579840997,0.9999709841054113,0.00022945936219711865
-0.49465727610804605,-0.49465727610804605,1.0002787462208156,0.00024676135164468404
-0.4938307758857263,-0.4938307758857263,0.9996845399994501,0.00024685376225396535
-0.49280804055160843,-0.49280804055160843,0.9998705685350731,0.000238304900243615
-0.49181686756492127,-0.49181686756492127,0.999854309666361,0.00022950740504682106
-0.4913334361102898,-0.4913334361102898,0.9994470542084055,0.0002467737487257658
-0.4904978510690853,-0.4904978510690853,1.0000043472476805,0.0002469162870701703
-0.4892090349108912,-0.4892090349108912,1.0000279175406133,0.00024015758133428817
-0.4884768664895091,-0.4884768664895091,0.99980668911605,0.000246865132756169
-0.48783119876461567,-0.48783119876461567,0.9999525725894302,0.0002295799134501174
-0.48734000854892656,-0.48734000854892656,0.9998035140314915,0.00024694915935310265
-0.4865913040237501,-0.4865913040237501,0.9997863936015742,0.00024684744734169864
-0.48570603265543466,-0.48570603265543466,0.9999869861331823,0.0002482803920937507
-0.48486298441130204,-0.48486298441130204,0.9995548451509462,0.00024894690584167033
-0.48411893572774717,-0.48411893572774717,0.9997589869884518,0.00022957283311801014
-0.48356812889687717,-0.48356812889687717,0.9999130292417663,0.0002468171727245395
-0.48282319559657483,-0.48282319559657483,1.0002504418615938,0.00024695550500735834
-0.48146258684864734,-0.48146258684864734,1.0001021955492968,0.00024320606291184776
-0.4807878225488821,-0.4807878225488821,0.9997629484933517,0.00024554385850959477
-0.48032544387097004,-0.48032544387097004,1.0001969962236243,0.00024691062966648175
-0.47940094214864076,-0.47940094214864076,1.0003133324655322,0.00024680137193847204
-0.478545472692349,-0.478545472692349,1.0002055833048982,0.0002552170278308291
-0.47774344469071367,-0.47774344469071367,1.0001017338407219,0.0002664876956125804
-0.4768448795599397,-0.4768448795599397,1.0002514020236661,0.00022949306644851658
-0.4759420097747352,-0.4759420097747352,0.9999514778524736,0.00024680806723456156
-0.474926646539825,-0.474926646539825,1.0000702474154834,0.0002468719288624193
-0.4740867188957054,-0.4740867188957054,1.0000755095916296,0.000246884241175883
-0.4731589590985095,-0.4731589590985095,0.9997657484843785,0.00022927311161635182
-0.47242776010534726,-0.47242776010534726,1.0000248935132496,0.00023842999975566128
-0.4715814434370259,-0.4715814434370259,0.9999909611424733,0.0002382503653806598
-0.4709051579411607,-0.4709051579411607,0.9999099888763471,0.00024696731833371216
-0.46995721279236025,-0.46995721279236025,0.9998497437805118,0.00025501886067857114
-0.4690881405898836,-0.4690881405898836,0.9997214596095944,0.0002469084353345751
-0.46830282713635824,-0.46830282713635824,1.000079950119339,0.00022948895685123596
-0.46785620791488325,-0.46785620791488325,1.0001904388620813,0.0002468422742460332
-0.4671412470168434,-0.4671412470168434,1.0003146095081785,0.0002468247705518164
-0.4658733300631866,-0.4658733300631866,0.9999790161304138,0.000238354994312722
-0.4652043067559134,-0.4652043067559134,1.0001325763376137,0.000247606795652979
-0.4645633534586523,-0.4645633534586523,0.9999215043079499,0.00023827398428883888
-0.4639846442762064,-0.4639846442762064,0.9998687880372309,0.00023836089903740975
-0.4631018584477715,-0.4631018584477715,0.9999186645328415,0.0002551654701390646
-0.46225254440214486,-0.46225254440214486,0.9997425428518314,0.00024436745355435445
-0.46162138475338,-0.46162138475338,0.9998827203261307,0.00025117989770672523
-0.4608896667370573,-0.4608896667370573,0.9999161528832821,0.00022953795007452926
-0.4603713871561922,-0.4603713871561922,0.9997467529708878,0.0002468332349634997
-0.45961998371058144,-0.45961998371058144,0.9998376780399807,0.00024678594039568007
-0.45844819113845003,-0.45844819113845003,0.9997135241724677,0.0002418315278443392
-0.45739958267076875,-0.45739958267076875,1.0003683479417276,0.00025529321127451505
-0.45694040062953717,-0.45694040062953717,1.0002637656808047,0.00022944268917185598
-0.45603410100738984,-0.45603410100738984,0.9998165621128614,0.0002382384287535995
-0.45482179503014775,-0.45482179503014775,1.000162607856436,0.0002562481028409359
-0.45426463449548465,-0.45426463449548465,1.0000447320311219,0.0002552438527216809
-0.45361690111167263,-0.45361690111167263,0.9997495346766752,0.00025148151710180166
-0.4527709832735127,-0.4527709832735127,1.0004069831394582,0.00024684408277232553
-0.45206748234923,-0.45206748234923,1.0001358074282538,0.00023831458278871062
-0.45093011648859826,-0.45093011648859826,1.0000406143301928,0.0002553241011139885
-0.4500431126856711,-0.4500431126856711,0.9998698382631602,0.00023818952641053306
-0.4492674412438646,-0.4492674412438646,1.0000210320444158,0.00023836903407197245
-0.4483803345996421,-0.4483803345996421,1.0000799296371035,0.00022939738234439353
-0.44740450202370996,-0.44740450202370996,1.0000773153654379,0.0002551724485035939
-0.44652637823892294,-0.44652637823892294,1.0002990682365855,0.00024744582727826434
-0.44589125768397936,-0.44589125768397936,0.9995600679323309,0.00025456002472036034
-0.44515112667286305,-0.44515112667286305,1.0004964433489956,0.00023839885022400618
-0.44457678296021186,-0.44457678296021186,1.000103601648029,0.0002468726927150772
-0.44374044917349237,-0.44374044917349237,0.9998499728210268,0.0002469652635871373
-0.44254854492028245,-0.44254854492028245,0.9998408487618213,0.0002382583368010444
-0.44184119303245095,-0.44184119303245095,0.999592851984503,0.0002384499805178058
-0.44123059315315916,-0.44123059315315916,0.9998698104458178,0.00023827243182573217
-0.44063733401126226,-0.44063733401126226,1.0001276269650587,0.0002468346647882066
-0.4397139716282254,-0.4397139716282254,0.9999264566849275,0.0002551716076735286
-0.4387191510933917,-0.4387191510933917,0.9999209888602018,0.0002334818984129228
-0.43784017061116176,-0.43784017061116176,1.0004436237913192,0.0002469188866824306
-0.4373194873915054,-0.4373194873915054,1.0001455056028412,0.00023837346365053613
-0.4367566153174266,-0.4367566153174266,0.9998990599605267,0.00022936905479858358
-0.4357607226149412,-0.4357607226149412,1.0002976391926803,0.0002494863566459441
-0.43461962706642226,-0.43461962706642226,1.0003412931975533,0.0002476591262815847
-0.4339068118861178,-0.4339068118861178,1.000225082522083,0.0002384801946496202
-0.4334362332330784,-0.4334362332330784,1.0002606274929928,0.0002382646575932623
-0.4325657909852453,-0.4325657909852453,0.9999493261185648,0.000246900830802072
-0.4312195590842748,-0.4312195590842748,1.000032249819112,0.00025415140012292
-0.4307413406757405,-0.4307413406757405,1.0001072319793296,0.0002569167423360111
-0.43017457381938584,-0.43017457381938584,1.0002478229748513,0.00023846162232887065
-0.4292694655887317,-0.4292694655887317,0.9998026608794881,0.0002468592341705416
-0.42880003453465176,-0.42880003453465176,1.0000653740959662,0.00023837036153078598
-0.42793033197231123,-0.42793033197231123,1.0001467416273417,0.00025531426027680106
-0.42696315080102065,-0.42696315080102065,0.9999634775110712,0.00023819303789704028
-0.4259959583869204,-0.4259959583869204,1.0003066686508215,0.000246939859586902
-0.4250722084805602,-0.4250722084805602,0.9998249019039047,0.00022933096837970854
-0.42403403273783624,-0.42403403273783624,1.0004580141811226,0.00025631613227370564
-0.42311861702182796,-0.42311861702182796,1.0001962016334163,0.00025254555916664546
-0.42242326218402015,-0.42242326218402015,0.9997993034810833,0.00023840209675997622
-0.42163792632345576,-0.42163792632345576,0.9998999870332199,0.00022931228581282584
-0.4209323447139468,-0.4209323447139468,1.0004086576648272,0.0002468499821817
-0.4199693939444842,-0.4199693939444842,1.000151092622044,0.00024697138364259975
-0.4190406085923314,-0.4190406085923314,1.000554237304773,0.00024689829276424715
-0.4180667502543656,-0.4180667502543656,1.000237472038546,0.0002295035452375816
-0.4175877190369647,-0.4175877190369647,1.0001572283022022,0.00024687328234865584
-0.416655400005402,-0.416655400005402,1.0003976754264048,0.00023844059108478837
-0.4155997986410512,-0.4155997986410512,0.9996733891566029,0.0002406427477156776
-0.41488153813697864,-0.41488153813697864,1.000240502105787,0.0002468647709985621
-0.4142066096246708,-0.4142066096246708,0.9999779246824042,0.0002295146294617574
-0.41374001882213635,-0.41374001882213635,0.9998581387989975,0.0002469497002489494
-0.4129909980809316,-0.4129909980809316,1.0001036808841262,0.00024686491878732634
-0.411961897983565,-0.411961897983565,0.9997719892454573,0.00024000960020138107
-0.4110595713631483,-0.4110595713631483,0.9998198217921098,0.0002567272935607646
-0.4104546191985719,-0.4104546191985719,0.9999928795264393,0.00022948551992621864
-0.4097823425516253,-0.4097823425516253,1.0000808918518032,0.00023825467067845066
-0.40894034834054765,-0.40894034834054765,1.0000436866959195,0.0002470032122798355
-0.407718327693874,-0.407718327693874,1.0006318490092518,0.0002439276928887908
-0.4071016197151039,-0.4071016197151039,0.9998153388333023,0.000262624788767733
-0.4063393741264008,-0.4063393741264008,1.0000077898823738,0.00023832159062345276
-0.4055845210619736,-0.4055845210619736,1.000095282378887,0.0002382763345622555
-0.404565647180425,-0.404565647180425,0.9999155984428516,0.00026305032699350603
-0.4039053864136804,-0.4039053864136804,0.9995370039621818,0.000259309126982667
-0.40280014960153493,-0.40280014960153493,0.9998033823852672,0.00023833897106130872
-0.40196750265604353,-0.40196750265604353,0.9998486383349071,0.00023823789636048597
-0.4009842394734733,-0.4009842394734733,1.0002880578902276,0.0002470011047854939
-0.40018655721505636,-0.40018655721505636,0.9998104654934588,0.00024780687695450526
-0.39929850745829754,-0.39929850745829754,0.999789366379541,0.0002468169840576888
-0.39877937140408903,-0.39877937140408903,0.9998279754522009,0.00022954894702682566
-0.3979787172924262,-0.3979787172924262,0.9997756017508979,0.00023824611170013242
-0.3972998063487466,-0.3972998063487466,1.0000708533406528,0.00024696508408657167
-0.3963457284466131,-0.3963457284466131,0.9997850590929531,0.00025436094106593646
-0.3954905588529073,-0.3954905588529073,1.0001252632028623,0.00024683364940793066
-0.39466184087505096,-0.39466184087505096,1.0001473058648935,0.00022954087596476709
-0.3940874539548531,-0.3940874539548531,1.0003455518832844,0.00023823404271559648
-0.3929631968436297,-0.3929631968436297,1.0001016297235537,0.00026322136090560554
-0.39209145120112227,-0.39209145120112227,0.9999029303010636,0.00023061041370047315
-0.3912516078184126,-0.3912516078184126,0.9998874617607753,0.0002470084083298456
-0.390836955193663,-0.390836955193663,0.9998521695639369,0.00022946212015084134
-0.3902532695326954,-0.3902532695326954,1.0000125308998882,0.00024690577475660025
-0.3892683852871414,-0.3892683852871414,0.9996177927548098,0.00025519473228766284
-0.38848367327300365,-0.38848367327300365,0.9997119802751022,0.0002302944400659871
-0.38767479165981056,-0.38767479165981056,0.9999625269969987,0.0002500056588815045
-0.38711554094334133,-0.38711554094334133,0.9999084298916874,0.000238435269634184
-0.38649358522670807,-0.38649358522670807,1.0001391302908003,0.0002556869471535324
-0.3858705298451241,-0.3858705298451241,1.000216323513115,0.0002469177521815885
-0.3848817506717751,-0.3848817506717751,1.000113300963292,0.00024242030232255151
-0.38406457972014324,-0.38406457972014324,1.00022621504086,0.0002470839136471715
-0.38352512090059465,-0.38352512090059465,0.9999057192223649,0.0002384575853532533
-0.38255851951253134,-0.38255851951253134,1.000210205407971,0.00023828803304469835
-0.3814683920587413,-0.3814683920587413,1.0001276148953497,0.00025510104100602717
-0.38067225118284115,-0.38067225118284115,0.999843861175421,0.0002492053922166481
-0.37995698318409266,-0.37995698318409266,1.0001790684376077,0.0002383202195551006
-0.37926250298623926,-0.37926250298623926,1.0002918276885926,0.00024702291732266207
-0.3782324414787581,-0.3782324414787581,0.9999491441770061,0.00022937213576564738
-0.377429270700668,-0.377429270700668,1.000359671771267,0.00025550429203269597
-0.37663263246649875,-0.37663263246649875,1.0003313294612417,0.0002382889317834258
-0.37585893044015395,-0.37585893044015395,1.0004442570424952,0.0002469218523411825
-0.3751989044743823,-0.3751989044743823,1.0002280281908518,0.0002294611732574621
-0.37417246752884237,-0.37417246752884237,1.0000876471480538,0.00023829354198369305
-0.37318454004707746,-0.37318454004707746,1.0001472876286375,0.0002553666932957879
-0.37245372174074876,-0.37245372174074876,1.000585477059127,0.0002631970515163721
-0.37160437513666694,-0.37160437513666694,1.0003108313658005,0.00022951221398550002
-0.3709842866723193,-0.3709842866723193,0.9997806335226542,0.00024680168562697116
-0.3699079955345951,-0.3699079955345951,1.0000981262439805,0.00025512849678286325
-0.3688808734645136,-0.3688808734645136,1.000005254298771,0.00022974852519948869
-0.3680447617371101,-0.3680447617371101,1.0003922929258493,0.0002469440524596958
-0.36755139408051035,-0.36755139408051035,1.0001332522148507,0.00023832254448509347
-0.3668872815935174,-0.3668872815935174,0.9997826726117353,0.00023830081086270594
-0.3658243509940803,-0.3658243509940803,0.9999962703346235,0.0002630845381402889
-0.36499517608608584,-0.36499517608608584,1.000281897387414,0.00023429204044956423
-0.36414162028813735,-0.36414162028813735,0.9999745134135368,0.00025409350931099946
-0.36371296615106985,-0.36371296615106985,0.9995614805974915,0.00023834240401653887
-0.3631306073453743,-0.3631306073453743,1.0002608889227298,0.00022946950645709062
-0.3624016111221863,-0.3624016111221863,0.999913232408536,0.00024699033090984607
-0.36113251158967613,-0.36113251158967613,0.9998359640100999,0.00024164162741606405
-0.3604283334861975,-0.3604283334861975,0.9999823375558059,0.0002469555545164947
-0.3600030545261689,-0.3600030545261689,0.9997473032662955,0.00023831235344518777
-0.3590961929759942,-0.3590961929759942,1.0001076500838841,0.0002383014815842927
-0.35811594284314197,-0.35811594284314197,1.0000030749464979,0.0002466939234283655
-0.3573667591554113,-0.3573667591554113,0.9997414078406714,0.0002552151465660957
-0.3567896995227784,-0.3567896995227784,1.0003254084289641,0.0002579376478863325
-0.35600702817027924,-0.35600702817027924,1.0003832440325713,0.00023830957579438946
-0.3552992841956438,-0.3552992841956438,1.0004119827311937,0.00023831725386301068
-0.3541518073703628,-0.3541518073703628,1.000113057157734,0.000263258908303332
-0.3530962028191425,-0.3530962028191425,0.99975497320383,0.00023813419723760204
-0.3523385900596622,-0.3523385900596622,1.0001265244939213,0.00023844910521768331
-0.3514505415194435,-0.3514505415194435,0.9998507145356694,0.0002293552152318775
-0.3504280949855456,-0.3504280949855456,0.9996788539498684,0.0002551439641798775
-0.34949706414190584,-0.34949706414190584,0.9998974412184181,0.0002624871166576478
-0.3488090911967447,-0.3488090911967447,0.9997774769409131,0.00023836314746393132
-0.3481187473254977,-0.3481187473254977,1.0000240169741494,0.00023824359653938925
-0.34746875676792116,-0.34746875676792116,1.000092088435025,0.0002468130845763747
-0.34671217581490055,-0.34671217581490055,1.0002950958907966,0.00024705105452891717
-0.3455882311915047,-0.3455882311915047,0.9999931841555061,0.00023834070942179035
-0.34468196919187905,-0.34468196919187905,1.0000630577250833,0.00024691157349597764
-0.34421652782766615,-0.34421652782766615,0.999765851969442,0.0002382297735206982
-0.3435523241525516,-0.3435523241525516,0.9998303549574464,0.00023839430578055854
-0.342141927962075,-0.342141927962075,0.9998685702322522,0.0002469434472139371
-0.34148148372478315,-0.34148148372478315,0.9999325594249784,0.000249637010061558
-0.3406588856043527,-0.3406588856043527,0.9999959764436376,0.0002295338406339423
-0.34016675101593136,-0.34016675101593136,0.9997440159331845,0.0002469858800422864
-0.3395333418331575,-0.3395333418331575,1.0000421280664784,0.00023839942887563456
-0.3385141072736587,-0.3385141072736587,0.9998202157072793,0.00023843374666544375
-0.3378018487099325,-0.3378018487099325,0.9999424186990001,0.00024139594081173783
-0.3370005911798216,-0.3370005911798216,0.9997879575148632,0.00024692953698153807
-0.3363714876002632,-0.3363714876002632,0.9997904517086132,0.00023828601308075064
-0.3356128855171846,-0.3356128855171846,0.9998939855445984,0.00024697516699926714
-0.3342552340327529,-0.3342552340327529,1.0001362366606288,0.00025290075140296775
-0.3336395625578007,-0.3336395625578007,1.0004371581290055,0.00025568663051869626
-0.3329355880909134,-0.3329355880909134,1.000263853261446,0.0002383002340624201
-0.33209638231492133,-0.33209638231492133,0.999670097940512,0.00024691608131295866
-0.33101200081873683,-0.33101200081873683,1.0003724995898167,0.0002552031637332832
-0.3301020323677221,-0.3301020323677221,0.9998205008420961,0.00024696506921510265
-0.32904609992110634,-0.32904609992110634,0.9998921419260125,0.00024690568658879386
-0.3282725562748965,-0.3282725562748965,1.0001805566397826,0.00022938601898102995
-0.3273802669165889,-0.3273802669165889,0.9998608420390107,0.00024688983795399555
-0.3265602583705913,-0.3265602583705913,1.0001172990626217,0.0002480249399314079
-0.3256985708168941,-0.3256985708168941,1.000192012635242,0.0002468738258842755
-0.32502177435089835,-0.32502177435089835,1.0002267699543563,0.00022947956578676
-0.32423267034173475,-0.32423267034173475,1.000014649138046,0.00023828002889723972
-0.3235473012609873,-0.3235473012609873,0.9999036002510333,0.0002469766409049248
-0.3223500390828121,-0.3223500390828121,0.9999866919012478,0.0002468787602097259
-0.3215008896484505,-0.3215008896484505,0.9997466599553075,0.00022948697471766947
-0.3208536730584456,-0.3208536730584456,1.0000649382244369,0.0002469400531832462
-0.3202178467210615,-0.3202178467210615,1.0001557599782256,0.00023834065350723625
-0.3187898389878683,-0.3187898389878683,0.9999238586460331,0.00024696874697133057
-0.31810344180848915,-0.31810344180848915,0.9999415210032524,0.0002399493255131318
-0.31734771688061303,-0.31734771688061303,0.999730746486596,0.000238293238568259
-0.3169033037556801,-0.3169033037556801,1.0003510654333407,0.00023846414860871924
-0.3161416356888367,-0.3161416356888367,0.99994180094779,0.0002468355259035333
-0.31514708500762934,-0.31514708500762934,1.0002783336108672,0.00024804587187817357
-0.31430341218656394,-0.31430341218656394,0.9999251748439132,0.0002491971386027028
-0.3135676567471819,-0.3135676567471819,1.0002726801577557,0.0002296115881876218
-0.31302015407709405,-0.31302015407709405,0.9998957834350971,0.00026392618034168705
-0.31241095705190675,-0.31241095705190675,0.9998170603155156,0.00023829590376298488
-0.3113016025599791,-0.3113016025599791,0.9999299797222223,0.0002513791914746388
-0.310465710965218,-0.310465710965218,1.0000849505114753,0.00024697679644571275
-0.30998991373053286,-0.30998991373053286,1.0000463871421836,0.0002451198225215311
-0.30915666265645997,-0.30915666265645997,0.9997556188559014,0.00023828608856028268
-0.3081585012783762,-0.3081585012783762,0.9993670202764326,0.00024676343179310886
-0.3072360030375421,-0.3072360030375421,0.9999170468568739,0.0002499960264955641
-0.3069162669708021,-0.3069162669708021,1.0000198725312128,0.00024700920050987256
-0.30586321848095394,-0.30586321848095394,0.9999957551648635,0.00023833973051796807
-0.3050156469573267,-0.3050156469573267,0.9999432858374722,0.00023824381330807571
-0.30402993124153,-0.30402993124153,0.9998390699336959,0.0002469070810403139
-0.30307111084694044,-0.30307111084694044,0.9998575473733794,0.0002293262840755258
-0.3021519835223444,-0.3021519835223444,1.0000566036309688,0.00024702262024997747
