time,time,flux,flux_err
-0.49980329441071564,-0.49980329441071564,0.9999351025240378,0.0002738813636714222
-0.49943348380960134,-0.49943348380960134,1.0002047945121668,0.0002704345928846392
-0.4986425290728221,-0.4986425290728221,1.0001412862663368,0.0002479338790104772
-0.498062949400628,-0.498062949400628,1.0000418844690966,0.0002487383177748597
-0.49745105403999335,-0.49745105403999335,1.0003269715120808,0.0002468935834625143
-0.4968606664886465,-0.4968606664886465,1.0004250461960864,0.0002536716740703568
-0.49635707060515416,-0.49635707060515416,0.9999782108010461,0.00023992773299256798
-0.49565118486643767,-0.49565118486643767,1.0000525254651198,0.0002595489149734161
-0.49501925166114236,-0.49501925166114236,1.0002746004185277,0.0002531791294690395
-0.4943592184106819,-0.4943592184106819,0.9999085923312963,0.00026353377999669645
-0.49338672530138866,-0.49338672530138866,0.9999530011197576,0.0002543978981070842
-0.49245586387696677,-0.49245586387696677,0.9998506176092856,0.00023922900112969335
-0.4918075499474071,-0.4918075499474071,1.0002322595237991,0.0002541207329883145
-0.49097207114973573,-0.49097207114973573,0.9999973738495912,0.00025592581052602797
-0.4903426017204765,-0.4903426017204765,1.0004820901627067,0.0002472984286971154
-0.48988603772595524,-0.48988603772595524,1.000030811051697,0.00025853835597064564
-0.4888777927000774,-0.4888777927000774,1.0002252602643238,0.0002630590467879448
-0.4879934974567732,-0.4879934974567732,0.9997702428267932,0.0002523703837690634
-0.4874760017119115,-0.4874760017119115,1.0001485165668254,0.00025443268270513837
-0.4867670546722366,-0.4867670546722366,0.9995614716779853,0.00024643266356651997
-0.4862651406263467,-0.4862651406263467,0.9995592520189172,0.00025486230320966545
-0.48542619390937036,-0.48542619390937036,0.9995874919455053,0.0002607069873480371
-0.4844147136755055,-0.4844147136755055,0.9998826730347636,0.0002463466099077623
-0.4838682287518168,-0.4838682287518168,1.0000749567441187,0.0002541447566735642
-0.48332143055158666,-0.48332143055158666,0.9997722561137701,0.0002479022935766887
-0.48271316332393327,-0.48271316332393327,0.9999746306641025,0.0002462229031145978
-0.4822064776526531,-0.4822064776526531,1.0000106215933335,0.00025229408944287283
-0.4815712052193703,-0.4815712052193703,0.9999064018183474,0.0002405953204208119
-0.4811529051861726,-0.4811529051861726,0.9999851820259458,0.0002538298587122866
-0.48047539763792885,-0.48047539763792885,1.0001944810451462,0.0002480668645757348
-0.4798026691772975,-0.4798026691772975,1.0000383544737999,0.0002615727579474658
-0.4793784967594547,-0.4793784967594547,1.0003603454457888,0.00025329733693992527
-0.47876524401945064,-0.47876524401945064,0.9997685382629644,0.0002531370347420062
-0.4777084797475254,-0.4777084797475254,1.0000319712398476,0.0002411640756521654
-0.47694340428861326,-0.47694340428861326,0.9998970686197776,0.00024000747266704156
-0.47613080846494993,-0.47613080846494993,1.0003666947529926,0.00025440624190643595
-0.4754569056298351,-0.4754569056298351,0.9999130772020184,0.000249198959350385
-0.47477270259114446,-0.47477270259114446,0.9996490083784701,0.00026207881177672213
-0.47407248892413917,-0.47407248892413917,0.9998335933092125,0.0002478042146413962
-0.4734490007336717,-0.4734490007336717,0.9993544863559836,0.00024646235124484877
-0.4727196609339444,-0.4727196609339444,1.000131864052236,0.00024072311613312127
-0.4723379782924894,-0.4723379782924894,1.0002433101895138,0.00024603162226504436
-0.47179775350668934,-0.47179775350668934,0.9999293334443079,0.0002538436759332057
-0.4711830774496775,-0.4711830774496775,1.0000557168085027,0.00025488048295042344
-0.4705205663543893,-0.4705205663543893,0.9999469568077476,0.00026277153959451444
-0.4693238951440435,-0.4693238951440435,0.9996392391328109,0.0002470322030958132
-0.4688146048953058,-0.4688146048953058,0.9998449660967242,0.00024055797926247915
-0.4683176015969366,-0.4683176015969366,1.000179566768719,0.0002480105381226731
-0.46796908174001145,-0.46796908174001145,0.9998945378680446,0.00025461834724392764
-0.4673327563155908,-0.4673327563155908,0.9999732920831935,0.0002465142070248747
-0.4666280619392637,-0.4666280619392637,0.9997622446319419,0.00024668960623271975
-0.465729797721724,-0.465729797721724,0.9994322939155188,0.0002547632848302366
-0.46494893258495723,-0.46494893258495723,1.0000806193497935,0.0002592266743009513
-0.4641727829672163,-0.4641727829672163,0.9998921050686483,0.0002630543893255489
-0.46353779325727373,-0.46353779325727373,1.0000563205213078,0.0002408373245015582
-0.4631085320143029,-0.4631085320143029,1.0003858614150714,0.0002532663471517029
-0.4623035363649251,-0.4623035363649251,0.9998382332045732,0.0002588392326778811
-0.4614899069565581,-0.4614899069565581,1.0000637750045835,0.00025485083237768234
-0.4609228070185054,-0.4609228070185054,1.0001110580696253,0.000259113185847087
-0.4606091595691396,-0.4606091595691396,0.9997494483888619,0.00024274750157094648
-0.4600632295012474,-0.4600632295012474,0.9996888943621807,0.00024856072671298405
-0.4591801278642379,-0.4591801278642379,0.9997739297704886,0.00025504109426461414
-0.4584353282843949,-0.4584353282843949,0.9999568939579457,0.00024658816190043957
-0.45806229465815707,-0.45806229465815707,0.9996030557786861,0.00024187809959987403
-0.4576629582908936,-0.4576629582908936,0.9999466099174118,0.0002460464433899884
-0.4568713950255187,-0.4568713950255187,0.9999121453983587,0.00025948260920971626
-0.456231329208822,-0.456231329208822,0.9996401001379617,0.00025313663245517986
-0.45558135617757217,-0.45558135617757217,1.0002210498657218,0.0002635822160957672
-0.454651238390943,-0.454651238390943,0.9998940798007923,0.0002473262411619182
-0.45343821418937297,-0.45343821418937297,0.9999096131781654,0.0002398534831433601
-0.4526937927963445,-0.4526937927963445,0.9998913311765646,0.00026070222354917366
-0.45189672012929805,-0.45189672012929805,0.9999047162225179,0.00025514525789350844
-0.45142631873604844,-0.45142631873604844,0.9999767637243993,0.0002525044589879029
-0.4508908346731914,-0.4508908346731914,1.0003080913277513,0.000247814182865056
-0.44990505863388536,-0.44990505863388536,0.9998967479497611,0.0002679915762448589
-0.448939168654033,-0.448939168654033,0.9995578951326568,0.0002538377072462549
-0.4482567208207911,-0.4482567208207911,1.0000864847949584,0.0002469608069662222
-0.4476560887298547,-0.4476560887298547,1.0001798211379245,0.00025413737618881326
-0.4471688302292023,-0.4471688302292023,1.000468715493555,0.0002533892372254287
-0.4457806577323936,-0.4457806577323936,1.0000938022095085,0.00025470791610563185
-0.44508870841527826,-0.44508870841527826,0.9999300278539817,0.00025414591024913047
-0.44436233580345286,-0.44436233580345286,1.0000759869656017,0.0002540340264069334
-0.44370255683897997,-0.44370255683897997,1.0002734276460494,0.00024040406925452174
-0.44315222261939197,-0.44315222261939197,0.9999054547818418,0.00025280702659810807
-0.4427217639138689,-0.4427217639138689,1.0001282307796138,0.00024668686124181346
-0.4421797499380773,-0.4421797499380773,0.9998515870138253,0.0002531849865286047
-0.44146724228630774,-0.44146724228630774,1.0001322733311149,0.0002532348342069779
-0.44070408200495875,-0.44070408200495875,0.9999443932120652,0.00026808928962976565
-0.44002302683948075,-0.44002302683948075,1.0003844219213067,0.00024722301640279473
-0.43918900774442593,-0.43918900774442593,0.9994616529310447,0.0002472587104023258
-0.43834067284187767,-0.43834067284187767,1.0003746012016645,0.00023958987969052665
-0.43754447747196534,-0.43754447747196534,1.000162985107597,0.0002464248831654698
-0.43677317578112707,-0.43677317578112707,0.9997969812435775,0.0002564308548918735
-0.4361580643046182,-0.4361580643046182,0.9998631613540209,0.0002567781268773352
-0.4355897125933552,-0.4355897125933552,0.9999923008413113,0.00024706468015759715
-0.43491828157857526,-0.43491828157857526,0.9998436057690048,0.00024030993489849891
-0.43413799011614174,-0.43413799011614174,1.0000780345362228,0.0002472349863582901
-0.4337459990318166,-0.4337459990318166,0.9999826843836541,0.00024587104030297384
-0.4332505815284094,-0.4332505815284094,1.000177387880552,0.00025441811385955033
-0.4324096011056099,-0.4324096011056099,0.9998022809584384,0.00025402124588191986
-0.43189146916847676,-0.43189146916847676,1.0001159442260672,0.0002714995134190614
-0.43095640401006674,-0.43095640401006674,1.000076672431351,0.00026288071606653176
-0.430069696312421,-0.430069696312421,0.9998148186790438,0.00024038145455628767
-0.42953065638430415,-0.42953065638430415,1.0000692046915105,0.00024800197619122917
-0.4291064574121265,-0.4291064574121265,1.0003508001486596,0.0002606501818314559
-0.4282914941955823,-0.4282914941955823,0.9998347514424875,0.0002523107741204278
-0.42754204355878755,-0.42754204355878755,0.9999314220329276,0.00024041224538758592
-0.4267326035129372,-0.4267326035129372,1.0004260454834224,0.0002554221776799386
-0.4260098306112923,-0.4260098306112923,0.9998241797201016,0.0002590680560655927
-0.4252713963331189,-0.4252713963331189,0.9997674038803529,0.00026354041649406015
-0.42464917338220404,-0.42464917338220404,0.9999464054453977,0.00024109027305259378
-0.4243202604993712,-0.4243202604993712,1.0000806862745624,0.00025327015594024704
-0.42355993728269825,-0.42355993728269825,1.0000510549992285,0.00025330932803998115
-0.4227240342152072,-0.4227240342152072,1.000228125110319,0.0002611769719997346
-0.4220828880526824,-0.4220828880526824,0.9997658855010293,0.0002474011116795352
-0.42162486668676136,-0.42162486668676136,0.9998499317769859,0.00024208088618810119
-0.4207618161046412,-0.4207618161046412,1.0000125700315468,0.00025927043038558386
-0.41990242746833245,-0.41990242746833245,1.0000221616056901,0.00026050897042957796
-0.41918109051766805,-0.41918109051766805,1.000013297042426,0.0002470845236609437
-0.41862821856338994,-0.41862821856338994,0.9999692013275002,0.0002464310970068771
-0.41797328735119665,-0.41797328735119665,0.99961560755833,0.0002535370591994498
-0.4173394123208709,-0.4173394123208709,0.9998854014717049,0.00025395736268257697
-0.4167696466873167,-0.4167696466873167,1.0002157163680434,0.0002630739325135497
-0.41560170489537995,-0.41560170489537995,0.999972998278975,0.00025285454169520936
-0.41448520960111634,-0.41448520960111634,1.0000621076348515,0.0002412941486024165
-0.41391621340299023,-0.41391621340299023,0.9998211238346315,0.0002537745333583115
-0.41326593726407734,-0.41326593726407734,1.000227178755371,0.00026074952461763043
-0.41264078599633647,-0.41264078599633647,0.9999736105981049,0.0002534319701059161
-0.41187128132733053,-0.41187128132733053,0.9998514069846959,0.00024729515636467226
-0.4108643932762789,-0.4108643932762789,1.000131487285645,0.0002680026359828793
-0.409848068249994,-0.409848068249994,0.999732616701974,0.0002485439723066547
-0.40923988722497595,-0.40923988722497595,1.0000667862236374,0.00024687349406023537
-0.40873363917926325,-0.40873363917926325,0.9998774256920464,0.0002549557008962379
-0.40750273937010206,-0.40750273937010206,1.0003903775638716,0.00025400774202782866
-0.40673869173333516,-0.40673869173333516,0.9996874803353298,0.00025582457624189343
-0.40606541770685,-0.40606541770685,1.0001758196601962,0.00026263593861809053
-0.4052409713243833,-0.4052409713243833,0.9999750748010946,0.0002461419310679731
-0.4045533464377513,-0.4045533464377513,0.9998455029955313,0.00025291511311012656
-0.40396697097457945,-0.40396697097457945,0.9999285510722977,0.00024105471687085536
-0.40357319168397227,-0.40357319168397227,1.0003402430353292,0.00025910913381715017
-0.40304335588298273,-0.40304335588298273,1.0001130118675488,0.00023426579634562903
-0.40264439915772526,-0.40264439915772526,1.0000511790672222,0.00025269307988609217
-0.40193162236828356,-0.40193162236828356,0.999912995357873,0.0002682663264789467
-0.4013487812248059,-0.4013487812248059,0.9996571598590436,0.00024742763796739564
-0.40061022448935546,-0.40061022448935546,1.0002741901741374,0.00024732223241605603
-0.39953100713610185,-0.39953100713610185,0.9999182507680742,0.00024006360786484293
-0.3984752715768991,-0.3984752715768991,1.0000663477616112,0.0002534247242241729
-0.39774661692790686,-0.39774661692790686,0.999435142454824,0.00025966495671683667
-0.397071445180336,-0.397071445180336,0.9997757964944644,0.00025818004895359134
-0.39631671699753496,-0.39631671699753496,1.0000014293740993,0.00024121459741596328
-0.39541612806206106,-0.39541612806206106,0.9994877490575822,0.0002530014178174782
-0.3950620126764989,-0.3950620126764989,0.999816184525842,0.00024044342354888242
-0.39464632532326505,-0.39464632532326505,0.9996917817716561,0.00025314760345026817
-0.39407742249895816,-0.39407742249895816,1.0002324629653825,0.00025352589691748933
-0.39341432382934727,-0.39341432382934727,1.000075655767933,0.00025589701215898757
-0.39274158235057255,-0.39274158235057255,1.0002615558655803,0.00027125819073391886
-0.3916087437683018,-0.3916087437683018,1.0002168690024942,0.00023999313611777133
-0.3910835325717926,-0.3910835325717926,0.9997631229485495,0.0002472556447032378
-0.3907148722180864,-0.3907148722180864,0.999904112350135,0.0002465787522992069
-0.390158178366255,-0.390158178366255,0.9997491580907552,0.0002552756053299023
-0.38933510094939267,-0.38933510094939267,1.0002519561541185,0.00025251457945841833
-0.3885845745622646,-0.3885845745622646,1.000309920192581,0.00024646507869966773
-0.38782480896334165,-0.38782480896334165,0.9999931053799251,0.000255035182274774
-0.38707884632749484,-0.38707884632749484,1.0003675952788769,0.0002621753547253433
-0.3861009516083868,-0.3861009516083868,0.9998029668726496,0.0002544122099244284
-0.3856170174636645,-0.3856170174636645,0.999917777992118,0.00024670974219375075
-0.38506445720267946,-0.38506445720267946,1.000109772844662,0.0002610248733972614
-0.3842912715103012,-0.3842912715103012,0.9998951244414658,0.00025413589340716103
-0.38343592591409104,-0.38343592591409104,1.000035055042866,0.00025197852186780736
-0.383033252027235,-0.383033252027235,1.0000788784719004,0.0002427894403479685
-0.38248738120892084,-0.38248738120892084,0.9996184566668223,0.00024257422275897732
-0.3816781267989427,-0.3816781267989427,0.9999699949172818,0.0002583793502294973
-0.380964368043351,-0.380964368043351,0.9995460591190083,0.00025999024464031325
-0.38028096260968597,-0.38028096260968597,0.9995459631794337,0.00024021062206631196
-0.37974461542326027,-0.37974461542326027,1.000029662285339,0.0002461249479480575
-0.3791880733304424,-0.3791880733304424,1.0000724645787564,0.0002535535233772586
-0.3785528663196601,-0.3785528663196601,1.0002653282073428,0.00025393786909916
-0.377822536759777,-0.377822536759777,0.9995215483025301,0.000268370931911346
-0.3767131349304691,-0.3767131349304691,1.0006598050060724,0.000246744768680299
-0.37592162085638847,-0.37592162085638847,1.000077091567201,0.00023348664718812376
-0.37554252345871647,-0.37554252345871647,0.9999155433443578,0.0002413630163586697
-0.37499418945226354,-0.37499418945226354,0.9999083756299338,0.00025990713364043924
-0.37419334226869977,-0.37419334226869977,0.9999805228330058,0.0002551276225933203
-0.3736247546999948,-0.3736247546999948,1.0001855572106961,0.0002530144500723894
-0.37266845236590596,-0.37266845236590596,0.9997905784693162,0.00026483385704663653
-0.3716131883644266,-0.3716131883644266,0.9994398002598833,0.0002530176933288605
-0.3707300450798357,-0.3707300450798357,1.000608759977545,0.00025353129577324344
-0.37017889371491036,-0.37017889371491036,1.000163642613832,0.00024774307538722443
-0.3696483751380583,-0.3696483751380583,0.9995599204218053,0.0002541603351795198
-0.36821635626256466,-0.36821635626256466,0.9996085990597307,0.00025473519924261695
-0.36761361711542123,-0.36761361711542123,1.000051580604587,0.00026173834983684246
-0.36676974102738313,-0.36676974102738313,0.9997211054875665,0.00024790184736222696
-0.3659260424552485,-0.3659260424552485,0.9996726702258819,0.00024690104817504707
-0.36548890475241935,-0.36548890475241935,1.0000465656025643,0.0002405259599085595
-0.36513713439635465,-0.36513713439635465,1.0000624900597812,0.0002466228265131475
-0.3644634301715996,-0.3644634301715996,0.9997976352828125,0.00025383684420730754
-0.3638124749035342,-0.3638124749035342,0.9999232315075558,0.0002533077469045017
-0.36324539077177176,-0.36324539077177176,0.9997593755381786,0.00026197894499560537
-0.3627842110465281,-0.3627842110465281,1.0003025687963152,0.00025467807870599185
-0.3620808621140895,-0.3620808621140895,1.0002187415377843,0.0002479238134873949
-0.3611816263088258,-0.3611816263088258,0.999814786416111,0.00023976925510625318
-0.36046814660076054,-0.36046814660076054,0.9999640633499908,0.0002473687872414416
-0.35965422659355684,-0.35965422659355684,0.9999220846695975,0.0002475319816267464
-0.35896518286608625,-0.35896518286608625,1.0003843399405787,0.00025968164319706754
-0.35829295466828626,-0.35829295466828626,1.0001039504181048,0.0002581547242038044
-0.3575244303443469,-0.3575244303443469,1.0002748050881336,0.00024121433959312143
-0.3566309096640907,-0.3566309096640907,1.0005272598366652,0.00025303042885821463
-0.356263943813974,-0.356263943813974,1.000419355891523,0.000240513546996642
-0.3558615630521672,-0.3558615630521672,1.0003670133555804,0.0002531103548933969
-0.3552908234007191,-0.3552908234007191,1.000291432191783,0.0002535232493333868
-0.3546313183527673,-0.3546313183527673,1.000313660737384,0.0002557797324905631
-0.3539681327005383,-0.3539681327005383,0.999695631645554,0.00027123053747234724
-0.35281716158788184,-0.35281716158788184,0.9999564783179709,0.00024003696103956613
-0.352260174791445,-0.352260174791445,1.0001232138502096,0.00024757918891049895
-0.35187035882263445,-0.35187035882263445,1.0002496664778895,0.0002541350560192004
-0.35133421536011156,-0.35133421536011156,0.9995513983766517,0.00024718926896448066
-0.3507822827144992,-0.3507822827144992,1.0001924579344974,0.00024610998439057215
-0.35012630131968764,-0.35012630131968764,1.0000421844466956,0.00024637945942035573
-0.34943981423566584,-0.34943981423566584,1.0001505843101297,0.00024111793508987682
-0.3486017285584239,-0.3486017285584239,0.9998162073743035,0.00025927820638067556
-0.34768069063138685,-0.34768069063138685,0.9996301711621511,0.0002634007887900835
-0.3469914553250419,-0.3469914553250419,0.9999317054356212,0.00024698462676868036
-0.3463136615260737,-0.3463136615260737,1.0002212780415503,0.0002478365999067217
-0.34515995499968993,-0.34515995499968993,1.0001961175253125,0.00025996776963256953
-0.34451437153911685,-0.34451437153911685,0.9999837126008504,0.0002474046972484755
-0.3440453900548164,-0.3440453900548164,1.0006132491614221,0.00024210082669779074
-0.3432899787527276,-0.3432899787527276,1.000058576566763,0.00026435880415318433
-0.34274125208321493,-0.34274125208321493,0.9998637556049305,0.00024902790278588183
-0.34221824213454966,-0.34221824213454966,0.9998072214194396,0.0002599695597985265
-0.34150063309352846,-0.34150063309352846,1.0001467490609837,0.0002474316231898536
-0.34095150032371746,-0.34095150032371746,1.0001626272009867,0.00024607751249503934
-0.3404028670076514,-0.3404028670076514,0.9997547702732028,0.00025355999967336014
-0.33976633129350375,-0.33976633129350375,0.9994408629087193,0.00025388638984363376
-0.33904653920035344,-0.33904653920035344,1.0002551542475826,0.0002684801401003574
-0.33806123103713615,-0.33806123103713615,0.9998688362222466,0.0002408086116811814
-0.3373694452311611,-0.3373694452311611,0.9997903806754097,0.0002520124380966466
-0.33689442169852557,-0.33689442169852557,0.9996730962059424,0.00024080179253854636
-0.3363544904132141,-0.3363544904132141,1.000596003976947,0.00025390821235508454
-0.335435217426857,-0.335435217426857,0.9999865119391698,0.00025267640448521634
-0.3348409195867134,-0.3348409195867134,0.999797780400144,0.00025299570909149895
-0.333974755363306,-0.333974755363306,1.000079252003344,0.00024929524544429826
-0.333563334052451,-0.333563334052451,0.9999651363861746,0.0002563015324271884
-0.3328048663592199,-0.3328048663592199,1.000129125855711,0.0002472669462904789
