time,time,flux,flux_err
-0.49855504831066355,-0.49855504831066355,0.9999795993948203,0.00010281527303898199
-0.4971560783451423,-0.4971560783451423,0.999988112492619,0.00010282392673215677
-0.4950986514395481,-0.4950986514395481,1.0007473668292612,9.397930528600552e-05
-0.4938249951115722,-0.4938249951115722,1.0000567424925273,9.425634582410103e-05
-0.4923955678459606,-0.4923955678459606,1.0003186375768354,9.366761714555884e-05
-0.49030475450090305,-0.49030475450090305,1.0148570029937276,9.472591798605199e-05
-0.4893817654603481,-0.4893817654603481,1.000081545737738,9.381527011510766e-05
-0.48726067883326324,-0.48726067883326324,1.000013458066284,9.439513591707014e-05
-0.4858311116156983,-0.4858311116156983,0.9999636869368086,9.37364912008227e-05
-0.48432339311402756,-0.48432339311402756,0.9999840526624265,9.368394149719022e-05
-0.48223080590978495,-0.48223080590978495,1.0011547132038239,9.379074455093864e-05
-0.48113764901791,-0.48113764901791,0.9998773736598784,9.388790157610445e-05
-0.47895756542420714,-0.47895756542420714,1.0007161487777918,9.368480434948831e-05
-0.47786053667223316,-0.47786053667223316,0.9998685597992985,9.456172550827496e-05
-0.47660590420273363,-0.47660590420273363,1.005332343907629,9.413174447723077e-05
-0.4746376008664811,-0.4746376008664811,1.0001899574402595,9.378136985376894e-05
-0.4736752776469075,-0.4736752776469075,0.9997470328473188,9.394275906748636e-05
-0.47237425192652155,-0.47237425192652155,1.0002988922580398,9.406074521138535e-05
-0.47032693743785786,-0.47032693743785786,0.9998377547420765,9.4043013623501e-05
-0.46933836557291214,-0.46933836557291214,0.9996683625797458,9.352782469998094e-05
-0.46689173946469964,-0.46689173946469964,1.0000414017849761,9.385284755475222e-05
-0.46548378680272434,-0.46548378680272434,0.999956903426414,9.415478045581778e-05
-0.46349812406260754,-0.46349812406260754,0.9998666162411037,9.355316316398558e-05
-0.46213065977171935,-0.46213065977171935,1.000083172435653,9.448165618050474e-05
-0.46102061873716593,-0.46102061873716593,1.0000381642094136,9.381828741477361e-05
-0.45906851874642596,-0.45906851874642596,1.0005131793238355,9.392296424324876e-05
-0.45777190014123337,-0.45777190014123337,1.0029284558141316,9.419446040660515e-05
-0.4564651128799596,-0.4564651128799596,1.0001845398077622,9.407612027308638e-05
-0.4546931798922742,-0.4546931798922742,1.0001564275950252,9.423666942236953e-05
-0.4537027053167549,-0.4537027053167549,1.0002855080631876,9.362562657520298e-05
-0.4518928740046249,-0.4518928740046249,1.0001781732680435,9.423664774947436e-05
-0.4500913532185223,-0.4500913532185223,1.000902997980846,9.370704789518478e-05
-0.4484948525307118,-0.4484948525307118,0.9996941363524439,9.384706260132931e-05
-0.4465928134133719,-0.4465928134133719,1.00017670034614,9.39438545292539e-05
-0.44568700142444867,-0.44568700142444867,0.9997428846086344,9.39174212778164e-05
-0.44397439742679123,-0.44397439742679123,1.0009370591744227,9.37629010061696e-05
-0.44244526281945584,-0.44244526281945584,1.000046678428349,9.483939039621754e-05
-0.44154548824626544,-0.44154548824626544,1.000207890670843,9.376649095617701e-05
-0.43937097501766403,-0.43937097501766403,0.9999001190212287,9.436489858466492e-05
-0.4381275916020968,-0.4381275916020968,1.0001314503752945,9.367865334873867e-05
-0.43724810470594094,-0.43724810470594094,1.002037333256404,9.390487453642018e-05
-0.43506589783464733,-0.43506589783464733,0.9996901166487833,9.377799643959977e-05
-0.4338235757237271,-0.4338235757237271,1.0000756756974358,9.428154235956211e-05
-0.43215806820335273,-0.43215806820335273,1.0000851176411756,9.372180564838314e-05
-0.4303027117708552,-0.4303027117708552,0.9998071273894062,9.445877137820599e-05
-0.4291927429741918,-0.4291927429741918,0.9999460640102127,9.369975853794693e-05
-0.42730968275536724,-0.42730968275536724,1.0003253980850402,9.403425399174477e-05
-0.42603286581361316,-0.42603286581361316,0.9999633535181935,9.374940705361507e-05
-0.42496017551166004,-0.42496017551166004,1.0001630959034997,9.395258779832433e-05
-0.4227009431218903,-0.4227009431218903,0.9998465107820926,9.384623894495795e-05
-0.42160144441550074,-0.42160144441550074,0.9999102369417064,9.403616881661938e-05
-0.42004831074918914,-0.42004831074918914,0.999906835469508,9.368086207206485e-05
-0.4186843814659369,-0.4186843814659369,1.0006945222900498,9.41252599538746e-05
-0.41775315268314445,-0.41775315268314445,0.9997334233711272,9.416028915734486e-05
-0.41571284564124655,-0.41571284564124655,1.0108717248887504,9.409215292549713e-05
-0.4141827364110213,-0.4141827364110213,0.9998644078751824,9.424753269520486e-05
-0.4129963843508449,-0.4129963843508449,0.9995156001331148,9.401268766889427e-05
-0.410870699293082,-0.410870699293082,1.0002026548989245,9.411334001966631e-05
-0.40981395652343056,-0.40981395652343056,0.9999861086418272,9.343534591773628e-05
-0.4075169598520006,-0.4075169598520006,1.0005063780501628,9.405485873188643e-05
-0.406082230071479,-0.406082230071479,1.0000816869851896,9.36113351220982e-05
-0.40497192806469684,-0.40497192806469684,0.9999650807704878,9.409848506660387e-05
-0.4029396483554592,-0.4029396483554592,1.0003649464330604,9.375526854245017e-05
-0.4018425300037052,-0.4018425300037052,1.002092109616424,9.420442739023901e-05
-0.40008479504540445,-0.40008479504540445,1.0013489849490012,9.375787618939852e-05
-0.3984757166534109,-0.3984757166534109,0.9997371068657911,9.446086314184855e-05
-0.39764918667460736,-0.39764918667460736,0.9999525691914173,9.357374476469668e-05
-0.3956503786099347,-0.3956503786099347,0.9997593512938316,9.440826566490241e-05
-0.39422981471361707,-0.39422981471361707,0.9997338431665455,9.368916986293688e-05
-0.39271116093914316,-0.39271116093914316,1.0000580494658273,9.365815752530632e-05
-0.39058778261714905,-0.39058778261714905,1.0002972638502468,9.389822474747072e-05
-0.38912380803376434,-0.38912380803376434,0.9997552076787605,9.38989960493868e-05
-0.38704143174400085,-0.38704143174400085,1.0001575797472904,9.364886460219787e-05
-0.3860862279754656,-0.3860862279754656,1.0004313265847262,9.43693217193318e-05
-0.38460877824618367,-0.38460877824618367,1.0004391806396395,9.384351252553295e-05
-0.3827611393717234,-0.3827611393717234,1.0032207106916307,9.45817613045031e-05
-0.38174727858859114,-0.38174727858859114,1.0002300977814085,9.365667448009871e-05
-0.3798407656719064,-0.3798407656719064,0.9999061376488081,9.437311795205574e-05
-0.37852223742593194,-0.37852223742593194,1.0000833419495136,9.36842972935576e-05
-0.37760490569598915,-0.37760490569598915,1.000036122200012,9.388770777790951e-05
-0.3756438465832616,-0.3756438465832616,0.999854763487497,9.391476758898658e-05
-0.3741126577158866,-0.3741126577158866,1.0010655596168538,9.389988426394312e-05
-0.3723571828504646,-0.3723571828504646,0.9997824412836673,9.379691974391842e-05
-0.37069460448983593,-0.37069460448983593,0.9999445882630154,9.41226578581399e-05
-0.36977530954100074,-0.36977530954100074,1.0001956416739977,9.36760116110161e-05
-0.36781202155834763,-0.36781202155834763,0.9997759883758841,9.394382791602998e-05
-0.3665329672789085,-0.3665329672789085,1.0000209654257906,9.451036493342681e-05
-0.36557831143691144,-0.36557831143691144,0.999985599709451,9.400031035150519e-05
-0.36332214024187126,-0.36332214024187126,1.0007618677769732,9.430530568316342e-05
-0.36226355669459737,-0.36226355669459737,1.0002867862906712,9.374993301311809e-05
-0.361123783302537,-0.361123783302537,1.0129366806908093,9.447275337951457e-05
-0.3590587189370126,-0.3590587189370126,1.0057167326837528,9.403164605387856e-05
-0.3579648508988612,-0.3579648508988612,0.9998461356748451,9.421412054169036e-05
-0.35591599230647264,-0.35591599230647264,1.004935698786848,9.382376553397825e-05
-0.35439288743873476,-0.35439288743873476,0.9999952257656712,9.436274344525978e-05
-0.35319661695102694,-0.35319661695102694,1.0001840575790921,9.397536276190021e-05
-0.35129599040046744,-0.35129599040046744,1.0000365314478452,9.396148001273674e-05
-0.35017472909748903,-0.35017472909748903,0.9997292657586547,9.348784023540749e-05
-0.34879125320585447,-0.34879125320585447,1.0000288831271078,9.421985076586985e-05
-0.3467348128866433,-0.3467348128866433,0.9997254656293318,9.369746139144611e-05
-0.34564333069829445,-0.34564333069829445,0.9998284571903385,9.387735098154244e-05
-0.3436998057823075,-0.3436998057823075,0.9999640927611763,9.394701911198111e-05
-0.3424270716717729,-0.3424270716717729,0.9999608318718197,9.42457012880175e-05
-0.34099548180056444,-0.34099548180056444,0.9994311267233696,9.365155865214785e-05
-0.3389069090342673,-0.3389069090342673,1.0057868223302977,9.436240220016693e-05
-0.33798127048503374,-0.33798127048503374,0.9998879068456127,9.379480046839192e-05
-0.33586241570446873,-0.33586241570446873,0.9999360364977529,9.43943404937205e-05
-0.3344313465811865,-0.3344313465811865,1.0005108531828788,9.376657654678371e-05
-0.3329254516065703,-0.3329254516065703,0.9999016727556617,9.367270295799857e-05
-0.3308313220899436,-0.3308313220899436,0.9998511170686099,9.374036672362416e-05
-0.3298485760828044,-0.3298485760828044,1.0001687794015717,9.40939541528105e-05
-0.32799858936778037,-0.32799858936778037,1.0000501174284442,9.361649941381473e-05
-0.3265136717775022,-0.3265136717775022,1.0027959964503166,9.438561427640673e-05
-0.32520592922228386,-0.32520592922228386,1.0009093862259766,9.392712357975596e-05
-0.3232398587442731,-0.3232398587442731,0.9999962398008758,9.377097870914687e-05
-0.3222758155505289,-0.3222758155505289,0.9997340708516548,9.392000228947855e-05
-0.3204508345501381,-0.3204508345501381,0.9997914205847896,9.430929403093654e-05
-0.3187271083301312,-0.3187271083301312,1.0002296729904674,9.372461038355701e-05
-0.31749562385193714,-0.31749562385193714,1.0001322658985665,9.377133191603702e-05
-0.31517881914842294,-0.31517881914842294,0.9999841788691984,9.384416651882709e-05
-0.3138336839514523,-0.3138336839514523,1.000403008118884,9.39146886734732e-05
-0.3116522805852583,-0.3116522805852583,1.000199552501454,9.365432891378206e-05
-0.3105462103398168,-0.3105462103398168,0.9999224902635918,9.462491632769007e-05
-0.3093058635462512,-0.3093058635462512,1.0109375145611819,9.42748221161241e-05
-0.3073252879043139,-0.3073252879043139,1.0030237348194242,9.38214020113172e-05
-0.30637240596734044,-0.30637240596734044,1.002240922878877,9.415577515378083e-05
-0.3050665027523792,-0.3050665027523792,0.999775672260631,9.405438557382355e-05
-0.30329508914801406,-0.30329508914801406,0.9999274163871326,9.425196994980686e-05
-0.3023035031190375,-0.3023035031190375,1.0000468418662218,9.360595886159658e-05
-0.30049435829205323,-0.30049435829205323,1.000058247341057,9.426005401611022e-05
-0.29869287973888276,-0.29869287973888276,1.0001309798628015,9.364583801702925e-05
-0.2970948381593189,-0.2970948381593189,0.9996830770689504,9.384516751759115e-05
-0.2951944239928707,-0.2951944239928707,0.999707529396554,9.393286455752675e-05
-0.29428764186814077,-0.29428764186814077,1.0000499243351608,9.394063936637832e-05
-0.29257513248703615,-0.29257513248703615,1.0024118607672343,9.38117515132044e-05
-0.2910466403045575,-0.2910466403045575,1.0003726877089392,9.482768487432868e-05
-0.2901457274776476,-0.2901457274776476,1.0000460782316338,9.375535763527331e-05
-0.2879725912833237,-0.2879725912833237,1.000109021394091,9.439876991519736e-05
-0.2867277228124294,-0.2867277228124294,1.0001566877419434,9.368154829872438e-05
-0.28584891996906664,-0.28584891996906664,1.0002607201288147,9.383368136157417e-05
-0.28366785257239824,-0.28366785257239824,1.0051266731655237,9.395292844096174e-05
-0.28242554690878025,-0.28242554690878025,0.9999271546033086,9.427196030719095e-05
-0.2807579249027185,-0.2807579249027185,1.0005426164070783,9.374518441461068e-05
-0.2790830738278601,-0.2790830738278601,1.0047509015439882,9.432343680344229e-05
-0.27817795146256685,-0.27817795146256685,1.0002023775444235,9.374692783047075e-05
-0.276202500209547,-0.276202500209547,1.0022835056850483,9.40967582556266e-05
-0.27483723569384894,-0.27483723569384894,0.9997270924939873,9.375860382706922e-05
-0.27397789310161896,-0.27397789310161896,0.9997308608700998,9.40645913663598e-05
-0.2716216814078507,-0.2716216814078507,1.0000239780635876,9.391684354485373e-05
-0.270372324537675,-0.270372324537675,0.9999508186444224,9.37949114606539e-05
-0.26877540131936256,-0.26877540131936256,1.001432079119966,9.409294850138315e-05
-0.2671975605444459,-0.2671975605444459,1.0000100007285473,9.399935694694029e-05
-0.2661210020323779,-0.2661210020323779,0.9998282429119015,9.38382280628616e-05
-0.2637916106312332,-0.2637916106312332,1.0034378523132403,9.411661600919631e-05
-0.2626318725062447,-0.2626318725062447,0.9998014822258046,9.390069334061369e-05
-0.2611921034887928,-0.2611921034887928,0.9998865945865191,9.406946563282117e-05
-0.259443623154948,-0.259443623154948,1.0005451905550238,9.410001545790046e-05
-0.2584148318881489,-0.2584148318881489,1.0013824825329398,9.346925531574552e-05
-0.25611813145515044,-0.25611813145515044,0.9999866068753143,9.404203944452635e-05
-0.2546835559849569,-0.2546835559849569,0.9996924037073015,9.356397674742999e-05
-0.253570969138309,-0.253570969138309,1.000163257593829,9.4101386698849e-05
-0.25154102624983354,-0.25154102624983354,0.9998243531805688,9.37393028026028e-05
-0.25044414992480596,-0.25044414992480596,1.0005086798778204,9.412160899900032e-05
-0.2486856062467268,-0.2486856062467268,1.00022976136602,9.368755625024507e-05
-0.24707775951173971,-0.24707775951173971,0.999468723072343,9.445279675176418e-05
-0.24600481271154423,-0.24600481271154423,1.0001765750717637,9.376914386720007e-05
-0.24390798152562637,-0.24390798152562637,1.0004562048204795,9.434101208521138e-05
-0.2426689907482796,-0.2426689907482796,1.000538698140615,9.362522890170546e-05
-0.24076798141031758,-0.24076798141031758,1.000060127033293,9.392063272683918e-05
-0.2389037245684449,-0.2389037245684449,1.0013100875264445,9.36233552269845e-05
-0.23729488842727733,-0.23729488842727733,1.0016082257970411,9.400507188578765e-05
-0.23540586332819657,-0.23540586332819657,1.0002472544073595,9.39704157918892e-05
-0.23453371993273323,-0.23453371993273323,1.004200135912777,9.422010765671002e-05
-0.23278043343743776,-0.23278043343743776,1.0007520758140238,9.37213644537571e-05
-0.2311645766672882,-0.2311645766672882,1.0015473356610518,9.457125261406992e-05
-0.23034755720982503,-0.23034755720982503,1.0000246263731731,9.364298286375917e-05
-0.228442831879147,-0.228442831879147,0.999516782202916,9.43614036157736e-05
-0.22712291786956484,-0.22712291786956484,1.000063489459062,9.368380508716687e-05
-0.22620576745575818,-0.22620576745575818,0.9997380800355644,9.386026957360232e-05
-0.22388168902980396,-0.22388168902980396,1.00035854447882,9.384786947125587e-05
-0.22247750808819547,-0.22247750808819547,1.0003795126420836,9.41786744537123e-05
-0.2204979898288002,-0.2204979898288002,1.0001128849901746,9.355749488198652e-05
-0.2191197963526065,-0.2191197963526065,0.9998547998043618,9.446931517724816e-05
-0.2179851188808243,-0.2179851188808243,1.0012250886416498,9.368467827788227e-05
-0.21612848527656753,-0.21612848527656753,1.0001758240018064,9.391611223425131e-05
-0.2149260707468784,-0.2149260707468784,0.9998826349130312,9.420316276521764e-05
-0.21376668408156546,-0.21376668408156546,0.9998926164490284,9.408947416737232e-05
-0.21168371949934225,-0.21168371949934225,1.0000786691511432,9.41790564573204e-05
-0.21069880179929895,-0.21069880179929895,1.0010230327850547,9.37099966955047e-05
-0.20929247225685685,-0.20929247225685685,1.0008139825860554,9.416776463835628e-05
-0.20740660742958425,-0.20740660742958425,1.0003787485269249,9.396401948998524e-05
-0.20632530888688053,-0.20632530888688053,1.0007223803949623,9.389607958047643e-05
-0.20414088749421352,-0.20414088749421352,1.000792435015391,9.366967815565854e-05
-0.20299436096611317,-0.20299436096611317,1.0001813224955878,9.439676318017845e-05
-0.20179667262891599,-0.20179667262891599,1.0021336250714294,9.403302899256396e-05
-0.1998975429105485,-0.1998975429105485,0.9998699236770484,9.394007416000718e-05
-0.19877522416063584,-0.19877522416063584,0.9998935026367907,9.349491257045685e-05
-0.19739256612519968,-0.19739256612519968,1.0001168505573923,9.421319064730678e-05
-0.1953353710970987,-0.1953353710970987,1.0003216062454954,9.372404025096036e-05
-0.1942441118473653,-0.1942441118473653,0.9996636000513875,9.386899203148816e-05
-0.19230096621977283,-0.19230096621977283,1.000146639517098,9.395541617958654e-05
-0.19102915351577393,-0.19102915351577393,0.9997865332256225,9.420607320941477e-05
-0.18959540022260626,-0.18959540022260626,1.0025038330585683,9.377617760825082e-05
-0.18750906965615285,-0.18750906965615285,1.0011355311378185,9.4174312547784e-05
-0.18658078099579142,-0.18658078099579142,0.9999071098870582,9.380239489372028e-05
-0.18459319489775225,-0.18459319489775225,0.9996483344037465,9.402781616973505e-05
-0.1832326147814456,-0.1832326147814456,1.0001162776348473,9.375959224602129e-05
-0.1820043842675659,-0.1820043842675659,1.0003249171024602,9.372399643043116e-05
-0.17969508206733736,-0.17969508206733736,0.9994865128971648,9.381093654891546e-05
-0.17859478459140518,-0.17859478459140518,0.9999989467396875,9.406184919540645e-05
-0.17659867509792093,-0.17659867509792093,0.9999677602591233,9.362412413159458e-05
-0.17511571768191062,-0.17511571768191062,0.9998955558792997,9.424428369267042e-05
-0.1738059597224492,-0.1738059597224492,0.9999699868270604,9.392054875176772e-05
-0.1718421227153158,-0.1718421227153158,1.0001800296946632,9.37966807961817e-05
-0.17087635833158857,-0.17087635833158857,0.9997728875254325,9.391118148300772e-05
-0.16905163417941366,-0.16905163417941366,0.999913965048132,9.428886325787949e-05
-0.1673278249130817,-0.1673278249130817,1.0001695688685905,9.37291766217282e-05
-0.16609677352607832,-0.16609677352607832,1.0004513061753655,9.377333545048455e-05
-0.16378767498172236,-0.16378767498172236,0.9999105130956579,9.380284556182667e-05
-0.16268633771978785,-0.16268633771978785,1.0003328254573751,9.41592827455246e-05
-0.1606982165387308,-0.1606982165387308,1.0002733608724754,9.357203027260031e-05
-0.1593350449740683,-0.1593350449740683,0.999793596148805,9.44557955727309e-05
-0.15822063547639117,-0.15822063547639117,1.0019744336932626,9.379346740900197e-05
-0.1562726651718549,-0.1562726651718549,0.9998358407022874,9.38528412193803e-05
-0.1551115828962793,-0.1551115828962793,1.0006606544947956,9.392810049940812e-05
-0.15407437926442072,-0.15407437926442072,1.0001346318344995,9.424739794320185e-05
-0.1521384234129073,-0.1521384234129073,0.9997488647745485,9.428892514079858e-05
-0.1510665334582882,-0.1510665334582882,0.9998178625870743,9.366446304369834e-05
-0.1491555914715718,-0.1491555914715718,1.0000729668911112,9.389223279432984e-05
-0.14729441235031118,-0.14729441235031118,1.0000468784919998,9.363300451462182e-05
-0.1456948298815405,-0.1456948298815405,1.000204863279244,9.388387742703363e-05
-0.143796040054076,-0.143796040054076,0.9999886279732154,9.396521564192181e-05
-0.14288828657518024,-0.14288828657518024,0.9999535092122548,9.393686757863276e-05
-0.14117587282671593,-0.14117587282671593,1.0012219359447356,9.375500219884996e-05
-0.13964802327500364,-0.13964802327500364,0.9999904457422497,9.47893334113317e-05
-0.1387459721907362,-0.1387459721907362,0.9996994592085258,9.373419809218248e-05
-0.13657421262432762,-0.13657421262432762,1.0001114053667801,9.440366663615774e-05
-0.13532785991155832,-0.13532785991155832,1.0002792003181789,9.36793539930306e-05
-0.13444974152625946,-0.13444974152625946,0.9999726304157995,9.383348626167846e-05
-0.13226981279112807,-0.13226981279112807,1.0001796355926946,9.37328691150701e-05
-0.1310275245912635,-0.1310275245912635,1.001727421133581,9.433189774228824e-05
-0.12935778687897254,-0.12935778687897254,1.0001907643116936,9.373956867093367e-05
-0.12768498085206376,-0.12768498085206376,0.9998807952001355,9.409577255783238e-05
-0.12677749770664376,-0.12677749770664376,1.003265213370342,9.382301567825383e-05
