time,time,flux,flux_err
-0.49989229219773107,-0.49989229219773107,0.9994766561778727,0.00029116417301643566
-0.499802605200648,-0.499802605200648,0.9997759765359489,0.0003024143570780186
-0.4997018253364104,-0.4997018253364104,1.000355311392649,0.0002795054740978915
-0.49949975379197153,-0.49949975379197153,0.9999369067128135,0.0003017063560513416
-0.4993778101094165,-0.4993778101094165,1.0001941219189296,0.00029288519963854034
-0.4992834843086172,-0.4992834843086172,0.9998342678879621,0.00029594958892799155
-0.49911789457502775,-0.49911789457502775,0.9999850177801948,0.0003016345841393948
-0.49892075247197737,-0.49892075247197737,0.9998715351351288,0.0002927673884734855
-0.4988264276565587,-0.4988264276565587,1.0000803974442616,0.0002957909944147128
-0.49870466892432147,-0.49870466892432147,1.000378981466423,0.00030309778362056373
-0.49847941670708734,-0.49847941670708734,0.9998344748693443,0.0002783361871437061
-0.49839104406457013,-0.49839104406457013,1.0001961321877006,0.0003033859471307561
-0.49824922354838463,-0.49824922354838463,1.0003670701227825,0.00030765516303619473
-0.49802298701858944,-0.49802298701858944,1.0000142289544007,0.00027369540954573664
-0.4979541229155842,-0.4979541229155842,0.9999805824171073,0.00031172373732202285
-0.4978422258681633,-0.4978422258681633,1.0002974919757452,0.0002691035291527169
-0.4976348866911479,-0.4976348866911479,0.9998711293962936,0.0003076121441878529
-0.4975173158665541,-0.4975173158665541,0.9996431610495178,0.0003021534550903196
-0.4974079594792471,-0.4974079594792471,1.0001722381328806,0.00027953397611834354
-0.4972253012595843,-0.4972253012595843,1.0000702022906727,0.00029984174554426496
-0.4970792888731779,-0.4970792888731779,0.9999516656691686,0.00029414209797615264
-0.4969982010646561,-0.4969982010646561,0.999796044631904,0.0002956527670837822
-0.496861449919345,-0.496861449919345,1.000242079092914,0.0002989605485207973
-0.49665118613990844,-0.49665118613990844,1.0001770809188222,0.0002783652596895004
-0.4965762661641577,-0.4965762661641577,1.0000994394073384,0.00030755021163198594
-0.4964710420350656,-0.4964710420350656,0.9999907362280551,0.00026908226625586916
-0.49626372112732897,-0.49626372112732897,1.0000550027126258,0.0003078209509474313
-0.49615110055085554,-0.49615110055085554,1.0000575263555,0.00028574852031287883
-0.4960606275405269,-0.4960606275405269,0.99997093313011,0.0003002850527145823
-0.49590350504210223,-0.49590350504210223,0.9997426802506773,0.00029718509450831474
-0.4957213490682705,-0.4957213490682705,0.9999527389837164,0.0002924749770816269
-0.49564368999633074,-0.49564368999633074,0.9999116747830676,0.00029083614647684567
-0.4955101447000942,-0.4955101447000942,0.9998764924724652,0.0002868127493038002
-0.4953099150465647,-0.4953099150465647,1.0003092324411014,0.0002912587268167801
-0.4952222540403312,-0.4952222540403312,1.0002199808957764,0.0003065401096120093
-0.4951162497044976,-0.4951162497044976,1.0005013483599021,0.0002743798144381053
-0.4949098718302821,-0.4949098718302821,0.9999062046531231,0.0003045077780572292
-0.49479399297995313,-0.49479399297995313,0.9999464545048597,0.00029392910188484237
-0.4947129178624465,-0.4947129178624465,0.9996676103892422,0.0002953940315007772
-0.4945395900751549,-0.4945395900751549,1.0000773971363468,0.0002990700112817734
-0.4943658979868616,-0.4943658979868616,1.000184975095221,0.00027850974261054204
-0.49429097998873034,-0.49429097998873034,1.000376971257485,0.0003072242337902101
-0.4941706488514427,-0.4941706488514427,1.0001064535873612,0.0002817449004131212
-0.49395696715718884,-0.49395696715718884,0.9998611847486572,0.0002961108822077679
-0.4938657995883659,-0.4938657995883659,1.000336054058235,0.00028564769859803493
-0.49377339734143105,-0.49377339734143105,1.000006765767213,0.0002955093657096829
-0.49358359998774687,-0.49358359998774687,1.000217926358092,0.0003018071839708439
-0.4934360609905781,-0.4934360609905781,0.9995853807130242,0.0002923845175666352
-0.4933583979589173,-0.4933583979589173,0.9999106471439763,0.00029064355475940496
-0.49321518070428566,-0.49321518070428566,0.9999188649923962,0.00030278401780189197
-0.4930160119354838,-0.4930160119354838,0.99982459508326,0.00027433894930645387
-0.49293696786006935,-0.49293696786006935,1.000151349614969,0.00030634559453379917
-0.492830952849971,-0.492830952849971,1.0000362610222377,0.0002741515613146991
-0.4926245944534685,-0.4926245944534685,1.0002004581093376,0.0003046689904157323
-0.49250138408612826,-0.49250138408612826,0.9995300474809822,0.0002938114985848388
-0.4924276347026165,-0.4924276347026165,1.0003901431089044,0.0002951477853842486
-0.4922384181941908,-0.4922384181941908,0.9999459311696561,0.0002808034831757799
-0.4920551199346221,-0.4920551199346221,0.9999153137390915,0.000296831336061784
-0.4919787083799889,-0.4919787083799889,1.0001073654212067,0.00028611055489202286
-0.49183538452656705,-0.49183538452656705,0.9999900694001693,0.0002868795114393735
-0.4916394348644587,-0.4916394348644587,0.9998082784718484,0.0002999302259961337
-0.49155056685172555,-0.49155056685172555,1.0004715175126861,0.0002976463318949176
-0.4914597747587635,-0.4914597747587635,0.9996644641600645,0.00027393060782231654
-0.491227487956624,-0.491227487956624,1.0001286634173698,0.0002918989187506111
-0.4911137293960081,-0.4911137293960081,0.9996113929920224,0.0003065937978183246
-0.4910513485745554,-0.4910513485745554,0.9998359826739582,0.00029502171571948684
-0.4908672368569199,-0.4908672368569199,1.0001628524537018,0.0002808996483361079
-0.4906839489723751,-0.4906839489723751,0.9999532551278714,0.00029678694642464086
-0.4906075313556073,-0.4906075313556073,0.9999839680383744,0.00028604186772640425
-0.49051305660664185,-0.49051305660664185,1.0003610378811287,0.0003027480916994903
-0.4902706097390734,-0.4902706097390734,1.000146387709354,0.00028402275027013236
-0.4901793870425223,-0.4901793870425223,1.0003209113016325,0.00029755888308413426
-0.4900885966837848,-0.4900885966837848,0.9999369718315396,0.00027385954228069403
-0.4899005436313274,-0.4899005436313274,1.000196432045382,0.00030487220144714036
-0.4897531761002881,-0.4897531761002881,1.000296280405167,0.0002937598135224572
-0.48968017842890105,-0.48968017842890105,0.9996675859048876,0.0002949395298023665
-0.4895192540505008,-0.4895192540505008,0.9998115750408354,0.0002991397538685191
-0.48933352420527,-0.48933352420527,0.9999993637808926,0.0002953046208670547
-0.4892448723954203,-0.4892448723954203,0.9998262259613254,0.00029070604583767963
-0.48913695442954863,-0.48913695442954863,1.0002055763168296,0.0002814557807103911
-0.4889220340744572,-0.4889220340744572,0.9999107429265907,0.00029628466667349425
-0.4888234528188917,-0.4888234528188917,1.000091544108146,0.0003061895127022959
-0.4887238964651999,-0.4887238964651999,1.000335656242283,0.0002736384348802377
-0.4885376839036269,-0.4885376839036269,1.000076952555382,0.00030191365592562204
-0.4883986640736168,-0.4883986640736168,0.9999329535829379,0.0002966543295223955
-0.48831412512256805,-0.48831412512256805,0.9996670180239466,0.0002949380289001023
-0.4881687354694151,-0.4881687354694151,0.9993500416139224,0.0002776447074803652
-0.4879756861840804,-0.4879756861840804,1.0000982442324526,0.0002998357212814536
-0.48789217879572105,-0.48789217879572105,1.0003766585659488,0.00030675032501178734
-0.48778692590454115,-0.48778692590454115,0.9998573956276386,0.0002633150953788402
-0.48756773288444605,-0.48756773288444605,0.9998064279104575,0.00030464491296363787
-0.4874678808239025,-0.4874678808239025,0.9999788225639301,0.0002935695833214141
-0.4873766122814317,-0.4873766122814317,0.9996648323916253,0.0002948416939980123
-0.4872011183072857,-0.4872011183072857,0.999727060425948,0.00029697133977357515
-0.4870372081704545,-0.4870372081704545,1.0000285670476017,0.00029751820947167826
-0.48695958047507304,-0.48695958047507304,1.000343997310986,0.0002905791801260571
-0.4868443388003783,-0.4868443388003783,1.0002937468642767,0.0002812191788350845
-0.4866075005500619,-0.4866075005500619,1.0002111433675325,0.00029642933255719377
-0.48653816673254935,-0.48653816673254935,0.9998269580823831,0.00030602513030669233
-0.48643859976250214,-0.48643859976250214,0.9999312642784803,0.00027352728466607313
-0.4862376683834526,-0.4862376683834526,1.0002741505429034,0.0002995754480598637
-0.4860967036776344,-0.4860967036776344,1.0002689438620098,0.00029343605109847143
-0.4860127106051578,-0.4860127106051578,1.000163571224509,0.00030022104816033676
-0.48587618148689843,-0.48587618148689843,0.9998363382525393,0.00027514846792026695
-0.4856746922005385,-0.4856746922005385,0.9999053244141635,0.00031237037819519984
-0.4855884053430287,-0.4855884053430287,0.9997065673641921,0.0002904920620219653
-0.4854882208479836,-0.4854882208479836,1.0001127350137478,0.0002691189347850079
-0.48527611519670016,-0.48527611519670016,1.0002288504664711,0.0003073228080450323
-0.48516699509660555,-0.48516699509660555,1.000251664968134,0.0003058645198061215
-0.48506938183024884,-0.48506938183024884,0.9999825447210547,0.00027896677539997303
-0.48491582765772706,-0.48491582765772706,1.0000662261894893,0.0002967933901675343
-0.4847422083358282,-0.4847422083358282,0.9998021224915853,0.00029661864314420484
-0.48465767228247786,-0.48465767228247786,1.0001152922300922,0.00029488208763064786
-0.48454149063493046,-0.48454149063493046,1.0001260703549184,0.00027766548816026223
-0.4843192504462593,-0.4843192504462593,1.0000137675429497,0.00029966728975145833
-0.4842357210383284,-0.4842357210383284,0.9997097158754069,0.00030630272412887475
-0.48413038822232296,-0.48413038822232296,0.9996161861478703,0.0002692179126133053
-0.4839405823490267,-0.4839405823490267,0.999705540542019,0.00029917419504389003
-0.4838114084665449,-0.4838114084665449,0.9997820866082432,0.000293355737366442
-0.48372011820807187,-0.48372011820807187,0.9999635519143595,0.0003000936786150962
-0.48357259268988173,-0.48357259268988173,1.0001707104145083,0.0002750824979828735
-0.48338941992670925,-0.48338941992670925,0.9997326560128605,0.00031226347040809135
-0.4833031134908737,-0.4833031134908737,1.0001585854082298,0.0002906109898702037
-0.48318781501174046,-0.48318781501174046,1.0000391824040178,0.0002866065798521034
-0.4829876540637429,-0.4829876540637429,1.0002207614913057,0.0002906882909787554
-0.4828817090655093,-0.4828817090655093,1.0002232788161098,0.00030574334972691716
-0.4827756472293544,-0.4827756472293544,0.9999863878811499,0.0002735737292729253
-0.48260241244256863,-0.48260241244256863,0.9999902243872556,0.0003015548067321853
-0.48245692356365455,-0.48245692356365455,1.0000148797133803,0.00029613538562375124
-0.48237238931488946,-0.48237238931488946,1.0001450236437284,0.000295011182615005
-0.48222692822768354,-0.48222692822768354,0.9997242534929193,0.00027753828906744947
-0.48203397818572,-0.48203397818572,1.0000307885121142,0.00029976708832018655
-0.48195043496469625,-0.48195043496469625,0.9995814669755421,0.0003062719472028563
-0.48183002831514726,-0.48183002831514726,1.0003589978609289,0.00028120198901287124
-0.48164841598413377,-0.48164841598413377,1.0002981603196244,0.00028796908629964284
-0.4815261132973404,-0.4815261132973404,0.9999608294169574,0.00029312059626694604
-0.48143287479188646,-0.48143287479188646,1.0000045749119535,0.0002950243938554415
-0.48126349093037957,-0.48126349093037957,0.999706998372279,0.0002803276168368926
-0.4810750606405293,-0.4810750606405293,1.000233752914859,0.00031233927267504586
-0.4810178216827182,-0.4810178216827182,1.0003311884834114,0.00029040310611124474
-0.4808842696021287,-0.4808842696021287,1.0000468168645968,0.00028092190728031886
-0.48067497849406776,-0.48067497849406776,1.0001397154187086,0.0002971264411912743
-0.4805767026412866,-0.4805767026412866,1.000499819887334,0.000293252583663256
-0.4804789225177132,-0.4804789225177132,0.9999208214770376,0.00028561835928797216
-0.4803019422024306,-0.4803019422024306,1.0000823804756973,0.0002886616247467696
-0.48014672703012024,-0.48014672703012024,0.9996775446727331,0.0002879130171088619
-0.4800723541188546,-0.4800723541188546,0.999976866356921,0.0003150486096495594
-0.4799233352497936,-0.4799233352497936,1.0002816408044028,0.0002775283202074854
-0.4797170677443091,-0.4797170677443091,1.0003597315693693,0.0002950278873779605
-0.47964664661868994,-0.47964664661868994,0.9995369061718973,0.00029023657937363916
-0.4795282179978301,-0.4795282179978301,0.9995227348740876,0.00030194365643072216
-0.47933859915436583,-0.47933859915436583,0.9996749630914327,0.0002809136324781641
-0.4792209672020903,-0.4792209672020903,1.000296021901264,0.00029980159105724203
-0.4791343056856988,-0.4791343056856988,0.9997932057196802,0.0002950064702982549
-0.47895990730216054,-0.47895990730216054,1.0000362723362561,0.0002803209145121475
-0.4787896603380517,-0.4787896603380517,0.9997729429606276,0.0002958594638348662
-0.47871593666106377,-0.47871593666106377,1.0001769483967737,0.0002947642969485454
-0.47858556777049444,-0.47858556777049444,1.0000033822272258,0.00029864941352400845
-0.4783832483402108,-0.4783832483402108,0.9995171475977402,0.00029187088136534037
-0.478291416589974,-0.478291416589974,0.9997724627692328,0.00029309137858013874
-0.47818868765494643,-0.47818868765494643,1.0003164228560695,0.000301842838903247
-0.4780069610626271,-0.4780069610626271,1.0001320619295893,0.00027156778763719896
-0.47786143461465824,-0.47786143461465824,0.9999327618085564,0.0002875921767299302
-0.47778708633339023,-0.47778708633339023,1.00009063492232,0.000314836580263128
-0.477638024908228,-0.477638024908228,1.0002318186234642,0.00027738238310586166
-0.47743178833088395,-0.47743178833088395,1.0000177557764887,0.0002946762308919042
-0.47736135488078163,-0.47736135488078163,1.000054468470589,0.00029008746912680323
-0.47724293110910593,-0.47724293110910593,0.9998726338561607,0.00030179349412025097
-0.4770533071931595,-0.4770533071931595,0.9999086817780318,0.00028104496837570757
-0.47693567593168495,-0.47693567593168495,1.0000288838236453,0.00029947164912661037
-0.4768490247316862,-0.4768490247316862,1.0002384796029882,0.0002951392208397676
-0.47667460632114284,-0.47667460632114284,0.9996837994181351,0.000280257910876445
-0.47650437307832194,-0.47650437307832194,1.0002046236602353,0.0002957635145164147
-0.4764306538114539,-0.4764306538114539,1.0001774738965783,0.0002948220200347589
-0.4762905791264586,-0.4762905791264586,0.9995578272984644,0.0002820648593358999
-0.4760606207107827,-0.4760606207107827,1.0003856514992875,0.00029475462502105877
-0.47600197424091845,-0.47600197424091845,1.0001648782566874,0.00030588506407031176
-0.4759001854508057,-0.4759001854508057,0.9997443863350239,0.00028559638408900197
-0.47568213204003484,-0.47568213204003484,1.000079605057057,0.0002810822239086248
-0.4755645011829074,-0.4755645011829074,0.9999949453382445,0.0002994750288241246
-0.47547785618088484,-0.47547785618088484,1.0000096196037498,0.00029499160162361945
-0.47526686134619356,-0.47526686134619356,0.9999649986121216,0.00028023640353149414
-0.47513320074395154,-0.47513320074395154,0.9996721734200614,0.00029574272153046264
-0.47505948412391774,-0.47505948412391774,1.0004689014442738,0.0002948359312491041
-0.47491939618078616,-0.47491939618078616,0.9999753609521939,0.0002820563005046565
-0.47469992367307157,-0.47469992367307157,1.000110820354719,0.0003077007126678302
-0.4746349589598225,-0.4746349589598225,1.0002768203339576,0.00029286792665166885
-0.47452898451959413,-0.47452898451959413,0.9999427999716151,0.0002910401373663072
-0.47429887350895966,-0.47429887350895966,0.999643258920085,0.0002829593325501127
-0.4742049668365297,-0.4742049668365297,1.0001170702882443,0.0002873533638332587
-0.4741306579724721,-0.4741306579724721,1.0004509951253528,0.00031489863260196493
-0.4739270235541653,-0.4739270235541653,1.000116882142231,0.0002627922120496099
-0.47377499924605504,-0.47377499924605504,0.9999902411176617,0.00030761827596415816
-0.47371432296316696,-0.47371432296316696,0.999711572803227,0.00030022564409741065
-0.4736148683694893,-0.4736148683694893,1.0000622710821698,0.0002910995827673293
-0.4733847537745447,-0.4733847537745447,1.0001633146338187,0.0002830190933049519
-0.4732908499075961,-0.4732908499075961,1.0000506315451951,0.0002873878039633898
-0.47323065750274795,-0.47323065750274795,0.9998258970327771,0.00030513193606345016
-0.4730728696627267,-0.4730728696627267,0.9998966865867732,0.00028189306738085314
-0.47286122968378946,-0.47286122968378946,0.9997655133678727,0.0002945637469297505
-0.4728016053010379,-0.4728016053010379,0.9998535448217554,0.0003070317225725341
-0.4727355191285483,-0.4727355191285483,1.0000856815503596,0.0002949110419323355
-0.4725002887334938,-0.4725002887334938,1.0000833239133828,0.0002713998286425571
-0.4723767329858731,-0.4723767329858731,0.9999758871327618,0.00028735907862154433
-0.4723165500090943,-0.4723165500090943,1.0002217635373667,0.000305124701749151
-0.4721948902008194,-0.4721948902008194,0.9997991570940968,0.000298387031853082
-0.47195435584990547,-0.47195435584990547,0.9997695922942252,0.00029142404379084566
-0.4718989578861226,-0.4718989578861226,0.9999795269618481,0.000294065464239355
-0.47182140679253165,-0.47182140679253165,0.999701595171351,0.0002948818558229635
-0.47160037226639134,-0.47160037226639134,0.9999735565276093,0.00028855027378138287
-0.47147577851305583,-0.47147577851305583,0.9998544374903198,0.00028735046698196565
-0.4714155859438648,-0.4714155859438648,0.9996042116452302,0.0002965654203918435
-0.4713011666103796,-0.4713011666103796,1.0003265949750397,0.00030661703468511613
-0.47105671922223563,-0.47105671922223563,1.000108195122489,0.00027519488169434935
-0.4709947399345964,-0.4709947399345964,0.999950263295012,0.0002886550167067361
-0.4709312832536,-0.4709312832536,1.000021989221543,0.0003148605694275445
-0.4707308304406951,-0.4707308304406951,1.000131346079413,0.000280272306302763
-0.47057236623441556,-0.47057236623441556,0.9997516034593972,0.00029132788899081626
-0.4705149312555534,-0.4705149312555534,0.9998435810340756,0.00029971517170723305
-0.47041872123949985,-0.47041872123949985,1.0000354786972965,0.0003022265754470157
-0.4701784181238139,-0.4701784181238139,0.9999296660932409,0.00027123805810207234
-0.47009144071305686,-0.47009144071305686,1.000319344819655,0.0002874246008793563
-0.470031281306791,-0.470031281306791,1.0004191959446103,0.00030501732719608857
-0.46985474821356943,-0.46985474821356943,1.0004065051550453,0.00029819707222979066
-0.46966906837512,-0.46966906837512,0.9999976360021327,0.00029135865826668603
-0.4696136728924273,-0.4696136728924273,1.0000406228239835,0.00029385514587691557
-0.4695361259850074,-0.4695361259850074,1.0000541835578542,0.00029507072381455504
-0.4692565735255414,-0.4692565735255414,1.0000625236469909,0.0002883799096211899
-0.46919048582907974,-0.46919048582907974,1.0002133866830063,0.00028744650141958555
-0.4691303058304669,-0.4691303058304669,1.0001611939765511,0.00029629872047620855
-0.4689549171881396,-0.4689549171881396,1.0000108314435172,0.0002882553868159233
-0.4687546095724656,-0.4687546095724656,0.9998347016458713,0.00030459578186079866
-0.46870313024332405,-0.46870313024332405,1.0000325798811283,0.00027760549877689706
-0.46863870285938847,-0.46863870285938847,0.9998961557245316,0.00031506591693437024
-0.46837338598219846,-0.46837338598219846,0.999853997780575,0.0002832415467708639
-0.4682763687698156,-0.4682763687698156,0.9998346028634627,0.00028746576461483015
-0.46822109226255293,-0.46822109226255293,0.9996414668482843,0.0003002206869981188
-0.46808714199599705,-0.46808714199599705,1.0001150918219526,0.000286275421736198
-0.46784875390727904,-0.46784875390727904,0.9999783964346276,0.00029190034237683234
-0.46779533194321343,-0.46779533194321343,1.0000225832112444,0.0002883974364270278
-0.46774144589595607,-0.46774144589595607,0.999974242410727,0.0003000886780592434
-0.4675035926082529,-0.4675035926082529,0.9997854513467219,0.00029595538408276443
-0.46737296016469826,-0.46737296016469826,1.0003836969171496,0.00029126143196125487
