time,time,flux,flux_err
-0.4999681831529415,-0.4999681831529415,0.9972354089145397,0.0026284559538162265
-0.49989515487268366,-0.49989515487268366,0.9989427549256217,0.002757705989886416
-0.49981963381355854,-0.49981963381355854,0.9980890323016298,0.002361706384515798
-0.4997576263814608,-0.4997576263814608,0.9998009580921184,0.0028221465703603564
-0.49966796292433174,-0.49966796292433174,1.0024430850530304,0.0024966891649129044
-0.4995603844959987,-0.4995603844959987,0.9989578291010306,0.002390011317199762
-0.4994198447468989,-0.4994198447468989,0.9996670312914977,0.002824644703036693
-0.4992769941222832,-0.4992769941222832,1.0007754620494407,0.0026791686671001013
-0.4991603609743379,-0.4991603609743379,0.9980601072280237,0.0024371702025548724
-0.49902761267371715,-0.49902761267371715,0.9973613811548635,0.0019610732662258836
-0.49894092720242045,-0.49894092720242045,0.9982527065801209,0.0027891852137310992
-0.49881579672141924,-0.49881579672141924,0.9996317945657662,0.0022708595793223354
-0.49863521626375584,-0.49863521626375584,1.0001949902770821,0.0026126530697911836
-0.4984222006292839,-0.4984222006292839,0.9986432437187205,0.0028941681777327572
-0.49827633293866713,-0.49827633293866713,0.9983374642120438,0.0024998173859331523
-0.4981500651340866,-0.4981500651340866,0.9979553253467432,0.002941922777824991
-0.49808019416459504,-0.49808019416459504,1.0013986367774448,0.002529748414034708
-0.4979699342746244,-0.4979699342746244,0.9978698760929186,0.0029258074516287586
-0.49784286645508474,-0.49784286645508474,0.9994213892057967,0.002302159224449746
-0.49774636951437967,-0.49774636951437967,0.9983890781988881,0.0030131563831975595
-0.49766011314986824,-0.49766011314986824,1.0000213228696446,0.0027434145475707292
-0.49760880309695493,-0.49760880309695493,0.9980549165387854,0.0023455072800726315
-0.4975053933846084,-0.4975053933846084,0.9982312360717366,0.002090092212821606
-0.4973701625943249,-0.4973701625943249,1.0007676234836136,0.002432972912685406
-0.4972463344419339,-0.4972463344419339,1.000269231524575,0.002265421844170979
-0.49717003329656106,-0.49717003329656106,1.0014143548785983,0.0024226783855277804
-0.49710039656038135,-0.49710039656038135,0.9996222949605723,0.002536203442656125
-0.4969962914096868,-0.4969962914096868,0.9995369526350981,0.002044486629437151
-0.4968870891941606,-0.4968870891941606,1.0007122401718505,0.002765083290524264
-0.49671195988694306,-0.49671195988694306,0.9990561599754729,0.0027197690042631588
-0.4966212961961901,-0.4966212961961901,1.0004364394139011,0.002928022052272713
-0.4965179494447966,-0.4965179494447966,0.9977065431477159,0.0028395849054235972
-0.4964115200291417,-0.4964115200291417,1.000645539396666,0.0019083798882515667
-0.49630613018630354,-0.49630613018630354,1.0005725792140268,0.002313835818759338
-0.4961500849527056,-0.4961500849527056,1.0021625962633192,0.002536303239324454
-0.49600266047727926,-0.49600266047727926,0.9989053172512792,0.0026275930657293097
-0.49589167367421394,-0.49589167367421394,0.9984356436440626,0.0022926976594466997
-0.4958190089127129,-0.4958190089127129,0.9982558240100374,0.0025328481662047478
-0.49571488512860923,-0.49571488512860923,0.9998525539973706,0.0023821339835164938
-0.49561187972776677,-0.49561187972776677,1.0019661568662344,0.0027750026146794093
-0.4955465814773106,-0.4955465814773106,1.0005108807241911,0.002537334700899026
-0.49546135201753716,-0.49546135201753716,1.0010835141989567,0.0025260405096531485
-0.4953652211468125,-0.4953652211468125,0.9983226970340509,0.002707167507777395
-0.4952714310722513,-0.4952714310722513,0.997557829415302,0.002189383394330976
-0.49514388655575203,-0.49514388655575203,1.0028460306940108,0.0030198948989020396
-0.49497373898284425,-0.49497373898284425,1.0005652823020283,0.0022874698661772414
-0.4948795550537852,-0.4948795550537852,0.9978189526949242,0.0027038161985532714
-0.494753454421334,-0.494753454421334,0.9990741829328519,0.0025136590128212737
-0.49462411548047386,-0.49462411548047386,1.0012065277333189,0.0021870941790606644
-0.494491600706624,-0.494491600706624,0.9990159511747251,0.0023784221219317466
-0.49441043422061737,-0.49441043422061737,0.9985696847305713,0.0020910477396397175
-0.4941544381557833,-0.4941544381557833,0.9989172026604972,0.002070856983276265
-0.493926541890869,-0.493926541890869,0.9993720057108773,0.0023814510959157915
-0.49382223550246634,-0.49382223550246634,0.9978288600164774,0.002628106805454582
-0.4937492217590716,-0.4937492217590716,1.0004081434164054,0.002756319566235742
-0.49367632914209025,-0.49367632914209025,0.9994086267855167,0.002191658893702898
-0.49361169665749005,-0.49361169665749005,0.9994702095562602,0.0028199457020438782
-0.4935205938974832,-0.4935205938974832,0.9986897460635458,0.0025215664811804863
-0.49338559078510114,-0.49338559078510114,1.0013302649683944,0.0026567065693936737
-0.49324026471517757,-0.49324026471517757,0.9996697250768163,0.0024369963133564084
-0.4931227500509522,-0.4931227500509522,1.0029114558111674,0.0026940155321641466
-0.49302535356223415,-0.49302535356223415,0.9996358768491997,0.002392760314146015
-0.4929012565976791,-0.4929012565976791,0.9969520224270513,0.00212859099359449
-0.49281096155045817,-0.49281096155045817,1.0007230862013587,0.0024535806648326003
-0.49270217582625264,-0.49270217582625264,1.002275342412573,0.002519475638864619
-0.4925160089152996,-0.4925160089152996,0.9984546024913996,0.0020777222527014303
-0.49227621102368174,-0.49227621102368174,0.9973892324518856,0.0028986794001693286
-0.4921303896615427,-0.4921303896615427,0.9994827093763913,0.0024998279658907767
-0.49200411478364003,-0.49200411478364003,0.997745750123976,0.002944022895127066
-0.4919342261760903,-0.4919342261760903,0.9999805123273505,0.0025269640765788926
-0.4918239971656931,-0.4918239971656931,1.000133446486315,0.002928272911827863
-0.4916899061891854,-0.4916899061891854,0.9988503972026235,0.00272273082143369
-0.4915646835242569,-0.4915646835242569,1.001122676736241,0.0028342054492458387
-0.4914846165464496,-0.4914846165464496,0.996757690644617,0.0027037105890956896
-0.49140997584968316,-0.49140997584968316,1.0008795068077279,0.002240786929960769
-0.4912839343484393,-0.4912839343484393,0.9983761290267736,0.002366685792234826
-0.49116348955690226,-0.49116348955690226,0.9992372442031112,0.0022827814774451912
-0.4910698932896139,-0.4910698932896139,0.9993260256126503,0.0022643874849524407
-0.49099270778124265,-0.49099270778124265,1.0031055465485577,0.0028856831080826023
-0.49092077827867797,-0.49092077827867797,0.9974334659892337,0.0022734009586650684
-0.4908295514245765,-0.4908295514245765,0.9978093509870352,0.002355711500298401
-0.49070793046921607,-0.49070793046921607,0.9970208754226382,0.0024817329599522066
-0.49054266837629257,-0.49054266837629257,0.9950374397765713,0.003047500177454295
-0.49045910257937064,-0.49045910257937064,1.001398311430821,0.002936524702552881
-0.4903477126452344,-0.4903477126452344,0.9983081643076426,0.0024779530164971463
-0.4902457250445423,-0.4902457250445423,1.0005537065828571,0.0020693757270040356
-0.4901586719871375,-0.4901586719871375,0.9990252551294707,0.0023507531739926364
-0.48999854970015805,-0.48999854970015805,1.0012510065624303,0.002487199581027978
-0.48985670633196604,-0.48985670633196604,1.0010419879173442,0.002627558219925999
-0.4897457096642938,-0.4897457096642938,0.9982274952791304,0.0022903633041329117
-0.4896730500515332,-0.4896730500515332,1.0017716313676184,0.0025400490782207514
-0.48956892637129384,-0.48956892637129384,0.9996710576563268,0.0023824952220511493
-0.4894659300842704,-0.4894659300842704,1.0038068128637798,0.002775401153316628
-0.48940060274339886,-0.48940060274339886,1.0027193425024754,0.0025381140692172783
-0.48931547522988694,-0.48931547522988694,1.0005935121839624,0.002531028222060075
-0.4892251011433473,-0.4892251011433473,0.997793777149958,0.0025324765205249193
-0.4891511855603767,-0.4891511855603767,0.9993986887498216,0.002413546574765718
-0.4890177314442553,-0.4890177314442553,0.9979323649019388,0.0024846504326595
-0.4888684161709989,-0.4888684161709989,1.0007522286704689,0.0027962430973743286
-0.4887483296656228,-0.4887483296656228,1.000288799428367,0.002614304973229311
-0.4886348552736763,-0.4886348552736763,1.0000109109668833,0.0026044195233681294
-0.4885041225608802,-0.4885041225608802,0.9988125070759957,0.002183600254816203
-0.4883648542224819,-0.4883648542224819,1.0012388363048714,0.0023837014646514634
-0.4882859206766625,-0.4882859206766625,1.0027811556666983,0.002148522019363458
-0.4880461861833737,-0.4880461861833737,0.9999129603140376,0.0018682148844535932
-0.4877933392172508,-0.4877933392172508,1.001121303318546,0.00240011413525829
-0.48768587816271064,-0.48768587816271064,1.0002119508835903,0.0026287146736945137
-0.48762144680090386,-0.48762144680090386,0.9978117695102998,0.002737015480932077
-0.4875435181938883,-0.4875435181938883,1.0031482389149546,0.0023714068121617605
-0.48747960559876446,-0.48747960559876446,1.0006935363625804,0.0026863031707626273
-0.4873949418900338,-0.4873949418900338,0.9995786449106099,0.0025373801554815427
-0.4872684583670434,-0.4872684583670434,1.0022487407564933,0.002388893987472682
-0.4871278407746559,-0.4871278407746559,1.002906342668891,0.002834174128258698
-0.48698842592625624,-0.48698842592625624,0.9997930986695845,0.002518913762221335
-0.486902276598812,-0.486902276598812,0.999249694231162,0.0024530350071118256
-0.4867846517167891,-0.4867846517167891,0.9986438709606069,0.00211024450902009
-0.4866812874142852,-0.4866812874142852,0.9992133160958735,0.0024159373630075085
-0.4865746353311806,-0.4865746353311806,1.0000701659091813,0.0026407064576245915
-0.4864139351557242,-0.4864139351557242,1.0001648948445245,0.002208485532008363
-0.4862311931629392,-0.4862311931629392,1.0034220166387566,0.002593913902381165
-0.4860419848213041,-0.4860419848213041,1.0012188564572693,0.0024974283183651054
-0.48589792600168946,-0.48589792600168946,0.9996635983259476,0.002571202505243638
-0.4858182713809128,-0.4858182713809128,1.0020613709332777,0.003085220619665738
-0.485728061871896,-0.485728061871896,1.0038813214036115,0.002878847932762672
-0.48559944586299936,-0.48559944586299936,0.9988681599629325,0.002491764611202358
-0.4854625677661716,-0.4854625677661716,1.000696655516529,0.0027040590276174305
-0.4853627434476948,-0.4853627434476948,1.0019092754752126,0.0026514884213939822
-0.4852897487437531,-0.4852897487437531,0.9990992558393297,0.0021921374444774074
-0.48515899331841866,-0.48515899331841866,1.0005570253349767,0.0021153970005481746
-0.4850175148530525,-0.4850175148530525,0.9984005728168329,0.0022811242696094518
-0.48492414513152654,-0.48492414513152654,0.9993666336215716,0.0023710925177424062
-0.48486194296865504,-0.48486194296865504,0.9964953171043046,0.0026311029707582955
-0.4847934729732515,-0.4847934729732515,1.0027543864915585,0.0021662017921049567
-0.4846989904540351,-0.4846989904540351,1.0001239085440359,0.002410787940737377
-0.48459524857617,-0.48459524857617,0.9998098116540575,0.0027649220379901748
-0.48442003148488766,-0.48442003148488766,1.0012221110408848,0.002725874259061495
-0.48432940933353164,-0.48432940933353164,0.9998255744513136,0.0029307608197705385
-0.4842261115336896,-0.4842261115336896,0.9981559022961324,0.0028367941271127918
-0.4840912308096904,-0.4840912308096904,0.9994866256951358,0.0022867252835949174
-0.48396738881097007,-0.48396738881097007,0.9997936418688745,0.002532479574898265
-0.48380308561436325,-0.48380308561436325,0.99796420982662,0.0027511991429745248
-0.48369918756652625,-0.48369918756652625,0.9991474705857147,0.0024805205458877577
-0.4835787586654533,-0.4835787586654533,1.001461355031637,0.0022745788298796513
-0.48352709122918897,-0.48352709122918897,1.0007894187101782,0.0025512232077644745
-0.48342296764753884,-0.48342296764753884,1.0013248976998417,0.0023812382439867964
-0.4833199804507785,-0.4833199804507785,0.99820708330212,0.0027758767923530287
-0.4832470416934484,-0.4832470416934484,0.9995404297409319,0.002669239608160687
-0.483149461794801,-0.483149461794801,1.0007406137620678,0.0027076075167142112
-0.48306624573388035,-0.48306624573388035,1.0021791896477343,0.0024013957287497834
-0.48296793966519547,-0.48296793966519547,1.0000107443878692,0.0021705715855960964
-0.4828633312839429,-0.4828633312839429,0.9981433373161952,0.002771462153178119
-0.48272244902727834,-0.48272244902727834,1.001482445078466,0.00279747205046887
-0.48260236029705084,-0.48260236029705084,0.9981183422554825,0.0026110956559294617
-0.4824670587330274,-0.4824670587330274,1.0018104069604465,0.002559329283792722
-0.4823321645876604,-0.4823321645876604,0.9987077964398571,0.0021858193336652732
-0.48219970424684105,-0.48219970424684105,0.9996101357061832,0.0023800908250221214
-0.482118545228559,-0.482118545228559,0.998279716944455,0.002089304159404183
-0.4818931432050249,-0.4818931432050249,0.9969344526565675,0.0018421364412511034
-0.4816698246609576,-0.4816698246609576,0.9997907779061045,0.0022340606001276454
-0.48153990535724916,-0.48153990535724916,1.0022555992149207,0.0026259873821184608
-0.48147550836056324,-0.48147550836056324,0.9999119004898567,0.0027403028440110408
-0.48139759442560714,-0.48139759442560714,0.999027037004596,0.0023662659105872378
-0.4813336600491766,-0.4813336600491766,1.0000225410702686,0.0026832912357929906
-0.48124896983581494,-0.48124896983581494,1.0008568217726102,0.0025364512134826668
-0.4811225039100009,-0.4811225039100009,0.9969041183471056,0.0027860147060455756
-0.48098183024944774,-0.48098183024944774,1.0000166674533035,0.002444110529594128
-0.48082687391311085,-0.48082687391311085,0.9999526363940208,0.0022966910356456384
-0.4806913781005278,-0.4806913781005278,1.003181744639327,0.0024547103380262386
-0.48058960193529854,-0.48058960193529854,1.0011291368093702,0.001962090635130737
-0.4805030137372796,-0.4805030137372796,1.000967829897633,0.002793950365256252
-0.48033558364231793,-0.48033558364231793,0.9980478370510409,0.002312094666106032
-0.4801746312983141,-0.4801746312983141,1.0018630657494707,0.0022342359746282624
-0.47995139057093184,-0.47995139057093184,1.0008976598456254,0.00275862816312225
-0.47982611773181816,-0.47982611773181816,1.000269672989947,0.0029230726414653818
-0.47969707870661293,-0.47969707870661293,0.9998017516763728,0.0028334498269961474
-0.4796382020253532,-0.4796382020253532,0.9979412220587012,0.002323864645706621
-0.4795357670309386,-0.4795357670309386,1.002551714251228,0.0031432685256078475
-0.47942515189129153,-0.47942515189129153,1.0028111741989094,0.0023571614465117867
-0.4792939342837144,-0.4792939342837144,1.002028314366356,0.002827749404499992
-0.4792017546943953,-0.4792017546943953,1.0039226879621834,0.0025196390788866144
-0.47911808385060795,-0.47911808385060795,0.9991590291582007,0.0022423180118840776
-0.47899153926023247,-0.47899153926023247,1.0013240028191228,0.0022174330718942787
-0.4788465679745514,-0.4788465679745514,0.9996839416358402,0.002160778352476052
-0.478763337996179,-0.478763337996179,1.0015862501117898,0.002360920031168311
-0.47868750413840644,-0.47868750413840644,1.000117889480824,0.002757185447596071
-0.47860929173689326,-0.47860929173689326,0.9994063388610555,0.0022751454625725997
-0.47851959149643336,-0.47851959149643336,1.0009024677391771,0.002777709451012117
-0.47837587372209783,-0.47837587372209783,0.9991423393368859,0.002137490636618639
-0.47822972312915224,-0.47822972312915224,1.0009492136753018,0.002969065879691131
-0.4781465582130295,-0.4781465582130295,1.0025621071666362,0.0031495311342670503
-0.47803277471130057,-0.47803277471130057,1.0021944807981826,0.0023203483905984467
-0.47791467389224634,-0.47791467389224634,1.0006186779880952,0.002561287279870689
-0.47779277032800566,-0.47779277032800566,0.9983340185152612,0.002860832304798445
-0.4776298497881271,-0.4776298497881271,1.001867457463395,0.00227606450639745
-0.4775268840591707,-0.4775268840591707,1.0008081070986325,0.002485117523965976
-0.4774217583476002,-0.4774217583476002,0.9978539809743584,0.002634947661700024
-0.47734589766764657,-0.47734589766764657,1.001222962580668,0.002239846500271794
-0.47722898608280956,-0.47722898608280956,0.9999210154992749,0.0023541919385446715
-0.4771448066704579,-0.4771448066704579,0.9975589122774704,0.0030013050352738027
-0.4770652701333347,-0.4770652701333347,0.9966362874469412,0.00254693808773583
-0.47697217725490193,-0.47697217725490193,1.0043831846612885,0.0027110059932057696
-0.4769057514094584,-0.4769057514094584,1.0015864699672306,0.0023990041967069083
-0.4768010054470778,-0.4768010054470778,1.0013333882994349,0.0020767119671577247
-0.4767023249014528,-0.4767023249014528,1.0015400181854126,0.0026961490210020795
-0.47657648188346685,-0.47657648188346685,1.0002788109833434,0.0027984937170656933
-0.4764563909571734,-0.4764563909571734,1.0023041278373763,0.0026162040507152554
-0.47634294079812206,-0.47634294079812206,1.0020940981422088,0.002603913357079124
-0.4762121845076763,-0.4762121845076763,1.0000287100991812,0.002183451267694756
-0.47607292478169255,-0.47607292478169255,0.9996010531202106,0.002383713246900963
-0.4759940559631559,-0.4759940559631559,1.0012033132709566,0.0021530579380967044
-0.4758083453787549,-0.4758083453787549,0.9996385206737084,0.0018450205536903054
-0.47552385333833624,-0.47552385333833624,0.99944738392654,0.0022320134608286883
-0.4753939325575175,-0.4753939325575175,0.9995618330575414,0.002622493717132023
-0.4753295699345017,-0.4753295699345017,1.0000990687836597,0.002740915437495639
-0.47525899814431793,-0.47525899814431793,0.9988746419740642,0.0023978374265930845
-0.4752001569044751,-0.4752001569044751,1.0002830878268196,0.0025769479650245763
-0.4751243493114089,-0.4751243493114089,1.0018913544408092,0.00252282888418954
-0.47500621221629447,-0.47500621221629447,1.0019518274378796,0.0025444749368021555
-0.47486308496218044,-0.47486308496218044,0.9983339627128945,0.0028281304581138514
-0.47470265818387813,-0.47470265818387813,0.9996304414901557,0.00212663584054227
-0.4745764403905923,-0.4745764403905923,0.999496399115342,0.0024332817391394253
-0.4744623321936615,-0.4744623321936615,1.0020626545026383,0.0021525410612004046
-0.4743686390818766,-0.4743686390818766,1.001534065939726,0.002474916021200055
-0.4742327137954817,-0.4742327137954817,1.0014345458602123,0.0025617465692643056
-0.4740673108343344,-0.4740673108343344,0.999809486686288,0.002072448569694501
-0.4738677143114728,-0.4738677143114728,0.996329422896077,0.0025951468365288653
-0.4737189419038259,-0.4737189419038259,1.0003527565005381,0.0026651882816183707
-0.47357317317146225,-0.47357317317146225,0.9994945229146112,0.0028226330444414164
-0.4735002639164122,-0.4735002639164122,0.9978714107565347,0.0025170262560929883
-0.47339156511275177,-0.47339156511275177,1.0024239736791256,0.00301717749349187
-0.47327859223410085,-0.47327859223410085,0.9970664362393974,0.002608708664708359
-0.47314794117369274,-0.47314794117369274,1.0007563731856346,0.0028265811026718215
-0.4730558016811301,-0.4730558016811301,1.0007294600634586,0.0025179761143522316
-0.4729721378947488,-0.4729721378947488,0.9997099428440908,0.0022416487967151753
-0.47284555106875814,-0.47284555106875814,0.9992676272168263,0.002220279304617983
-0.47270030010245134,-0.47270030010245134,1.00196489734916,0.002632221884957768
-0.47261740372923666,-0.47261740372923666,1.0017547988900648,0.0023654726747017376
-0.47254156486328613,-0.47254156486328613,0.9981572892374613,0.002755991335149789
-0.47246329535678344,-0.47246329535678344,1.000584442700836,0.0022779834846046692
-0.4723810054924343,-0.4723810054924343,1.0031173336279147,0.0026798380367534513
-0.47227009615221505,-0.47227009615221505,1.000009872679263,0.00247706197534229
-0.4721048006443652,-0.4721048006443652,0.9988033482609653,0.0030547952453685396
-0.47200428620099044,-0.47200428620099044,0.9996096880880453,0.0030104682620607235
-0.47188479534979705,-0.47188479534979705,1.0018093843572837,0.002396481335798663
-0.47173957639724906,-0.47173957639724906,1.003557737930255,0.0023882722555321543
