time,time,flux,flux_err
-0.4997255692354277,-0.4997255692354277,1.0002975412257455,0.00014522271962796613
-0.4992095603890145,-0.4992095603890145,1.0001108580480096,0.00014469845700148696
-0.49868960326057277,-0.49868960326057277,1.0000197175069545,0.00014668175560346013
-0.49838041987519927,-0.49838041987519927,0.9999246527197986,0.000145582181497811
-0.4980749694768747,-0.4980749694768747,1.00016429692874,0.00013199156637411436
-0.4977041500038467,-0.4977041500038467,1.0000904898962144,0.00013123866158415003
-0.49679886609883395,-0.49679886609883395,0.9998887785248914,0.00013192679473599005
-0.49624602741459967,-0.49624602741459967,0.9999810501570622,0.00013247136269671964
-0.49568195173269486,-0.49568195173269486,1.0000590507398495,0.00013277995290428095
-0.49517368884553437,-0.49517368884553437,1.0000745831555242,0.0001315556938275895
-0.4945880456471059,-0.4945880456471059,1.0002318962030181,0.00014010664889088994
-0.4941600536410988,-0.4941600536410988,1.0001115310191486,0.00013376053323081225
-0.49358892980017116,-0.49358892980017116,0.9996914319869739,0.0001316853348855255
-0.4929580890748184,-0.4929580890748184,0.9998982046653542,0.00013809021633254322
-0.49251285948557777,-0.49251285948557777,0.9998888131548803,0.00013335456707406883
-0.4921615640785603,-0.4921615640785603,0.9999947459521022,0.00013170010076437742
-0.49176764257645117,-0.49176764257645117,0.9999141282117187,0.0001335846456663128
-0.4914077454828657,-0.4914077454828657,0.9999015153912998,0.00013166391196667982
-0.49079537424695446,-0.49079537424695446,0.9998598768306785,0.0001320711601718119
-0.49024663638774657,-0.49024663638774657,1.000169479622275,0.00013268789137568798
-0.4898248080920894,-0.4898248080920894,1.0002539622374924,0.0001327734452869395
-0.4894224414812925,-0.4894224414812925,0.9999338828177402,0.00013235947925113205
-0.4887726240041957,-0.4887726240041957,0.9998345192787326,0.00013169253042477993
-0.4882441695648595,-0.4882441695648595,1.0000191322551548,0.0001326092282936491
-0.48787553002839557,-0.48787553002839557,0.9999232990721041,0.00013233356449577762
-0.4872174853742763,-0.4872174853742763,1.0000906603823405,0.00013304516208843833
-0.4868509602783888,-0.4868509602783888,1.000008218305441,0.00013398667297595716
-0.4865016697178362,-0.4865016697178362,0.9997978428988809,0.00013204675481755127
-0.48609433305464333,-0.48609433305464333,0.9999958516533001,0.00013163786695274596
-0.4858473277272424,-0.4858473277272424,0.9999969814243179,0.0001317177566252268
-0.4855483362247469,-0.4855483362247469,0.9998494890695969,0.0001332072999630784
-0.48492322144520583,-0.48492322144520583,0.9997918644980605,0.00013276340467034334
-0.48443323868559673,-0.48443323868559673,1.0002090619017596,0.00013153032675816375
-0.4836386097500508,-0.4836386097500508,1.0000442816124777,0.00014116104215437165
-0.48314539928614975,-0.48314539928614975,1.0000836552392627,0.0001320157555687637
-0.48259844061394686,-0.48259844061394686,1.0000390713055674,0.00013278395597718956
-0.48203857528205846,-0.48203857528205846,1.000115350006575,0.0001338758804643997
-0.4816540150211949,-0.4816540150211949,1.0003158771014178,0.00013176736723894328
-0.48087676359646137,-0.48087676359646137,0.9998499262978591,0.00013158040568768642
-0.480302743287757,-0.480302743287757,1.0001280995323296,0.0001327218757302116
-0.47989709501489414,-0.47989709501489414,1.0000163181331545,0.00013187848314884012
-0.4792062129869009,-0.4792062129869009,0.9999088122106128,0.000133014554099873
-0.4784411554785038,-0.4784411554785038,1.000066784996267,0.00013230345995339472
-0.4777544088079594,-0.4777544088079594,1.0001354989633433,0.00013366872278892437
-0.47730781529753585,-0.47730781529753585,1.0000082338800411,0.00013255986310042718
-0.4768055183609249,-0.4768055183609249,0.9998406452494157,0.00013158111865802663
-0.4761524996407388,-0.4761524996407388,0.9999942771904987,0.00013192603080310704
-0.47569708613373224,-0.47569708613373224,0.9999335714286909,0.0001323663198767397
-0.4752265714276291,-0.4752265714276291,0.9998773446706654,0.00013210701388036795
-0.4750132244807901,-0.4750132244807901,1.0000434205347337,0.00013236341221622636
-0.47443088697109487,-0.47443088697109487,0.9998826397805327,0.00013334526160541088
-0.47400144685598206,-0.47400144685598206,1.0000524430499478,0.00013177074108008445
-0.4737389366062416,-0.4737389366062416,0.9999886094155983,0.00013164321791159637
-0.4731675904600706,-0.4731675904600706,1.0000716365604796,0.00013251064975184861
-0.47225377437353017,-0.47225377437353017,0.9999849325546106,0.00013233242430465194
-0.47164304342804825,-0.47164304342804825,1.0000521968906997,0.00014087589861407052
-0.4711695960744692,-0.4711695960744692,1.0002908152300778,0.00013134177559345495
-0.4706061688819318,-0.4706061688819318,0.9998276551894094,0.0001319564591092287
-0.4702728978758387,-0.4702728978758387,0.9999146810114299,0.0001329143863750452
-0.46965577334703995,-0.46965577334703995,1.0003007204848253,0.0001334451805945993
-0.4690484069622471,-0.4690484069622471,0.999978462429364,0.00013250946320133108
-0.46844904566314655,-0.46844904566314655,1.0000958248896257,0.0001323557429937239
-0.46783004060489475,-0.46783004060489475,1.0001333176101146,0.00013140415895828312
-0.466926719868934,-0.466926719868934,0.999811756533002,0.00013123882262125637
-0.46617342467579875,-0.46617342467579875,0.9997747317628148,0.00013335362257497883
-0.46565424986038123,-0.46565424986038123,0.9999992932569107,0.0001366841143853644
-0.46534718923721813,-0.46534718923721813,0.9999021290193383,0.00013330251368854658
-0.464822008691408,-0.464822008691408,0.9998275577010391,0.00013154982633349022
-0.4643260583143274,-0.4643260583143274,0.9998529555215565,0.00013240321798675374
-0.463892267196934,-0.463892267196934,1.0001398530042223,0.0001311478821108884
-0.463542557098117,-0.463542557098117,1.0001149877714977,0.0001316327558483915
-0.4630777364327514,-0.4630777364327514,1.0000369702378575,0.00013273122698531604
-0.46277765778650065,-0.46277765778650065,1.0000813305665552,0.00013130728015545813
-0.4622274104520329,-0.4622274104520329,0.9998828339231871,0.0001340694665391055
-0.4618681806168752,-0.4618681806168752,1.00014362770428,0.00013207683593954807
-0.46163482695556013,-0.46163482695556013,0.9998375988819221,0.00013188552853946297
-0.46147981119283943,-0.46147981119283943,1.0000412076115839,0.0001333917828473671
-0.46089137623275744,-0.46089137623275744,1.0000159997006444,0.00013203466286625977
-0.4601752580652828,-0.4601752580652828,0.9999877355023067,0.00013317416628677947
-0.45961385478294686,-0.45961385478294686,0.999691772345465,0.00013199016134051125
-0.4591831360812648,-0.4591831360812648,1.0001353953828747,0.00013242893871161885
-0.45862552804901496,-0.45862552804901496,1.0000878023995239,0.0001376837813292892
-0.45824298112274847,-0.45824298112274847,1.0001793769283487,0.00013714366679234933
-0.4577144287497504,-0.4577144287497504,0.999872625220692,0.00013260794486899698
-0.45715065252952625,-0.45715065252952625,0.999808725486669,0.00013332336632926848
-0.45659335749805907,-0.45659335749805907,0.9999304517767127,0.000139435591473916
-0.45599429674402925,-0.45599429674402925,0.9999508011546304,0.00013223486442350468
-0.4552788882065215,-0.4552788882065215,1.000004549052431,0.00013267720955900995
-0.45455435361727725,-0.45455435361727725,1.0000446028546583,0.000132626124488463
-0.4539935009292094,-0.4539935009292094,0.9999393310284785,0.00013374995405610865
-0.4534336062206421,-0.4534336062206421,1.000048274428435,0.00013516670955945773
-0.45322343192310655,-0.45322343192310655,1.0000418350997706,0.00013296437457626506
-0.45264908714962077,-0.45264908714962077,1.000103306872464,0.00013122191514861379
-0.45198611580053694,-0.45198611580053694,0.9999329643339164,0.0001313457325796521
-0.45142850778720456,-0.45142850778720456,0.9999072496222444,0.0001318707917084277
-0.4510977038975398,-0.4510977038975398,0.9998538326950094,0.0001319538373131515
-0.45052308664016893,-0.45052308664016893,0.9999545453536832,0.00013220532508507492
-0.44995518241266835,-0.44995518241266835,1.0001165027595262,0.0001331759647867475
-0.4495976473830524,-0.4495976473830524,0.9999107055934479,0.00013163996677748756
-0.44939032177862825,-0.44939032177862825,1.000130441150607,0.00013255629356684597
-0.4490184669717564,-0.4490184669717564,1.000122570418651,0.00014029084062947066
-0.448462772230414,-0.448462772230414,0.9998773544341237,0.0001325117779240979
-0.4481418045106693,-0.4481418045106693,0.9999506580599068,0.00013239955066258463
-0.4478863510317751,-0.4478863510317751,1.0000620858393572,0.00013139813932710863
-0.44751438157691154,-0.44751438157691154,0.9999048505629871,0.00013274164508976987
-0.44708027652377497,-0.44708027652377497,1.0002116602865239,0.0001391348281645733
-0.4465420757893298,-0.4465420757893298,1.0000291348460761,0.00013243329311748276
-0.4458323133017984,-0.4458323133017984,1.00000229629796,0.00013220897946793594
-0.44530356887698874,-0.44530356887698874,0.9999675263285012,0.00013193728621482842
-0.44492200940076143,-0.44492200940076143,1.0000841293172686,0.00013287025315810295
-0.4443168400321156,-0.4443168400321156,0.9997672672997782,0.00013120636158476677
-0.44374729176561234,-0.44374729176561234,0.9999659724035164,0.00013214605329275246
-0.44307103422033833,-0.44307103422033833,1.0000232922984704,0.00013162009586295916
-0.44257670420847717,-0.44257670420847717,1.0000829477326365,0.00013642029309625972
-0.44220926353809775,-0.44220926353809775,0.9997214090379284,0.0001318279034318369
-0.44151174888465905,-0.44151174888465905,0.9997781007464865,0.0001358953672024261
-0.4412293678658898,-0.4412293678658898,0.9999737170208837,0.0001326232597503515
-0.4409730667277472,-0.4409730667277472,0.9998973274976966,0.00013194853792033198
-0.44049838587525303,-0.44049838587525303,0.9998248492675852,0.00013153431217494447
-0.439961671284982,-0.439961671284982,0.9999437645671208,0.00013128142148966445
-0.4394111540466838,-0.4394111540466838,1.0000947479806443,0.00013136354675539604
-0.43909794110732037,-0.43909794110732037,1.0000014761108487,0.00013203687699841173
-0.43873292398639024,-0.43873292398639024,1.000130458500951,0.00013247321336785025
-0.4382221340740216,-0.4382221340740216,1.0000176512910974,0.00013246553850851291
-0.4378129994904157,-0.4378129994904157,1.0000216489271991,0.00013144117839482516
-0.4374604301607178,-0.4374604301607178,0.9999298803998083,0.000131562376137122
-0.43713148254610135,-0.43713148254610135,0.9998458943418065,0.00013240575779590864
-0.43674988188431596,-0.43674988188431596,0.9999028446336233,0.00013103645347201304
-0.43602420873430675,-0.43602420873430675,1.0000577845711396,0.00013253576813765792
-0.43581801911641377,-0.43581801911641377,0.9999565900987839,0.00013182167857269322
-0.4355105312533851,-0.4355105312533851,1.0001229857025138,0.0001317015564987755
-0.43497259490541185,-0.43497259490541185,1.000076881588722,0.00013143329153890023
-0.43448656603577546,-0.43448656603577546,1.0002329901162075,0.0001316624142581274
-0.4340600819545216,-0.4340600819545216,0.9999701541902197,0.00013137227495459077
-0.43361383677402043,-0.43361383677402043,0.9999973992863914,0.00013255569129355492
-0.4331123712079716,-0.4331123712079716,0.9999900775387933,0.00013260171147195252
-0.43273098416393624,-0.43273098416393624,0.9999104505560981,0.00013316613172231217
-0.43215933259853045,-0.43215933259853045,0.999809910847046,0.0001328307878003481
-0.4316808808704081,-0.4316808808704081,0.999859185609375,0.0001320131773836495
-0.43107457499281737,-0.43107457499281737,1.0000312777808245,0.00013179239268746896
-0.43060498590857604,-0.43060498590857604,0.9999381205739086,0.00013152716002484317
-0.4301639387107571,-0.4301639387107571,0.9998184709630413,0.00013176143009599578
-0.42954547913686836,-0.42954547913686836,0.9999221808321602,0.00013542725495882633
-0.42913529210563867,-0.42913529210563867,0.9999552495207953,0.0001332699498112775
-0.42873707218677737,-0.42873707218677737,0.9998950723244319,0.0001321248254416648
-0.42832098636281446,-0.42832098636281446,0.9999409576980038,0.00013261213414245246
-0.42750169158825885,-0.42750169158825885,1.0000877611572974,0.0001319888457020205
-0.4270299182535382,-0.4270299182535382,1.0000322318856791,0.0001311790616835544
-0.426626522042352,-0.426626522042352,1.0001560491332326,0.00013163246286566598
-0.4258061970234849,-0.4258061970234849,0.9997348032081763,0.00013189568740933118
-0.4253100314497715,-0.4253100314497715,0.9997924100829337,0.00013179903578855386
-0.42478516823102835,-0.42478516823102835,1.0000925975604695,0.00013220240371848003
-0.42438260706621805,-0.42438260706621805,1.0000545653347088,0.00013405073326011892
-0.4239075734069047,-0.4239075734069047,1.0000747442686422,0.00013285440745183986
-0.42366662616987016,-0.42366662616987016,0.9998478147333902,0.000131421200992231
-0.4232965530201909,-0.4232965530201909,0.9999450378446131,0.00013168651212775296
-0.4225859456899343,-0.4225859456899343,1.0000427530595246,0.00013174287054754823
-0.422010616602347,-0.422010616602347,0.9999759964025436,0.00013138920175674438
-0.42149752642872046,-0.42149752642872046,1.000032982238166,0.00013196785835370659
-0.4209353911210201,-0.4209353911210201,0.9999065372845456,0.0001320089358391453
-0.4205191166205623,-0.4205191166205623,1.0001029981634701,0.0001322160948283294
-0.42011416415480196,-0.42011416415480196,0.9997505017214422,0.00013362399957442256
-0.4194865947196377,-0.4194865947196377,0.9998844002350671,0.00013137944488608925
-0.41859766003981347,-0.41859766003981347,0.9998965832592223,0.00013139719361990955
-0.418049008728849,-0.418049008728849,0.9999287432884717,0.00013328466481600393
-0.4176132871420123,-0.4176132871420123,1.0001624818840953,0.00013205598803174456
-0.41713147454502175,-0.41713147454502175,0.9998137462062969,0.00013537902486944744
-0.41695139422881766,-0.41695139422881766,1.0000550886594843,0.0001329222700330456
-0.4164600990690815,-0.4164600990690815,0.999986794132357,0.0001324598806345107
-0.41586872146071985,-0.41586872146071985,0.9998242000923254,0.00013180164830239375
-0.41532731784609495,-0.41532731784609495,0.9999590089337256,0.00013200390323535267
-0.41471290040935854,-0.41471290040935854,1.0000210275225956,0.00013168928323697087
-0.4138202492416895,-0.4138202492416895,0.999943920109218,0.0001319181444132058
-0.41336576829562544,-0.41336576829562544,1.0000224077991473,0.0001318084775169454
-0.4127506279219233,-0.4127506279219233,1.0001031750544935,0.00013243281169148714
-0.41218618040147703,-0.41218618040147703,1.0001713044293337,0.00013414515135200074
-0.4116483208941645,-0.4116483208941645,0.9998711436194023,0.00013245510562227917
-0.4112398143770406,-0.4112398143770406,0.9999641108472126,0.0001314810724318147
-0.4106782384929829,-0.4106782384929829,0.9999233441142732,0.0001320508800682784
-0.41021132860842047,-0.41021132860842047,1.0002243142161351,0.00013121549505184198
-0.40984875475260196,-0.40984875475260196,1.0000778040646954,0.0001317400689350844
-0.40929669786710293,-0.40929669786710293,0.9998720943424745,0.00013271876484360895
-0.4086990345378581,-0.4086990345378581,1.000096303710886,0.00013175168255152115
-0.40830376788435385,-0.40830376788435385,0.9998241172013238,0.00013162154410209317
-0.4078155031478673,-0.4078155031478673,0.999967450083928,0.00013319826393392415
-0.40716399394368635,-0.40716399394368635,0.9998791740564312,0.00013216110196516436
-0.40639471353060796,-0.40639471353060796,0.9998131902564097,0.00013165638783672214
-0.4057607956659922,-0.4057607956659922,1.0000351840938577,0.00013250844981056443
-0.40528622029160033,-0.40528622029160033,0.9998802189305858,0.00013466943372068181
-0.40486535358868425,-0.40486535358868425,1.000164501259919,0.00013161278384144924
-0.4043654719280312,-0.4043654719280312,1.0000158273389164,0.0001323161268849328
-0.4036532402235025,-0.4036532402235025,0.9998461581925303,0.00013304126850328441
-0.40313434402414716,-0.40313434402414716,1.0000554829421149,0.00013206795924672552
-0.40252298996929314,-0.40252298996929314,0.9998632489120199,0.00013196465674610188
-0.4019823970811558,-0.4019823970811558,0.9997698891083662,0.00013161657528620283
-0.40149272647176987,-0.40149272647176987,0.999839454093548,0.00013981587872151962
-0.40106921032929677,-0.40106921032929677,0.999945008465591,0.0001315737901524042
-0.4005791284231236,-0.4005791284231236,0.9998095802869464,0.0001334198255585264
-0.400252591080789,-0.400252591080789,1.00008106684673,0.00014044948766163827
-0.399876632590167,-0.399876632590167,1.0003153309762163,0.00013419646755495897
-0.3995989710827416,-0.3995989710827416,1.0000492043830362,0.0001330548966196705
-0.39925515388677013,-0.39925515388677013,0.999985112341486,0.00013164271510304352
-0.39897217503457794,-0.39897217503457794,1.0000975227160562,0.00013135903082154535
-0.3984336123947287,-0.3984336123947287,1.000034650621926,0.00013150706717362894
-0.3978397166458308,-0.3978397166458308,1.0001692206493882,0.00013242274435707867
-0.3971279499557568,-0.3971279499557568,0.9997773369647162,0.00013244589182577008
-0.3965104614762822,-0.3965104614762822,1.0001906364661768,0.00013196321844825533
-0.3958717211971816,-0.3958717211971816,0.999852760331485,0.00013956285654538405
-0.39542456356357436,-0.39542456356357436,0.9998650247158384,0.0001334896172247467
-0.39523358196602204,-0.39523358196602204,0.999958425980967,0.00013272825627301467
-0.39444278104565456,-0.39444278104565456,0.9999913577419276,0.00013117144363620847
-0.3938778977375478,-0.3938778977375478,0.9999752513507106,0.0001387572332465587
-0.3934317294231732,-0.3934317294231732,0.9998700879818667,0.00013139998069753957
-0.3931621126605023,-0.3931621126605023,1.0000865362882077,0.00013247350945330894
-0.3927949490091123,-0.3927949490091123,1.0000376554814085,0.00013430741869714405
-0.3923892439954216,-0.3923892439954216,1.0002164353891885,0.00013170587106797068
-0.39180073171446567,-0.39180073171446567,0.9999429070021708,0.00013215907672582992
-0.3911873520752124,-0.3911873520752124,1.0000105782239164,0.00013293732241562395
-0.3906847226666287,-0.3906847226666287,1.0002173019686817,0.00013249866209068278
-0.3900671837691334,-0.3900671837691334,0.9997391895386383,0.00013241957397344033
-0.3895095917258004,-0.3895095917258004,1.0000277500512404,0.0001323848142354062
-0.389179891780077,-0.389179891780077,1.0000383402374033,0.0001322889557737594
-0.38865904179911015,-0.38865904179911015,1.000111682866991,0.00013368679135116203
-0.38825536248623393,-0.38825536248623393,0.999957930687202,0.00013290650679700783
-0.3878752645519853,-0.3878752645519853,0.9999027747502929,0.00013368895656047858
-0.3875897563179024,-0.3875897563179024,1.000216301820874,0.0001324684529139323
-0.38722733504473583,-0.38722733504473583,0.999873420895805,0.0001316379538216324
-0.38697848481388064,-0.38697848481388064,0.9996458775580148,0.00013118273117456448
-0.3865981384224142,-0.3865981384224142,1.0000711668300224,0.00013308098027842315
-0.38602434427011756,-0.38602434427011756,0.9998331119383792,0.00013226048579019885
-0.38553065519809027,-0.38553065519809027,0.9999053686912269,0.00013178623191748478
-0.38485946673099536,-0.38485946673099536,0.9996570666741814,0.000132822157157772
-0.38445427398983156,-0.38445427398983156,0.9999717314218831,0.00013241518165956463
-0.3839751732208242,-0.3839751732208242,0.9999851068725729,0.0001317541507596927
-0.38353099181331346,-0.38353099181331346,0.9999432042211233,0.00013417167016533264
-0.3831390460007242,-0.3831390460007242,0.9998880754681527,0.00013249136421366594
-0.38265370064909804,-0.38265370064909804,1.0000674807302101,0.00013130859136658877
-0.38206561986371523,-0.38206561986371523,0.999973552287825,0.00013181303538799364
-0.381441903225641,-0.381441903225641,0.9999377960640607,0.0001324945667091227
-0.3809691386974009,-0.3809691386974009,0.9998337351117417,0.00013349139530772334
-0.3802552234199538,-0.3802552234199538,1.0000006132506438,0.00013142686058229146
-0.37954522401050783,-0.37954522401050783,1.000093878410184,0.00013299950685056813
