time,time,flux,flux_err
-0.4993526220569038,-0.4993526220569038,1.0001346659503427,7.257739114978951e-05
-0.49791391663165996,-0.49791391663165996,1.0000279130357466,7.257566421263684e-05
-0.4958197725197048,-0.4958197725197048,1.000029366171318,7.259929274539589e-05
-0.4946579605806619,-0.4946579605806619,1.0001310946926152,6.628260411401797e-05
-0.49340381128567967,-0.49340381128567967,1.0000604132666857,6.626277363554767e-05
-0.4918197091319598,-0.4918197091319598,0.999974393546152,6.628161885645248e-05
-0.4907936534771579,-0.4907936534771579,1.0000281201759564,6.624320121841832e-05
-0.48935681748989734,-0.48935681748989734,1.0000554470219636,6.62521175963513e-05
-0.4874666648582206,-0.4874666648582206,1.0001905474830552,6.626379108448672e-05
-0.48607174285134536,-0.48607174285134536,1.000046916835759,6.628087753835589e-05
-0.48485613571974684,-0.48485613571974684,0.999967656931353,6.626577292744388e-05
-0.48323709130636416,-0.48323709130636416,1.0000544024602387,6.624150618307062e-05
-0.48199105565145145,-0.48199105565145145,0.999990969201294,6.628048263573914e-05
-0.4807364881024114,-0.4807364881024114,0.9999848136533135,6.623227258088228e-05
-0.4791524499334628,-0.4791524499334628,1.0000746245742962,6.625158999809462e-05
-0.47763552919932406,-0.47763552919932406,1.0000171600824064,6.628031251249831e-05
-0.47637154695403294,-0.47637154695403294,1.000125345903434,6.627091048718172e-05
-0.4749610465732985,-0.4749610465732985,1.0000523027713122,6.627737632315964e-05
-0.4735909938011901,-0.4735909938011901,0.9999553249823732,6.626673110262907e-05
-0.47196693832956954,-0.47196693832956954,1.0000437501304682,6.625651364727913e-05
-0.47053693236375693,-0.47053693236375693,1.0001008946891061,6.626396605579902e-05
-0.46898168867628554,-0.46898168867628554,1.000034619094355,6.626027911605135e-05
-0.4674040378362406,-0.4674040378362406,0.999952360424792,6.641308564868272e-05
-0.4660796159034362,-0.4660796159034362,1.0000465351592394,6.628850585919722e-05
-0.4648437716634362,-0.4648437716634362,0.9999551539040288,6.665461492843408e-05
-0.46324255527433705,-0.46324255527433705,0.9999937525924267,6.62327366330627e-05
-0.46226035315485203,-0.46226035315485203,0.999994231768925,6.906496297138704e-05
-0.46089449487189993,-0.46089449487189993,0.9999277406283271,6.625510969142164e-05
-0.45912848656298594,-0.45912848656298594,0.9999024702242686,6.625596432092553e-05
-0.4576514699438121,-0.4576514699438121,0.9998393803132718,6.626178684055238e-05
-0.4564292250099243,-0.4564292250099243,0.999987339317412,6.649912997351122e-05
-0.45460295793163824,-0.45460295793163824,0.9999822619287088,6.636205882508815e-05
-0.45309738954529166,-0.45309738954529166,1.0001492051059269,6.626362295010978e-05
-0.45135633787285767,-0.45135633787285767,0.9999804894224262,6.626350156233401e-05
-0.4498948681051843,-0.4498948681051843,1.0000355881772494,6.628570288254894e-05
-0.4488535243785009,-0.4488535243785009,1.0000174315059924,6.638014416910328e-05
-0.44732871521700873,-0.44732871521700873,1.0001189921866582,6.667705067302139e-05
-0.445480702961504,-0.445480702961504,1.0000378644217842,6.626768263711678e-05
-0.44415443459583914,-0.44415443459583914,1.0000454483319818,6.637172491864686e-05
-0.4429191261864617,-0.4429191261864617,1.0001319099375594,6.626665294802271e-05
-0.44150902344845233,-0.44150902344845233,1.0000189131952641,6.62663327097795e-05
-0.44049924511054994,-0.44049924511054994,0.9999755625911277,6.630284481882442e-05
-0.4388683145210962,-0.4388683145210962,1.000043464748317,6.76421966584805e-05
-0.4371505423929193,-0.4371505423929193,1.0000569903155394,6.62659105999149e-05
-0.4357653332815971,-0.4357653332815971,1.000032939060588,6.632091804386207e-05
-0.4347632287914166,-0.4347632287914166,1.0000588579737175,6.624619823634638e-05
-0.43340680787659946,-0.43340680787659946,1.0001460207393849,6.626544265424504e-05
-0.4323820740246447,-0.4323820740246447,0.9999535647910254,6.625588510104417e-05
-0.4304580230265856,-0.4304580230265856,1.0000354429356146,6.624117275198732e-05
-0.4290677781915292,-0.4290677781915292,1.0000848307708505,6.626472510160468e-05
-0.4276444328337675,-0.4276444328337675,0.9999825493848518,6.630053621400805e-05
-0.4263266290028696,-0.4263266290028696,1.0000071337676224,6.626623938748181e-05
-0.42499856865761104,-0.42499856865761104,0.9999630981402566,6.623474071069658e-05
-0.4237239195979782,-0.4237239195979782,0.9999679873401499,6.626228102416346e-05
-0.42194979144551326,-0.42194979144551326,1.0000426024710936,6.626383453314417e-05
-0.42074461622250964,-0.42074461622250964,0.9999779999184927,6.625373423620277e-05
-0.41929735157755205,-0.41929735157755205,0.9999899702451372,6.628321803183739e-05
-0.4178464335258468,-0.4178464335258468,1.0000630803650885,6.626625206004451e-05
-0.41674643394508165,-0.41674643394508165,0.9999234424860688,6.625444603455943e-05
-0.4154061919878586,-0.4154061919878586,1.0000280628919385,6.625203872535284e-05
-0.41383782779012107,-0.41383782779012107,1.000012544310034,6.625229702087597e-05
-0.41238619252253556,-0.41238619252253556,1.0000969533592305,6.626016262413555e-05
-0.41099434169154847,-0.41099434169154847,0.9999696251938961,6.625688073419984e-05
-0.40938989081623733,-0.40938989081623733,1.0000907815059716,6.626668878759774e-05
-0.4083208103009383,-0.4083208103009383,0.9999872105671738,6.627803123317417e-05
-0.40690321218571623,-0.40690321218571623,0.9999464464784203,6.622943357335207e-05
-0.4050477447730373,-0.4050477447730373,1.0000263627604689,6.625660550028478e-05
-0.4036512326987577,-0.4036512326987577,1.000039769736214,6.627871113342106e-05
-0.4024484642592142,-0.4024484642592142,0.9999915032927115,6.626503317308035e-05
-0.40098922117613256,-0.40098922117613256,0.9999769512172174,6.631504470194823e-05
-0.3995426072448026,-0.3995426072448026,0.9999289143956828,6.62630523944215e-05
-0.3980789133667713,-0.3980789133667713,1.0001387812655,6.625779217980109e-05
-0.39647728317213476,-0.39647728317213476,1.0000369596964385,6.624864246351587e-05
-0.394952985769487,-0.394952985769487,1.0000916158513367,6.626533757402939e-05
-0.393367892340757,-0.393367892340757,1.0000792812737065,6.649203532706786e-05
-0.392082689270319,-0.392082689270319,1.000033625220802,6.628703516809069e-05
-0.39075400959991385,-0.39075400959991385,1.000084538710638,6.659347162753012e-05
-0.38916808240028333,-0.38916808240028333,0.9999941187536994,6.623936005871695e-05
-0.3876604282442713,-0.3876604282442713,0.9999339185030232,6.627388538027813e-05
-0.38627079455181956,-0.38627079455181956,1.0000359964064767,6.626648392496262e-05
-0.38455182419274936,-0.38455182419274936,1.0001774268018448,6.626533186981863e-05
-0.3830465835490031,-0.3830465835490031,0.9999753294630273,6.62441799387791e-05
-0.381785935627704,-0.381785935627704,1.0000564373521932,6.666951388957077e-05
-0.37993301350652475,-0.37993301350652475,1.000110364494179,6.627469390594788e-05
-0.3784916091724881,-0.3784916091724881,1.0000392231439126,6.625822063454704e-05
-0.37690922686306294,-0.37690922686306294,0.9998980683545563,6.626102321128606e-05
-0.37556559002114226,-0.37556559002114226,1.0000155980368493,6.628320822746122e-05
-0.37452759701554894,-0.37452759701554894,0.9998967251895801,6.634091117083493e-05
-0.3730199938931037,-0.3730199938931037,1.000067346861147,6.691666975444099e-05
-0.3711627582088113,-0.3711627582088113,1.0000076677792749,6.627229335847299e-05
-0.36983217667002466,-0.36983217667002466,1.0000468567769127,6.633938685274568e-05
-0.36873080115328777,-0.36873080115328777,1.0000318646235669,6.624460460345682e-05
-0.3674441109513282,-0.3674441109513282,1.0001179449266684,6.62872223150019e-05
-0.3664333741500741,-0.3664333741500741,0.9999800334685623,6.62444894837078e-05
-0.3649378990652622,-0.3649378990652622,1.0000661832088367,6.832610424131837e-05
-0.36322673545073486,-0.36322673545073486,1.0000349076918975,6.627539407015994e-05
-0.3620428474503569,-0.3620428474503569,0.9999517816352979,6.62727733041448e-05
-0.3607519096767646,-0.3607519096767646,1.0000633567111838,6.626440076740215e-05
-0.35932336092955663,-0.35932336092955663,0.9999570542443348,6.628222901447074e-05
-0.3583405975427013,-0.3583405975427013,0.9999084290357514,6.624234245028581e-05
-0.35691436065535526,-0.35691436065535526,1.000008811419401,6.62501125889673e-05
-0.3551278210419696,-0.3551278210419696,1.0000604550059466,6.62835739700287e-05
-0.353943779724068,-0.353943779724068,0.9999617518186916,6.62754002828479e-05
-0.35266159511666045,-0.35266159511666045,1.000036386074092,6.626385308387916e-05
-0.3509834714612225,-0.3509834714612225,1.0000866977857374,6.626613650406319e-05
-0.3499487845168915,-0.3499487845168915,1.0000049625038598,6.626077415608557e-05
-0.34846517663245324,-0.34846517663245324,1.00013767770705,6.62445570547731e-05
-0.34669902975583683,-0.34669902975583683,1.0000600404173896,6.625145005378496e-05
-0.3451958553181612,-0.3451958553181612,0.9999988461444328,6.630179860635463e-05
-0.343917450265144,-0.343917450265144,1.0000973285048338,6.624698464490858e-05
-0.3426055958625511,-0.3426055958625511,1.0000988021111392,6.626289808913722e-05
-0.3412683490139898,-0.3412683490139898,1.0000640101050007,6.626837538360094e-05
-0.34018859234201954,-0.34018859234201954,0.9999647866607131,6.623422654390576e-05
-0.33860714068141534,-0.33860714068141534,1.0000520107423045,6.625080904345357e-05
-0.33709219615266195,-0.33709219615266195,1.0001342147057293,6.628649589058669e-05
-0.3358271846009302,-0.3358271846009302,1.0000893548752678,6.62658595693355e-05
-0.33432736972463317,-0.33432736972463317,0.9999419334809654,6.628004894863557e-05
-0.3328331227894523,-0.3328331227894523,1.0000476362669886,6.625018356235416e-05
-0.3310227031630347,-0.3310227031630347,0.9999252641155151,6.624882600421745e-05
-0.32965146950446067,-0.32965146950446067,0.9999456517428656,6.626250828554439e-05
-0.328394363517873,-0.328394363517873,1.0001808379103567,6.626975318682323e-05
-0.3268575154332211,-0.3268575154332211,1.000059143685633,6.636597977837739e-05
-0.3255444228008855,-0.3255444228008855,1.000173870125771,6.629211574791564e-05
-0.32430288279429076,-0.32430288279429076,0.9999829586090113,6.673259094096719e-05
-0.32253725501650476,-0.32253725501650476,1.0000140704787392,6.6230907718781e-05
-0.32111754664801995,-0.32111754664801995,0.9999308375834678,6.626936613510827e-05
-0.31963880166586023,-0.31963880166586023,0.9998692347922085,6.625725174895842e-05
-0.3180881127191242,-0.3180881127191242,0.9999754155736417,6.62811013840958e-05
-0.3166490616698866,-0.3166490616698866,1.0000798978363497,6.624740489424867e-05
-0.3151706812597695,-0.3151706812597695,0.9999675327324159,6.659052588262339e-05
-0.3136445162308519,-0.3136445162308519,1.0000889823416936,6.626740742545571e-05
-0.3122612316699815,-0.3122612316699815,1.0000055758168709,6.625787667552632e-05
-0.3104871819683467,-0.3104871819683467,1.000011848090931,6.626552926154226e-05
-0.30907003375614295,-0.30907003375614295,0.9999683470594162,6.626558463620669e-05
-0.3080796122812899,-0.3080796122812899,0.999973336607224,6.644101410606035e-05
-0.306378186227812,-0.306378186227812,1.000063975869315,6.654298650625746e-05
-0.3046863830750226,-0.3046863830750226,0.9999284034295673,6.626169957984687e-05
-0.30335045970277863,-0.30335045970277863,1.0001288511309736,6.643232499433611e-05
-0.30213247648935065,-0.30213247648935065,1.0001078492736708,6.626479567811789e-05
-0.300910289172316,-0.300910289172316,1.0000329996214297,6.625465108445419e-05
-0.2999614378262777,-0.2999614378262777,0.9999780928837222,6.632234433473002e-05
-0.2983149120176677,-0.2983149120176677,0.9999474380926527,6.725465133323906e-05
-0.29660286619910037,-0.29660286619910037,1.00008749294529,6.62656207926264e-05
-0.2952285858526011,-0.2952285858526011,1.0000075086430396,6.633425366514208e-05
-0.29421532150445273,-0.29421532150445273,1.0002472582510884,6.625189057174893e-05
-0.29286451278749154,-0.29286451278749154,0.9999373327160826,6.625822331158923e-05
-0.2918440448542242,-0.2918440448542242,1.0000117638807835,6.627398688626205e-05
-0.28991108913323843,-0.28991108913323843,1.0000042310509585,6.62392236479905e-05
-0.28863215385208607,-0.28863215385208607,1.0000447481668286,6.627740364320545e-05
-0.28740843278792455,-0.28740843278792455,1.0000877729445106,6.628179303468405e-05
-0.28620597614353754,-0.28620597614353754,0.9999098182107744,6.626395856651471e-05
-0.28476278938906036,-0.28476278938906036,1.0000489644608592,6.626702173441968e-05
-0.28373135865986115,-0.28373135865986115,1.0000749869194354,6.626028102116221e-05
-0.2822376415497274,-0.2822376415497274,1.000123371572935,6.624371732978339e-05
-0.2806053390391753,-0.2806053390391753,1.000063060879555,6.62888686400337e-05
-0.2793075888461317,-0.2793075888461317,0.9999620755338938,6.62778033451959e-05
-0.2780830948555376,-0.2780830948555376,0.9999458332649607,6.62633930512764e-05
-0.27645721471635626,-0.27645721471635626,0.9998830513424585,6.623564580930026e-05
-0.27532310720271197,-0.27532310720271197,1.000077157035797,6.628680415303528e-05
-0.2741109928872902,-0.2741109928872902,0.9999582474502946,6.621784963943237e-05
-0.27238041418167996,-0.27238041418167996,1.0000080100331923,6.624985919333412e-05
-0.2708699084527325,-0.2708699084527325,0.999889476934953,6.628235579332216e-05
-0.26960255646699804,-0.26960255646699804,0.9999854271277527,6.626074360094317e-05
-0.2682862829300575,-0.2682862829300575,0.9999800881833562,6.625807797954936e-05
-0.26684479160321645,-0.26684479160321645,1.0001565443986407,6.626957998766578e-05
-0.26548606719879897,-0.26548606719879897,1.0000523763975055,6.625307581748318e-05
-0.2640196489475784,-0.2640196489475784,0.999947892534097,6.625273054208115e-05
-0.2625544613198144,-0.2625544613198144,0.9999519241123472,6.628115537726329e-05
-0.2612734694703249,-0.2612734694703249,0.9999394803208117,6.629116971958182e-05
-0.2600958261798951,-0.2600958261798951,1.0000794255749335,6.628067773259184e-05
-0.258725346357096,-0.258725346357096,1.0000314030047697,6.62682206170047e-05
-0.2571030267543392,-0.2571030267543392,1.0000809144861251,6.625536238493603e-05
-0.2556739561579889,-0.2556739561579889,0.9999561345360934,6.625748341398376e-05
-0.25411829348449827,-0.25411829348449827,0.9999499272162581,6.62574064820304e-05
-0.2525406731903786,-0.2525406731903786,1.0000389292570484,6.642433708591112e-05
-0.25121342382772127,-0.25121342382772127,1.0000305024949037,6.628697840332565e-05
-0.24997900367889087,-0.24997900367889087,1.0001108079465364,6.663916683699783e-05
-0.2483146471058717,-0.2483146471058717,1.0000150803158254,6.622265118650949e-05
-0.24711397907085483,-0.24711397907085483,1.000070975606354,6.929507022077148e-05
-0.24581240396073553,-0.24581240396073553,1.0000876477610634,6.627078053556656e-05
-0.2442643410031451,-0.2442643410031451,0.9999931461038895,6.625745942582796e-05
-0.24278668351034866,-0.24278668351034866,1.0000739168293773,6.627197544768865e-05
-0.2415642795167514,-0.2415642795167514,1.0000449891085568,6.649249861875155e-05
-0.2397404341347283,-0.2397404341347283,0.999910793000927,6.637379966031385e-05
-0.2382341407399508,-0.2382341407399508,1.000005013627114,6.626125628070863e-05
-0.23649301184486832,-0.23649301184486832,1.000068005561935,6.626698400962462e-05
-0.23502900395687903,-0.23502900395687903,1.0001482415446974,6.628968588505947e-05
-0.23398833163955715,-0.23398833163955715,1.0000707636730348,6.637425773517829e-05
-0.23246696715068538,-0.23246696715068538,0.9999825029753774,6.671494599469152e-05
-0.23061710662732365,-0.23061710662732365,0.999861914796161,6.62659679681634e-05
-0.22928997666895157,-0.22928997666895157,0.9999953819248582,6.636083196330204e-05
-0.22805460659292293,-0.22805460659292293,1.0000725954163545,6.626552595979162e-05
-0.22664455572667067,-0.22664455572667067,0.9999761257223312,6.62613637054269e-05
-0.22563370773859787,-0.22563370773859787,1.0000237188120138,6.629982750167521e-05
-0.224006665579509,-0.224006665579509,1.000032971957871,6.77595352611925e-05
-0.22228746936598326,-0.22228746936598326,1.000025575979319,6.62660301262442e-05
-0.2208995290726307,-0.2208995290726307,1.000069846388778,6.631491474231782e-05
-0.2199002145571285,-0.2199002145571285,0.9999127302674683,6.624170203097554e-05
-0.21854239144886378,-0.21854239144886378,0.999966273968598,6.626388595785165e-05
-0.21751659139990806,-0.21751659139990806,1.00010103588132,6.626309597596993e-05
-0.21559476384427398,-0.21559476384427398,0.9999705105614798,6.623916813329284e-05
-0.21420474666374503,-0.21420474666374503,0.9999495189056999,6.626426807413653e-05
-0.21277868453471455,-0.21277868453471455,0.9999368908160207,6.630129372761637e-05
-0.21146276699437294,-0.21146276699437294,0.9999302314146663,6.626233285350898e-05
-0.2101359503416461,-0.2101359503416461,1.0000014428089739,6.624282444407511e-05
-0.20885779553209433,-0.20885779553209433,0.999931632983625,6.626687418705348e-05
-0.20708625217812368,-0.20708625217812368,1.0000977150070858,6.626795319726925e-05
-0.20588103315240006,-0.20588103315240006,1.0000977986328838,6.625496260380354e-05
-0.20443302159546875,-0.20443302159546875,1.0000561101326544,6.6282366558975e-05
-0.20298226202867226,-0.20298226202867226,0.9999568965213067,6.626230442022537e-05
-0.20188243304728531,-0.20188243304728531,1.0000347086773806,6.625746425840932e-05
-0.20054161418956937,-0.20054161418956937,1.0001050323506453,6.625163939189105e-05
-0.1989738395641325,-0.1989738395641325,1.0001001459889394,6.625615797579206e-05
-0.19752314658544493,-0.19752314658544493,1.000075155583473,6.626053591393163e-05
-0.19613072462379932,-0.19613072462379932,1.0000382389944393,6.62559187759849e-05
-0.19452640802774113,-0.19452640802774113,0.9999077313657698,6.62578554578696e-05
-0.19345511386491127,-0.19345511386491127,1.0000908346567532,6.627769786228627e-05
-0.19203995185816894,-0.19203995185816894,1.0000354614531601,6.62353418960461e-05
-0.19018362860661,-0.19018362860661,1.0000748675738034,6.625754129464802e-05
-0.18878703180962475,-0.18878703180962475,1.0001087227453485,6.62822012627201e-05
-0.18758493191562592,-0.18758493191562592,0.9999840442984533,6.626885273290975e-05
-0.18612526234501275,-0.18612526234501275,0.9999779341384286,6.632301343274775e-05
-0.18467773436714197,-0.18467773436714197,1.0000280684589105,6.626742156386893e-05
-0.1832143914725748,-0.1832143914725748,0.9999709997602595,6.625132060450105e-05
-0.18161385283165146,-0.18161385283165146,1.0000117125503822,6.624716245783434e-05
-0.18008966261404566,-0.18008966261404566,1.0000533976675143,6.626264383565102e-05
-0.17850460434419801,-0.17850460434419801,1.0000490792332681,6.65044915330774e-05
-0.177216813020641,-0.177216813020641,0.9999399567795673,6.62819481134225e-05
-0.17588873041240732,-0.17588873041240732,0.9999350362264424,6.657712846425399e-05
-0.17430703687277854,-0.17430703687277854,0.9999836770655216,6.624943285704343e-05
-0.17279594438441565,-0.17279594438441565,1.0000141301683576,6.627775531210786e-05
-0.1714073509501759,-0.1714073509501759,0.999967627046318,6.626452101133058e-05
-0.169687617541058,-0.169687617541058,0.9999725814162852,6.625860898811893e-05
-0.16818308289221023,-0.16818308289221023,1.0000922609272824,6.62508042223749e-05
-0.16692098668136168,-0.16692098668136168,1.0000269679678548,6.66824815852025e-05
-0.1650695854681544,-0.1650695854681544,0.999973830416112,6.626909868234647e-05
-0.16362833558087003,-0.16362833558087003,0.9998803787448566,6.624966425357496e-05
-0.16224853295716457,-0.16224853295716457,1.0001082526420437,6.644977582264418e-05
-0.1610018391016638,-0.1610018391016638,1.0000161811586978,6.630074046232603e-05
-0.15992205940710846,-0.15992205940710846,1.000037150010485,6.624662683380223e-05
-0.1584589301419328,-0.1584589301419328,1.0000438990134135,6.706319166730115e-05
-0.15659192066377728,-0.15659192066377728,0.9998816357073335,6.627543213670372e-05
-0.15527290228928906,-0.15527290228928906,1.0000360903899002,6.631731654325131e-05
-0.15402815581765025,-0.15402815581765025,1.0000222813815243,6.62436588780794e-05
