time,time,flux,flux_err
-0.4991685681919383,-0.4991685681919383,0.9998207890492199,0.0001470580050177127
-0.49723040583861194,-0.49723040583861194,1.000032133501445,0.0001470012263552793
-0.49625656335410895,-0.49625656335410895,1.000040064129372,0.00014687018067477495
-0.49502768652673695,-0.49502768652673695,0.9999911880998731,0.0001341532317503789
-0.4939113821666979,-0.4939113821666979,1.0001668838601394,0.00013404780564251989
-0.49229396107621143,-0.49229396107621143,1.000029967730986,0.00013411671570602612
-0.49070366268788346,-0.49070366268788346,1.0000511199035997,0.00013417266578476388
-0.49018558464813394,-0.49018558464813394,1.0002156291448028,0.00013429288943632905
-0.4890705446909124,-0.4890705446909124,0.9999421291120953,0.00013416963308903493
-0.48787354373562264,-0.48787354373562264,1.0000403645526497,0.00013424894043549993
-0.48584852238418536,-0.48584852238418536,1.0000908666421924,0.0001340770224669883
-0.4843130385874247,-0.4843130385874247,0.9999368141873948,0.00013433265760676372
-0.48256273679653533,-0.48256273679653533,1.0000243611252284,0.0001342364635603759
-0.4799371599816368,-0.4799371599816368,0.9998471079076723,0.00013418733163709845
-0.47829573912822526,-0.47829573912822526,0.9999002462533382,0.0001341021434054037
-0.47739974563010035,-0.47739974563010035,0.9998561550968962,0.00013425018670009886
-0.47612695250281833,-0.47612695250281833,1.000155634381645,0.0001345957559658557
-0.474802779154561,-0.474802779154561,1.0002089697889087,0.00013420069536708906
-0.47342996858787956,-0.47342996858787956,1.0001097019078984,0.00013430310671209582
-0.47224773748239385,-0.47224773748239385,0.9999497129354065,0.00013438914490458305
-0.4718608144015889,-0.4718608144015889,0.999848864141712,0.00013422006967085245
-0.4707643921879935,-0.4707643921879935,0.9999537891087084,0.00013458234517323836
-0.46947246571216966,-0.46947246571216966,1.0000127988019902,0.00013422376708990678
-0.4682498332367686,-0.4682498332367686,0.9999851609923283,0.00013429374416379434
-0.46706785718706667,-0.46706785718706667,1.000077200204072,0.00013430324821643922
-0.46597218870883805,-0.46597218870883805,1.0000980062731526,0.00013428410537144232
-0.46439537314945484,-0.46439537314945484,1.000121765135757,0.00013467556640154446
-0.4629751528031193,-0.4629751528031193,0.9998478464490951,0.00013426230968011283
-0.4615860858539236,-0.4615860858539236,0.9999180841955123,0.0001343955604467223
-0.4599635914382816,-0.4599635914382816,1.0000960333870363,0.0001343479333744349
-0.4585116443056904,-0.4585116443056904,0.9999324022291928,0.00013417781533735847
-0.4574905828398187,-0.4574905828398187,1.0000224632084458,0.00013433038042196392
-0.45613991672507836,-0.45613991672507836,0.9998140794355139,0.00013418969312715994
-0.45478469150257295,-0.45478469150257295,0.9997812294983642,0.00013418636562643078
-0.45320084456470794,-0.45320084456470794,1.0000968381962703,0.00013430618257418174
-0.45191085159458455,-0.45191085159458455,1.0000720031366874,0.00013446416937897267
-0.45051688831372305,-0.45051688831372305,1.0000886456627438,0.00013414061492407408
-0.44909898184996566,-0.44909898184996566,1.000239920624383,0.00013405305265940253
-0.4475933977708337,-0.4475933977708337,1.000120816421056,0.00013452032537161193
-0.4467381734873925,-0.4467381734873925,0.9999818787319352,0.0001341019355772921
-0.44566565388813617,-0.44566565388813617,0.9999577752545592,0.00013433974266054556
-0.4442217538737168,-0.4442217538737168,1.0002346340004973,0.00013411543790067546
-0.44243472557936914,-0.44243472557936914,1.0000689953176356,0.00013411059208372965
-0.44132083147123924,-0.44132083147123924,1.0001432501192666,0.0001342593881565666
-0.4407143574877409,-0.4407143574877409,1.0000747202287856,0.0001345211956018175
-0.4397759716615838,-0.4397759716615838,0.9999886717868918,0.0001343260356993425
-0.43854151304476546,-0.43854151304476546,0.999812447862363,0.00013411145611193337
-0.4363347647959017,-0.4363347647959017,1.0001366191025876,0.00013444571516076418
-0.43473954096843953,-0.43473954096843953,0.9997850091264713,0.0001342219610046667
-0.4331977688590996,-0.4331977688590996,0.9999420512421079,0.00013444765878938548
-0.4307268542070233,-0.4307268542070233,0.9998559394915161,0.00013408590268241722
-0.4289100874870201,-0.4289100874870201,1.000050630452883,0.00013404765078794004
-0.4275933664888726,-0.4275933664888726,1.0000771732855973,0.00013419361211627928
-0.4260835161891009,-0.4260835161891009,0.9999750159098941,0.00013452697231534328
-0.4243843330295931,-0.4243843330295931,0.9996888616329314,0.00013413075263448698
-0.42301077380107016,-0.42301077380107016,1.0000922367503235,0.00013418857826490664
-0.4222952429947327,-0.4222952429947327,0.9997809638745718,0.000134223469724329
-0.42138002821302506,-0.42138002821302506,1.0000697134105225,0.00013440711178245283
-0.4201278261185507,-0.4201278261185507,0.9997153196627055,0.0001342665112883304
-0.41890574579156237,-0.41890574579156237,1.0000370686098088,0.0001342961899753774
-0.4176421657779429,-0.4176421657779429,0.999955950208415,0.00013452262458523592
-0.4166139579290757,-0.4166139579290757,1.0000414404664837,0.00013443390732443124
-0.4160202955848945,-0.4160202955848945,1.0000228528369648,0.0001344541517901368
-0.413916736835381,-0.413916736835381,1.000115743835274,0.00013451714070746587
-0.4122050953366852,-0.4122050953366852,0.9999074506391821,0.00013430249529982507
-0.4105482930441212,-0.4105482930441212,0.9999421227748824,0.00013440029701408028
-0.40915861817775295,-0.40915861817775295,0.999865242090045,0.000134390058110102
-0.4077333045948762,-0.4077333045948762,0.9998751237349133,0.00013431158291720986
-0.4067761575148324,-0.4067761575148324,1.0000685428744764,0.0001342622464726426
-0.40515952941786965,-0.40515952941786965,1.0001691652986475,0.00013440123215677317
-0.4035963210066257,-0.4035963210066257,0.9999016053375165,0.00013458149189852863
-0.4023271446589206,-0.4023271446589206,0.9997236352403682,0.00013428426696231302
-0.4009893130416458,-0.4009893130416458,1.0000723284836872,0.00013440620186391198
-0.3988621288473951,-0.3988621288473951,1.0002184793814621,0.00013431119118778527
-0.3979213615057233,-0.3979213615057233,1.0001777981289064,0.00013421600692750354
-0.39657555554877033,-0.39657555554877033,0.9999817201606076,0.00013410274902119615
-0.394834368123702,-0.394834368123702,0.9999950599764024,0.00013413654735019753
-0.3932043767963478,-0.3932043767963478,1.0004540252012168,0.00013434367298830228
-0.3919030409437255,-0.3919030409437255,1.0001379323984418,0.00013428402013620404
-0.3912882219985477,-0.3912882219985477,1.0001583266296685,0.0001342167473365429
-0.3900893330363033,-0.3900893330363033,0.999962180919568,0.0001341377966862015
-0.3889721215149621,-0.3889721215149621,0.9999439183584785,0.00013406358099294304
-0.38704950635874413,-0.38704950635874413,1.0000130643137966,0.00013407948276472032
-0.3856880330553395,-0.3856880330553395,1.0000644778456502,0.000134202518233964
-0.38477450996797413,-0.38477450996797413,0.9997632095316169,0.00013424720489443358
-0.3832739011188096,-0.3832739011188096,0.9997605225800641,0.0001342172741133275
-0.3811019194436085,-0.3811019194436085,1.0000897586349882,0.0001341495285368784
-0.3797081782213354,-0.3797081782213354,0.9999907908255181,0.00013415185962513794
-0.37796496539885993,-0.37796496539885993,0.9997907308166674,0.00013416514743390712
-0.37560626768899963,-0.37560626768899963,0.999964925396266,0.00013423437218355988
-0.37384299510449637,-0.37384299510449637,1.0000555760741645,0.00013408547177603286
-0.37284465589036697,-0.37284465589036697,0.9999994660215185,0.00013431117465507303
-0.3716222753828333,-0.3716222753828333,0.9998810588348246,0.0001342189320661869
-0.37024146789262885,-0.37024146789262885,1.000201554128434,0.00013446100319009676
-0.36914881068369143,-0.36914881068369143,0.9999336480786924,0.0001343448498748454
-0.36761545071931323,-0.36761545071931323,0.9999274962514564,0.00013451586669567425
-0.367133919216576,-0.367133919216576,1.000015620334699,0.0001343327274479906
-0.3662843272322789,-0.3662843272322789,0.9999679757603321,0.0001343867342427177
-0.3653717359273287,-0.3653717359273287,1.000288760461186,0.0001345027222768797
-0.3639350179051689,-0.3639350179051689,0.9998649914903934,0.0001342391130226288
-0.36288027120754124,-0.36288027120754124,1.0001587602281912,0.00013413708301260985
-0.3616333329184272,-0.3616333329184272,1.000135603050694,0.0001343556716035495
-0.3605386054528935,-0.3605386054528935,1.0001307337334024,0.00013415931595368941
-0.35920999606751136,-0.35920999606751136,1.0001043003695969,0.00013455988259254505
-0.3574983097787481,-0.3574983097787481,0.9999380085728605,0.00013432598011219285
-0.35556477539721526,-0.35556477539721526,1.0003247861158067,0.0001341769308592236
-0.3543239965947578,-0.3543239965947578,0.9997476013928726,0.00013438236756579998
-0.35269960823425206,-0.35269960823425206,0.9997457347309421,0.00013439550984328653
-0.35132386179830066,-0.35132386179830066,0.9998793767972467,0.00013424666467800448
-0.3499759886537504,-0.3499759886537504,1.0000750510091927,0.00013412613415303326
-0.3486093613195408,-0.3486093613195408,0.9999117924561837,0.00013464279481748372
-0.34740438749431635,-0.34740438749431635,0.9999259789965034,0.00013432638666757395
-0.3461814953967405,-0.3461814953967405,1.0000996715342452,0.0001342680099262937
-0.3445403485078714,-0.3445403485078714,1.000201003873081,0.0001342988091729514
-0.34312653213419253,-0.34312653213419253,1.0000645881038104,0.00013442381169169159
-0.34212289692950437,-0.34212289692950437,1.000154409999115,0.000134041734270258
-0.3407579435828666,-0.3407579435828666,0.9997849749606015,0.00013416902601892617
-0.3396181285228522,-0.3396181285228522,1.0000576605542604,0.00013405807443374643
-0.33787856545313844,-0.33787856545313844,1.0000237210289358,0.0001341285570234397
-0.3368773057140061,-0.3368773057140061,0.9999952527761573,0.00013412821422658752
-0.33625090217901743,-0.33625090217901743,0.9998251929789364,0.00013410049853715116
-0.3355260801603436,-0.3355260801603436,1.0000249422608956,0.0001344182033374165
-0.3346700855079689,-0.3346700855079689,1.000012006726412,0.00013436542557123657
-0.3336466232132807,-0.3336466232132807,1.0001303816034444,0.00013406001149886788
-0.3316513018347905,-0.3316513018347905,0.9999519875774256,0.00013445078714467931
-0.33035037504087084,-0.33035037504087084,1.0000837008580707,0.00013415513609090098
-0.3286032655181771,-0.3286032655181771,1.0000951280476325,0.00013422157214840327
-0.3263457272325468,-0.3263457272325468,1.0000531483153074,0.00013426692618917995
-0.32417606473754856,-0.32417606473754856,1.0000134973545183,0.00013406972266967639
-0.32281471880269236,-0.32281471880269236,0.9997727997372008,0.00013419849192568468
-0.32105064750721796,-0.32105064750721796,1.0002722518797849,0.0001344834597131811
-0.31943479199326247,-0.31943479199326247,0.9999567534474991,0.00013436296721690944
-0.3178486128599616,-0.3178486128599616,1.0000323698441989,0.00013424916456538554
-0.3169094230557675,-0.3169094230557675,1.0000448608020545,0.00013426989937426502
-0.3160007897109608,-0.3160007897109608,1.0000131155964527,0.00013453953922000007
-0.3142703145698761,-0.3142703145698761,0.9998527040406385,0.00013421964744241997
-0.3131601314773434,-0.3131601314773434,0.9998184108252801,0.00013447311813720978
-0.31213249535940124,-0.31213249535940124,1.0001557039801052,0.00013457663358693034
-0.3115364306206175,-0.3115364306206175,1.0000381160372789,0.00013434401596970838
-0.3099831322397222,-0.3099831322397222,1.000206366853929,0.00013468453165001913
-0.30796929345233365,-0.30796929345233365,1.0003486124830383,0.00013424006225687876
-0.306145068546175,-0.306145068546175,1.0002169040516697,0.0001344527085929227
-0.30523112730224966,-0.30523112730224966,1.0001750409554753,0.00013411677741318476
-0.30384412304774744,-0.30384412304774744,1.0001800624540604,0.00013485172219211572
-0.30279478236552676,-0.30279478236552676,0.999981247907782,0.00013431363700058778
-0.3019994661488454,-0.3019994661488454,0.9998966628944416,0.00013428433656738665
-0.30066848690330517,-0.30066848690330517,1.0003342915913975,0.00013425916739562684
-0.2992091627609625,-0.2992091627609625,0.9999823296035417,0.00013446128687752784
-0.29794852340201033,-0.29794852340201033,1.000087802928861,0.0001342757432393139
-0.2969416645457386,-0.2969416645457386,0.9998740848646082,0.0001344684675380583
-0.2952481719003117,-0.2952481719003117,0.9998716090839143,0.00013420843463961905
-0.2933089586520509,-0.2933089586520509,0.9997798066532123,0.0001341784784182146
-0.2923036806147138,-0.2923036806147138,1.0000400812704737,0.00013415109026858704
-0.29063983510568503,-0.29063983510568503,1.0000008845120627,0.00013399853221879668
-0.28887626594296306,-0.28887626594296306,1.0003564265984692,0.00013428837233533171
-0.2876828979249694,-0.2876828979249694,0.9999548165574289,0.0001342314290018787
-0.28677493631184914,-0.28677493631184914,1.0000504694015535,0.00013415748624666385
-0.2856099853437627,-0.2856099853437627,0.9998253473263649,0.0001340757333602295
-0.2844628719285538,-0.2844628719285538,1.0000509659107002,0.0001340337050484963
-0.2826692080627254,-0.2826692080627254,0.9999360649328175,0.00013410198861033522
-0.28104261848566237,-0.28104261848566237,0.9997914927102036,0.00013440218283847417
-0.28031349149387097,-0.28031349149387097,0.9999348915575481,0.0001342607998041985
-0.2788632569048787,-0.2788632569048787,0.999952378017861,0.00013436080774068064
-0.27709378098152226,-0.27709378098152226,0.9999965446253027,0.00013446527638278266
-0.27527937661943724,-0.27527937661943724,1.0000187483519094,0.00013408522967816048
-0.2740790800766263,-0.2740790800766263,1.0002195388880402,0.0001342771581078905
-0.2721757789891853,-0.2721757789891853,1.0000462153422092,0.00013424747738533758
-0.269892740623618,-0.269892740623618,1.0000379860257698,0.00013420445535794007
-0.2684186027763644,-0.2684186027763644,0.9999756962880335,0.00013412900821049885
-0.26742249745148,-0.26742249745148,1.0001589512054676,0.00013416857962990705
-0.2663842166235554,-0.2663842166235554,1.0000438258236835,0.00013443972618738088
-0.2651023574129795,-0.2651023574129795,0.9999506870268139,0.0001342888014984642
-0.26427335925618534,-0.26427335925618534,0.9999506298397517,0.00013435479540980773
-0.26291214723387385,-0.26291214723387385,1.000045409671465,0.00013435344306541235
-0.2622407045295404,-0.2622407045295404,1.0001836884240247,0.00013445611710947636
-0.2615533953656268,-0.2615533953656268,1.0003195163818117,0.00013434480084687303
-0.2600836216377502,-0.2600836216377502,1.000023636213579,0.00013440305146618007
-0.2586130080686416,-0.2586130080686416,0.999987496745322,0.00013428759547674509
-0.2572622707943083,-0.2572622707943083,1.000059011050992,0.00013428489988249077
-0.2560944984303205,-0.2560944984303205,1.0000514206356539,0.00013428791869158626
-0.2545197448882391,-0.2545197448882391,1.00010752538223,0.0001346413983401143
-0.25300525712809757,-0.25300525712809757,1.0002066928740203,0.0001340270969577192
-0.251882531020965,-0.251882531020965,0.9998133424590477,0.00013430500767621463
-0.25008605132534284,-0.25008605132534284,0.9999314237823285,0.00013428944825453877
-0.2486223820982559,-0.2486223820982559,1.0001138995496757,0.00013434850697545268
-0.2472821415743965,-0.2472821415743965,0.9999799282506577,0.00013410164187503587
-0.24579348050028785,-0.24579348050028785,1.0000444488002216,0.00013428370991770588
-0.2445259795342281,-0.2445259795342281,1.0002366603949757,0.00013433688534782384
-0.24321901676812557,-0.24321901676812557,0.9999732387476804,0.00013438018548463478
-0.24223654890665786,-0.24223654890665786,1.0001691436029174,0.00013459574030237249
-0.2409036714991089,-0.2409036714991089,0.9999935394813658,0.0001342212245723909
-0.2392215361687704,-0.2392215361687704,0.9998617044497567,0.0001340075123437597
-0.23756518064910778,-0.23756518064910778,0.9999864736461461,0.0001342446016470028
-0.23648898337633,-0.23648898337633,1.0000145740703628,0.000134104368251364
-0.2354641503545281,-0.2354641503545281,0.9999194747479425,0.00013415348822875742
-0.23385917337800494,-0.23385917337800494,0.9999397322660142,0.00013412584532379406
-0.23238659038906917,-0.23238659038906917,1.000135834344737,0.0001341083338742888
-0.23132446302552126,-0.23132446302552126,1.0000786784801197,0.0001343051191965717
-0.23030699038208696,-0.23030699038208696,0.9999592903380355,0.00013432184063234893
-0.2292891886601865,-0.2292891886601865,0.9999598833523466,0.00013434226580540028
-0.22730214318435174,-0.22730214318435174,1.000011761115586,0.0001340856316702881
-0.22598359756011632,-0.22598359756011632,0.9999907905487649,0.00013421337760058762
-0.22478415136574767,-0.22478415136574767,0.9999919104822034,0.00013422991032101096
-0.22298083336791025,-0.22298083336791025,1.0000848811327419,0.0001345327575942899
-0.22152402253559558,-0.22152402253559558,1.0000629833383958,0.0001343823213717104
-0.21951681537248077,-0.21951681537248077,1.0000128762946185,0.00013409392098154724
-0.2182763841599808,-0.2182763841599808,1.0001026246266522,0.00013422168661886467
-0.21667810078797628,-0.21667810078797628,0.9999910040297,0.00013451750631848073
-0.21494252598640742,-0.21494252598640742,0.9999028771732329,0.00013409902710996075
-0.21311540855676867,-0.21311540855676867,0.9999834225752944,0.0001342583474844246
-0.2121905860833067,-0.2121905860833067,1.0002072068982053,0.00013428897750025306
-0.2113580975550576,-0.2113580975550576,0.9998242736462704,0.0001343674491298341
-0.20993200780867483,-0.20993200780867483,0.9999759935476285,0.00013438257320662136
-0.20848956837435254,-0.20848956837435254,1.0001073065338901,0.00013416422015541214
-0.20719397031934933,-0.20719397031934933,0.9999034536158892,0.00013463601402035865
-0.20662784780579385,-0.20662784780579385,1.0001613370109042,0.00013425623638034246
-0.20551274056124386,-0.20551274056124386,1.0000590821204767,0.00013447163062535854
-0.20344534706455306,-0.20344534706455306,1.0000483602726136,0.00013439068567299762
-0.20192548643390182,-0.20192548643390182,0.9999135968138633,0.00013428839239189755
-0.20054413021716755,-0.20054413021716755,0.9999268766873998,0.00013427212011001347
-0.19896009098447393,-0.19896009098447393,1.0001407860439024,0.00013465671489873904
-0.1978562607029744,-0.1978562607029744,0.9999380012324064,0.0001342957526036049
-0.19706080938267406,-0.19706080938267406,1.0002511927740878,0.00013424816793972892
-0.19573007768412937,-0.19573007768412937,1.000193524919553,0.000134274749973553
-0.19427069781231693,-0.19427069781231693,1.0000270395324393,0.00013444519739318385
-0.1928677241463447,-0.1928677241463447,1.0002312690451949,0.00013434982542200467
-0.19195334535834263,-0.19195334535834263,0.9999757133585995,0.00013420482035343887
-0.19030926575505874,-0.19030926575505874,0.9999665769952293,0.00013420637821752652
-0.18837033144009183,-0.18837033144009183,1.0002354948134735,0.00013422409327473666
-0.18714292279983055,-0.18714292279983055,1.0000193660806211,0.00013412199079922252
-0.18531653671452658,-0.18531653671452658,1.0001914604545434,0.00013408473247994752
-0.18374721579093603,-0.18374721579093603,1.0002383260198877,0.00013428966249736673
-0.1824637522797275,-0.1824637522797275,1.000187739665551,0.00013421365437915812
-0.18161926312750437,-0.18161926312750437,1.0001227878104473,0.0001340844169440561
-0.1802126284543192,-0.1802126284543192,0.9998963956854917,0.0001340885019837493
-0.1785458186044707,-0.1785458186044707,0.9999982239184769,0.0001341109334780394
-0.17645011186104967,-0.17645011186104967,0.9999288655379182,0.00013414487420247714
-0.17558519476515358,-0.17558519476515358,1.000192459092127,0.0001342582232589547
-0.17420145422802308,-0.17420145422802308,0.9998561930028365,0.00013412127010942597
-0.17298041481844847,-0.17298041481844847,0.9999997773158246,0.00013484368186401804
-0.1712488363176817,-0.1712488363176817,1.0001811189078142,0.00013438778909637036
-0.16972957136604236,-0.16972957136604236,0.9998103718049821,0.0001343646799371391
