time,time,flux,flux_err
-0.49940034283160156,-0.49940034283160156,0.9990567454165883,0.0018659847092463624
-0.4983629282851325,-0.4983629282851325,0.9999212097548158,0.0023281642709062082
-0.49760325756991125,-0.49760325756991125,1.002025848899075,0.002223726236121282
-0.49720331427670317,-0.49720331427670317,1.0013325946141927,0.0019101937418572
-0.49650612134792027,-0.49650612134792027,1.0003743407568775,0.0014792058414265282
-0.4956090181505715,-0.4956090181505715,0.9948809567037828,0.001996888067664533
-0.4947846288450819,-0.4947846288450819,0.996724808886303,0.002124080335394207
-0.49397135766848804,-0.49397135766848804,1.0010751804565285,0.0017113469631541123
-0.4934191017906414,-0.4934191017906414,1.000684935283014,0.0020295059620334694
-0.4928870474053838,-0.4928870474053838,0.9966280311488325,0.0016977715496644505
-0.49232974451588235,-0.49232974451588235,0.9980658436995118,0.0018947724651464978
-0.4916086233315582,-0.4916086233315582,0.9983311907523312,0.002027731379394373
-0.4911210184560332,-0.4911210184560332,1.0013731490552709,0.0019322149082580456
-0.4904456623902661,-0.4904456623902661,0.9987974888689642,0.0018076498342814273
-0.48941820581967477,-0.48941820581967477,1.000922729239036,0.0020434427150946006
-0.4888359663193114,-0.4888359663193114,1.0004097960537557,0.002075463032468671
-0.48833061618934154,-0.48833061618934154,1.0033017390579118,0.001712861746034577
-0.48776884998951575,-0.48776884998951575,0.9999081847099054,0.0018766501885736507
-0.48724353461366265,-0.48724353461366265,1.001772427976415,0.0018557047251757635
-0.48641442189109513,-0.48641442189109513,1.0006891792229364,0.0016788376277234284
-0.48584131086972776,-0.48584131086972776,1.0010461639684032,0.001844007041023573
-0.4854130698906374,-0.4854130698906374,1.000654879362958,0.0018640200496313885
-0.4845131512462103,-0.4845131512462103,1.00073558272513,0.0015954108572894398
-0.4835131502397417,-0.4835131502397417,0.9984780406997402,0.0019551502444978986
-0.482917336695391,-0.482917336695391,1.0043050429940992,0.0018787460244093844
-0.48227079128773764,-0.48227079128773764,1.0017659893054076,0.0021033553962216856
-0.4816861256636912,-0.4816861256636912,1.0005619673402326,0.0019197866012494891
-0.48115824355263614,-0.48115824355263614,0.9980280026816482,0.0019059342512257264
-0.48041556013995435,-0.48041556013995435,1.001071398482591,0.0018793925980352497
-0.4796476203162456,-0.4796476203162456,0.9993356289428919,0.001968709315790333
-0.4791159510205034,-0.4791159510205034,1.0023516724956103,0.0020327578366521075
-0.4779353245430684,-0.4779353245430684,1.0018791761593453,0.0018161315480974554
-0.4771980688747135,-0.4771980688747135,1.001346530288723,0.001951949407074327
-0.4765136734291445,-0.4765136734291445,0.999642029828425,0.001847703932532179
-0.4758433368930127,-0.4758433368930127,1.0029359624944583,0.0019674683373054856
-0.4753438599393121,-0.4753438599393121,1.0007829571649884,0.0020975224627730266
-0.4743743683306093,-0.4743743683306093,0.9995941554830472,0.0019418841184816234
-0.4737797935413255,-0.4737797935413255,0.9993006729631828,0.0017576370176510883
-0.4733764276978036,-0.4733764276978036,1.0037579609324698,0.00152233295506872
-0.4726996411998698,-0.4726996411998698,0.9982501002621517,0.0017448224524218008
-0.4719609739317093,-0.4719609739317093,0.9991481317653099,0.0020122201702631967
-0.47130389264348194,-0.47130389264348194,0.9980403374593786,0.0020869887452190155
-0.4705737225827761,-0.4705737225827761,0.9961865325604855,0.002235678684890733
-0.4700618830145686,-0.4700618830145686,0.9994964847061081,0.0015400307723648797
-0.469367590273032,-0.469367590273032,0.998631665825285,0.0017767275310326847
-0.4685928890205105,-0.4685928890205105,1.0003286428748535,0.001958613373813643
-0.4674962740857154,-0.4674962740857154,0.9987509284788892,0.0018071947931338791
-0.4666020969933015,-0.4666020969933015,1.0025500093394704,0.002007067613258671
-0.4658611172599194,-0.4658611172599194,0.9983032308937796,0.001630279912217537
-0.46545874951116273,-0.46545874951116273,0.998745059630753,0.00201119014404232
-0.4649355831403227,-0.4649355831403227,0.9983346876542069,0.0017434006605977618
-0.4640859085833654,-0.4640859085833654,0.9977734005799743,0.0019186321297165235
-0.4627985100327351,-0.4627985100327351,1.0015717897048995,0.0019517333569648934
-0.4617613637332397,-0.4617613637332397,0.9983611961477518,0.0019455006654674513
-0.4612550575453497,-0.4612550575453497,0.9986273771223493,0.0018739984899352607
-0.46067049517514536,-0.46067049517514536,0.9983930790896718,0.00186944502922292
-0.4599150265195931,-0.4599150265195931,0.9984365206310433,0.0017029269914120271
-0.4590842109042569,-0.4590842109042569,0.9994632345596257,0.0018439311245619493
-0.4586563945165835,-0.4586563945165835,1.003142942197119,0.00172644714444528
-0.45830991315524444,-0.45830991315524444,0.9991353891840292,0.001927651990488733
-0.4576195825742616,-0.4576195825742616,0.9980177477524539,0.0015900603366339754
-0.456545977636415,-0.456545977636415,1.002157941156269,0.001934626965503706
-0.45562403899093623,-0.45562403899093623,0.9995353816537639,0.002048467754300465
-0.4548484031984117,-0.4548484031984117,1.0015042301957715,0.0019134321049204977
-0.45455040935921714,-0.45455040935921714,0.9991163529739584,0.0017401835904667594
-0.45393109513242963,-0.45393109513242963,0.9976915348793627,0.002005229905472799
-0.4534587387839565,-0.4534587387839565,0.9970399541752375,0.0018058567897963746
-0.4526684576216212,-0.4526684576216212,0.998273409668575,0.0018188349156621128
-0.45198128710035235,-0.45198128710035235,1.001346837049724,0.0021363134166482297
-0.45070338851219277,-0.45070338851219277,0.9996178287554726,0.0018763135742968934
-0.45000242595851886,-0.45000242595851886,1.0013608392830473,0.0017488654841761784
-0.4491910672208178,-0.4491910672208178,0.9991993211019364,0.0019224240091084133
-0.44869275425953675,-0.44869275425953675,0.997815180854077,0.0021079353262399183
-0.44764591136190574,-0.44764591136190574,0.999548738883896,0.0020503085352506704
-0.44691668887389824,-0.44691668887389824,0.9999304493153975,0.001959965011181561
-0.44657755167718277,-0.44657755167718277,1.0005764962257673,0.0015081873658773215
-0.4460113546272623,-0.4460113546272623,1.0001918570539654,0.0015644337333908212
-0.44553659201992557,-0.44553659201992557,1.0009533679608373,0.001612506811048603
-0.44480809884262273,-0.44480809884262273,1.0009788721877748,0.0020110374954249283
-0.44383405302869505,-0.44383405302869505,1.0026347280807753,0.0021515159822565718
-0.44309968906236463,-0.44309968906236463,0.9999504734996604,0.0018852640314849102
-0.4423207310537691,-0.4423207310537691,1.001478366626897,0.0016375610329415022
-0.44146819942397997,-0.44146819942397997,1.0021219628258091,0.0019252978019157624
-0.44078733737114817,-0.44078733737114817,1.0015360854806512,0.001832378124674498
-0.4400077694968786,-0.4400077694968786,0.9997599890218065,0.0017045308724621647
-0.43913146471822984,-0.43913146471822984,0.9996483068662926,0.0019181123963564035
-0.4386326650514093,-0.4386326650514093,1.001820556199852,0.0017977178513070725
-0.43828921804743004,-0.43828921804743004,0.9998666773476501,0.0019818863063946293
-0.43764490333996947,-0.43764490333996947,0.9991555830972605,0.0018485853920813026
-0.4367625606704678,-0.4367625606704678,1.0006332055021958,0.0018427151620599032
-0.43576275581726803,-0.43576275581726803,1.000619942542983,0.0020031464991062645
-0.4349185434693936,-0.4349185434693936,0.9990761910722465,0.001779814729693626
-0.4344364994976786,-0.4344364994976786,0.9975389018125232,0.0017895366957953861
-0.433900156681193,-0.433900156681193,1.000977661696977,0.001493584683925103
-0.43344042499084023,-0.43344042499084023,0.9987314666665885,0.002063866092390387
-0.4328090182651067,-0.4328090182651067,1.0021219402455943,0.0019102920023861343
-0.4318230506585678,-0.4318230506585678,1.0001289847072976,0.001756208674424689
-0.43152772226021624,-0.43152772226021624,0.998788793528437,0.001968559222679688
-0.431212528472679,-0.431212528472679,1.0019261212389199,0.0017963964821217301
-0.430649316819472,-0.430649316819472,0.9981892818674114,0.0017434158812360792
-0.4292342864777311,-0.4292342864777311,0.9980982061103708,0.001850873816863712
-0.42862107079854467,-0.42862107079854467,0.9983697564283978,0.0019148950075151129
-0.4278207292598381,-0.4278207292598381,1.0007589698368435,0.0020092507749656335
-0.42741358560524534,-0.42741358560524534,1.0000054606743434,0.001475924707426708
-0.4267680208904494,-0.4267680208904494,1.000784417386734,0.0018317980458167488
-0.426457917089283,-0.426457917089283,1.000582516889907,0.0019702339193852555
-0.4257130883008358,-0.4257130883008358,0.9985630964642283,0.0020553436893893683
-0.425123549439013,-0.425123549439013,1.0014235431576495,0.0019268570282194905
-0.42414810316477086,-0.42414810316477086,1.0036336037912825,0.0018212019084807261
-0.42331447950491563,-0.42331447950491563,0.998882147937679,0.0018594157259811366
-0.4226885451418639,-0.4226885451418639,0.9998988842344044,0.002175348792541808
-0.4223606324179855,-0.4223606324179855,1.0009274393719152,0.0018600902396680313
-0.42189939367526674,-0.42189939367526674,0.9990272865642258,0.0018343693157420187
-0.4214530439305236,-0.4214530439305236,0.9970789581161709,0.0018871737850386032
-0.4206247751521005,-0.4206247751521005,0.9992972310306231,0.0019761316570911743
-0.4200225615291856,-0.4200225615291856,0.9984584968493179,0.0019792562170223332
-0.4196289951418294,-0.4196289951418294,0.9991589258538662,0.0015095491311145589
-0.41908945445975404,-0.41908945445975404,1.0002390062318307,0.0017728847551767505
-0.41813133516843665,-0.41813133516843665,0.9998510762879453,0.0016597915827467336
-0.4170080486735969,-0.4170080486735969,0.9977929732782231,0.0019856424059692167
-0.41629878720996205,-0.41629878720996205,0.9999620949725134,0.002029936802052717
-0.4156934788428771,-0.4156934788428771,0.9996708031286744,0.0017236244509050672
-0.4148944157190272,-0.4148944157190272,1.0038437759959373,0.0019378774978105599
-0.4141796013143903,-0.4141796013143903,0.9994735230902766,0.0016796984335418898
-0.41318027849556527,-0.41318027849556527,1.001305908661949,0.001932304398735778
-0.41230505645580706,-0.41230505645580706,1.0003270714264476,0.0017753886662676608
-0.411796392317774,-0.411796392317774,1.0018214035405426,0.001737994092861822
-0.4113133864419069,-0.4113133864419069,0.9995550579507592,0.002099186954996556
-0.41050829256564614,-0.41050829256564614,0.9994833353485241,0.001735160253027497
-0.41006176061637234,-0.41006176061637234,0.998815657656228,0.0019290648800981175
-0.40863866616564337,-0.40863866616564337,0.9990403702184176,0.002137286189200854
-0.40810431107602196,-0.40810431107602196,1.000140866319938,0.0018801665594356995
-0.40758645410751343,-0.40758645410751343,0.9986080453234546,0.0015055166542053832
-0.4068882894978742,-0.4068882894978742,0.9999936555948785,0.001515027602150692
-0.40616607826013934,-0.40616607826013934,0.9992353806713424,0.0018534532542397602
-0.4051671945839189,-0.4051671945839189,0.9994382898070004,0.00221780394345105
-0.40461998360042345,-0.40461998360042345,1.00099321344543,0.0018522024993559449
-0.40408632371909337,-0.40408632371909337,0.9977360348462803,0.0015863079307196393
-0.4031028077341034,-0.4031028077341034,1.001169471520166,0.00158317238634369
-0.40227611654336215,-0.40227611654336215,1.0003793379160342,0.0020076357889644097
-0.40131290731442276,-0.40131290731442276,1.0007538751079381,0.001967801525502585
-0.40074937969402524,-0.40074937969402524,0.9995916240132626,0.0018525029948999734
-0.4003298310897662,-0.4003298310897662,1.0002610530892497,0.0017721537624409821
-0.39967168882431,-0.39967168882431,1.0038468616024232,0.0018843623404303314
-0.39911075229974813,-0.39911075229974813,1.0015106196303716,0.001753656567013508
-0.39847882775211474,-0.39847882775211474,1.0014567363257838,0.0021988849052646977
-0.3976621492525737,-0.3976621492525737,1.0015514842320474,0.0020489556164977286
-0.3967560729761317,-0.3967560729761317,1.0022777683390922,0.0018547544214502641
-0.3960057867181604,-0.3960057867181604,1.0015411868355324,0.0017611963027535167
-0.39549976422349575,-0.39549976422349575,0.9987056935313277,0.001960360314651755
-0.3949233378363715,-0.3949233378363715,1.0015813351664753,0.0018691527905677467
-0.39449977259282604,-0.39449977259282604,1.0017064590215459,0.0018934618793587216
-0.39382349317820625,-0.39382349317820625,1.0007347545642085,0.001926518400272219
-0.3928382305894047,-0.3928382305894047,1.0018416864552129,0.0014911486671197237
-0.39245699146922564,-0.39245699146922564,0.9996638752808555,0.00215944839395549
-0.3916060476156417,-0.3916060476156417,1.0027287712368,0.0016367825981869369
-0.3905181255278876,-0.3905181255278876,1.0007723571468596,0.0017843734683209405
-0.3897656811503111,-0.3897656811503111,1.0027964584638789,0.002034231296305215
-0.3890156016073888,-0.3890156016073888,1.0002852385271332,0.0017293689842255878
-0.38851938912193873,-0.38851938912193873,1.0021399424921387,0.001786083220029381
-0.38803529416618404,-0.38803529416618404,0.9997687880885046,0.0019355153542847802
-0.38725047929910944,-0.38725047929910944,0.997707693480687,0.0020034671676393352
-0.38646051350515337,-0.38646051350515337,1.002454165369248,0.002025530061065714
-0.3857065141564817,-0.3857065141564817,1.0022394598260973,0.001877408493562708
-0.38503019589479665,-0.38503019589479665,1.0009573556971871,0.0016851659769352742
-0.38437839963662557,-0.38437839963662557,1.000507781518187,0.002087977516282649
-0.38350980633840664,-0.38350980633840664,1.0030849802366224,0.001720469209214641
-0.3830354828147392,-0.3830354828147392,1.0015794495002588,0.001811068657778769
-0.38213814159171305,-0.38213814159171305,1.0003095608590395,0.0020727468676482426
-0.38124255022994474,-0.38124255022994474,0.9976074145071658,0.002015791722471273
-0.38072059625410476,-0.38072059625410476,1.0014302512113957,0.0016167587776294407
-0.3803717451628472,-0.3803717451628472,0.9981059063675568,0.0017871385937462572
-0.3798768531101814,-0.3798768531101814,1.0025040356687331,0.0016351674056054692
-0.3790824659794453,-0.3790824659794453,0.9996552434343051,0.002057425020710038
-0.3783099474356277,-0.3783099474356277,0.9999769930734599,0.001955815757159119
-0.3777671839787217,-0.3777671839787217,0.9984126329652708,0.0019209688243226632
-0.3774080726754619,-0.3774080726754619,0.9969698860652567,0.0017534214537873783
-0.37670598028344104,-0.37670598028344104,1.0003738911266489,0.0014757517588563148
-0.37564532948308627,-0.37564532948308627,1.000469575761987,0.0017905495887157556
-0.374790080969251,-0.374790080969251,0.9968064775872645,0.001895173741078366
-0.3739199696516152,-0.3739199696516152,0.9982300533577335,0.0018393116340819637
-0.3735608035647601,-0.3735608035647601,1.0008305112220062,0.0019543056757038947
-0.37295177922133005,-0.37295177922133005,0.9989259977827485,0.0017206271132394022
-0.37254452948473044,-0.37254452948473044,1.0001102850461228,0.0020051460052769128
-0.3719106456548616,-0.3719106456548616,0.9980909886400845,0.0019390097179989244
-0.3711553336041106,-0.3711553336041106,0.9974656328484868,0.0019679681071220786
-0.3704552984563634,-0.3704552984563634,1.0015364059878387,0.002260749040661414
-0.36967781207931694,-0.36967781207931694,1.0042684897336023,0.0020493869090986855
-0.36872524499631254,-0.36872524499631254,0.999162617916113,0.0017514087201832083
-0.36799342633385096,-0.36799342633385096,0.9999280803864217,0.0018762626592317045
-0.3675280892945011,-0.3675280892945011,1.0002859154134989,0.0019832680095823443
-0.3665623146356666,-0.3665623146356666,0.9992635497210387,0.0017864500013338763
-0.36583341912701145,-0.36583341912701145,1.0010901303336313,0.0016020978466876248
-0.3652570350735914,-0.3652570350735914,1.0018768193727952,0.0019591931616751417
-0.3646273097692756,-0.3646273097692756,1.0003698576676752,0.0018827593160765485
-0.363912272269954,-0.363912272269954,1.0026006619251429,0.0017896390501968714
-0.36340583298660933,-0.36340583298660933,0.9978814416130948,0.001779998913789561
-0.3628657741348434,-0.3628657741348434,1.000224483217635,0.001968717052999328
-0.3624021774936409,-0.3624021774936409,0.9985275824940179,0.002127485759468884
-0.3617395582405152,-0.3617395582405152,1.0005351039129213,0.0017305695082250813
-0.36109791442140704,-0.36109791442140704,1.0017797205452872,0.0020683307684668975
-0.3605880699607951,-0.3605880699607951,0.9988050434903,0.0017863232831727017
-0.3599134082061937,-0.3599134082061937,1.0024465657204105,0.0019510204084159603
-0.3595179561059922,-0.3595179561059922,1.0037094936659279,0.0021104944568427542
-0.3586002677715442,-0.3586002677715442,0.998905639481589,0.0017250083343728038
-0.357693524237402,-0.357693524237402,0.9981748227525685,0.0019084636624187262
-0.35720139797049344,-0.35720139797049344,1.0019933334122249,0.0019096135429921036
-0.3564036283241876,-0.3564036283241876,1.001609727584308,0.0017216171880499378
-0.3558772801909072,-0.3558772801909072,0.9997462052198867,0.0020974966188987737
-0.3550426760128175,-0.3550426760128175,1.000951827554284,0.0019476845246362267
-0.3540570239376393,-0.3540570239376393,1.0006811455866154,0.0019159417810354937
-0.35359416917708586,-0.35359416917708586,1.0035280720764155,0.001621081051827593
-0.3529214115522336,-0.3529214115522336,1.0003661685807625,0.0015351714868621805
-0.35205342104382,-0.35205342104382,0.9989653488683696,0.0020074424138431897
-0.35128579809825167,-0.35128579809825167,1.0003660051332512,0.0021856738679588037
-0.3508073840966972,-0.3508073840966972,1.0003511731752404,0.002148943466507908
-0.3503911221152521,-0.3503911221152521,1.0018177330998879,0.0017794529398348605
-0.34964950928333566,-0.34964950928333566,1.0029811212067528,0.001638860268668292
-0.34875766817422116,-0.34875766817422116,1.0005619908580279,0.0020212491837827773
-0.3479717903624987,-0.3479717903624987,1.0037412681691742,0.002085461278950042
-0.34726678776496556,-0.34726678776496556,1.0006490579812095,0.0017116755554826822
-0.3466439536736289,-0.3466439536736289,1.0009115814928908,0.0019030738963195452
-0.34606004053348444,-0.34606004053348444,1.0012879439380522,0.0017069300651388405
-0.3455085264366062,-0.3455085264366062,1.0037737993983036,0.002025565184672782
-0.34475996444307383,-0.34475996444307383,1.000834968288904,0.0018985279259965241
-0.3443287088863144,-0.3443287088863144,1.0022887185190374,0.0018171477959512048
-0.3436198948489618,-0.3436198948489618,1.0000537897165622,0.0018582298839905874
-0.3426047352666501,-0.3426047352666501,0.9998555144847984,0.0020277843689588348
-0.34192775654883006,-0.34192775654883006,1.0019439671117074,0.0019069713979496053
-0.3413458523988083,-0.3413458523988083,1.000543984121655,0.001940560977270992
-0.3407345217805414,-0.3407345217805414,0.9999008921215005,0.00178997857676026
-0.339878982429218,-0.339878982429218,0.9970949436837737,0.001674296556252871
-0.33920109155151296,-0.33920109155151296,1.00037750438436,0.0019301048232560872
-0.3388235290760349,-0.3388235290760349,1.0001406997842075,0.0016218542875733274
-0.3381049049603462,-0.3381049049603462,0.9999521663360994,0.0017638766706642764
-0.3372622998824227,-0.3372622998824227,0.9998054665055273,0.0018919242513703901
-0.3366310558893019,-0.3366310558893019,1.0026392194944016,0.0018788507495836055
-0.33610334899567534,-0.33610334899567534,1.0034547339623827,0.0020596912002329064
-0.335255029455584,-0.335255029455584,0.9979954309436824,0.0017878334403751452
-0.3347767634055344,-0.3347767634055344,1.0000416270774237,0.001820311498913423
-0.3341212925894069,-0.3341212925894069,1.0011800982183392,0.002083597990086921
-0.33335317920937085,-0.33335317920937085,1.0016491598072832,0.001882360216145905
-0.33281532065957437,-0.33281532065957437,1.001754002355652,0.0020575084164931074
-0.3323863735815394,-0.3323863735815394,1.000101029264421,0.0020510323047840035
-0.3315026508309529,-0.3315026508309529,1.0043575363177695,0.0017535744710767322
-0.3308778477570741,-0.3308778477570741,0.9963589627804484,0.0019817132170462395
