time,time,flux,flux_err
-0.4997302301475429,-0.4997302301475429,1.000130000741655,0.00014371576435220129
-0.49932302493980385,-0.49932302493980385,0.999959893590809,0.00014035563312692932
-0.4991220601623354,-0.4991220601623354,1.000123671549145,0.0001402175442594778
-0.4985706236955593,-0.4985706236955593,0.999692150311337,0.00014296094435439522
-0.4978491241359734,-0.4978491241359734,0.9997627584415344,0.00013755677780839776
-0.49682721898861926,-0.49682721898861926,1.0000618319134258,0.00014045281015428836
-0.4962185618620424,-0.4962185618620424,0.9998941777140307,0.00014670032657309887
-0.4956959556126094,-0.4956959556126094,0.9998759081881925,0.000146031793094564
-0.4955097886668227,-0.4955097886668227,1.0002147005278101,0.00013754727256138304
-0.4950945769669488,-0.4950945769669488,1.000197133872442,0.0001435215833494314
-0.4946215443123947,-0.4946215443123947,0.9999936442076038,0.00014013945765621567
-0.49399916802576627,-0.49399916802576627,0.9998626137004265,0.00014328335579573837
-0.49344005263919827,-0.49344005263919827,0.9998599991125288,0.00013773914612279315
-0.4930576125923835,-0.4930576125923835,0.9998139210886148,0.00013986236416166627
-0.4926510763558326,-0.4926510763558326,0.9999148035232572,0.0001398516578978738
-0.49238583372862194,-0.49238583372862194,1.0001690784391493,0.00014326203795602858
-0.49190830501247546,-0.49190830501247546,1.0001204630674778,0.00014346475976085578
-0.49153493159101347,-0.49153493159101347,1.0001586006147583,0.00014359407957317973
-0.49092011925531553,-0.49092011925531553,1.0000382719622736,0.00014627961288659017
-0.49036214227817254,-0.49036214227817254,0.9999155800019441,0.0001402756127679671
-0.48969848565684515,-0.48969848565684515,0.9999171916177462,0.0001372160170606256
-0.48873962691795897,-0.48873962691795897,1.000111817592297,0.00014028061465400866
-0.48787614576576743,-0.48787614576576743,1.0000864363819375,0.00014637620144845133
-0.48728957056300715,-0.48728957056300715,0.9999632573286592,0.0001435330566520406
-0.4869621087156702,-0.4869621087156702,0.9999983926780194,0.00014000019434747864
-0.4867847858884488,-0.4867847858884488,0.9998354493969341,0.00014037026266067933
-0.48614162232915986,-0.48614162232915986,0.9999603156276698,0.00014363231249995382
-0.48570710636558945,-0.48570710636558945,0.9999526871536867,0.00013769300359766946
-0.4852073963789735,-0.4852073963789735,0.9998524061099727,0.00014628373768882393
-0.4846042606375704,-0.4846042606375704,0.9999021883465498,0.00013739715857965796
-0.4844134998005757,-0.4844134998005757,1.000132172307916,0.00014015626872123857
-0.48400886414528943,-0.48400886414528943,1.0000960402832706,0.00013974574990014273
-0.48371478744520574,-0.48371478744520574,1.000033261421536,0.00014323406484247718
-0.4833684534052736,-0.4833684534052736,0.9999513175957709,0.00014109108726379966
-0.4829850964873913,-0.4829850964873913,1.0001108636134557,0.00014635716540066377
-0.48250706348189853,-0.48250706348189853,0.9998866071275628,0.00014336860728956063
-0.4819492876777076,-0.4819492876777076,0.9999150706175616,0.00014024795000600846
-0.4812512975746358,-0.4812512975746358,1.0001893666394714,0.0001430135586772906
-0.48012701776024186,-0.48012701776024186,0.9997930931772212,0.00013776771839179216
-0.4795717418266577,-0.4795717418266577,1.0002040216276646,0.00014028777709402837
-0.47914342889780526,-0.47914342889780526,1.0001730302577354,0.00014632994597967459
-0.47864419035613537,-0.47864419035613537,1.0000109519365992,0.0001434628905101712
-0.47838345571435636,-0.47838345571435636,0.999963886439566,0.00014346734007070162
-0.478188502836565,-0.478188502836565,1.0001156064167671,0.00014023489042826743
-0.47796130583956253,-0.47796130583956253,1.0002118831333608,0.00014381939461998605
-0.4773868936710642,-0.4773868936710642,0.9999882300389087,0.00013997278715177988
-0.47696214375901036,-0.47696214375901036,1.0001623876167516,0.00014065754060606927
-0.4764057795771805,-0.4764057795771805,0.9999457702244626,0.0001435227100022146
-0.47579062914810494,-0.47579062914810494,1.0001916933788226,0.00014007220217022689
-0.4752281515633513,-0.4752281515633513,1.0001421150652445,0.00014274007367220024
-0.47484418289823227,-0.47484418289823227,1.000086003657323,0.0001436276284747947
-0.47440682771848514,-0.47440682771848514,0.9997888209398711,0.00014653277644457161
-0.4738785244575411,-0.4738785244575411,0.9998174256881386,0.00014311114809892873
-0.4734857420444314,-0.4734857420444314,1.000244128506216,0.00014404240207666264
-0.4727108877355931,-0.4727108877355931,0.9998805461907494,0.00014302406150302054
-0.4718562872694747,-0.4718562872694747,0.999942443497704,0.00014002834103178733
-0.47102725722870675,-0.47102725722870675,0.999935111072125,0.00014048962267882475
-0.4707064399306546,-0.4707064399306546,0.9999657117525714,0.00014023063233507737
-0.47034363941420454,-0.47034363941420454,0.999818156612117,0.0001488918232820086
-0.46993495067654295,-0.46993495067654295,1.0001356419896603,0.0001410554964297647
-0.46967471365860547,-0.46967471365860547,0.9998516778312091,0.00014339102100226843
-0.46946620650196563,-0.46946620650196563,1.0000814681132033,0.0001401433850213454
-0.468976881904382,-0.468976881904382,1.000011709282996,0.00014636000373520426
-0.46860401762023685,-0.46860401762023685,0.9998739320404029,0.00014043238437789959
-0.4682009631673282,-0.4682009631673282,1.0000747782159896,0.00014333210691125521
-0.4673620699919411,-0.4673620699919411,1.0000846987619163,0.0001402370554456134
-0.4669198522788065,-0.4669198522788065,1.000048258982357,0.00014038657391061683
-0.4665506356410333,-0.4665506356410333,1.0000857846689921,0.0001429331838789292
-0.4663102802471258,-0.4663102802471258,0.9999395670178448,0.00013999532794130618
-0.4658164081112773,-0.4658164081112773,1.0000898975914452,0.00014960265207173413
-0.4652841553572216,-0.4652841553572216,1.0000317035095176,0.0001426169164425569
-0.46482549570500853,-0.46482549570500853,0.9998164232500895,0.0001469391710430666
-0.46412483343374333,-0.46412483343374333,0.9998640316666251,0.00014281388611266267
-0.46337281730011454,-0.46337281730011454,0.9999957984671661,0.00014269401302780902
-0.4626766680412402,-0.4626766680412402,1.0000377582278102,0.00014332082095853718
-0.462247367791133,-0.462247367791133,1.000087811396373,0.00013751193447025732
-0.46197455762157913,-0.46197455762157913,0.9999724545400955,0.00014292164931662665
-0.4615110392791394,-0.4615110392791394,1.0000432215723123,0.0001473041955448136
-0.461141315416171,-0.461141315416171,1.0002700725697207,0.00014627023407877418
-0.46091973491857063,-0.46091973491857063,1.0001801862561555,0.00013747349885870436
-0.46077977051536434,-0.46077977051536434,1.0000151390494256,0.00014006933716591527
-0.46046966375288323,-0.46046966375288323,0.9999184906885749,0.00014360865284123597
-0.4600305791464052,-0.4600305791464052,1.00013072528034,0.00014018843739870598
-0.45965422188019145,-0.45965422188019145,1.000238189406965,0.00014627960861049165
-0.45877787030112815,-0.45877787030112815,0.9998030404878209,0.0001428527598138784
-0.4582708886038745,-0.4582708886038745,0.9999138427126704,0.00014399064243548533
-0.457897731551202,-0.457897731551202,0.9999746729166683,0.00014293324132227256
-0.45772917661306567,-0.45772917661306567,0.9999644800828029,0.00014270018540000004
-0.457315195981937,-0.457315195981937,1.0000400264393723,0.00014625792126317125
-0.45704253951189455,-0.45704253951189455,0.999999554985046,0.00014392016237175498
-0.45649271355359816,-0.45649271355359816,1.0001423412798922,0.00014342487616530926
-0.45610581982109577,-0.45610581982109577,0.9999840036663447,0.0001463887266714897
-0.4555954766838113,-0.4555954766838113,1.0002477684773632,0.00014314656454168345
-0.45495421052837626,-0.45495421052837626,1.0000006903610554,0.00013758048044614876
-0.45470714768380277,-0.45470714768380277,1.000032293074868,0.0001432486779215331
-0.45448319017959876,-0.45448319017959876,0.9998312048035073,0.00014005073960995075
-0.4538044932996854,-0.4538044932996854,0.9998519125136717,0.00014616764560998696
-0.45346336009242805,-0.45346336009242805,0.9999189471941413,0.00013751827006539498
-0.4531957808845618,-0.4531957808845618,0.999923643282238,0.00014877435709786957
-0.45260190480039453,-0.45260190480039453,1.0001450721971803,0.0001469498851240019
-0.45237602018169126,-0.45237602018169126,1.0001006075395558,0.00014354243605156584
-0.45211791598121637,-0.45211791598121637,0.9999822220875794,0.00013720977328764936
-0.4518122295397916,-0.4518122295397916,1.0000490863551128,0.00014316649987926116
-0.4515120054100407,-0.4515120054100407,1.000076517257932,0.00014717792411458313
-0.451349503552774,-0.451349503552774,1.0000329636306162,0.00013725663688865202
-0.4507904992176918,-0.4507904992176918,1.0001109058364914,0.00015019381042419926
-0.4498993415858422,-0.4498993415858422,1.0001159859763227,0.00014435478380775356
-0.44952925792749737,-0.44952925792749737,0.9999940915463895,0.00014324084686541855
-0.449067638147244,-0.449067638147244,1.0000162037386358,0.00014562115463038876
-0.4486297277857375,-0.4486297277857375,1.0000809800352346,0.0001434413734481241
-0.4483069233217975,-0.4483069233217975,1.0001857963026768,0.00014698917097448924
-0.44784057557262713,-0.44784057557262713,1.0002495837605223,0.00014624236690101517
-0.44733444036173753,-0.44733444036173753,0.9997973912382372,0.00014042213158088987
-0.4468669130845228,-0.4468669130845228,0.9998767776062328,0.00014926399098215746
-0.4463265003680135,-0.4463265003680135,0.9998671864774824,0.0001376613575606662
-0.4460891442897264,-0.4460891442897264,1.0000812418431722,0.00014308913754300162
-0.44583505133268775,-0.44583505133268775,0.9999510100140776,0.00013706911346989163
-0.44524871159519536,-0.44524871159519536,0.9998642182133752,0.0001431100131802502
-0.4447988946725673,-0.4447988946725673,0.9999376597894942,0.00014047432941476803
-0.4444642612390453,-0.4444642612390453,0.9999137449643365,0.00014934266823187173
-0.4437736363302974,-0.4437736363302974,1.0000320018364548,0.0001461884324627874
-0.4435767658200348,-0.4435767658200348,0.9997720974352088,0.00014064022068953084
-0.44342179174054763,-0.44342179174054763,0.9999297017637033,0.0001375882231575083
-0.44310947189151195,-0.44310947189151195,1.000153875383027,0.0001494310657280975
-0.442792355765414,-0.442792355765414,1.000038646491252,0.00014019903296844352
-0.44254283987829696,-0.44254283987829696,0.9997705669370642,0.00014068438337838776
-0.44175137026031736,-0.44175137026031736,1.0000690909374037,0.00014431604350228846
-0.4411206404627592,-0.4411206404627592,1.000105188987214,0.0001472392479178858
-0.4405951392640418,-0.4405951392640418,1.0000510088521082,0.00014838403438178146
-0.44017168386417327,-0.44017168386417327,1.0002090580449994,0.00014098375196038544
-0.43975492943063726,-0.43975492943063726,0.9999464906323029,0.00014976832462159842
-0.439221959306451,-0.439221959306451,1.0000512630123277,0.0001397572435341482
-0.4389669162541395,-0.4389669162541395,0.999831269365728,0.0001445390494928924
-0.43838061982096405,-0.43838061982096405,0.999972020365016,0.00014730076111748778
-0.43773272174730665,-0.43773272174730665,0.999941409919367,0.0001376989790569208
-0.4373616747718188,-0.4373616747718188,0.9998531112055262,0.0001398260239873947
-0.4369725552460295,-0.4369725552460295,1.0001329709208553,0.0001403608958023085
-0.4364253203602857,-0.4364253203602857,0.9998909366455638,0.000140697026477528
-0.43609816267708085,-0.43609816267708085,0.9999217104443243,0.0001405805852290324
-0.4356646063104563,-0.4356646063104563,1.0002606168346104,0.00014716122935952647
-0.43508891279416273,-0.43508891279416273,1.000054359914945,0.00014608035218740758
-0.43485323028216954,-0.43485323028216954,1.0001023232849637,0.00014179097593043055
-0.43450941456103465,-0.43450941456103465,0.9999026185082567,0.00014669777018763285
-0.43410668392898516,-0.43410668392898516,1.0002022423115735,0.00013997365541802375
-0.4334083795278275,-0.4334083795278275,1.0000801907080308,0.0001414986143727191
-0.43253969677098214,-0.43253969677098214,1.0000200417614082,0.0001443222382981698
-0.4320445576777274,-0.4320445576777274,1.0001542752196129,0.00014580558088674942
-0.4315516280614247,-0.4315516280614247,1.0000063500133727,0.00014391015896971721
-0.43110447246435796,-0.43110447246435796,1.0000114356318774,0.0001473983617866454
-0.43052189980007827,-0.43052189980007827,1.000072557276955,0.00014611557344104638
-0.4300110737749492,-0.4300110737749492,1.0001258020949058,0.00014358441846006056
-0.42949335247903947,-0.42949335247903947,0.9999463122249239,0.00014306959579990993
-0.42894903631531633,-0.42894903631531633,1.0001554647423407,0.00014067579419126117
-0.42875662281512633,-0.42875662281512633,1.0000259804294669,0.0001399985145741198
-0.42850148008801625,-0.42850148008801625,1.0000479821431312,0.00013728005241537655
-0.4281348938602605,-0.4281348938602605,0.9999078487778779,0.00014256900112289856
-0.4278415463712008,-0.4278415463712008,0.9999899322193556,0.00014095047579249696
-0.4275200485360983,-0.4275200485360983,1.0001083058505698,0.00013788145333518023
-0.42719213737218525,-0.42719213737218525,0.9999793283697145,0.00014640072821895143
-0.42659538401130703,-0.42659538401130703,1.0000657537539688,0.0001461888704325341
-0.42624808909531564,-0.42624808909531564,1.0002430176535992,0.0001443665746669324
-0.42604934636838154,-0.42604934636838154,0.999950960343415,0.0001403994237988638
-0.4257507934489695,-0.4257507934489695,1.000109374393356,0.00014126887809457587
-0.4254404588995385,-0.4254404588995385,1.0001044868638558,0.00013992016423126786
-0.4251372340011585,-0.4251372340011585,1.0000595279605033,0.0001376031031988439
-0.4244267478163238,-0.4244267478163238,1.0001687373402897,0.000145031382494804
-0.4239579373963352,-0.4239579373963352,0.9998814766210773,0.00014709672598469168
-0.42345758392475547,-0.42345758392475547,1.0002056428634991,0.00014291069325054687
-0.4229380510856572,-0.4229380510856572,1.0000157611561116,0.00014713870967204536
-0.4225056701514404,-0.4225056701514404,1.0000190991572913,0.0001429695607448175
-0.4221088360536669,-0.4221088360536669,1.0000615345029074,0.00014697572399155576
-0.42155592084382076,-0.42155592084382076,0.9997615758491442,0.0001437706154964778
-0.4209687969101651,-0.4209687969101651,1.0000922671926937,0.00014669913513601514
-0.4204272747047071,-0.4204272747047071,1.0001306912767525,0.00014406462472221044
-0.42000938755372774,-0.42000938755372774,0.9998479836554619,0.0001399810039453401
-0.41968694517127003,-0.41968694517127003,0.9999048739151071,0.00014127867428616016
-0.41919160597753946,-0.41919160597753946,1.0000818095715946,0.00014572922904569253
-0.4188607474490709,-0.4188607474490709,1.0001894052032665,0.0001376532478037671
-0.41864906557530046,-0.41864906557530046,0.9999469697308188,0.00014324830395543283
-0.41820376783725804,-0.41820376783725804,1.0000143738896743,0.00014371313174721927
-0.4177688205723825,-0.4177688205723825,1.0000329392298437,0.00015035324140366387
-0.4174515714941663,-0.4174515714941663,1.0001868267526364,0.00013759934354844633
-0.41719715514118433,-0.41719715514118433,0.9998877207157394,0.0001438136410255837
-0.4168266033673717,-0.4168266033673717,0.999984898361933,0.00013993706619145078
-0.41641884768905585,-0.41641884768905585,0.9999670480804917,0.00014052598699499817
-0.4160716961567232,-0.4160716961567232,1.0000747826774325,0.00014164238284244092
-0.4154675735888304,-0.4154675735888304,1.0000959370333962,0.00014103271994408512
-0.41512773947397363,-0.41512773947397363,1.0002453675092229,0.00014025985349209357
-0.4146243698698527,-0.4146243698698527,1.000043067609246,0.00014625257992388838
-0.4142953476126422,-0.4142953476126422,0.9999798689132602,0.00014388230733741796
-0.4139305715034425,-0.4139305715034425,1.0001013881476282,0.00014342428408182663
-0.4137587519478984,-0.4137587519478984,0.9999930606685877,0.00014440520255278006
-0.41357716440761577,-0.41357716440761577,1.000140154149193,0.00014029929161904817
-0.4130603087687632,-0.4130603087687632,0.9997933727333628,0.00014360939206118018
-0.41278147250704933,-0.41278147250704933,1.0000462478181644,0.00014022902721258436
-0.4122017639951082,-0.4122017639951082,1.0000538609961223,0.0001435760236196932
-0.41157436752255305,-0.41157436752255305,0.9997720251648674,0.00014403595146587396
-0.411340562125406,-0.411340562125406,0.9998257770983026,0.000137604363330312
-0.4110217128880322,-0.4110217128880322,1.0000976856441082,0.00013700521092212812
-0.41057381395730774,-0.41057381395730774,1.0000217761032428,0.0001453839771054177
-0.4102848553244257,-0.4102848553244257,1.0000234145494098,0.00013761412923936705
-0.41003560183089577,-0.41003560183089577,1.00018487756295,0.00014331524791913453
-0.40958045570660034,-0.40958045570660034,1.0000536435583076,0.0001440567852738917
-0.4091683017642936,-0.4091683017642936,1.0000386698588022,0.0001531721523280126
-0.40878626540579716,-0.40878626540579716,1.000164167899484,0.00013753635855505553
-0.40856435798705204,-0.40856435798705204,1.0002226292504712,0.0001402506025403682
-0.40803811107762156,-0.40803811107762156,1.000277147823417,0.00014296050142257005
-0.4075566279971099,-0.4075566279971099,1.0000018513572395,0.00014159774618158764
-0.4065190235764021,-0.4065190235764021,1.000085776862216,0.00014043386619036244
-0.4058802672145248,-0.4058802672145248,1.0002716129698608,0.0001490160040786102
-0.4054360028138035,-0.4054360028138035,1.0000904241342519,0.0001438143092912169
-0.4051622233891976,-0.4051622233891976,0.999930536860691,0.00014732511888766213
-0.4048862367904803,-0.4048862367904803,0.9999366030608361,0.00014311724938741033
-0.404381458429998,-0.404381458429998,1.0001495832686378,0.00014090676545980532
-0.40417632541721105,-0.40417632541721105,1.0000955165914465,0.00014024994027055923
-0.40372842701690387,-0.40372842701690387,0.9999276887834329,0.00014336270367641923
-0.4031435754608538,-0.4031435754608538,1.0000738122894592,0.00013749603435707635
-0.4026504909481446,-0.4026504909481446,0.9999715472735436,0.00014326081141283648
-0.40233696209688785,-0.40233696209688785,1.0000665061052485,0.0001370085438904405
-0.40195697746385123,-0.40195697746385123,1.0000839485801056,0.00014249182974179452
-0.40165374334173976,-0.40165374334173976,1.0002720176170534,0.00014340062292478471
-0.4013058981137874,-0.4013058981137874,1.0000764788494245,0.00014679820352070638
-0.4007307952888368,-0.4007307952888368,1.0001536969451084,0.0001433391911365435
-0.40025652148615337,-0.40025652148615337,1.0000504706752507,0.00014048172432920499
-0.3999899424241448,-0.3999899424241448,1.0001486237421497,0.00014020884237033845
-0.39943797155065114,-0.39943797155065114,1.0000942666613974,0.00014297239950490488
-0.39861937307578044,-0.39861937307578044,1.0000898449560593,0.0001376835419747955
-0.39769483123527605,-0.39769483123527605,0.9999781281688875,0.0001404455156525666
-0.39711100339191036,-0.39711100339191036,1.000057447268227,0.00014655851003582995
-0.39662472951749805,-0.39662472951749805,1.0001266814668703,0.00014624948640445102
-0.3964045262116997,-0.3964045262116997,0.9997913116311586,0.00013752739387808323
-0.3960957994655473,-0.3960957994655473,0.9998661205539751,0.00014349733990271017
-0.3955538892070763,-0.3955538892070763,0.9997275423735321,0.00014012683794783343
-0.39485214423621073,-0.39485214423621073,0.99993484550398,0.00014371137621662782
-0.3941271223819058,-0.3941271223819058,1.0001483116590086,0.000137032210102734
-0.393699305626069,-0.393699305626069,0.9999886238791362,0.00013985835094880298
-0.3933832500690187,-0.3933832500690187,1.0001364958118104,0.00014268833242764073
-0.3931451275420841,-0.3931451275420841,0.9999507195831068,0.00014052120333113443
-0.39272225682507267,-0.39272225682507267,0.9999879337728677,0.00014326487415082745
-0.39228257467548244,-0.39228257467548244,1.000132089274979,0.00014377108922682862
-0.39165580277040135,-0.39165580277040135,1.0000892448672016,0.00014882600126833387
-0.3913084206767962,-0.3913084206767962,1.0000700226074413,0.00013729684162163872
