time,time,flux,flux_err
-0.4997134399218339,-0.4997134399218339,0.9996005053731921,0.0012304042008572324
-0.49946963535148825,-0.49946963535148825,0.9995937355659716,0.0012673077002704999
-0.4990345570883316,-0.4990345570883316,0.9995008927937036,0.0013480121741928839
-0.49877300749540154,-0.49877300749540154,0.9997357955625678,0.0013916566635396145
-0.49850119572729457,-0.49850119572729457,1.0012330906060343,0.001116293472949699
-0.4980763133113214,-0.4980763133113214,0.9998611683306887,0.001226937440887375
-0.4977690665524278,-0.4977690665524278,0.9992926669566279,0.0010869469700114302
-0.49753202196661733,-0.49753202196661733,1.0002461033710242,0.001304103385702664
-0.4972073535238451,-0.4972073535238451,1.00112230869735,0.0012783160100477372
-0.4968847523654404,-0.4968847523654404,0.9997533295832033,0.0012926765416203187
-0.49669430492867833,-0.49669430492867833,0.9992546758692,0.0012781056371808071
-0.4963980790678761,-0.4963980790678761,1.0013355137081905,0.001250656263866719
-0.496124542333564,-0.496124542333564,1.0011285208996488,0.0012623866650290328
-0.49593222819530636,-0.49593222819530636,0.9998073971809049,0.0012180926822688985
-0.49566762856775315,-0.49566762856775315,1.000421373900529,0.0013259600855383103
-0.4954375502369658,-0.4954375502369658,1.002267425954142,0.0009764961505157691
-0.4951772989763413,-0.4951772989763413,1.0003864811668275,0.0012063719639575864
-0.4948815836913127,-0.4948815836913127,1.000542460112,0.0010377593775574058
-0.49456978055750367,-0.49456978055750367,1.0006239413188207,0.0012135465419301455
-0.4944637086642615,-0.4944637086642615,1.0011998363221746,0.0012871583833026262
-0.4941747165968991,-0.4941747165968991,1.0012722951025648,0.0010968341503687221
-0.4937076501744741,-0.4937076501744741,1.0007536484449677,0.00113190079719794
-0.4933653476415202,-0.4933653476415202,1.0009572732499372,0.0012477005777570638
-0.49312712985192775,-0.49312712985192775,1.0003342428981163,0.0012956476651526491
-0.4926929422057583,-0.4926929422057583,1.0009658786048472,0.0012625212256830026
-0.492456665419013,-0.492456665419013,0.998999451895798,0.0011870331443457256
-0.49217681009613445,-0.49217681009613445,0.9994093127179685,0.0013241720247847472
-0.4918641323580232,-0.4918641323580232,1.0003159781538034,0.0012709252311905626
-0.49167800961004104,-0.49167800961004104,1.0004066237866156,0.0013061829599659296
-0.4914857706411567,-0.4914857706411567,0.9995001719223033,0.0010802489730351312
-0.4911890968614898,-0.4911890968614898,0.9980786764771352,0.0014361733174259041
-0.49090375383675566,-0.49090375383675566,1.000406748247247,0.0010546438959118274
-0.4906911517093249,-0.4906911517093249,1.0000796394615745,0.0011825597226361756
-0.4902918780331674,-0.4902918780331674,1.0009898383699303,0.0012863485859958127
-0.4901338586110796,-0.4901338586110796,1.0011646658217894,0.0012500911904637646
-0.4898592145284056,-0.4898592145284056,1.0023544122880952,0.0011928699992326246
-0.4894515342784871,-0.4894515342784871,1.0010210113265858,0.0010705825510014975
-0.48905586903492804,-0.48905586903492804,0.9998306629225994,0.0012426002865978908
-0.4888197569154727,-0.4888197569154727,1.000379686584533,0.0012875874238714754
-0.48859928262609176,-0.48859928262609176,1.0003740394846228,0.001143047504626434
-0.4882615092676133,-0.4882615092676133,1.0004925554381834,0.0012079189146533254
-0.4880929928483965,-0.4880929928483965,1.0015736355037295,0.0011701767408719816
-0.4878071196129895,-0.4878071196129895,0.9994799589404776,0.001245533321421344
-0.48753442295565036,-0.48753442295565036,1.0007865536559875,0.0013205061728380353
-0.4873600408245693,-0.4873600408245693,0.9981979558131384,0.0013162324757103618
-0.48715931229598936,-0.48715931229598936,0.9992575697434303,0.0010803031432204163
-0.48681997163294,-0.48681997163294,0.9983200371020805,0.0017850675407113151
-0.4865882267404231,-0.4865882267404231,0.9997482319717985,0.0009700611236008655
-0.48639939215790945,-0.48639939215790945,0.9991329670750486,0.001181504450796122
-0.4860895545127278,-0.4860895545127278,0.999530136096951,0.0011462466365154476
-0.48586845194586203,-0.48586845194586203,0.999974643175673,0.001264506627029922
-0.48572104357226636,-0.48572104357226636,0.9979526834543695,0.0012552466093289011
-0.4851733302355569,-0.4851733302355569,0.9998303980791313,0.001209007614618908
-0.48470551091086234,-0.48470551091086234,0.9997636371938249,0.0012574267591261182
-0.48446518625642054,-0.48446518625642054,1.0006801364465996,0.0012850354965951388
-0.4840714625875989,-0.4840714625875989,0.9996488142950813,0.0013069649507442022
-0.4838935580315592,-0.4838935580315592,1.000058346256175,0.0012500716415757903
-0.4836376248262241,-0.4836376248262241,1.000602401177075,0.0012381959134307513
-0.48342733297758966,-0.48342733297758966,1.0002795262191841,0.0011920593592362571
-0.48321359531619235,-0.48321359531619235,0.9999454348297185,0.0013315428634841334
-0.48307839504341243,-0.48307839504341243,1.0010048216950822,0.0012814164840420142
-0.4828971579096105,-0.4828971579096105,0.9999695862831285,0.0011012857830456216
-0.4825370696584287,-0.4825370696584287,0.9999578487107813,0.0010435604044999138
-0.48227817378065085,-0.48227817378065085,1.0011148333603006,0.0009712029441195927
-0.482097412852454,-0.482097412852454,1.0017707247702714,0.001100347093827398
-0.48181887511746024,-0.48181887511746024,0.9997794178634243,0.001223099698835921
-0.48150366972913616,-0.48150366972913616,0.9989323644708786,0.0012477657333178056
-0.48134627461768104,-0.48134627461768104,0.9996941782114561,0.0012012200336797819
-0.48095790089282675,-0.48095790089282675,0.9996627242542535,0.0012129913306314093
-0.48052918242974557,-0.48052918242974557,1.0008247396079597,0.0010856730018658637
-0.4801847193404683,-0.4801847193404683,1.0002973666901254,0.0013201529415685185
-0.47999113795667653,-0.47999113795667653,1.0011854117448253,0.001180398600296632
-0.47962524049071364,-0.47962524049071364,1.0004871835820082,0.0012780574719675544
-0.47931029901083094,-0.47931029901083094,1.0018375547717007,0.001350001835314377
-0.4789922390053107,-0.4789922390053107,0.9989941331948238,0.001194832817530015
-0.47880325200094376,-0.47880325200094376,0.9988076761728741,0.0013549248240989013
-0.478634658469673,-0.478634658469673,1.000376999955718,0.0011286208115622736
-0.4784532601632236,-0.4784532601632236,0.9984551484324916,0.0013452523799637518
-0.4780677068090881,-0.4780677068090881,1.0002129732004124,0.0009597190021125808
-0.4777557075067307,-0.4777557075067307,1.0007238504833915,0.001194658861187497
-0.4773972866132681,-0.4773972866132681,0.9998287154380368,0.0012960833989524845
-0.47708043669190375,-0.47708043669190375,1.0001319600841545,0.0012885533880853096
-0.4768956991756568,-0.4768956991756568,1.0003370312441358,0.0011830345983776492
-0.4764899925699865,-0.4764899925699865,1.0006580908347944,0.0011899331141013215
-0.4760951539145026,-0.4760951539145026,0.9989673876592006,0.001243562370567478
-0.47582483940714154,-0.47582483940714154,1.0017447545709497,0.0013024014820375179
-0.47563834802494964,-0.47563834802494964,1.0006132654107074,0.0011192323991667265
-0.4752881118118239,-0.4752881118118239,1.0001771802698767,0.0012434400583000026
-0.47497872090825694,-0.47497872090825694,1.0016895800256673,0.0011903461771039276
-0.47475035055031184,-0.47475035055031184,1.0002176163546594,0.0012841584826245565
-0.4744601879356196,-0.4744601879356196,1.0001971742638887,0.0013237139243493109
-0.47424907638051084,-0.47424907638051084,1.0007492933823048,0.0012437675180245042
-0.4740258002646442,-0.4740258002646442,1.0006189225507867,0.0012383586629259736
-0.4737040739863005,-0.4737040739863005,0.998560361155181,0.0011411530286916318
-0.47338690786637017,-0.47338690786637017,1.0001542874129956,0.0011833911338279429
-0.47303719483243184,-0.47303719483243184,1.0010461281605845,0.0013080338593414872
-0.4727382577046228,-0.4727382577046228,0.9997150453741878,0.0012862721673018017
-0.47250190045451745,-0.47250190045451745,1.0002547508136312,0.0011961323640091168
-0.4720479388415697,-0.4720479388415697,0.9992453002571036,0.0011314767011021917
-0.4716196759727609,-0.4716196759727609,0.9999013429527807,0.0013297864620314508
-0.47142334242380457,-0.47142334242380457,1.0005350067508612,0.0010996126611832126
-0.4710507302377664,-0.4710507302377664,1.000476395598725,0.0012251860961696674
-0.4707141647530079,-0.4707141647530079,0.9998179980902332,0.0012488582610962365
-0.4703008476717514,-0.4703008476717514,1.0007901485012272,0.0012842913350408006
-0.4700327250662667,-0.4700327250662667,1.001004332471182,0.0012053564558058686
-0.4697493941195717,-0.4697493941195717,1.000332756353198,0.0012353977997305871
-0.46943506663665174,-0.46943506663665174,1.0007453970712237,0.0011920337186349516
-0.469143937935587,-0.469143937935587,1.0010018559093363,0.0011903118743850755
-0.4688847782010271,-0.4688847782010271,1.0004603246906612,0.0012391303843064326
-0.46850960786978246,-0.46850960786978246,0.9993064773129456,0.0012579112170727706
-0.4683660455113568,-0.4683660455113568,1.0004740300200332,0.001317173450787757
-0.4680541425528645,-0.4680541425528645,0.9996929086626161,0.001165562481676093
-0.4674989257946436,-0.4674989257946436,1.0011994732939509,0.0012604635919674883
-0.4671239644070738,-0.4671239644070738,1.0009554451311133,0.0012833158138565199
-0.4669124626467237,-0.4669124626467237,0.9992662015570432,0.0011221099127359197
-0.46659699952579103,-0.46659699952579103,1.0005913193501006,0.0012458097921949395
-0.46628604705110777,-0.46628604705110777,1.000523001252358,0.0012886785975504127
-0.4660132990044076,-0.4660132990044076,0.9989776065134611,0.001191870013280377
-0.4657665563907358,-0.4657665563907358,0.9989878824156696,0.001155833373007093
-0.4655317022581585,-0.4655317022581585,1.0008282636244246,0.0012657484146664766
-0.46528676752350295,-0.46528676752350295,1.0007230009315045,0.0010660401407009963
-0.46493080988147995,-0.46493080988147995,1.0018135295817256,0.001185054031235207
-0.4646619680439471,-0.4646619680439471,1.0000531719103924,0.0012061089630491812
-0.4643780643637001,-0.4643780643637001,1.0002536682265761,0.002124330079770629
-0.46417112857598114,-0.46417112857598114,0.9980377298857617,0.001290366445877635
-0.46402742557838794,-0.46402742557838794,1.0001720235213347,0.0013171476049623886
-0.4637799688782252,-0.4637799688782252,1.0006788972690637,0.0011693145683443925
-0.4633913074139855,-0.4633913074139855,1.0001736482019734,0.0012265623898955057
-0.4629504499513132,-0.4629504499513132,0.9999869679076123,0.0012688819377266866
-0.46277743935424953,-0.46277743935424953,0.9987783957173875,0.0011666566580712935
-0.46258882765978343,-0.46258882765978343,1.002015719423936,0.0011293851800606126
-0.4622478913945088,-0.4622478913945088,0.9991607721178081,0.0013103685923112171
-0.46189536330712144,-0.46189536330712144,0.9993601110132936,0.0013089885367620895
-0.4615968162608624,-0.4615968162608624,0.9993522699408771,0.0013208725215817824
-0.46137777026015103,-0.46137777026015103,0.9998920661845044,0.0012050110392552485
-0.46106699041556565,-0.46106699041556565,0.999748761687572,0.0011324987415811973
-0.4607883901298919,-0.4607883901298919,1.000631755783788,0.0011697978943600645
-0.46044550229053127,-0.46044550229053127,0.999795206671935,0.001176969466768817
-0.4601550847124599,-0.4601550847124599,1.0007977246291222,0.002411067112353932
-0.45993989219059583,-0.45993989219059583,1.0000764734466658,0.001151611111459574
-0.4597251813902403,-0.4597251813902403,1.0002010490215638,0.0011352893632338389
-0.45964214045961854,-0.45964214045961854,1.000368059557736,0.0012531304746475358
-0.4593388127752405,-0.4593388127752405,1.00030886688144,0.0011047228312030608
-0.45897440421613284,-0.45897440421613284,0.9997209353490266,0.0012829574773792227
-0.45856951788737205,-0.45856951788737205,0.9994698832189537,0.0013456677111095806
-0.4583956415699504,-0.4583956415699504,0.9997633424809595,0.0011480752021410857
-0.45801114381611113,-0.45801114381611113,1.0010385921021954,0.0012222114767549185
-0.45760131487986655,-0.45760131487986655,1.0000077486559058,0.0013091240897928692
-0.45730931328143926,-0.45730931328143926,1.0004550484876535,0.001208639756937347
-0.4571677349747915,-0.4571677349747915,1.002198847146889,0.0012734445926227008
-0.4569334393781901,-0.4569334393781901,1.0000313138838934,0.0012492072724632221
-0.4567081778179272,-0.4567081778179272,0.999561489627047,0.0010478274660246948
-0.4563793609566346,-0.4563793609566346,0.9991131445628338,0.0011682230865766728
-0.45600410886836473,-0.45600410886836473,0.9998361046354283,0.0012678034748624658
-0.4555739097449987,-0.4555739097449987,1.0024818562835023,0.0024605944470853683
-0.45535271348271633,-0.45535271348271633,1.0004459427945125,0.0011996062563587044
-0.45502046769543086,-0.45502046769543086,1.0014589969204464,0.001189820074387628
-0.45471678724425146,-0.45471678724425146,0.9997418442519501,0.0011660642309512378
-0.4543756834209489,-0.4543756834209489,1.0012347764672562,0.001381625966430266
-0.4541160742861393,-0.4541160742861393,1.0001430550528967,0.001166704302536194
-0.4539689106444712,-0.4539689106444712,1.000419091267052,0.0010682909533027431
-0.45367784201007455,-0.45367784201007455,1.0005045108031019,0.0013282258016473042
-0.4533980225038249,-0.4533980225038249,0.9991012238814683,0.0012129595459292025
-0.4530312858551042,-0.4530312858551042,1.0011744281433912,0.001310023517320816
-0.45287847915824386,-0.45287847915824386,0.9991471060751428,0.0013196771025396476
-0.4526222008644254,-0.4526222008644254,0.9990990212421711,0.0011242748499571253
-0.4524178685285733,-0.4524178685285733,0.9996225528957806,0.0011163384464677232
-0.45217537254211493,-0.45217537254211493,1.000542311331911,0.0013164903030715785
-0.45171802455442955,-0.45171802455442955,1.0007864262345152,0.0012673039094503833
-0.45137706045788945,-0.45137706045788945,0.9983537303236091,0.0026756946515408006
-0.4511076767237682,-0.4511076767237682,0.9999546217669874,0.001118438243381637
-0.4508497708789946,-0.4508497708789946,0.9991430678639022,0.0012563232150737732
-0.45042528378908175,-0.45042528378908175,1.0005546051745948,0.0012231588079599158
-0.44985485470751885,-0.44985485470751885,0.9999030351230302,0.0013030135624555884
-0.4496850568699301,-0.4496850568699301,1.0009632952004561,0.001151450327345941
-0.4493957132093783,-0.4493957132093783,1.0007197075845489,0.0011436265439812617
-0.449128255234973,-0.449128255234973,1.0012173849098587,0.0011526711353162286
-0.4488880140102992,-0.4488880140102992,1.0011678685619003,0.0011950947266708071
-0.4486677753069671,-0.4486677753069671,1.0006128207856957,0.001318213667173553
-0.4484886340964295,-0.4484886340964295,1.0001478941537194,0.0012966086800657247
-0.44820095416216643,-0.44820095416216643,0.9999025730937241,0.001178002146334795
-0.4479915573647304,-0.4479915573647304,1.0019001265965315,0.0011604836192180969
-0.4476714246586198,-0.4476714246586198,0.999427628330084,0.0011829606884239808
-0.4472386494417151,-0.4472386494417151,1.0009237845635712,0.0013253252926271812
-0.44678238039196005,-0.44678238039196005,1.0002113946675188,0.0011181642040197291
-0.4465158549930493,-0.4465158549930493,1.0016453579117235,0.0012954603691167816
-0.44616378775826887,-0.44616378775826887,1.0000210400980638,0.0011256790357276037
-0.44568665125625556,-0.44568665125625556,0.9993180465603558,0.0012610047279148914
-0.4454130397134577,-0.4454130397134577,0.9996793841657963,0.0012820752848948797
-0.4451408940869442,-0.4451408940869442,1.0005939873404266,0.0010477519720914583
-0.4449003250359965,-0.4449003250359965,0.9998772092767085,0.0012389291092156165
-0.4445203790186497,-0.4445203790186497,0.9989120299055487,0.0012711902974686243
-0.44431473246295355,-0.44431473246295355,1.0001183685569184,0.0013340456551643382
-0.44409391851950203,-0.44409391851950203,0.9995634007308103,0.001275603643672347
-0.44386939002215514,-0.44386939002215514,0.9985329590661273,0.0012241499686949009
-0.443681768092938,-0.443681768092938,1.0017619472699186,0.0010982922434720804
-0.4433525058440864,-0.4433525058440864,1.0007244286879806,0.0012490947750166718
-0.4429388319629652,-0.4429388319629652,0.9993497070529633,0.001292290736163975
-0.44272317122668026,-0.44272317122668026,0.998620036829102,0.0010323639047732885
-0.44237024727626706,-0.44237024727626706,0.9995174294638639,0.0012010889063020188
-0.4420099823408236,-0.4420099823408236,0.9996760580665904,0.0012760125969255597
-0.4415711984765949,-0.4415711984765949,0.9980533748386268,0.001182517805425765
-0.44115517308891866,-0.44115517308891866,0.9998814841128925,0.0012801442779671354
-0.4409617617471667,-0.4409617617471667,1.000289682746774,0.0012269046737823732
-0.44065001570852474,-0.44065001570852474,1.00049719800774,0.0012264332506227642
-0.44034243285423147,-0.44034243285423147,0.9994508125340271,0.0011322474358858507
-0.4400874893850414,-0.4400874893850414,0.9990112255116083,0.0012998781091538006
-0.439937996075605,-0.439937996075605,1.0003956956970694,0.0013085311085034414
-0.43960200059373167,-0.43960200059373167,0.9990142403594013,0.0012831586136231774
-0.4393479560807464,-0.4393479560807464,0.9989761635858055,0.001211487308628938
-0.43890963334924893,-0.43890963334924893,1.0011402821423212,0.0012451668787809814
-0.4382686007564189,-0.4382686007564189,0.9980607853425756,0.0011307345270549142
-0.43798300583148375,-0.43798300583148375,0.9994758951499151,0.001271789184761696
-0.4377387222411926,-0.4377387222411926,1.0010148638346357,0.0012565185141797143
-0.43748141141768426,-0.43748141141768426,1.0004610810122245,0.001198267572921315
-0.4371834227626096,-0.4371834227626096,0.9993960813944398,0.0011709779470125894
-0.4368229162086209,-0.4368229162086209,1.0007055401792537,0.0012923371442983517
-0.43663035791832955,-0.43663035791832955,1.0012308733952748,0.0011514788988562182
-0.43632488756993554,-0.43632488756993554,0.9998121247209675,0.001153463190249986
-0.43598058098068576,-0.43598058098068576,0.999123119304506,0.001195305010103193
-0.4357748496411659,-0.4357748496411659,1.0010435457156868,0.001426892328789959
-0.43565555622044483,-0.43565555622044483,1.001916733809021,0.0013366932886495092
-0.4353656675601087,-0.4353656675601087,1.0010822751241906,0.0012208237538784482
-0.4351588519057259,-0.4351588519057259,1.0003880941095502,0.0012115355245514812
-0.43502744261495535,-0.43502744261495535,1.000241377180425,0.00116213619523907
-0.4347556719301792,-0.4347556719301792,1.000223216260574,0.0012608492734545453
-0.4344037358649075,-0.4344037358649075,1.0009686471879753,0.0011326721236918802
-0.4339977865362016,-0.4339977865362016,0.9994645271526696,0.0011235515566168403
-0.4336649907003448,-0.4336649907003448,1.0000279073739615,0.0012678547868952886
-0.433396232490486,-0.433396232490486,1.0003556175799995,0.0012585489451687546
-0.4330630397707864,-0.4330630397707864,1.0011623017205011,0.0011751740684274796
-0.43254535373635006,-0.43254535373635006,1.0005419665014894,0.0013062102939190127
-0.4323062292300165,-0.4323062292300165,1.0001456976318894,0.0012303834581719397
-0.43202922314667375,-0.43202922314667375,1.0014272017324852,0.0012086562381116717
-0.43162943871793685,-0.43162943871793685,1.0004068157143646,0.0013604117225932114
-0.4313854280866508,-0.4313854280866508,0.9991598892850823,0.001378623939487296
-0.43110579691056045,-0.43110579691056045,1.000182014779696,0.0012070461096574594
-0.4308493403623288,-0.4308493403623288,0.9997322256226496,0.0012109784088709201
-0.4306306403064809,-0.4306306403064809,1.0008052033297696,0.0013277148210775844
-0.43016927429926,-0.43016927429926,1.0001512679142652,0.0010668814237099957
-0.42975558882244513,-0.42975558882244513,1.0002807159414295,0.001204234178666457
-0.4294062573870178,-0.4294062573870178,0.9998897580074321,0.0011279824449359605
-0.4291910527048458,-0.4291910527048458,1.001473928170889,0.0012697021519598593
-0.4288081135964603,-0.4288081135964603,0.9998649193862688,0.0011904215087403308
-0.4282983761120704,-0.4282983761120704,0.9999915893938424,0.0012746714704055266
