time,time,flux,flux_err
-0.49958789721616387,-0.49958789721616387,0.9999659584556179,7.273528619933036e-05
-0.4990163657712401,-0.4990163657712401,1.0001154624954107,7.157054205275878e-05
-0.49873551695115265,-0.49873551695115265,1.0000320652112877,7.25824337400859e-05
-0.4979993483568251,-0.4979993483568251,0.9999769037218827,6.641220920685411e-05
-0.4974549541962915,-0.4974549541962915,0.9999970588955593,6.651423158844279e-05
-0.49686796686801243,-0.49686796686801243,1.000031774507428,6.607306395226646e-05
-0.49637560723422214,-0.49637560723422214,1.0001017274675026,6.59442923152505e-05
-0.4958524222834967,-0.4958524222834967,1.0000839841371876,6.733230114205302e-05
-0.49540788288068144,-0.49540788288068144,0.9999872057355418,6.672823264513585e-05
-0.49515806467970835,-0.49515806467970835,1.0000137948216308,6.632924527503429e-05
-0.4948224513173045,-0.4948224513173045,0.9999713332185071,6.761492657059531e-05
-0.4943323716368468,-0.4943323716368468,0.9998992608498274,6.615326606303299e-05
-0.49405554648619726,-0.49405554648619726,1.0000307449376373,6.647107615892312e-05
-0.49361802789499054,-0.49361802789499054,1.0000502336543413,6.746380154207062e-05
-0.49300459478108677,-0.49300459478108677,0.9999008571871985,6.673983698691536e-05
-0.492256023761729,-0.492256023761729,0.9999704540307166,6.68330823811926e-05
-0.49187038781165027,-0.49187038781165027,0.9999765528314868,6.611254240898067e-05
-0.4912189204405877,-0.4912189204405877,1.0000276239694796,6.65212607869712e-05
-0.4906452008726774,-0.4906452008726774,0.9999858037783603,6.59420476707422e-05
-0.490363089969469,-0.490363089969469,0.9999890865670638,6.560538481260246e-05
-0.4901424401155964,-0.4901424401155964,0.9999859122018139,6.668007718976327e-05
-0.48948283919016833,-0.48948283919016833,0.9998953572151722,6.626064737027992e-05
-0.48904590127203845,-0.48904590127203845,1.0000681603512453,6.663798262354965e-05
-0.4883681404760864,-0.4883681404760864,1.0000741193502773,6.70559897023389e-05
-0.4877222714450909,-0.4877222714450909,1.000013319380367,6.591784954940398e-05
-0.48736230206341136,-0.48736230206341136,1.0000313073242448,6.732986502386479e-05
-0.48690397197206037,-0.48690397197206037,0.99994885948384,6.670135431722192e-05
-0.4865969455386221,-0.4865969455386221,1.0000282395684177,6.615191715772888e-05
-0.48627185738296247,-0.48627185738296247,1.0000319823261026,6.77688104957038e-05
-0.48574128582986303,-0.48574128582986303,0.9999794067321371,6.676223865511535e-05
-0.48540740723692577,-0.48540740723692577,0.9999982900181686,6.578410084440992e-05
-0.4846865106737823,-0.4846865106737823,1.0000093309922016,6.630242562402348e-05
-0.4839474019951012,-0.4839474019951012,0.9999786032210366,6.642023060332106e-05
-0.4834202854821342,-0.4834202854821342,1.0000015922663177,6.693884159270267e-05
-0.4830972242518328,-0.4830972242518328,1.0001701429155883,6.664217614356783e-05
-0.48245501646597405,-0.48245501646597405,1.000116184029677,6.649756750366296e-05
-0.4819165846609394,-0.4819165846609394,1.000114349492249,6.569619033725984e-05
-0.4816971149826713,-0.4816971149826713,1.0001124041686036,6.597646143544146e-05
-0.4814952659966366,-0.4814952659966366,1.0000467231522765,6.672048108577732e-05
-0.4808150800869043,-0.4808150800869043,0.9998707350164511,6.65708614368535e-05
-0.4805197973444592,-0.4805197973444592,1.000015679841722,6.638803928430046e-05
-0.4799550204188563,-0.4799550204188563,1.0000844775233855,6.751563445528427e-05
-0.47950737679348093,-0.47950737679348093,1.0000691500068772,6.671141521196445e-05
-0.4792093087307876,-0.4792093087307876,0.9999891373938097,6.621744432602054e-05
-0.478820471567451,-0.478820471567451,1.0001230425516259,6.729673283509091e-05
-0.4784693053588853,-0.4784693053588853,1.0000510276105037,6.613425422058305e-05
-0.4781093406840228,-0.4781093406840228,1.0000822455802463,6.696053775754978e-05
-0.47752814277482686,-0.47752814277482686,1.0000465382660404,6.770499267290416e-05
-0.4770934785934514,-0.4770934785934514,1.0000424213587145,6.705088659183802e-05
-0.4769179840121069,-0.4769179840121069,0.9999859842195548,6.513812385225981e-05
-0.47627574837388237,-0.47627574837388237,1.000001714392361,6.570337857898919e-05
-0.47571157114361995,-0.47571157114361995,0.9999725295443724,6.659754592686421e-05
-0.4749653543731256,-0.4749653543731256,1.0000519313330074,6.686836116531875e-05
-0.47437872853479346,-0.47437872853479346,1.000156086224384,6.672689090250955e-05
-0.47341547662508676,-0.47341547662508676,0.9999222979770324,6.487252160460535e-05
-0.4731633842769952,-0.4731633842769952,1.0000526640168688,6.6004286915897e-05
-0.47289573987800393,-0.47289573987800393,1.00005837088686,6.64820083741605e-05
-0.4721824985193962,-0.4721824985193962,0.9999863382778191,6.672317603466202e-05
-0.47169264049662163,-0.47169264049662163,1.0000586242164482,6.67951162908598e-05
-0.4711841851181816,-0.4711841851181816,0.9999906835910405,6.748909578168375e-05
-0.47078836697692167,-0.47078836697692167,0.9998811277058207,6.617399149881567e-05
-0.4703629838528286,-0.4703629838528286,1.0000081206862976,6.644093252018068e-05
-0.4699524700277834,-0.4699524700277834,0.9999216362778173,6.724504255769578e-05
-0.46962995454741757,-0.46962995454741757,1.0000198574084223,6.575340766373796e-05
-0.4693991612337413,-0.4693991612337413,1.0000252871989503,6.786053380647495e-05
-0.4687098312177113,-0.4687098312177113,0.9999693543186403,6.676100941626782e-05
-0.4683822932376643,-0.4683822932376643,1.0001011601043432,6.631644207397001e-05
-0.46778665750753134,-0.46778665750753134,1.0001214165388679,6.594043601505206e-05
-0.4672417966023204,-0.4672417966023204,1.0000311222123852,6.633396057955094e-05
-0.466731248342694,-0.466731248342694,0.999978905997084,6.659046618320136e-05
-0.4662351314371335,-0.4662351314371335,0.9999093748502486,6.671668739270233e-05
-0.46561824601449187,-0.46561824601449187,1.0001267779518572,6.63899122797434e-05
-0.464965878064686,-0.464965878064686,0.9999262576769213,6.641803020630217e-05
-0.46472668643837095,-0.46472668643837095,0.9999111444744437,6.553782328592422e-05
-0.4645145567388681,-0.4645145567388681,1.0000983220679127,6.631788364669395e-05
-0.46383510639934683,-0.46383510639934683,1.000086803729921,6.683272301995924e-05
-0.4634835225333518,-0.4634835225333518,1.00001646410934,6.603563224937987e-05
-0.46301029547394135,-0.46301029547394135,0.9998611179289325,6.765590295989337e-05
-0.462504805350909,-0.462504805350909,0.9999875152020239,6.619379309792404e-05
-0.4620709298294969,-0.4620709298294969,1.0000010625882392,6.643877587329743e-05
-0.46165144993938156,-0.46165144993938156,1.0000074226625792,6.7051463352525e-05
-0.4611689657867828,-0.4611689657867828,1.0001286944316137,6.667722320059361e-05
-0.4609841549514385,-0.4609841549514385,1.0000732779530135,6.589447896561825e-05
-0.4606563543820812,-0.4606563543820812,1.0000981892920382,6.684651893978241e-05
-0.46007010664616244,-0.46007010664616244,0.9999959205601712,6.721212976528507e-05
-0.45975245415902466,-0.45975245415902466,0.9999286017811354,6.588297562739565e-05
-0.45915067693858874,-0.45915067693858874,0.9997379492631971,6.669100424010797e-05
-0.4587386724168027,-0.4587386724168027,1.000030367916306,6.703130116649608e-05
-0.45796982244282847,-0.45796982244282847,1.0000443339550802,6.683870065947441e-05
-0.457442425955378,-0.457442425955378,1.0000481870198388,6.551026238451331e-05
-0.45675600115355336,-0.45675600115355336,0.9999750714285854,6.72335718639968e-05
-0.45611513010371707,-0.45611513010371707,0.9999472268196475,6.582950659729918e-05
-0.4558769297640538,-0.4558769297640538,1.0000244291360683,6.65667715086124e-05
-0.45515589907736287,-0.45515589907736287,1.0001033345430692,6.675550300422271e-05
-0.4548073987774842,-0.4548073987774842,0.9999265874475318,6.710459465479474e-05
-0.4541883386336849,-0.4541883386336849,1.000139264615591,6.725353627210887e-05
-0.45379981438891265,-0.45379981438891265,1.0000068022309605,6.687802674679977e-05
-0.4534756480010401,-0.4534756480010401,0.9999446248057302,6.614080285317686e-05
-0.45301480396374244,-0.45301480396374244,0.9998600418658021,6.773541283224491e-05
-0.4526334436362959,-0.4526334436362959,1.0000389561437362,6.584081018477469e-05
-0.45244243663400996,-0.45244243663400996,0.9999098823359247,6.698138662693425e-05
-0.4522059129434638,-0.4522059129434638,1.000040554943791,6.674812930857254e-05
-0.4515929012093693,-0.4515929012093693,0.9999161983649293,6.632836454119418e-05
-0.4511627747604507,-0.4511627747604507,1.0001201637361157,6.697119506839913e-05
-0.45035167452297176,-0.45035167452297176,1.0000429314342967,6.685154758132123e-05
-0.44947239793254995,-0.44947239793254995,1.0000968379946578,6.703998332241829e-05
-0.44902519542956726,-0.44902519542956726,1.0000105126754195,6.60238037860413e-05
-0.44861995875398863,-0.44861995875398863,1.0000046958689972,6.731332484582461e-05
-0.44813368106479173,-0.44813368106479173,0.9999544928810817,6.818249814033827e-05
-0.4476213268884749,-0.4476213268884749,1.00000522227947,6.608200299774736e-05
-0.4473865397325426,-0.4473865397325426,1.000047323826549,6.632688954112656e-05
-0.4467316073729307,-0.4467316073729307,0.9998219510926131,6.67054430857445e-05
-0.4461354512692196,-0.4461354512692196,1.0001267745851623,6.6121295997554e-05
-0.44560886263789146,-0.44560886263789146,1.00001493925279,6.712172342539393e-05
-0.44518676723891987,-0.44518676723891987,1.0000833941301808,6.683946539272673e-05
-0.44488872218571485,-0.44488872218571485,1.000050961228139,6.562850072535631e-05
-0.44450022481687484,-0.44450022481687484,0.9999271705500202,6.710518534892948e-05
-0.44409105866070603,-0.44409105866070603,0.9999454416710829,6.674998576990405e-05
-0.44395605141253325,-0.44395605141253325,1.0000028611980052,6.6411246571586e-05
-0.44380898363087906,-0.44380898363087906,1.000036511575868,6.57392885683905e-05
-0.44355109161915607,-0.44355109161915607,1.0000074903688734,6.680143714009365e-05
-0.44307243192597523,-0.44307243192597523,1.0000112254742812,6.690197088494738e-05
-0.44273144207909354,-0.44273144207909354,0.9998888406432567,6.693380054911707e-05
-0.44222441235833687,-0.44222441235833687,1.000004038176355,6.648598728323146e-05
-0.441612798897404,-0.441612798897404,0.9999742616101492,6.632863828038947e-05
-0.4409942549180414,-0.4409942549180414,1.000049210255662,6.616377676919467e-05
-0.44042427104504894,-0.44042427104504894,0.9999374788818797,6.690411586293273e-05
-0.4400437944015721,-0.4400437944015721,0.9999835455340321,6.730477149438619e-05
-0.4394834456805256,-0.4394834456805256,1.000028407629389,6.724987529740356e-05
-0.43891417104096037,-0.43891417104096037,1.0000321798747651,6.633840124050644e-05
-0.4387120480540034,-0.4387120480540034,1.0000118849456705,6.612658545126145e-05
-0.43808032736342284,-0.43808032736342284,0.9999281702686865,6.6899506356588e-05
-0.4375133787303639,-0.4375133787303639,0.9999709950900396,6.592815067026708e-05
-0.43706083989527544,-0.43706083989527544,1.0001444439711844,6.690946536983841e-05
-0.43676867011599824,-0.43676867011599824,0.999957731499806,6.689805669661738e-05
-0.4364939653984038,-0.4364939653984038,0.9999959650859763,6.599991561448326e-05
-0.43611406041964074,-0.43611406041964074,1.0001354810629106,6.671060277686998e-05
-0.4358383803693869,-0.4358383803693869,1.0001077792820579,6.652847750375047e-05
-0.4355149063354474,-0.4355149063354474,1.0003747394268865,6.58089544435397e-05
-0.4353436406177934,-0.4353436406177934,1.0002373365235444,6.673738136229563e-05
-0.4351013121107826,-0.4351013121107826,1.0000943369763273,6.643518152426914e-05
-0.4344946907825943,-0.4344946907825943,1.0000250976777845,6.608294129266702e-05
-0.4341718753435998,-0.4341718753435998,0.9999856291807788,6.693308588948991e-05
-0.4336935243489279,-0.4336935243489279,0.9998992807015338,6.64204778500422e-05
-0.4329068967839703,-0.4329068967839703,0.9999880788939229,6.607482949134514e-05
-0.43232272488312445,-0.43232272488312445,1.0000126042996158,6.629898711728931e-05
-0.43201922183216085,-0.43201922183216085,1.000126352125703,6.719138119033616e-05
-0.4315633690588584,-0.4315633690588584,1.0000360178100038,6.637986835064254e-05
-0.43097574817511486,-0.43097574817511486,0.9999113074000852,6.645544692769539e-05
-0.43036538125161317,-0.43036538125161317,1.0000177386663514,6.592430002586192e-05
-0.4302580322626454,-0.4302580322626454,0.9999611312186014,6.746422983989899e-05
-0.4299353727081325,-0.4299353727081325,1.0000823788631115,6.665629455139049e-05
-0.4295287515044038,-0.4295287515044038,0.9999927501106525,6.691607798509848e-05
-0.42900083889689994,-0.42900083889689994,1.0000245142825217,6.669606347005006e-05
-0.42848031086832633,-0.42848031086832633,1.000028725448909,6.727075780695069e-05
-0.42817772401103865,-0.42817772401103865,1.0001477479007772,6.634152837360838e-05
-0.4279096903730533,-0.4279096903730533,0.9999241236198386,6.619947668785355e-05
-0.42755428709788246,-0.42755428709788246,1.0000155353753006,6.748769766481429e-05
-0.4271801410308399,-0.4271801410308399,0.9999751849642085,6.579256111676683e-05
-0.4268923230934888,-0.4268923230934888,1.0001483446916182,6.691813691295797e-05
-0.4266625646108878,-0.4266625646108878,0.9998851224639995,6.536500651331722e-05
-0.4262765569561452,-0.4262765569561452,1.0000918716636655,6.691326087239553e-05
-0.42581493576435603,-0.42581493576435603,1.0000013183928593,6.636585347256735e-05
-0.4255137479318364,-0.4255137479318364,0.9999626997117301,6.640242058571635e-05
-0.4248758798094059,-0.4248758798094059,1.0001038530668276,6.69500417737683e-05
-0.4242076395916229,-0.4242076395916229,1.000012866276188,6.672832379790528e-05
-0.42375335146934956,-0.42375335146934956,1.000185582525328,6.631692431807979e-05
-0.42341084610015967,-0.42341084610015967,1.0000139187917993,6.656982275317075e-05
-0.4228389017713198,-0.4228389017713198,1.0000279619747394,6.745597897978768e-05
-0.4221402635004779,-0.4221402635004779,0.9999393452185433,6.636146508086393e-05
-0.42180955084550076,-0.42180955084550076,0.9999268912891767,6.586941120746055e-05
-0.42164641773779293,-0.42164641773779293,0.9999623554302369,6.751285466058841e-05
-0.42098091202569776,-0.42098091202569776,1.000097482771924,6.667977239976934e-05
-0.4203971971437568,-0.4203971971437568,1.0002307913482016,6.586179878189684e-05
-0.41993597895561835,-0.41993597895561835,1.000013716133452,6.768037543762863e-05
-0.4196645564159553,-0.4196645564159553,0.9999420640251678,6.693345814132218e-05
-0.4193045888619963,-0.4193045888619963,1.000043832474764,6.645508817812272e-05
-0.4189501043591008,-0.4189501043591008,0.9999557160580166,6.753010345646064e-05
-0.41856969388463766,-0.41856969388463766,0.9999899258576267,6.658632501148908e-05
-0.41827874803275333,-0.41827874803275333,0.9999740022602301,6.62009531952601e-05
-0.41811840735244915,-0.41811840735244915,0.9999202338216573,6.494573795439706e-05
-0.41782585966575425,-0.41782585966575425,1.0000158406981836,6.699485451681731e-05
-0.4173702845509979,-0.4173702845509979,0.9999190212813078,6.61027593770339e-05
-0.41699256622378017,-0.41699256622378017,1.000032581766249,6.680377135450354e-05
-0.41664859417142,-0.41664859417142,1.0000023094561166,6.6458358318007e-05
-0.4161218732049747,-0.4161218732049747,1.000046861440109,6.76417170326427e-05
-0.4157151811014046,-0.4157151811014046,0.9999868058898995,6.60407532456774e-05
-0.4153702030358545,-0.4153702030358545,0.9999218902532467,6.742441896811797e-05
-0.4148048873357766,-0.4148048873357766,1.0001069639526168,6.565759258816095e-05
-0.4144168650418578,-0.4144168650418578,0.9999538525372295,6.653381617595186e-05
-0.41408515030852866,-0.41408515030852866,1.0000798570910052,6.681150775359678e-05
-0.4135825646924786,-0.4135825646924786,0.9998947819957953,6.608945860922817e-05
-0.41313450527959505,-0.41313450527959505,1.00014663673086,6.734854924785838e-05
-0.4124312122592528,-0.4124312122592528,0.9999888106277197,6.668926537987075e-05
-0.41190494431211844,-0.41190494431211844,1.0002931598050622,6.579537390085173e-05
-0.4114955350385571,-0.4114955350385571,1.000062350761191,6.783847958040947e-05
-0.4112525888936943,-0.4112525888936943,1.0001413682123574,6.703179185810277e-05
-0.4108664425490133,-0.4108664425490133,0.9999835639271997,6.717102559061529e-05
-0.41058072301893844,-0.41058072301893844,1.0000830591302186,6.683148646782784e-05
-0.4102915718882286,-0.4102915718882286,0.9999714863304874,6.826321975364662e-05
-0.4098273125884589,-0.4098273125884589,1.0001255950566936,6.541042256138572e-05
-0.4095838306406222,-0.4095838306406222,1.0000178319357982,6.667213220349982e-05
-0.40941984412056626,-0.40941984412056626,0.999859016164133,6.609440273931342e-05
-0.4089818469823513,-0.4089818469823513,0.9999518817661874,6.703259902081652e-05
-0.40852907512380626,-0.40852907512380626,1.0000172791314015,6.674324889422234e-05
-0.40798588863326585,-0.40798588863326585,0.9999893970724825,6.578690074642284e-05
-0.40758637529797853,-0.40758637529797853,1.0001493808796427,6.736955216240831e-05
-0.40723628608247964,-0.40723628608247964,0.9999936089760955,6.663408803294615e-05
-0.40681014613146543,-0.40681014613146543,1.0000098677319493,6.618999837527461e-05
-0.40645002400051455,-0.40645002400051455,0.9999943520411186,6.641526506618388e-05
-0.4058750907308422,-0.4058750907308422,1.0000633533238752,6.63319941264493e-05
-0.4057669909132528,-0.4057669909132528,0.999906779545702,6.714467901548883e-05
-0.40546734400486456,-0.40546734400486456,1.0000744878426138,6.622763623485159e-05
-0.4050578064205183,-0.4050578064205183,1.0000499594768981,6.695338600602331e-05
-0.4046960899439,-0.4046960899439,1.0000372279753174,6.588028371106578e-05
-0.4043708074801543,-0.4043708074801543,1.0000450767425526,6.69561549351086e-05
-0.40382892733978226,-0.40382892733978226,0.999965527470683,6.643242361684895e-05
-0.40328306054725543,-0.40328306054725543,1.0000732948872035,6.621211629452262e-05
-0.40300660313951087,-0.40300660313951087,1.0001454233968985,6.736122520060733e-05
-0.40274647712139994,-0.40274647712139994,1.0000836746788966,6.708152250932265e-05
-0.40237588425443394,-0.40237588425443394,1.0000122877013955,6.746342490067122e-05
-0.4020832169248024,-0.4020832169248024,1.0000271073586384,6.722151511012748e-05
-0.40165254906314657,-0.40165254906314657,0.9999557179153002,6.805025071165096e-05
-0.4012089362084225,-0.4012089362084225,1.000121539897303,6.602917411489728e-05
-0.4010005733383878,-0.4010005733383878,1.00012609829932,6.630320850676745e-05
-0.40082382992186466,-0.40082382992186466,0.9999919209594417,6.625867133792942e-05
-0.4003442504486884,-0.4003442504486884,1.0000024302439043,6.644307015749806e-05
-0.39993771178706083,-0.39993771178706083,1.0000477446333462,6.675245018492155e-05
-0.3995125805711723,-0.3995125805711723,0.9999890601826944,6.672198061069834e-05
-0.39901015037467,-0.39901015037467,1.000101784038133,6.689791973425506e-05
-0.39858530180572416,-0.39858530180572416,1.0000382994796464,6.658221002149224e-05
-0.397849322156253,-0.397849322156253,0.999956604046454,6.610447296689274e-05
-0.39730453857409886,-0.39730453857409886,1.000061867433732,6.66466744489789e-05
-0.3971195434256515,-0.3971195434256515,1.0000606413546915,6.704374398227673e-05
-0.3965424912254093,-0.3965424912254093,0.9999678238266411,6.647600788902257e-05
-0.39611380433634624,-0.39611380433634624,1.0001141971027425,6.664956453273881e-05
-0.3956930725093116,-0.3956930725093116,0.9999991628564195,6.659307832213073e-05
-0.39492408382720895,-0.39492408382720895,1.0000273969414404,6.619466033646709e-05
-0.39446986479233603,-0.39446986479233603,1.0000585830782445,6.708353895132138e-05
-0.3941495394414233,-0.3941495394414233,0.9999747189101571,6.715625924177714e-05
-0.3937645036872709,-0.3937645036872709,0.999967566497358,6.672655497097401e-05
-0.3934671597642591,-0.3934671597642591,0.999987637354282,6.785399936142019e-05
-0.3928367740016256,-0.3928367740016256,1.000041651003454,6.680770548650708e-05
-0.3924156706547365,-0.3924156706547365,1.0000327129316464,6.596912226924302e-05
-0.3919403175445041,-0.3919403175445041,0.9999816504188545,6.683039422939511e-05
