time,time,flux,flux_err
-0.49914177288944,-0.49914177288944,0.9970423696191474,0.003873488713456921
-0.4974615083271298,-0.4974615083271298,0.9978495692863328,0.0037642539059654567
-0.4958868326175434,-0.4958868326175434,0.9944112492187575,0.003810610729267346
-0.49441917672374985,-0.49441917672374985,1.0010351245702158,0.003482002060068031
-0.4931278765892785,-0.4931278765892785,0.9944023188786636,0.00351750453311797
-0.49071564677069546,-0.49071564677069546,0.999383603270857,0.003521980875190989
-0.48989347040769643,-0.48989347040769643,1.0032950447816953,0.003464609276361652
-0.48875560784945266,-0.48875560784945266,0.9940301574369075,0.003528924600540302
-0.488318447083293,-0.488318447083293,0.9947002399634653,0.0034731429065966357
-0.4873117895105679,-0.4873117895105679,0.9972865433435517,0.0034943569933767577
-0.48625246176088693,-0.48625246176088693,0.9937509570380282,0.00360272243735432
-0.4840215003117919,-0.4840215003117919,1.0017479498138822,0.003495863559538198
-0.4828088249087159,-0.4828088249087159,1.0002193390032137,0.003465237658831727
-0.48125451264422736,-0.48125451264422736,0.998082890668074,0.0034429509608684466
-0.4796311945312482,-0.4796311945312482,0.9924894014149153,0.0034889579740367896
-0.47875163487988176,-0.47875163487988176,0.994475273394329,0.0034783875331157606
-0.4776378736314655,-0.4776378736314655,0.9986577417635998,0.003432278790702392
-0.4767618875681364,-0.4767618875681364,1.0011943615458814,0.0036148431384758913
-0.4749805259256391,-0.4749805259256391,0.9961071152386708,0.003494739156378881
-0.47358367309789173,-0.47358367309789173,1.0039406154928237,0.003460447597693524
-0.4723565371765289,-0.4723565371765289,0.9998348982306329,0.003476348498576877
-0.47170063004668916,-0.47170063004668916,0.997023080139817,0.0035629281910082252
-0.47095328098075695,-0.47095328098075695,1.0006062769522417,0.003539655451408278
-0.46984513066709044,-0.46984513066709044,1.0014731236931176,0.003517146924300058
-0.4672585870408511,-0.4672585870408511,1.0014514193736925,0.0034628480659499505
-0.4660556530499889,-0.4660556530499889,1.000970365606109,0.003481873037322526
-0.46440436010088887,-0.46440436010088887,1.0108794808109942,0.0034441241578020655
-0.4625924524851143,-0.4625924524851143,1.0033253063425251,0.0034902238592294647
-0.4612096106706304,-0.4612096106706304,1.002054342432243,0.0034418077322093676
-0.4599761287383444,-0.4599761287383444,1.0017572303271145,0.003577241016994432
-0.4578759115647699,-0.4578759115647699,0.9968705152964098,0.0034694778043021014
-0.45630038258823336,-0.45630038258823336,1.002840374873991,0.003465747317482209
-0.45492851051385513,-0.45492851051385513,0.9956590660050099,0.0036005581388831496
-0.45415176089009035,-0.45415176089009035,0.9977268112039848,0.0035454355759718106
-0.45306080327791276,-0.45306080327791276,1.003402502588792,0.0034878290790803152
-0.4505046869715443,-0.4505046869715443,1.000711217793469,0.003559437477712586
-0.4481305071429233,-0.4481305071429233,1.000309231096927,0.0034751838837139997
-0.4467190130650124,-0.4467190130650124,1.003366783224029,0.003583412608722221
-0.44530303593055576,-0.44530303593055576,1.0070613153959511,0.00346756351849586
-0.44442475312316676,-0.44442475312316676,0.9994011825599637,0.003556892556832905
-0.4435235836346692,-0.4435235836346692,0.9980613047549663,0.003466535719864308
-0.44197405468366924,-0.44197405468366924,0.9993487730369335,0.003513455837046107
-0.4402362642693333,-0.4402362642693333,1.000000198410449,0.0034601715773916603
-0.43925859225564634,-0.43925859225564634,1.0056656282336647,0.003496254039525607
-0.43841493411600824,-0.43841493411600824,0.9979726834164145,0.003588274267718073
-0.43754541765520116,-0.43754541765520116,1.000424561754985,0.0035021772860025003
-0.4354032465227647,-0.4354032465227647,0.997698337831863,0.003444036762856471
-0.43285037425230255,-0.43285037425230255,0.9945495505270813,0.003447737180993047
-0.43091060265505804,-0.43091060265505804,1.0003019699444402,0.0035010776987777262
-0.4301534606980567,-0.4301534606980567,1.0019079134858706,0.003491500299733697
-0.4290783158889099,-0.4290783158889099,1.0030564714651415,0.0034374341063960053
-0.4283510949295305,-0.4283510949295305,1.001310250061096,0.0034727047952657505
-0.42726455974188865,-0.42726455974188865,0.9985190793564191,0.003532394580662215
-0.425708121277421,-0.425708121277421,0.9992502144507405,0.0035305454943492945
-0.4243235760652169,-0.4243235760652169,1.0009413602381936,0.0034454127493582795
-0.42333085203572407,-0.42333085203572407,0.9992111642624055,0.00355144078328692
-0.4221578154829331,-0.4221578154829331,0.9926095726590018,0.003539500533156737
-0.42102915532523183,-0.42102915532523183,1.0023242329003232,0.0034540222333202574
-0.4194976765786123,-0.4194976765786123,1.0004879965547924,0.0034271421412640024
-0.41822204974960187,-0.41822204974960187,1.0068033754894774,0.0034492265497996777
-0.41627627067427964,-0.41627627067427964,1.0009249315530966,0.0034814426720260992
-0.4143448476650519,-0.4143448476650519,0.9973772995654601,0.003467049895694257
-0.41361106122421915,-0.41361106122421915,0.9948766908248592,0.003517737255763089
-0.41262920974477313,-0.41262920974477313,1.0016593876951574,0.0034497475061940884
-0.41190519974115886,-0.41190519974115886,0.9998667131562982,0.0035336076326791823
-0.41020980553585107,-0.41020980553585107,1.0050074593936937,0.0035184019767705217
-0.4081645779268001,-0.4081645779268001,1.003202801562836,0.003450228274728981
-0.406877552698279,-0.406877552698279,0.9969199904960128,0.0035362994490146598
-0.4059545726631768,-0.4059545726631768,0.999790844274384,0.003531693799985149
-0.4042913297736959,-0.4042913297736959,1.001081195208668,0.003429864477083147
-0.4031723471598525,-0.4031723471598525,0.9973614135781045,0.0034708896775546365
-0.40177642809430836,-0.40177642809430836,1.0001109946051145,0.0034863835906579995
-0.4004884390982625,-0.4004884390982625,0.999870414017072,0.003541016054440873
-0.3983057685712993,-0.3983057685712993,1.00004299757969,0.0034991690617577195
-0.3972302926180419,-0.3972302926180419,0.9976367914758235,0.003479394469321234
-0.39625301021005727,-0.39625301021005727,1.0017083193922163,0.0034408538720310613
-0.39556045964200165,-0.39556045964200165,0.9998853166576733,0.003505753314148957
-0.39459778260352324,-0.39459778260352324,1.000076240038755,0.003505609720083347
-0.393538414384966,-0.393538414384966,1.003610469967775,0.0035945207346837495
-0.3917683785271947,-0.3917683785271947,0.9953083217377415,0.0034932161387228877
-0.39041725165297975,-0.39041725165297975,1.0046485110060355,0.003466971085598442
-0.38886233596567765,-0.38886233596567765,1.000057119759266,0.003444480386305412
-0.3872085528135358,-0.3872085528135358,1.0098999800002413,0.0035048982407311705
-0.3860275231498235,-0.3860275231498235,0.9974120082884588,0.0034757138649198285
-0.38496855544144637,-0.38496855544144637,0.9960664558372849,0.0035003876071046333
-0.3837181813076313,-0.3837181813076313,0.9996294745923858,0.003497056900755688
-0.38186450047869586,-0.38186450047869586,0.9996377286289315,0.0034595612982674705
-0.3808442119770916,-0.3808442119770916,0.9968938191166329,0.0034719505127341994
-0.37987207801124895,-0.37987207801124895,1.0013666415050808,0.0034932598351029897
-0.3791165736845869,-0.3791165736845869,0.9966962187559728,0.003562608863799298
-0.3784510662095272,-0.3784510662095272,0.9945911902173105,0.0035199088007729557
-0.37748683838290165,-0.37748683838290165,1.004092153938338,0.0035880893381891607
-0.37534270218602617,-0.37534270218602617,1.0031399824162395,0.003453326692018323
-0.37391438715712866,-0.37391438715712866,0.9954159319587255,0.0034751481473093227
-0.3716894283570582,-0.3716894283570582,0.9950706585313283,0.003436314522488162
-0.37006990130030315,-0.37006990130030315,1.0026427127932596,0.0035734586790560257
-0.3689636461342161,-0.3689636461342161,1.0004962157350143,0.0034449351693883966
-0.36796954698875195,-0.36796954698875195,0.9968225315001327,0.0035158398387145893
-0.36630219988219326,-0.36630219988219326,1.0055651379164168,0.003511630129561613
-0.3641632290920825,-0.3641632290920825,1.0000523552520835,0.0034582429187158675
-0.3627438761286612,-0.3627438761286612,1.0046388931997485,0.003575410247697755
-0.3620092153083533,-0.3620092153083533,0.9981444299148506,0.0035027073101719743
-0.36107839887263254,-0.36107839887263254,1.0020752491915068,0.003504625987264012
-0.3582195114460774,-0.3582195114460774,1.0004636291827145,0.0035770869426026307
-0.35678926601540295,-0.35678926601540295,0.9999977110355218,0.003489841269379406
-0.3545729439210845,-0.3545729439210845,1.003509557578501,0.0034991481092316286
-0.353232846926403,-0.353232846926403,1.0030988131187282,0.003541769336746663
-0.35217899628551097,-0.35217899628551097,0.9991445709057244,0.0034659195687755085
-0.3509130085934885,-0.3509130085934885,1.0006899303877888,0.0035100148234497993
-0.3487386597800651,-0.3487386597800651,0.999317752939804,0.0034716651791512473
-0.34755142210851775,-0.34755142210851775,1.0033387828221985,0.0034708451764569473
-0.34626332156985884,-0.34626332156985884,1.0029293022163128,0.003575705282640074
-0.3453289434895851,-0.3453289434895851,0.9940194883070511,0.0035127889782634153
-0.3438254373650125,-0.3438254373650125,1.0029570007688053,0.003422221022737574
-0.34141632242390185,-0.34141632242390185,1.0043892371919152,0.0034589437463610024
-0.33890651304172936,-0.33890651304172936,1.0035607466787444,0.0035375990259187786
-0.33801522200519685,-0.33801522200519685,1.0048823535860394,0.0034803577421153044
-0.3372234950315033,-0.3372234950315033,1.0047359982828232,0.0034883025774804545
-0.33637549093618874,-0.33637549093618874,0.9976363092400906,0.003456487923953931
-0.33561348992807327,-0.33561348992807327,0.9991010899534732,0.0034824956787328715
-0.33460047545377164,-0.33460047545377164,0.9996705946049895,0.003513664097013676
-0.33240981401322645,-0.33240981401322645,1.0037636088237292,0.0034618841982811017
-0.3311212844128022,-0.3311212844128022,1.001540133015507,0.003561211256021627
-0.3299988437094726,-0.3299988437094726,1.0030331787669626,0.0035319294425635605
-0.32904911223231464,-0.32904911223231464,1.0014520265947067,0.003494048746893202
-0.32749168576774534,-0.32749168576774534,0.9986140003930787,0.003527210619027765
-0.32645942366943925,-0.32645942366943925,0.999100373827107,0.003468302245223089
-0.325288432216621,-0.325288432216621,0.9963348283656697,0.003436327670215141
-0.3226896056847181,-0.3226896056847181,1.0018073016514264,0.003491706604060913
-0.32170669158513193,-0.32170669158513193,0.9990429834295373,0.0034969703725406436
-0.3207698254613206,-0.3207698254613206,0.9998905436804059,0.003483744547462199
-0.32003584243502703,-0.32003584243502703,1.0005132434030657,0.003467202295315506
-0.31864105195782033,-0.31864105195782033,0.994988696348219,0.0035401068313767672
-0.31686633773933864,-0.31686633773933864,1.0006425532460845,0.003462483538261598
-0.31513101721502607,-0.31513101721502607,1.0007623939888373,0.0034570981111703715
-0.31413101360813017,-0.31413101360813017,0.9973390100576273,0.003558374549100146
-0.3128107023258053,-0.3128107023258053,1.0013045616944438,0.0034457424859893394
-0.31149011388624787,-0.31149011388624787,1.0021711715774615,0.0034709745050412978
-0.3102671788641601,-0.3102671788641601,1.0010225993096222,0.0034573627508748318
-0.3092777349454991,-0.3092777349454991,0.9997997994572139,0.00346772197660579
-0.30809792200961966,-0.30809792200961966,1.0019634499856314,0.0035430984551747162
-0.3061432908580173,-0.3061432908580173,1.0002730097154362,0.0035555026608178573
-0.305109861229721,-0.305109861229721,1.0040700859210367,0.0034633749955685737
-0.30406865297482,-0.30406865297482,1.0015634396050481,0.0034492359439287296
-0.3035355233536393,-0.3035355233536393,1.0059225577010902,0.0034795001516585767
-0.30252969594075696,-0.30252969594075696,0.9991599391712038,0.0034968221990614875
-0.30152466838408143,-0.30152466838408143,1.0010474855636704,0.0035620984118539534
-0.2994346790612326,-0.2994346790612326,1.000821601736136,0.003583705011869622
-0.2980256796356116,-0.2980256796356116,0.9951729831858153,0.003465045625640071
-0.2967493506970641,-0.2967493506970641,1.0009120657316832,0.003449010306889111
-0.29487714125280035,-0.29487714125280035,1.0014621283452605,0.0034567195182691975
-0.2936368065762508,-0.2936368065762508,1.0036399853505416,0.003477816220913849
-0.2923901885966188,-0.2923901885966188,1.000480434198414,0.0034374404971714207
-0.290630611438246,-0.290630611438246,1.0018343283309654,0.0035110481602594196
-0.2889789082350035,-0.2889789082350035,1.0043516248194106,0.0034637803875739678
-0.28816600186473806,-0.28816600186473806,0.9963187560203982,0.0035093621727768413
-0.2874063832539832,-0.2874063832539832,1.0045999557370355,0.0035018470603366005
-0.2865398889211065,-0.2865398889211065,0.9944789041342652,0.0035912425880150695
-0.285920695461391,-0.285920695461391,0.9987376520125327,0.0034830602104263058
-0.2849792474633432,-0.2849792474633432,0.9956651911250154,0.0035739034905713216
-0.2825433097917994,-0.2825433097917994,1.0023742852077322,0.0034614106196649043
-0.2812383138181758,-0.2812383138181758,0.9946367570501303,0.0034608738214346327
-0.27929702667024686,-0.27929702667024686,1.0028886210799393,0.0034391680070052
-0.2776793993296451,-0.2776793993296451,0.9971929392106043,0.003572476719339901
-0.2764830597785476,-0.2764830597785476,1.0033789495973706,0.0034641914481103086
-0.27530422002237176,-0.27530422002237176,1.0015101494056986,0.0035662403611832413
-0.27288513696403244,-0.27288513696403244,0.9995553575433908,0.0034483518039012694
-0.2713975693157408,-0.2713975693157408,1.0032978388865819,0.0034847795928047744
-0.270021568856464,-0.270021568856464,1.0018820197973664,0.003619574613354013
-0.26930191097562783,-0.26930191097562783,1.001974639795078,0.0035273262292488325
-0.2667854891282332,-0.2667854891282332,1.0006424909716158,0.0035426064342362626
-0.26463578434559165,-0.26463578434559165,1.0039117619493734,0.0034903322742668302
-0.26266858923991093,-0.26266858923991093,1.0052303261355227,0.003537118097675548
-0.26175843620076195,-0.26175843620076195,1.0006970243812803,0.0035777473164557193
-0.2605594726424897,-0.2605594726424897,0.9999170678590275,0.003455558027136701
-0.25965364485309694,-0.25965364485309694,1.001320640177963,0.003471456577138575
-0.2585695931164082,-0.2585695931164082,0.9970323925192606,0.003554930373810233
-0.25678461815987247,-0.25678461815987247,0.999061052367674,0.0034688952579714446
-0.2553540377215541,-0.2553540377215541,1.0043678685252135,0.0034698844384267722
-0.2543878716940526,-0.2543878716940526,0.9988529113712452,0.003549396011055138
-0.25345968622277726,-0.25345968622277726,1.0037885739264296,0.0035051935030467594
-0.2525252020859625,-0.2525252020859625,1.0064955606914392,0.003497306341993879
-0.25007386855213554,-0.25007386855213554,0.9995692954894485,0.0034460213091874804
-0.24746379278512903,-0.24746379278512903,1.0008525183181614,0.0035059716800004796
-0.2458763801245368,-0.2458763801245368,1.006445700028532,0.003498047201011585
-0.2452767196824425,-0.2452767196824425,0.9993560610326357,0.0035033286034567173
-0.24415427752828692,-0.24415427752828692,0.9986497777196401,0.003442654549779822
-0.2433611416396161,-0.2433611416396161,0.9987993030953127,0.0034933730253972157
-0.24173967019014525,-0.24173967019014525,1.001481302983296,0.0035073839972621515
-0.2396253937331494,-0.2396253937331494,0.9978862714452813,0.0034542434442059074
-0.23854756476648617,-0.23854756476648617,0.9965734903144886,0.0035506409450752896
-0.23737574917540769,-0.23737574917540769,0.9988860259977497,0.0035410010996618758
-0.23610284464739378,-0.23610284464739378,0.9992512543101746,0.003438337899304628
-0.23499538035466686,-0.23499538035466686,0.9971657802977345,0.0034496704072762437
-0.23377620456012665,-0.23377620456012665,0.997680084189659,0.003469674375787083
-0.23280713952699444,-0.23280713952699444,0.9992655646353716,0.0034373759343572486
-0.23029786664192214,-0.23029786664192214,1.0021926734026976,0.0034934091163531036
-0.22926512832273147,-0.22926512832273147,1.003617965184876,0.003469122686540131
-0.22837719702729373,-0.22837719702729373,1.0007300351973676,0.003483061960442573
-0.2276450287157786,-0.2276450287157786,0.9999533073197521,0.003470171384169011
-0.22629016601349577,-0.22629016601349577,1.0008396603904361,0.0035094469988814483
-0.2245196904455952,-0.2245196904455952,1.0036725950987768,0.0034993556340193652
-0.222658066952863,-0.222658066952863,0.9978477644215834,0.0035003790069741024
-0.22189779382388225,-0.22189779382388225,0.9966264399625345,0.003562255631959773
-0.22047580712314813,-0.22047580712314813,1.000485613275982,0.003442652046800495
-0.2190984248976747,-0.2190984248976747,1.0007013411179433,0.0034733755178040586
-0.21795937879724078,-0.21795937879724078,0.9944375111824592,0.0034759713048563975
-0.21651421845454025,-0.21651421845454025,1.0002934753770663,0.0035192298722113964
-0.214833700015879,-0.214833700015879,0.996724679681105,0.0035149376422833104
-0.2130413333303295,-0.2130413333303295,1.004269993582718,0.0034679883702508256
-0.21204172760481016,-0.21204172760481016,0.9976340646015229,0.003456939709285965
-0.21134612539972294,-0.21134612539972294,0.9984295641657825,0.0034916466426222633
-0.21053931447968352,-0.21053931447968352,1.0023977660852759,0.003511373600462974
-0.20973516414815094,-0.20973516414815094,0.9987080683133364,0.0034811465242131022
-0.20825691999125412,-0.20825691999125412,1.0019703278629764,0.003576392087855171
-0.205856665927422,-0.205856665927422,1.00582029588679,0.0035310293379697336
-0.20497923187867856,-0.20497923187867856,1.0010983241667795,0.003422223686917081
-0.20361634981964016,-0.20361634981964016,0.9953604569827892,0.003457380285900593
-0.20234572641784326,-0.20234572641784326,0.9966787434565818,0.0034398364946049025
-0.2012460902435123,-0.2012460902435123,0.9973324401693745,0.003477856300829268
-0.1999991699391103,-0.1999991699391103,1.005872121984068,0.0034399079252288634
-0.19872470824047922,-0.19872470824047922,1.0096292087501055,0.0035495238257757826
-0.19676554024263168,-0.19676554024263168,0.9989705446796329,0.0034471998697684033
-0.19585986134843553,-0.19585986134843553,1.0014020779143584,0.0034713835250563506
-0.19501555218521388,-0.19501555218521388,0.9984911662682476,0.0035020675964132714
-0.19414848368178356,-0.19414848368178356,1.0023427874442685,0.0035911689837107297
-0.193479417146591,-0.193479417146591,1.0038892209421992,0.0035551825129470664
-0.192497703605477,-0.192497703605477,1.0053181341958228,0.0035086641276868614
-0.18949611827993068,-0.18949611827993068,0.9974561419688103,0.0034667947372104407
-0.18770276101713534,-0.18770276101713534,0.9977530924157518,0.003438665285483384
-0.18609023125027307,-0.18609023125027307,1.002777201111096,0.0034825138173755475
-0.18481426624566666,-0.18481426624566666,0.9994851441599548,0.003538364561273835
-0.18352430775921674,-0.18352430775921674,1.0000091524729726,0.0035092193775180134
-0.18202119690249674,-0.18202119690249674,1.0006588442815851,0.0035057366674552033
-0.17966205180127873,-0.17966205180127873,1.0010351217239968,0.0034510802977469057
-0.1781642285801354,-0.1781642285801354,1.0007441535924058,0.003590816529467495
-0.17734161274711369,-0.17734161274711369,0.9970111142084116,0.003565455119245442
-0.17656198409895296,-0.17656198409895296,1.0024659237987197,0.003528693924893788
-0.17434976481090417,-0.17434976481090417,0.9989943466440605,0.0035460372725302676
-0.172899840286118,-0.172899840286118,1.00014183799917,0.0034582073712512663
-0.17116286200034664,-0.17116286200034664,0.9957149547768578,0.0035199958312657443
-0.16967688329459635,-0.16967688329459635,1.0023383024922594,0.00349756723564833
-0.16871788555945386,-0.16871788555945386,1.0034631401846004,0.0035656053170106824
-0.16760093823177158,-0.16760093823177158,0.9997133389194254,0.0034505285432503267
-0.16642089394808862,-0.16642089394808862,1.002286308825257,0.00352904626469274
