time,time,flux,flux_err
-0.49987082246079806,-0.49987082246079806,1.0000589906674349,0.0012198316859902848
-0.4990942622818693,-0.4990942622818693,1.0007363773383777,0.0011226995289967433
-0.49845177806273566,-0.49845177806273566,1.0001625450441858,0.001108941662587947
-0.49779516993585277,-0.49779516993585277,0.9999947753615928,0.0012056407015912849
-0.4971511553696473,-0.4971511553696473,0.9996164881047577,0.0011108245882701664
-0.49626174691002234,-0.49626174691002234,0.9992208139392901,0.0010230806614630935
-0.495416605828359,-0.495416605828359,1.000563750022781,0.0012043582497098027
-0.4947622607411176,-0.4947622607411176,0.9991984407896402,0.0009392577081314153
-0.4943274828525318,-0.4943274828525318,1.0000068702699016,0.0009155614472271072
-0.49378412691221457,-0.49378412691221457,0.9997867835157518,0.0010514623483902175
-0.4933504707805696,-0.4933504707805696,1.000942983208884,0.0011361063525570586
-0.49253350154031067,-0.49253350154031067,1.000529168146256,0.0011181121570106361
-0.4920805128494976,-0.4920805128494976,0.9998272196846203,0.0009118298521416356
-0.49150581501162377,-0.49150581501162377,0.9994664210327711,0.0012062057520597525
-0.49099091334137485,-0.49099091334137485,1.0004301829801463,0.001117600816310967
-0.4904546187026426,-0.4904546187026426,0.9985144985005523,0.0010350354882893388
-0.4894246050709626,-0.4894246050709626,0.9996390306386648,0.0010169864909547047
-0.48851086548893363,-0.48851086548893363,1.0002399115560532,0.001119611476644558
-0.4878358862850291,-0.4878358862850291,1.0001999568778568,0.0009139081280604951
-0.4871716915389698,-0.4871716915389698,0.9995968741170858,0.0011400286956607473
-0.4864477096256451,-0.4864477096256451,0.9999297152887472,0.0012030801991199755
-0.4857494428870268,-0.4857494428870268,1.0005935576894511,0.0010131969640446996
-0.4848925050915568,-0.4848925050915568,1.0007997428176527,0.0010424618781872679
-0.48438466213847275,-0.48438466213847275,0.9994706334347709,0.0011248418541486727
-0.48361886839265933,-0.48361886839265933,0.9989501955566166,0.0012005208599202822
-0.48278428881094443,-0.48278428881094443,1.0006908903792444,0.0012051509395352071
-0.48204827083536655,-0.48204827083536655,1.0001934685583271,0.0012023577347520457
-0.4811716498348687,-0.4811716498348687,1.0000022750101831,0.0009685096935783198
-0.48078287627358807,-0.48078287627358807,1.0003546449201834,0.0011973524974487671
-0.47993993965355913,-0.47993993965355913,0.9998746306969629,0.001111845719368777
-0.4792026954979519,-0.4792026954979519,1.000622222326299,0.001015078535631084
-0.47876306018588366,-0.47876306018588366,0.9996760499545332,0.0009210587426404102
-0.4784510265140852,-0.4784510265140852,1.0006360284457823,0.0012157639078106373
-0.47807970679568823,-0.47807970679568823,1.0003510564994937,0.001221659131824503
-0.47727835758414583,-0.47727835758414583,0.9992528820230036,0.001123492967649766
-0.4768062293973344,-0.4768062293973344,0.9996632522689268,0.0011120305321656717
-0.47626140089923863,-0.47626140089923863,1.0000877210308463,0.0010232233449696158
-0.4756904586487508,-0.4756904586487508,1.0001571997768193,0.0011154642369454412
-0.4748058369732462,-0.4748058369732462,1.0009648680268437,0.0008792533153402709
-0.47440492434980114,-0.47440492434980114,1.000137441227811,0.0011991426249433653
-0.47371761551621605,-0.47371761551621605,0.9998761548249938,0.0011144418143272624
-0.47309851908939893,-0.47309851908939893,0.9996238859051008,0.0009056731838658074
-0.4725655229340191,-0.4725655229340191,1.0002596319971166,0.0010214866172739965
-0.4719547425804194,-0.4719547425804194,0.9999618726382075,0.0010468961875640583
-0.47147074815875384,-0.47147074815875384,0.9993817566754629,0.0011606747890689495
-0.47076615356563706,-0.47076615356563706,0.9995386303846436,0.001012088900137534
-0.4703292937861988,-0.4703292937861988,1.0009658650560163,0.0010179691087097455
-0.4697817871194275,-0.4697817871194275,1.0002503710348165,0.0011131790652580962
-0.46900959006889026,-0.46900959006889026,1.0005232357875535,0.0011281488597956178
-0.468161556503037,-0.468161556503037,0.998768816669472,0.0011302912156785157
-0.4672120768569584,-0.4672120768569584,0.9997841896761649,0.0011165096671586698
-0.46661397348871103,-0.46661397348871103,1.0001176616416363,0.0009159401984268888
-0.46593849087948913,-0.46593849087948913,0.99997222803342,0.0008327093273487093
-0.4654786916973535,-0.4654786916973535,0.9995462419224523,0.0012038267951483194
-0.46481309667797177,-0.46481309667797177,1.0005357416576968,0.0012079362423537173
-0.46407114255489434,-0.46407114255489434,1.000793145863983,0.0009092078616079761
-0.4631067702830478,-0.4631067702830478,0.9994660418049677,0.0011306707676283795
-0.462587988791347,-0.462587988791347,1.0001861959238059,0.0010325842203697728
-0.4616890578472521,-0.4616890578472521,0.9999645733597282,0.0011098832149713058
-0.46117549562986826,-0.46117549562986826,0.9995841149112454,0.0011121632844079178
-0.46065286918528725,-0.46065286918528725,1.0006209252065574,0.0012029640242380327
-0.45994309246234477,-0.45994309246234477,0.9997162947206215,0.0009156943504411846
-0.4592487352587341,-0.4592487352587341,1.00011274392931,0.001049465887830978
-0.45871465042146153,-0.45871465042146153,0.9986691684726186,0.0011332418158689053
-0.45806302563869394,-0.45806302563869394,0.9993286281493562,0.001111546357364496
-0.4573967217176687,-0.4573967217176687,0.9998389996519611,0.0009133141788904371
-0.4569494094066613,-0.4569494094066613,0.9999353175143785,0.0011266330980977972
-0.45656621470625397,-0.45656621470625397,0.9996808002245183,0.001125856695066532
-0.45608441606891575,-0.45608441606891575,1.0000240064078805,0.0012131459322046677
-0.45511095929177825,-0.45511095929177825,1.0002340883395284,0.0011096114460940893
-0.45439375523128545,-0.45439375523128545,1.0006367358195525,0.0012027918225277418
-0.45362218703958207,-0.45362218703958207,0.9995896984051059,0.0010257499874055526
-0.45292230152335833,-0.45292230152335833,0.9996360027311212,0.0010548833898219353
-0.452564337918011,-0.452564337918011,1.000024408598927,0.001051228679428947
-0.45173979912797224,-0.45173979912797224,0.999742889862792,0.0010196694145336892
-0.45134537615449516,-0.45134537615449516,1.0002873425511187,0.0011070850768007423
-0.45101729932284795,-0.45101729932284795,0.9998436396934285,0.001021402963290061
-0.450503162574023,-0.450503162574023,0.9991553316761828,0.0010606329263383716
-0.4501799417797884,-0.4501799417797884,0.9992127174396327,0.00120047442506398
-0.4494163869705517,-0.4494163869705517,1.0010496215754716,0.0010362060240702593
-0.4490140792244347,-0.4490140792244347,0.9997732014669591,0.0009079504929888233
-0.44847487451988854,-0.44847487451988854,1.000095261052808,0.0011148692965781096
-0.4478717478501494,-0.4478717478501494,0.999238877251841,0.0011159508670565018
-0.4473741040521418,-0.4473741040521418,1.0000062757383545,0.0011296639029432461
-0.4464829663207638,-0.4464829663207638,1.0003010568056414,0.0011213733073116969
-0.44554881905569343,-0.44554881905569343,1.0005812858746819,0.001113687620879367
-0.4451379758778785,-0.4451379758778785,1.001103615571186,0.0009179545584569662
-0.44461051846301414,-0.44461051846301414,0.9996172491044343,0.0009167334151750554
-0.44395505091306403,-0.44395505091306403,0.999611450200683,0.0010427833178552625
-0.44360975330200747,-0.44360975330200747,1.0001294287315357,0.0011722206858619882
-0.44292676085460697,-0.44292676085460697,1.0003853189068477,0.0011110308671581012
-0.4420713008476014,-0.4420713008476014,1.0001688258193406,0.0010226158935770938
-0.4412925995355181,-0.4412925995355181,0.9996783827904728,0.001200120618901258
-0.4402955287921941,-0.4402955287921941,1.0010526928254577,0.0010239840510513657
-0.4393531651490775,-0.4393531651490775,1.0006344659207043,0.001116864358638264
-0.43858051055285613,-0.43858051055285613,0.9995243719520769,0.001014661279543552
-0.4378411159370444,-0.4378411159370444,1.0000186452121185,0.0010602895299252073
-0.43742093036562435,-0.43742093036562435,1.0010163565079457,0.0012147941943374695
-0.43681637932822925,-0.43681637932822925,1.0001677014190562,0.001017189984158297
-0.43643186379558757,-0.43643186379558757,1.0001458213111913,0.0011133936335977375
-0.4358921383158304,-0.4358921383158304,1.0005703167918905,0.0009116962733939189
-0.43515253530131304,-0.43515253530131304,0.9994428632180246,0.0011358411839830326
-0.43477926373889203,-0.43477926373889203,1.0001491076234061,0.00112870090813058
-0.4339081019941659,-0.4339081019941659,0.999317896630376,0.0012057739981889265
-0.4329402294257306,-0.4329402294257306,1.0000387928170014,0.0011155000429353187
-0.4321193251947989,-0.4321193251947989,1.000352316378511,0.0009078309942211311
-0.43140506114359595,-0.43140506114359595,0.9996552966578338,0.0009606671678979424
-0.43101204634222084,-0.43101204634222084,0.9994911159946265,0.0010721469979206343
-0.43009406273267814,-0.43009406273267814,0.9998820380685929,0.0011138618209719363
-0.4293733555932704,-0.4293733555932704,1.0001444151943204,0.0010197549781108082
-0.42891621141388897,-0.42891621141388897,0.9998966261099518,0.0011353794505162941
-0.42858786680953925,-0.42858786680953925,1.0005471523824156,0.0011272419139859537
-0.42805390194407666,-0.42805390194407666,1.0006034211914774,0.001076522663323263
-0.42743893946681055,-0.42743893946681055,1.0003111797730166,0.0010255590368448359
-0.42685494333709356,-0.42685494333709356,0.9997995935300992,0.0011115022890491313
-0.42631822830517196,-0.42631822830517196,0.9996186317430281,0.0012007671867125798
-0.4255648091042531,-0.4255648091042531,1.0002201403872655,0.00092034886828946
-0.4249285581892764,-0.4249285581892764,1.000577881759785,0.0012130831749742035
-0.424098279800819,-0.424098279800819,0.9999930720519948,0.0011159815168017306
-0.42342431228171334,-0.42342431228171334,0.9998577831732389,0.0007919038767826295
-0.4226954092482629,-0.4226954092482629,0.9996915092845446,0.0009561924955288084
-0.4222087295558595,-0.4222087295558595,1.0009721102666689,0.0012027380863992862
-0.4215269085216278,-0.4215269085216278,1.0006659202463437,0.0010800077912289155
-0.4206739988650952,-0.4206739988650952,1.0001277943607527,0.0009138063560632905
-0.4200346231213189,-0.4200346231213189,1.000308313548237,0.0012820271589021478
-0.41945367388325394,-0.41945367388325394,1.0011544518587865,0.0010270604659594045
-0.4185550156798854,-0.4185550156798854,1.0003542844452271,0.0009348100246690198
-0.4176828675728757,-0.4176828675728757,0.9995857077252349,0.001202413324484178
-0.41696488772067825,-0.41696488772067825,1.0000585324830398,0.0007935350534822475
-0.4160878947172023,-0.4160878947172023,1.00027784445772,0.0010573009934861754
-0.4156651697136112,-0.4156651697136112,1.0005465879784583,0.0012133046016116428
-0.4150201599783031,-0.4150201599783031,1.0000621301689432,0.0012029245808409749
-0.4143573025794467,-0.4143573025794467,0.9995461853939208,0.0009092704728132347
-0.4136118605827505,-0.4136118605827505,0.998873351015065,0.001207359115436298
-0.4132935254521726,-0.4132935254521726,1.0003690231251658,0.0011235234247992175
-0.4127086987493385,-0.4127086987493385,1.0002000555386679,0.0011342500991013554
-0.4118535116627754,-0.4118535116627754,0.998797988446265,0.0011992455138233461
-0.41118208440602755,-0.41118208440602755,1.0000117925722714,0.001116055274173182
-0.41027174168484637,-0.41027174168484637,1.0010615694055867,0.0009122548197781578
-0.4095605134985817,-0.4095605134985817,1.0000924604589438,0.0011462163297392307
-0.4088334087886324,-0.4088334087886324,0.9997594169615436,0.0009518089658748398
-0.4082042035523045,-0.4082042035523045,0.9999362787484454,0.0010143757726496722
-0.4076320765838318,-0.4076320765838318,1.0007506217210924,0.0010188199424951473
-0.40727973176544763,-0.40727973176544763,0.9994486175667951,0.0011347738375345438
-0.40693176043278073,-0.40693176043278073,0.9995812294618128,0.0012166597558662963
-0.40611153359132,-0.40611153359132,0.9989529134690344,0.0010496398150454914
-0.40557584446869444,-0.40557584446869444,0.9994647065284223,0.0011101501247140772
-0.40483035276847656,-0.40483035276847656,0.9998075425230599,0.0012061986677822218
-0.404119925849227,-0.404119925849227,1.0010814715735958,0.0011175479706808087
-0.4035273452231195,-0.4035273452231195,1.000958652489468,0.0009181701980634265
-0.40273849433360737,-0.40273849433360737,0.9998922882447493,0.0012001162878808598
-0.40193020203296326,-0.40193020203296326,0.999602027115602,0.0010150566888006724
-0.4014031443730346,-0.4014031443730346,0.9999571321245444,0.0011183231512640983
-0.4008108062109386,-0.4008108062109386,1.000569948734732,0.001056013993995874
-0.4003997997046099,-0.4003997997046099,1.000160995798253,0.0010435971023409576
-0.39962061870246546,-0.39962061870246546,0.999589703815353,0.0011066214443152997
-0.39903519469153254,-0.39903519469153254,1.0002738290620796,0.0009145479109843125
-0.3984523511913721,-0.3984523511913721,0.9995199159191441,0.0012829597208025441
-0.3978704378394468,-0.3978704378394468,0.9996384742605965,0.001208938994297411
-0.39697389811190076,-0.39697389811190076,1.000728250376508,0.001024455453349801
-0.3959525366051821,-0.3959525366051821,1.0001242717047618,0.0010205541248434799
-0.3953182976205426,-0.3953182976205426,1.0010587122058072,0.0009188942137425297
-0.39460993950924605,-0.39460993950924605,1.000437893421353,0.0010503690698235564
-0.3940969450493867,-0.3940969450493867,1.0005231509258448,0.0012048374708120535
-0.3932684608116688,-0.3932684608116688,1.0000211177085165,0.0011989471406343088
-0.3924222755333176,-0.3924222755333176,0.9998067297916403,0.0009239035379035454
-0.3917127613844059,-0.3917127613844059,0.9996080457421153,0.0011253171125934346
-0.3909923168255773,-0.3909923168255773,0.9997335201977433,0.0011253988258758123
-0.3902668873502989,-0.3902668873502989,0.9994312667401338,0.0011991831365855666
-0.38941061942605304,-0.38941061942605304,0.9995333019988137,0.001203053628615099
-0.38863314280606576,-0.38863314280606576,1.0001350068233184,0.0010328321951362618
-0.3880100065121951,-0.3880100065121951,0.9999802245873635,0.0010505970362824912
-0.38726910854820745,-0.38726910854820745,0.9998493916590444,0.0011999833398031227
-0.38649649678045533,-0.38649649678045533,1.0000125831340223,0.0009113535134239126
-0.38596068968545294,-0.38596068968545294,0.9994200092251487,0.0009201681524954114
-0.38557508639860316,-0.38557508639860316,1.0002335528510158,0.0012161582707144215
-0.38523213663938805,-0.38523213663938805,0.9998828880593695,0.0011279787555855238
-0.38464371195295827,-0.38464371195295827,0.9999642733001434,0.0012216606490992815
-0.38410181117578757,-0.38410181117578757,0.9993863019972113,0.0011130903532316982
-0.3836156278914132,-0.3836156278914132,0.9999625465047238,0.0010189198199729121
-0.38303530598786895,-0.38303530598786895,1.0002828601991933,0.0011201013933492487
-0.3822865322152211,-0.3822865322152211,0.9994532966468439,0.0009203685724043528
-0.38165945777436716,-0.38165945777436716,1.000945005440847,0.0010770258788744597
-0.3810679210640956,-0.3810679210640956,0.9993264715017706,0.0011139044428579324
-0.3802929970996047,-0.3802929970996047,1.0001047252845905,0.0010153079930473952
-0.379790222052543,-0.379790222052543,1.0018251296072553,0.0010229802846420362
-0.37932085200664006,-0.37932085200664006,0.9986672444631525,0.0009452297844267868
-0.3789389058089,-0.3789389058089,1.0005162991439398,0.0012012116333654965
-0.37827420066896594,-0.37827420066896594,1.0006442830335118,0.0010703074639768857
-0.377713002620294,-0.377713002620294,1.0002858464427054,0.0010153307928628852
-0.3772328204177029,-0.3772328204177029,1.0007098028636214,0.0010154919050930707
-0.3765153528700466,-0.3765153528700466,0.9997460125465423,0.0012024380109820067
-0.37576571421450355,-0.37576571421450355,1.0002134848147084,0.0009280632461675375
-0.3749709682604589,-0.3749709682604589,1.0003471250906468,0.0012198233500729393
-0.3740227653950569,-0.3740227653950569,0.9998101268692402,0.0011178041944432966
-0.37351556604844516,-0.37351556604844516,0.9995153857999821,0.0007959688071501418
-0.37290518952941054,-0.37290518952941054,1.000024399709424,0.0010468403287551724
-0.372554150322685,-0.372554150322685,0.9999191220740137,0.0012093556124735145
-0.3719053957676806,-0.3719053957676806,1.0014369210468634,0.001120004641241468
-0.371321235155483,-0.371321235155483,1.0004253341099298,0.0010104368351392685
-0.37037943756367897,-0.37037943756367897,1.0001361152341353,0.0011224907557407084
-0.3698722696150071,-0.3698722696150071,1.0001465207121139,0.0010439859954895078
-0.3688959246785089,-0.3688959246785089,0.9992768321084169,0.0010125579675160016
-0.36836028222242023,-0.36836028222242023,0.9994253121234026,0.0011380166730629562
-0.3677770957292523,-0.3677770957292523,1.0002952321071603,0.0012025440854868514
-0.36715621903713325,-0.36715621903713325,0.9992572653199943,0.000906666212392886
-0.36649962105366285,-0.36649962105366285,0.9998932539904167,0.0010593197988384303
-0.3660924156880355,-0.3660924156880355,0.9991797602085406,0.0010377822695951109
-0.3654183665668825,-0.3654183665668825,0.9996508310181016,0.0011117370990455866
-0.3647822316030215,-0.3647822316030215,1.0002826369386422,0.0009097957151807029
-0.3642610759852687,-0.3642610759852687,0.9999672757263134,0.0010270055628542418
-0.36391355136875064,-0.36391355136875064,0.9999430321972238,0.0011383829769117764
-0.3636303478117043,-0.3636303478117043,1.0004648854206972,0.0012077005988807032
-0.36265409675761473,-0.36265409675761473,1.000177592396592,0.0012086400587911093
-0.3617811897980573,-0.3617811897980573,1.000143452177978,0.0010196058007275414
-0.36105657264924956,-0.36105657264924956,0.9999134465093782,0.00120089521094659
-0.36027612653924734,-0.36027612653924734,1.000215560976577,0.0009644727323161477
-0.3597998203629686,-0.3597998203629686,1.0002947160208424,0.0010482921501806706
-0.35900369654627867,-0.35900369654627867,1.0001975712255322,0.0010214378176791605
-0.35855702559492786,-0.35855702559492786,0.9999783999742078,0.0010124350892905252
-0.3580529229649983,-0.3580529229649983,1.0005802662249024,0.0010202874872268569
-0.3576060541512561,-0.3576060541512561,1.0002854549738056,0.0011471428657203722
-0.3573040471761487,-0.3573040471761487,0.9994096422515412,0.0011999791701551008
-0.35654032436723354,-0.35654032436723354,0.9999465964610833,0.0010359227878061852
-0.3560751673030609,-0.3560751673030609,0.9996275218661783,0.0010166238183936306
-0.3554381214089517,-0.3554381214089517,0.9996487848781225,0.0011148739989212534
-0.35492467235744696,-0.35492467235744696,1.00125151954072,0.0011120142824709183
-0.35445499448978807,-0.35445499448978807,1.0003131435352013,0.0010423213646063845
-0.3536110803310294,-0.3536110803310294,1.0017134616783785,0.001024938483936927
-0.3527351474913303,-0.3527351474913303,0.9997162927831956,0.001113140817910072
-0.35223439096371295,-0.35223439096371295,0.9997238630529985,0.0007991153342402444
-0.351574564177281,-0.351574564177281,0.9998043015130748,0.0009173689783459723
-0.3510211970526143,-0.3510211970526143,1.0004775478589365,0.001135188680147402
-0.35061994875504754,-0.35061994875504754,0.9996981095561994,0.0011747886715810247
-0.34992676693291286,-0.34992676693291286,0.9999455721596734,0.0010151753718558342
-0.3490056874819857,-0.3490056874819857,0.9998713435963182,0.0010209392493779556
-0.34841685490901,-0.34841685490901,1.0000567217969156,0.0012027854878485559
-0.3473725399104296,-0.3473725399104296,1.0005915552215763,0.001026731525929181
-0.3461940619505185,-0.3461940619505185,1.0005700870097924,0.001204826110979543
-0.34541326189864774,-0.34541326189864774,1.0005533069454802,0.0009200485962980985
-0.34475892820919396,-0.34475892820919396,1.0010012247019207,0.0010525392730380255
-0.3442768529406749,-0.3442768529406749,0.9992306046607855,0.00121098114753271
-0.34356999000374344,-0.34356999000374344,0.999880309289239,0.0011986098198316056
-0.3432541055910406,-0.3432541055910406,0.9999717125954823,0.0010191268855506102
-0.3425796378782252,-0.3425796378782252,0.9999009667620979,0.001029997000848009
