time,time,flux,flux_err
-0.4991099654180289,-0.4991099654180289,1.000018696637585,3.0997847550065614e-05
-0.4974015180693338,-0.4974015180693338,1.0000351771893652,3.09972952575342e-05
-0.4958005109700025,-0.4958005109700025,1.0000705509862367,2.8300508625075966e-05
-0.49431592784603706,-0.49431592784603706,0.9999948949873068,2.8291583989464013e-05
-0.4931180970153946,-0.4931180970153946,1.0000800002970178,2.8290374399701985e-05
-0.49163326815832986,-0.49163326815832986,1.0000189436859668,2.834623066715402e-05
-0.4901130944184843,-0.4901130944184843,1.0000933782235464,2.829573580573045e-05
-0.4884722935013997,-0.4884722935013997,1.0000433851801946,2.8297416269525025e-05
-0.48674182418326384,-0.48674182418326384,0.9999918703298224,2.8311875319650706e-05
-0.4853714511315047,-0.4853714511315047,1.0000299236227916,2.8293042297913193e-05
-0.4838861748576164,-0.4838861748576164,1.0001088503982414,2.8296070500517365e-05
-0.48257160392822696,-0.48257160392822696,1.0000054836824566,2.8294717188505717e-05
-0.48075861885372434,-0.48075861885372434,1.0000206518163648,2.8292420442624915e-05
-0.4790053733180685,-0.4790053733180685,0.999987394420919,2.829600899800751e-05
-0.4774466151880915,-0.4774466151880915,0.9999690421300546,2.8371502461023536e-05
-0.4759350822059787,-0.4759350822059787,0.9999894078464674,2.8296876133354642e-05
-0.47441913178699907,-0.47441913178699907,0.9999792306651262,2.829742436726835e-05
-0.4730058855304378,-0.4730058855304378,0.9999939869153763,2.8292023740325935e-05
-0.4712957459683821,-0.4712957459683821,1.0000515795689533,2.8290297908938727e-05
-0.46955604603062967,-0.46955604603062967,0.9999959925540575,2.8298648092017795e-05
-0.46783080984532716,-0.46783080984532716,0.9999541386325508,2.829507901334048e-05
-0.4664030955878843,-0.4664030955878843,1.0000640914680594,2.8299022566020163e-05
-0.46501698110369033,-0.46501698110369033,1.0000199517252386,2.8294096870031518e-05
-0.46381480074924186,-0.46381480074924186,1.0000282900917272,2.8292861784253597e-05
-0.4623785321462492,-0.4623785321462492,1.0000223456281359,2.829403288294787e-05
-0.4613442863927048,-0.4613442863927048,1.0000237783694346,2.829058819275255e-05
-0.4597641523643688,-0.4597641523643688,1.0000125455953752,2.8323995686592657e-05
-0.45803642445025616,-0.45803642445025616,1.0000472666163889,2.829833513655919e-05
-0.4566094415677071,-0.4566094415677071,0.9999545507232078,2.8299629510716e-05
-0.45521339291808544,-0.45521339291808544,1.0000042932692363,2.829503840346016e-05
-0.4537686873023631,-0.4537686873023631,1.0000185583412518,2.8295008235204937e-05
-0.45231811863486654,-0.45231811863486654,1.0000531991239305,2.829216173117809e-05
-0.4506978741235798,-0.4506978741235798,0.9999923652217573,2.8293748276105156e-05
-0.44900257549015804,-0.44900257549015804,0.9999909779228737,2.829889326499377e-05
-0.4472598222222587,-0.4472598222222587,1.0000231757887152,2.833943805282564e-05
-0.4454701637274411,-0.4454701637274411,0.9999831529665887,2.830036291819275e-05
-0.4440309464378515,-0.4440309464378515,0.9999895351098441,2.8294352009463557e-05
-0.4425145719382272,-0.4425145719382272,1.0000252456172372,2.8292336080877784e-05
-0.44081040978708186,-0.44081040978708186,1.0000460163999392,2.82876005627407e-05
-0.439210819965956,-0.439210819965956,1.0000073977565405,2.829776734386323e-05
-0.43741521844858655,-0.43741521844858655,0.9999475559595306,2.8296318298364077e-05
-0.43575735473787064,-0.43575735473787064,0.9999835621206579,2.829539893812264e-05
-0.43454857477991027,-0.43454857477991027,0.9999736988939978,2.8295339931507126e-05
-0.4330829498838284,-0.4330829498838284,1.0000557451191352,2.829939946741596e-05
-0.4317998614315002,-0.4317998614315002,0.9999557870349662,2.829447909436118e-05
-0.4303840084859985,-0.4303840084859985,0.9999898090467922,2.828986809442258e-05
-0.42865783312081474,-0.42865783312081474,1.0000405554257843,2.830985366127766e-05
-0.42693095122522207,-0.42693095122522207,0.9999899570065006,2.829704846788646e-05
-0.4255037170856667,-0.4255037170856667,1.0000196914808384,2.829968341557382e-05
-0.42411108528394836,-0.42411108528394836,1.0000299421054026,2.8296021671054238e-05
-0.4226662662782473,-0.4226662662782473,0.999978992744917,2.8292698165833427e-05
-0.4212161271207151,-0.4212161271207151,1.000053267476868,2.829449623210208e-05
-0.41954304830360345,-0.41954304830360345,0.9999658490454332,2.8295243542234163e-05
-0.41782866847861444,-0.41782866847861444,1.0000212370253256,2.8297342794839596e-05
-0.41615626754719415,-0.41615626754719415,1.0000545916303798,2.8318986783439265e-05
-0.41436380548911983,-0.41436380548911983,1.0000199294338947,2.829965911179177e-05
-0.41312137246131897,-0.41312137246131897,1.000013664063485,2.8289730320672193e-05
-0.41167304259579396,-0.41167304259579396,1.0000768981798398,2.8294880269325995e-05
-0.4102502904592257,-0.4102502904592257,1.000021101243368,2.8293113012162184e-05
-0.4087499333480082,-0.4087499333480082,1.000014611144208,2.829250199474237e-05
-0.40700051329476994,-0.40700051329476994,0.9999989118267969,2.829934419729148e-05
-0.4052790847534197,-0.4052790847534197,0.9999597784073984,2.829580412051195e-05
-0.40412426406182933,-0.40412426406182933,0.9999604531957189,2.8297197412283413e-05
-0.4027670535695506,-0.4027670535695506,1.0000154900705407,2.8293852246095935e-05
-0.4013441573326418,-0.4013441573326418,1.000025812860489,2.8291021162523046e-05
-0.39980453733733157,-0.39980453733733157,1.0000754258553382,2.829082680821838e-05
-0.39831317028583724,-0.39831317028583724,0.999954188860017,2.8301724077981173e-05
-0.39651583012819175,-0.39651583012819175,0.9999739553032079,2.8296602825769664e-05
-0.3948532156762667,-0.3948532156762667,0.9999835231823084,2.8295108119477343e-05
-0.39364610757111224,-0.39364610757111224,1.00002357521539,2.8294806231211292e-05
-0.39214351232512856,-0.39214351232512856,0.9999807735820404,2.8295057272682584e-05
-0.3905758688510105,-0.3905758688510105,0.9999734851898628,2.829445855701951e-05
-0.38951708760578185,-0.38951708760578185,1.0000313613353795,2.8295310509066694e-05
-0.3878276603049017,-0.3878276603049017,0.9999792139373982,2.8339827999853615e-05
-0.38636922143705305,-0.38636922143705305,1.0000451493773597,2.829945626272956e-05
-0.3848111030114524,-0.3848111030114524,1.0000200293376644,2.830623839486424e-05
-0.3828970003698487,-0.3828970003698487,1.000013637846718,2.8299293514525623e-05
-0.3814021993166534,-0.3814021993166534,1.0000526962061287,2.8293432904593068e-05
-0.3800515688388259,-0.3800515688388259,1.0000099573586467,2.829214629358625e-05
-0.3783492871203634,-0.3783492871203634,0.9999775004020899,2.829163756712763e-05
-0.37660153019533027,-0.37660153019533027,1.0000701423945568,2.829951781781554e-05
-0.37501404126014676,-0.37501404126014676,1.000055632627242,2.8370037877739934e-05
-0.3731048858644499,-0.3731048858644499,1.0000428376226782,2.8299817032976446e-05
-0.37166425212999454,-0.37166425212999454,1.0000061529657425,2.829458221007757e-05
-0.3702433240854589,-0.3702433240854589,1.000011757159444,2.8290478932042593e-05
-0.3684579751752608,-0.3684579751752608,1.0000664529746037,2.8288393767561734e-05
-0.3668140925867192,-0.3668140925867192,0.9999984325239183,2.8298870150183304e-05
-0.36505887069070014,-0.36505887069070014,0.9999740791360792,2.8294696425057045e-05
-0.36353777744079707,-0.36353777744079707,0.9999557752432603,2.8296064127513532e-05
-0.36222248909252813,-0.36222248909252813,0.9999491275639981,2.829412558542939e-05
-0.36093939563288585,-0.36093939563288585,0.9999870225293375,2.8293704593769524e-05
-0.3594726677700237,-0.3594726677700237,0.99997470699855,2.8294276337816105e-05
-0.35848229425100725,-0.35848229425100725,1.0000935273102625,2.829027316513371e-05
-0.3570273668650771,-0.3570273668650771,1.0001157184186344,2.8325101679587815e-05
-0.35526349722931627,-0.35526349722931627,0.9999769546779875,2.829803574286922e-05
-0.35373824389171205,-0.35373824389171205,1.0000148783508196,2.8298366116441423e-05
-0.35242231028605603,-0.35242231028605603,0.9999436227845555,2.8293005880355375e-05
-0.35097311964564143,-0.35097311964564143,0.9999923738027732,2.8294469703040792e-05
-0.34946671095895,-0.34946671095895,0.9999880724511616,2.8294821863070293e-05
-0.3479600906619453,-0.3479600906619453,1.0000308590476479,2.8295016748541226e-05
-0.3462180258662556,-0.3462180258662556,1.0000128681521274,2.8291503482612722e-05
-0.34461226945422824,-0.34461226945422824,1.0000300757370837,2.8297121359835535e-05
-0.3431641203460458,-0.3431641203460458,1.0000051942613257,2.8338902727800083e-05
-0.34150784728626604,-0.34150784728626604,0.9999954341361963,2.829745250118638e-05
-0.3398728545937047,-0.3398728545937047,1.000026536471413,2.8294992940155984e-05
-0.3384761655201146,-0.3384761655201146,1.0000038590752345,2.8288882386545698e-05
-0.33674133758613606,-0.33674133758613606,1.0000775986455088,2.829229606379547e-05
-0.33499572559376245,-0.33499572559376245,1.0000658606774753,2.8299541940301135e-05
-0.33327347979648037,-0.33327347979648037,0.9999891232633802,2.8297008141445553e-05
-0.3319582952455676,-0.3319582952455676,1.0000416821329599,2.8297709305627824e-05
-0.3304786540778878,-0.3304786540778878,1.0000535805273083,2.8297954348204206e-05
-0.3293350049832952,-0.3293350049832952,1.000029709773404,2.8290638033255117e-05
-0.3277945045294473,-0.3277945045294473,0.9999330801886319,2.8291075658743624e-05
-0.32630912572276427,-0.32630912572276427,1.0000003918414335,2.831001029251184e-05
-0.32451097494267744,-0.32451097494267744,1.0000301124558768,2.8298141703799057e-05
-0.3228461079903354,-0.3228461079903354,1.0000032417326103,2.8298096605593983e-05
-0.3216398058008053,-0.3216398058008053,1.0000206419859314,2.8294817147323945e-05
-0.3201370408794901,-0.3201370408794901,0.9999960179104551,2.8296638747221654e-05
-0.3185688503588608,-0.3185688503588608,1.0000183823717683,2.829502084897647e-05
-0.3172533902601572,-0.3172533902601572,0.9999919306541294,2.8294893878156353e-05
-0.3153248177957721,-0.3153248177957721,0.999988238694302,2.8294580813328582e-05
-0.3136836667450552,-0.3136836667450552,1.0000148263991147,2.8297774099174606e-05
-0.3120601031143451,-0.3120601031143451,1.000045046788685,2.8317287272027723e-05
-0.31040351158444535,-0.31040351158444535,0.999999903482357,2.8297614381575058e-05
-0.30909055356532916,-0.30909055356532916,1.000023222191778,2.829525549886533e-05
-0.3077767601993401,-0.3077767601993401,1.0000601802294307,2.8293005421055086e-05
-0.30626210263581016,-0.30626210263581016,0.9999899896501738,2.828683822432403e-05
-0.30459845320438034,-0.30459845320438034,1.0000453476250393,2.830053498791189e-05
-0.3028514647310658,-0.3028514647310658,1.0000299594656508,2.829346074750821e-05
-0.3012110900519474,-0.3012110900519474,1.0000246619514892,2.8296582642361056e-05
-0.30001622411218704,-0.30001622411218704,1.0000249945742372,2.8295735116151233e-05
-0.2984990755045146,-0.2984990755045146,1.0000435824933962,2.8292333195199136e-05
-0.29699673956856715,-0.29699673956856715,1.0000372727527638,2.8296554807103465e-05
-0.2956658365910698,-0.2956658365910698,1.0000564722630112,2.8290118174003794e-05
-0.29411486466997305,-0.29411486466997305,1.000048821251202,2.8303256303168545e-05
-0.29271503855488845,-0.29271503855488845,1.0000329999968112,2.82972475103925e-05
-0.29128752660544704,-0.29128752660544704,1.0000145507894014,2.829827842662016e-05
-0.2898986644235265,-0.2898986644235265,0.9999636912443405,2.8293914928900716e-05
-0.28845373077929254,-0.28845373077929254,0.9999110728456049,2.829257708566321e-05
-0.28706678104354066,-0.28706678104354066,1.0000389788554025,2.8292936727987667e-05
-0.28575291148081305,-0.28575291148081305,1.000050512879303,2.82945678066053e-05
-0.28414790005990653,-0.28414790005990653,1.0000355964285936,2.834154250666946e-05
-0.28257823542371624,-0.28257823542371624,0.9999963605843429,2.8297289980380058e-05
-0.2809561720358033,-0.2809561720358033,1.0000081779830015,2.8304195762083256e-05
-0.2792347474867711,-0.2792347474867711,1.000024778304726,2.8296922017997045e-05
-0.2776654558176233,-0.2776654558176233,0.9999899009495896,2.8294655737588232e-05
-0.27635080122199723,-0.27635080122199723,1.000043771624225,2.8293888578046167e-05
-0.2745383390072675,-0.2745383390072675,0.9999748557001368,2.8292300252307e-05
-0.27278424122196154,-0.27278424122196154,1.0000045156351605,2.8297932274654536e-05
-0.27115780723906935,-0.27115780723906935,1.0000523998987723,2.8365406786038414e-05
-0.2695018300990341,-0.2695018300990341,1.0000129718076107,2.829882638775397e-05
-0.2678663317099563,-0.2678663317099563,1.0000220965717088,2.829566551891642e-05
-0.2664663817660767,-0.2664663817660767,0.9999521411121577,2.8289587373654563e-05
-0.26473283198865827,-0.26473283198865827,1.0000757153271977,2.8292135866737728e-05
-0.2629910091076454,-0.2629910091076454,1.0000500022665506,2.8297884875290988e-05
-0.2612679536599899,-0.2612679536599899,0.9999987935675574,2.8295997937717236e-05
-0.25995164679261507,-0.25995164679261507,1.0000443140982196,2.8296337092033216e-05
-0.25847368191025455,-0.25847368191025455,0.999992552888361,2.8297460993940704e-05
-0.2573259443124698,-0.2573259443124698,1.000027502288018,2.8291142287135373e-05
-0.2559651124218362,-0.2559651124218362,0.9999772329627892,2.829081796523528e-05
-0.254865479801083,-0.254865479801083,0.9999969350507317,2.8293198845951855e-05
-0.2531984966226446,-0.2531984966226446,1.000010215653472,2.8319966614296774e-05
-0.2514728975816979,-0.2514728975816979,1.0000406323298536,2.829516129021651e-05
-0.2501529563356598,-0.2501529563356598,0.9999900560564663,2.829804393886631e-05
-0.2486804301595839,-0.2486804301595839,1.0000449947320722,2.829833046342179e-05
-0.24718963270133826,-0.24718963270133826,1.0000395622744485,2.8292710386500583e-05
-0.24584116429032293,-0.24584116429032293,0.9999905809951702,2.8290868139492123e-05
-0.24413741123207727,-0.24413741123207727,1.0000163317109378,2.829203830564273e-05
-0.24238316727787607,-0.24238316727787607,1.0000563697009017,2.8299894315010208e-05
-0.24079905343678548,-0.24079905343678548,1.0000068233778505,2.8336950793916365e-05
-0.23888800603963317,-0.23888800603963317,1.0000443859768962,2.8299211768377412e-05
-0.23745129182207164,-0.23745129182207164,1.0000004270679705,2.829342921375149e-05
-0.2360325420180743,-0.2360325420180743,1.0000527155530825,2.8290503880932972e-05
-0.23425018267007544,-0.23425018267007544,1.0000016618028675,2.8287259833925225e-05
-0.23259544798347634,-0.23259544798347634,0.9999805211678849,2.8300595840290197e-05
-0.23084475115028907,-0.23084475115028907,1.0000081855962946,2.8297359206210627e-05
-0.2293227896123426,-0.2293227896123426,0.9999855171541487,2.829711306996879e-05
-0.22800899169087643,-0.22800899169087643,0.9999661151654884,2.8295074402607623e-05
-0.22672473484490183,-0.22672473484490183,0.9999812423898498,2.829282150857509e-05
-0.22525928444592863,-0.22525928444592863,0.9999521228206231,2.8295173566829562e-05
-0.22382627932020113,-0.22382627932020113,0.999988625111531,2.8293124910238763e-05
-0.22209238853683927,-0.22209238853683927,1.0000423479542675,2.8308735491036066e-05
-0.2203676540477318,-0.2203676540477318,0.9999984255287663,2.8296963515707163e-05
-0.21904896980486227,-0.21904896980486227,1.0000330500129402,2.8299008317855276e-05
-0.21757456089180777,-0.21757456089180777,0.9999864452881064,2.8298393643586574e-05
-0.21608741454110714,-0.21608741454110714,1.0000292034503633,2.8293104512535136e-05
-0.21474092206844944,-0.21474092206844944,0.9999939185805189,2.8290953049196895e-05
-0.21293627716950142,-0.21293627716950142,1.0000441967024107,2.8296900505999695e-05
-0.21125386845014874,-0.21125386845014874,0.9999739461816326,2.829713538970741e-05
-0.2096946029603714,-0.2096946029603714,0.9999062971187767,2.83150431498817e-05
-0.20778185273666167,-0.20778185273666167,1.0000397764251878,2.8301197264733816e-05
-0.20662466454159584,-0.20662466454159584,0.9999914103744576,2.828886038713097e-05
-0.20519178048634784,-0.20519178048634784,1.0000266317212587,2.829383327132105e-05
-0.20376094119637855,-0.20376094119637855,1.0000068351267053,2.829331898994489e-05
-0.20220020805863897,-0.20220020805863897,1.0000272974925628,2.8291680979512167e-05
-0.20045167731004768,-0.20045167731004768,0.9999645933112309,2.829781502913092e-05
-0.19861468012313707,-0.19861468012313707,1.0000256539110695,2.829449344403027e-05
-0.19749588828271952,-0.19749588828271952,0.9999794458127926,2.8298610626333618e-05
-0.1958598981575051,-0.1958598981575051,0.9999566581962741,2.8294578639077504e-05
-0.19447541104018456,-0.19447541104018456,1.0000027630824104,2.8295138941802504e-05
-0.19306505468994145,-0.19306505468994145,1.0000004385101697,2.828736778815874e-05
-0.19133035413105973,-0.19133035413105973,0.9999657143284939,2.8301083833314503e-05
-0.1896045070127002,-0.1896045070127002,0.9999650432954914,2.829768222613859e-05
-0.18817696906407946,-0.18817696906407946,1.0000515970252137,2.830064084922648e-05
-0.18678845024114707,-0.18678845024114707,0.9999737503934591,2.8294335654925435e-05
-0.1853435070544947,-0.1853435070544947,1.0000329629971143,2.8292342831010545e-05
-0.18395661000322433,-0.18395661000322433,0.9999558163877742,2.829083897035238e-05
-0.18264256454640418,-0.18264256454640418,0.9999937495189275,2.829379153627031e-05
-0.18086532411689404,-0.18086532411689404,0.9999446107573645,2.833581534598336e-05
-0.1791407323355088,-0.1791407323355088,1.0000185124250685,2.8297442212249322e-05
-0.17773236319335411,-0.17773236319335411,0.9999912397331192,2.8306560967918218e-05
-0.17612433376270928,-0.17612433376270928,1.0000262898947974,2.8297600938733813e-05
-0.17455509809879005,-0.17455509809879005,1.0000133756333907,2.8293671840296034e-05
-0.17324040132734808,-0.17324040132734808,1.0000009880293443,2.8293849474072805e-05
-0.171428200743685,-0.171428200743685,0.9999910024259879,2.829278595097305e-05
-0.16967367580218706,-0.16967367580218706,1.000012440860108,2.829677170389814e-05
-0.16804739420476836,-0.16804739420476836,1.000023092046324,2.836227114931731e-05
-0.16639138387472485,-0.16639138387472485,1.0000233047101443,2.8297179883003584e-05
-0.16475594080184236,-0.16475594080184236,0.9999910826531867,2.82953651802592e-05
-0.1633563527444494,-0.1633563527444494,1.0000266723413755,2.8291230296283505e-05
-0.16162266136452672,-0.16162266136452672,1.0000008710224744,2.829098409524104e-05
-0.15988041810269352,-0.15988041810269352,1.000014384699888,2.829747224495156e-05
-0.1581574528150668,-0.1581574528150668,0.9999442474515918,2.8296136180943053e-05
-0.15684127012864338,-0.15684127012864338,1.0000691257694974,2.8297706293149787e-05
-0.15536311939067673,-0.15536311939067673,0.9999564189232645,2.8297589696409782e-05
-0.15421583564020694,-0.15421583564020694,1.0000128913763462,2.8291109709030754e-05
-0.15285495161733706,-0.15285495161733706,1.0000073621703596,2.8291717340250213e-05
-0.1517552722551045,-0.1517552722551045,1.000011537557985,2.8295035821985616e-05
-0.15008788196719253,-0.15008788196719253,0.9999420678558263,2.8319924418815277e-05
-0.14836236866394756,-0.14836236866394756,0.999960450395155,2.8296209974687683e-05
-0.1470425540865108,-0.1470425540865108,1.0000266353382412,2.8298556003650146e-05
-0.14556983887814567,-0.14556983887814567,1.0000657843508622,2.829951608761075e-05
-0.14407940621094895,-0.14407940621094895,0.9999911063791485,2.8292891697504097e-05
-0.1427311343024485,-0.1427311343024485,1.00002476620937,2.8290896978130144e-05
-0.14102724710901385,-0.14102724710901385,1.0000386490351485,2.829307010204326e-05
-0.1392724126810208,-0.1392724126810208,1.0000026701173075,2.829961275760535e-05
-0.13768860458803828,-0.13768860458803828,0.9999825558710593,2.833350611219502e-05
-0.13577738613021212,-0.13577738613021212,1.0000737462474891,2.83020219447508e-05
-0.13461369541400928,-0.13461369541400928,1.000030966333276,2.8290204611810583e-05
-0.133183858031407,-0.133183858031407,0.9999787062705886,2.8291208126572546e-05
-0.13148097819212126,-0.13148097819212126,1.0000146137034842,2.828818864168513e-05
-0.1298788981526741,-0.1298788981526741,0.9999676634857215,2.8298234082570472e-05
