time,time,flux,flux_err
-0.499573288627289,-0.499573288627289,1.000203957041651,0.00020115794966403788
-0.49889265843709535,-0.49889265843709535,1.0000696841789514,0.00021066778546339026
-0.4981153228606369,-0.4981153228606369,0.9998796228988386,0.0002075486213537566
-0.49727117737165827,-0.49727117737165827,1.000117117806695,0.0002107257783761464
-0.49676477551620335,-0.49676477551620335,1.0000563525973845,0.0001911916697665796
-0.4957706196830259,-0.4957706196830259,1.0000797712248368,0.00018777043641114585
-0.4949289320007665,-0.4949289320007665,0.9999522175211091,0.00019183791503978452
-0.4940927908581216,-0.4940927908581216,0.9998883933964386,0.00018781057070336706
-0.49321530840024935,-0.49321530840024935,0.9999323811203343,0.00018792953501541103
-0.49263226122056947,-0.49263226122056947,0.9999575353868444,0.0001912071533442764
-0.49175380481283354,-0.49175380481283354,0.9998497623179586,0.0001877070697629471
-0.49103552112683246,-0.49103552112683246,1.0000483624096148,0.0001946593304167705
-0.49056275104230734,-0.49056275104230734,1.0000123251189446,0.0001912331153942806
-0.4895763391763467,-0.4895763391763467,0.9999845074664275,0.00018777020384419893
-0.48872335631895114,-0.48872335631895114,0.9998384967120734,0.00019114424737682754
-0.4876974582242838,-0.4876974582242838,1.00014677809851,0.00018425811913989296
-0.48697423370140314,-0.48697423370140314,1.0000237114810555,0.00018820094568673394
-0.4865624010501051,-0.4865624010501051,1.0000449781714729,0.00019122843243074013
-0.48593730044885886,-0.48593730044885886,1.0001958317776067,0.00019125356780697435
-0.4851185934126988,-0.4851185934126988,1.0001380509495765,0.0001912302901540359
-0.48443073983944485,-0.48443073983944485,0.9996397871068184,0.00019118053714189254
-0.4837920224996196,-0.4837920224996196,1.0002858590331556,0.00018785642794344844
-0.48279912041471107,-0.48279912041471107,1.0000090577636074,0.00019117217371224295
-0.48195873301374376,-0.48195873301374376,1.0000384732745513,0.00018770492121854553
-0.48090960563240515,-0.48090960563240515,0.9995658465513368,0.00018407835532394432
-0.4803608960319252,-0.4803608960319252,0.9996435093332993,0.00019121923634530854
-0.47976198878823195,-0.47976198878823195,0.9997348831140916,0.00022408691158625374
-0.47905402317337575,-0.47905402317337575,1.0001708402845755,0.00018776845623119396
-0.47837348458269846,-0.47837348458269846,0.999967510304913,0.00019113177698539872
-0.477672867532965,-0.477672867532965,0.9996915411177725,0.00019129813908086313
-0.47651715260144556,-0.47651715260144556,0.9998427671778917,0.00018772425907210378
-0.47585236306185835,-0.47585236306185835,0.999805034644568,0.00019116601950071958
-0.4749540333854384,-0.4749540333854384,0.9999348324838975,0.00018413815921405742
-0.4743329752349382,-0.4743329752349382,1.0001823084472294,0.00018772204933342203
-0.47391960149252554,-0.47391960149252554,0.9999715073959727,0.0002006947877946315
-0.4730279743966094,-0.4730279743966094,0.9995849791015481,0.00020618549321173158
-0.4723831996845547,-0.4723831996845547,0.9998285142738969,0.00019124643157560891
-0.471829918496951,-0.471829918496951,1.0001839179540202,0.0001913019368887905
-0.47073777988189247,-0.47073777988189247,1.0000968946627222,0.00018774921377753508
-0.46986626980869917,-0.46986626980869917,1.0000092553012037,0.0001876653491891122
-0.4689787788083777,-0.4689787788083777,0.9998870414739921,0.00018785482344238388
-0.46842661460323143,-0.46842661460323143,0.9998180981616768,0.0001877147605819344
-0.4680225899770448,-0.4680225899770448,0.9998010444064287,0.00019286983485386234
-0.4675457519086194,-0.4675457519086194,1.0001609038969241,0.00020676393649351446
-0.4666538402176229,-0.4666538402176229,1.0001021034698958,0.00018775612219978794
-0.46596927906721247,-0.46596927906721247,1.0001109622392284,0.00018763778460109757
-0.46527455217583336,-0.46527455217583336,1.000063184110246,0.0001912609167345471
-0.46423332633203246,-0.46423332633203246,1.0002156644465459,0.00018414109081163458
-0.46359623452954113,-0.46359623452954113,0.9999448841066452,0.00018762187813666043
-0.4627848538384569,-0.4627848538384569,0.9994560587735428,0.00018768714272032725
-0.4622316597487952,-0.4622316597487952,1.0001313799723588,0.00018767954530850585
-0.461796737808254,-0.461796737808254,1.0001072974452303,0.00018997499082145676
-0.46130305148981277,-0.46130305148981277,0.9996681512014683,0.00019118393415871478
-0.4603102934499475,-0.4603102934499475,0.9997316561571129,0.0001877841422006752
-0.45962109216525276,-0.45962109216525276,0.9999258780913756,0.00019116022726332533
-0.45885967373142195,-0.45885967373142195,0.9998649092978598,0.00018782340839844011
-0.4579107397275948,-0.4579107397275948,1.0001471016150931,0.00018769466181849402
-0.45718314190271486,-0.45718314190271486,0.9999116526384227,0.00019122167368188086
-0.45649436710009467,-0.45649436710009467,0.9998964082947428,0.00018415548471034456
-0.45588214321105625,-0.45588214321105625,1.0001112692231915,0.00018796938677763936
-0.4555410967674106,-0.4555410967674106,1.0001069862900915,0.0001913623618418335
-0.4550713067823381,-0.4550713067823381,0.9996995580677857,0.00019126728583867744
-0.4538920061906538,-0.4538920061906538,0.9999157476772792,0.0001876780755801722
-0.45334033728504436,-0.45334033728504436,1.0001776437081304,0.00019471959594763035
-0.45247197131611755,-0.45247197131611755,1.0002225592960539,0.00018585369555170546
-0.45184175666399823,-0.45184175666399823,1.0000806317662927,0.0001841619285421003
-0.451122019318791,-0.451122019318791,1.0001057225753645,0.00019108861428441076
-0.4503920301616745,-0.4503920301616745,1.000358985839568,0.00018780878869737081
-0.4496876296372648,-0.4496876296372648,0.9999297752857854,0.00018831790261099522
-0.449209613318817,-0.449209613318817,0.999852021539478,0.00019112896146569074
-0.44836952758269033,-0.44836952758269033,0.999990494223302,0.00018775366682437174
-0.44747592583225926,-0.44747592583225926,1.0000490480629258,0.0001912151524343573
-0.4468939867481822,-0.4468939867481822,0.9994575775848583,0.0001949058151346706
-0.44576797513836935,-0.44576797513836935,1.0001863742586157,0.0001841409574013935
-0.4450880054937443,-0.4450880054937443,0.9999434501560487,0.00018764194311196139
-0.44443923226863263,-0.44443923226863263,1.0002156891837004,0.0001947075423899338
-0.44376616267836655,-0.44376616267836655,0.999634488404007,0.00018778827661216534
-0.44321876759422596,-0.44321876759422596,0.9996664150922954,0.00018881012775434836
-0.4425130554442148,-0.4425130554442148,1.000086011849092,0.00018773862664644744
-0.44137304691357715,-0.44137304691357715,0.9999330417348693,0.00019123162099975646
-0.4409103517591575,-0.4409103517591575,0.9997730907848764,0.0001912669259608284
-0.4400114229265455,-0.4400114229265455,1.0001070174688196,0.00018424187346351715
-0.4392236965810298,-0.4392236965810298,1.000052349112686,0.0001911575718180028
-0.43864665805558617,-0.43864665805558617,0.9998745481155333,0.0001911641243126673
-0.4380043868051871,-0.4380043868051871,0.9996842242282089,0.00018766311057864536
-0.4372761241727858,-0.4372761241727858,0.9997648727638859,0.00019117165009141
-0.43671374178884437,-0.43671374178884437,1.0002626744313865,0.00019119608866200374
-0.43553002219960035,-0.43553002219960035,0.9999644315530116,0.00018774241048542063
-0.43477567870031636,-0.43477567870031636,0.9997391406993433,0.00019147314903514474
-0.4340339761107316,-0.4340339761107316,0.9998930155954706,0.000187747286387345
-0.4331575680502283,-0.4331575680502283,1.0000975492356659,0.0001877420204562202
-0.43258084158624116,-0.43258084158624116,1.000130411986178,0.00019117333512071974
-0.43189002731378423,-0.43189002731378423,1.0001083567121682,0.000191200166553799
-0.4312573978830187,-0.4312573978830187,0.9999123987434759,0.00018769288059305897
-0.4306636807039467,-0.4306636807039467,0.9996454091385191,0.0001910675887120278
-0.4300112614426325,-0.4300112614426325,0.9998711062942828,0.00019130557837728412
-0.42894800612884865,-0.42894800612884865,1.0000895806348882,0.000191202286788051
-0.428291320354765,-0.428291320354765,1.0000041053774336,0.00019182727683528613
-0.42719872573907197,-0.42719872573907197,0.9997447165989499,0.00018441098898934702
-0.42659119417367036,-0.42659119417367036,1.0001098425139123,0.00018768792806309135
-0.42588550437794764,-0.42588550437794764,1.000010104341594,0.00019465617706467556
-0.42506244676260396,-0.42506244676260396,0.9999209169435751,0.00018776226517315612
-0.42446031743384083,-0.42446031743384083,0.9999405853093466,0.00019111662619266008
-0.4238113002928003,-0.4238113002928003,1.0000933252431647,0.0001912463928322274
-0.4227468746135855,-0.4227468746135855,0.9999353682914709,0.00019118697013468337
-0.42190030845849835,-0.42190030845849835,0.9999069482798009,0.00018772010902574698
-0.4209417728656263,-0.4209417728656263,0.9998806403816627,0.00018822036523008056
-0.42047179662040435,-0.42047179662040435,0.9999046277720206,0.00018779166295158879
-0.42000784035808464,-0.42000784035808464,0.9998200847470107,0.00019471095951304162
-0.419124853446192,-0.419124853446192,1.000018393718549,0.00018414473815960426
-0.4185562543549167,-0.4185562543549167,0.9998784972053393,0.00019116692443994158
-0.41797540155312163,-0.41797540155312163,1.0000122924289685,0.00019131006795688712
-0.4171284313124488,-0.4171284313124488,0.9998998812344002,0.00018777308754651183
-0.4162676913398172,-0.4162676913398172,1.0001432207730916,0.0001911774838829862
-0.41525426141015487,-0.41525426141015487,1.0000574852070918,0.00018417658052572513
-0.41437114693071636,-0.41437114693071636,0.9998816182646453,0.00019114714490724738
-0.4139350172401464,-0.4139350172401464,0.9999207352583518,0.00019135514006631053
-0.4132496870817704,-0.4132496870817704,1.0000238644643087,0.00022128303650094115
-0.41245901644579136,-0.41245901644579136,0.9997364658745838,0.00019120980415007503
-0.41190585327713053,-0.41190585327713053,1.00010448425884,0.0001911960555008399
-0.4109421435681725,-0.4109421435681725,1.0004038785794878,0.0001878395388782514
-0.40991625546521393,-0.40991625546521393,0.9995830141942589,0.00018772498020963596
-0.4092344463999325,-0.4092344463999325,0.9996529112778617,0.00018760019586148622
-0.4084643235852127,-0.4084643235852127,0.999767363002446,0.00018418440110790432
-0.4079427093405684,-0.4079427093405684,0.9999793554467858,0.0002010063403661406
-0.40734143334739203,-0.40734143334739203,0.9999196198618842,0.00021322629847756472
-0.40647811229173386,-0.40647811229173386,0.999819942414464,0.0001877609943698152
-0.4059139928649529,-0.4059139928649529,1.0000301165572811,0.00018770898577320783
-0.40522028387204045,-0.40522028387204045,0.9997949983887233,0.0001912861645380789
-0.40406745644795594,-0.40406745644795594,0.9998370332607334,0.00018771551005487163
-0.4032483248978679,-0.4032483248978679,1.000021359015471,0.00019115866420343737
-0.4025097656689468,-0.4025097656689468,0.9996093627256133,0.000184182002664702
-0.4019477469919366,-0.4019477469919366,0.9997357778467977,0.0001877320302846545
-0.4016012598574889,-0.4016012598574889,0.9997419821280651,0.00019647245697931084
-0.4007538493056927,-0.4007538493056927,1.0005637450667062,0.00020080148443907684
-0.39992773906524237,-0.39992773906524237,1.0000287937945584,0.00019108442467754246
-0.3993772673580679,-0.3993772673580679,0.99995396032124,0.00019121446531525498
-0.39836963593079416,-0.39836963593079416,1.000096614224598,0.00018773368490255824
-0.3975277059005748,-0.3975277059005748,1.0000869398585892,0.00018413408283317144
-0.39686633283236006,-0.39686633283236006,0.9997134918139772,0.0001911676947308455
-0.3962082646645285,-0.3962082646645285,1.0002898273028042,0.00018776297329906898
-0.39568861949628625,-0.39568861949628625,0.9998276404146065,0.00018659072678340477
-0.39533556001733816,-0.39533556001733816,0.9995776888858188,0.00019118427750692229
-0.39440152317401955,-0.39440152317401955,1.0001203638327851,0.0001877389501586345
-0.39362508219746817,-0.39362508219746817,0.9998326479861774,0.00018767830053250057
-0.39304638526737107,-0.39304638526737107,0.9999387551312982,0.00019479976246895733
-0.39193984958728834,-0.39193984958728834,0.9999585528900612,0.00018417544844291544
-0.39123905221786115,-0.39123905221786115,0.999722936644287,0.00018410610274095524
-0.3905978956714534,-0.3905978956714534,1.0001437711002685,0.00019469108589396843
-0.39001472912714236,-0.39001472912714236,0.9999151781740441,0.00018770202857610176
-0.3894951197959017,-0.3894951197959017,1.0002600738192493,0.00018471941046695016
-0.38914397980588544,-0.38914397980588544,0.9998863878754616,0.0001911768808765427
-0.388310918166826,-0.388310918166826,0.999927697907337,0.00018775334958867745
-0.3874247011670377,-0.3874247011670377,0.9997336673676542,0.00019126368394445787
-0.3868435594864422,-0.3868435594864422,0.999697113626407,0.0001947194669085483
-0.3858895572589972,-0.3858895572589972,1.0000666907486562,0.00018242512795161106
-0.38530230277756344,-0.38530230277756344,0.9997365201837937,0.00018779016509057095
-0.3845559579352994,-0.3845559579352994,1.0001579686968818,0.00019462325361876314
-0.38382518643811636,-0.38382518643811636,0.9996828271858245,0.00018414390860825892
-0.3832661961725535,-0.3832661961725535,1.000220878347171,0.00018824053091153912
-0.3827566392683366,-0.3827566392683366,1.0000241499726807,0.00019466655433822265
-0.38166628554208726,-0.38166628554208726,1.0000208775982826,0.00018773203700722343
-0.3809644525299518,-0.3809644525299518,0.999945231864378,0.00019130769515392554
-0.38021650696937287,-0.38021650696937287,0.9998350618156169,0.00018814919704268
-0.37939782092435054,-0.37939782092435054,0.999900586554034,0.00018424507213615776
-0.3787315345904062,-0.3787315345904062,1.0001111107560672,0.00019118440796052555
-0.3780374794107047,-0.3780374794107047,1.000137201812378,0.00019119508602585751
-0.377393629411381,-0.377393629411381,1.0001008450032138,0.00018779016622795378
-0.37684950432012554,-0.37684950432012554,0.9996071452272576,0.00018869345352508582
-0.37598912391986233,-0.37598912391986233,0.999705297621521,0.00018774339138297237
-0.37502083759864036,-0.37502083759864036,0.9998625811988731,0.00019112935548631785
-0.3745631707883149,-0.3745631707883149,1.0002495763260193,0.00019132797137404116
-0.3735481146184611,-0.3735481146184611,0.9998249869991269,0.00018780091019459307
-0.37283350461002557,-0.37283350461002557,1.0001811773114109,0.0001876410262994441
-0.3722824145246705,-0.3722824145246705,0.9999820625524543,0.0001946130052129029
-0.37156463336250456,-0.37156463336250456,1.0001481688233083,0.00018762095786242615
-0.37091708764601206,-0.37091708764601206,0.999882646664527,0.000187711844161017
-0.3703153552076401,-0.3703153552076401,0.9999626018501917,0.0001912273779149935
-0.36902650149640975,-0.36902650149640975,0.9999036490010376,0.0001876849866552128
-0.3684547229924647,-0.3684547229924647,1.0002059842988469,0.00019498985842115018
-0.36756794244865887,-0.36756794244865887,0.999776434909375,0.00018422988201639102
-0.36676909579218775,-0.36676909579218775,1.000011253460156,0.00019116069665574614
-0.36619020178222855,-0.36619020178222855,1.0000448065086327,0.00019117536639036816
-0.365556950917744,-0.365556950917744,0.9998265098676338,0.00018769964251476892
-0.36482175252785964,-0.36482175252785964,0.9997749024544472,0.000191195094966101
-0.36433000958204503,-0.36433000958204503,1.0000791415481125,0.000191245977361482
-0.3635137108805793,-0.3635137108805793,0.9998551626735018,0.0001877862355776434
-0.36257808740228936,-0.36257808740228936,1.000049043788724,0.00019117817867765537
-0.3617905609862646,-0.3617905609862646,1.000001745360259,0.00019197668661874865
-0.36082850890015833,-0.36082850890015833,1.0001120711507416,0.00018432181335746074
-0.360227971374843,-0.360227971374843,0.9998385112018576,0.0001910931259696663
-0.3594922142157884,-0.3594922142157884,0.9999842386556613,0.00019130921213565393
-0.358620732165582,-0.358620732165582,1.0000009730960355,0.00019125809506777568
-0.3581271558436129,-0.3581271558436129,0.9997088362264301,0.00019112622087904526
-0.35731838261817755,-0.35731838261817755,0.9998639078224739,0.00018774485354964594
-0.3563770747779927,-0.3563770747779927,0.999936838617986,0.0001912989834458264
-0.35539067124118445,-0.35539067124118445,0.9995630708065152,0.00018771384469808052
-0.35458070709501044,-0.35458070709501044,0.9998686120308541,0.00018820097558557483
-0.3541343771976244,-0.3541343771976244,0.9997225433274352,0.00019129790238520475
-0.3535911812381528,-0.3535911812381528,0.9998988874646486,0.0001911839417796537
-0.352742050957022,-0.352742050957022,1.000085256226757,0.00018771874449589063
-0.3520678020984633,-0.3520678020984633,1.0001207208501044,0.0001912519659363809
-0.35148742293058605,-0.35148742293058605,0.9998486224255287,0.00019122896246156871
-0.3504385590407765,-0.3504385590407765,0.9997954762077713,0.00018770811395007022
-0.349700820693397,-0.349700820693397,1.0000139791874154,0.00019124039106726732
-0.3485281529756321,-0.3485281529756321,1.0000202864061565,0.00018411849374436263
-0.3479344660176139,-0.3479344660176139,0.9995717958280055,0.00019126702109482547
-0.347411926660061,-0.347411926660061,1.0000165904878187,0.0002243404591506736
-0.3466758857935929,-0.3466758857935929,1.0001854188821824,0.00018423810347068453
-0.3459809768879495,-0.3459809768879495,0.9999123761785287,0.00019461537754578005
-0.34540182434975575,-0.34540182434975575,0.9998752779446294,0.00019127732901139946
-0.344242756400854,-0.344242756400854,1.000047097903154,0.000187691048338212
-0.3435706890126312,-0.3435706890126312,0.999710637511343,0.00018761442316093095
-0.3428014372846519,-0.3428014372846519,1.0000751821710687,0.00018773378522810843
-0.3420715252570517,-0.3420715252570517,0.9996424040258176,0.00018773770847741697
-0.3416287521598861,-0.3416287521598861,1.0000154561277306,0.0001979920274051047
-0.3409312717314606,-0.3409312717314606,0.9997778104960954,0.0002139730061325506
-0.3400810297654971,-0.3400810297654971,0.9997187533409194,0.00018783405554197256
-0.339519336502417,-0.339519336502417,0.9998726883534761,0.00019112773446317425
-0.33874121230292076,-0.33874121230292076,0.9998068272101834,0.0001877991534238502
-0.3376314251945587,-0.3376314251945587,1.0002868408080872,0.00018775484299899715
-0.33681476151105016,-0.33681476151105016,0.9999872274261502,0.0001911530152320539
-0.33614813503590996,-0.33614813503590996,0.9997414921839709,0.00018776241953450445
-0.33562967685174955,-0.33562967685174955,1.000240453890943,0.00018777413661397646
-0.33521060066013886,-0.33521060066013886,0.9997309417219664,0.00019675289989762898
-0.33433237753997674,-0.33433237753997674,0.9998100121964286,0.00019795396294478533
-0.33367455420593617,-0.33367455420593617,0.9998706143602192,0.0001911272924605269
-0.33312388235863183,-0.33312388235863183,0.9999313976284725,0.00019128985663816506
-0.3321158989725518,-0.3321158989725518,0.9999707644281853,0.0001877407020069736
-0.3312737145439314,-0.3312737145439314,0.9999040358535867,0.0001841216593889425
-0.33061310523517023,-0.33061310523517023,1.0000117756827966,0.00019119329588784462
-0.3299545034489711,-0.3299545034489711,0.9999819750652463,0.00018777279392886563
-0.3294348549370625,-0.3294348549370625,0.9999016928219511,0.00018671639314773444
-0.3290823560975696,-0.3290823560975696,1.000203701242428,0.00019114979213827896
-0.3281478146505833,-0.3281478146505833,0.9999814400469342,0.0001878317772034198
-0.32737159433672786,-0.32737159433672786,0.9999182589555128,0.0001876186913903882
-0.3267932437825948,-0.3267932437825948,1.0000427019302605,0.00019475596744534585
-0.32568584441396525,-0.32568584441396525,1.0000516067365943,0.00018417894515527
-0.3249652158909157,-0.3249652158909157,0.99976129060611,0.00018765544821554438
-0.3241898918793595,-0.3241898918793595,1.0000632605782784,0.0001912241106427379
-0.323647925115074,-0.323647925115074,0.9999566322426544,0.00018773646821554417
-0.32317679937368665,-0.32317679937368665,1.000221674365612,0.00018832696669719657
