time,time,flux,flux_err
-0.49988284817482054,-0.49988284817482054,0.9979321778029554,0.0030757964757831277
-0.499748281715559,-0.499748281715559,0.9973217739097207,0.004777070054476791
-0.4995364864644216,-0.4995364864644216,0.9992400339899966,0.0028671261928928608
-0.4994555104865867,-0.4994555104865867,0.997185098645802,0.002580596203720069
-0.4993453208480787,-0.4993453208480787,1.0006663059942535,0.0027571058947932514
-0.49918612876863333,-0.49918612876863333,0.9992165795512452,0.003859807016941088
-0.4990303545164352,-0.4990303545164352,0.9976086473521295,0.00274516309475237
-0.4988977497945598,-0.4988977497945598,1.001399271921842,0.0030907098458695316
-0.49881431983594665,-0.49881431983594665,0.9974957353300749,0.0028962897734328666
-0.4987204940698575,-0.4987204940698575,0.9998184462985881,0.0027189600172943225
-0.4986101473179588,-0.4986101473179588,1.0014675113523699,0.0028373553891981543
-0.49846406250144354,-0.49846406250144354,1.0010526354583056,0.004083988531476924
-0.4982903919335513,-0.4982903919335513,1.001795336094454,0.0025417647768911466
-0.4981290678777441,-0.4981290678777441,0.9978790426778048,0.002683866733401481
-0.4979385631464538,-0.4979385631464538,0.9985649966069101,0.0036219302614935132
-0.49782211639831075,-0.49782211639831075,1.0019775642768107,0.0027572832752579654
-0.49771113912429427,-0.49771113912429427,0.999993434474424,0.003873631430924296
-0.49759915225658913,-0.49759915225658913,1.003281797025948,0.003623552220985443
-0.49739258661866187,-0.49739258661866187,1.000056170855401,0.0025554060121493255
-0.4973111071056337,-0.4973111071056337,0.9966787709547766,0.003844216450873731
-0.4972150597583095,-0.4972150597583095,0.9999821967861943,0.0026897227292783793
-0.4970931560332247,-0.4970931560332247,1.000892610510635,0.0025376880052723916
-0.49698284937330756,-0.49698284937330756,1.0036830681998072,0.003835500736687985
-0.49692914941042543,-0.49692914941042543,1.0004776974056255,0.002912376614950663
-0.49686532248742876,-0.49686532248742876,1.0024064169291456,0.0035822719945772345
-0.4967753714205173,-0.4967753714205173,0.9995543876332043,0.0040166378009399845
-0.4966846491697652,-0.4966846491697652,1.0008506752859883,0.004511177551480795
-0.4965711023614858,-0.4965711023614858,0.9998369057741966,0.0030243030197225533
-0.49648894960046164,-0.49648894960046164,0.9995008894284103,0.0029212169688236445
-0.4964404715770797,-0.4964404715770797,0.9989187080042615,0.0039377789876812
-0.49632741761233773,-0.49632741761233773,1.0016345848885737,0.00321203452463529
-0.4962129942170577,-0.4962129942170577,1.0015398682035426,0.004050357227479886
-0.49614428209461037,-0.49614428209461037,0.9951439918907609,0.0030907520055687013
-0.4960556591569912,-0.4960556591569912,0.9985956627578666,0.0037401261084737555
-0.49588560050542585,-0.49588560050542585,1.0005940950664143,0.0037930871522040047
-0.49575923372685793,-0.49575923372685793,0.9990317372518858,0.002902437371158331
-0.4956878115350264,-0.4956878115350264,1.0012610858711515,0.0026147315315791916
-0.4956338364238036,-0.4956338364238036,1.0017114609677136,0.002696994975660414
-0.4955133023679082,-0.4955133023679082,1.0028293996767164,0.0029972121230591184
-0.49541744879534233,-0.49541744879534233,0.9983646579114357,0.003991956811972293
-0.49533577034962945,-0.49533577034962945,0.9995326327229307,0.0024697802879545343
-0.49523879040207247,-0.49523879040207247,0.9982997856787085,0.002920913154171657
-0.49513185443211116,-0.49513185443211116,1.0004793585639664,0.0028673941927003363
-0.4950345271128754,-0.4950345271128754,0.9999030752945515,0.002716021879523451
-0.49492912638597775,-0.49492912638597775,1.0036304093704183,0.002988462738618965
-0.49483168181977816,-0.49483168181977816,0.999381976112659,0.0031455252495508346
-0.49473796268430303,-0.49473796268430303,1.00268643439768,0.003748316922222681
-0.4945209150275332,-0.4945209150275332,1.0015223332519474,0.0037939120623464205
-0.4943742601608392,-0.4943742601608392,1.0004169568541592,0.0032219345833708222
-0.4942834177913028,-0.4942834177913028,0.9988956964913808,0.002526605336111495
-0.49412595297544615,-0.49412595297544615,1.000867104540785,0.002561404234387503
-0.49401228630158583,-0.49401228630158583,1.0033085819568746,0.002688522522020715
-0.4939291976923414,-0.4939291976923414,1.0016884083956457,0.0036910744053473407
-0.4938096489677264,-0.4938096489677264,1.0001008431535303,0.0027861283485876055
-0.4937190879667469,-0.4937190879667469,0.9999318465528301,0.002968275805717809
-0.49359662329006826,-0.49359662329006826,0.998508193848026,0.0029308303900070203
-0.493474777337542,-0.493474777337542,1.0022364855232264,0.0029566016823371092
-0.493378076004592,-0.493378076004592,0.9988185638532942,0.0026659973916026043
-0.4932713499190868,-0.4932713499190868,0.9995782743686672,0.0028699425943268684
-0.4931331061714445,-0.4931331061714445,0.9970358644064478,0.002237384859228695
-0.49300086296570955,-0.49300086296570955,0.9998338897660254,0.005612328366888505
-0.49290960749203805,-0.49290960749203805,0.9967437169678466,0.002820631093201932
-0.4926906722910644,-0.4926906722910644,0.9991688136703761,0.0031500041420323846
-0.4925586434015713,-0.4925586434015713,1.000867535591719,0.0029849677120122706
-0.4924088062813098,-0.4924088062813098,0.9977861102909579,0.0037691718834921726
-0.4923187482789217,-0.4923187482789217,1.005001673898711,0.003772582987253744
-0.4921493664412992,-0.4921493664412992,0.9997260861712227,0.002498112882070788
-0.4919856046741188,-0.4919856046741188,0.9983195702816291,0.003754504302083682
-0.4918591331967036,-0.4918591331967036,0.9989651121860508,0.0027889251880290076
-0.49175394571866493,-0.49175394571866493,1.0015418743350946,0.0027889938452511473
-0.4916637071815785,-0.4916637071815785,1.001428471811288,0.003701217101089759
-0.4915694346520468,-0.4915694346520468,1.0046809787063808,0.004321238801434928
-0.4914748821618559,-0.4914748821618559,0.9999240158955918,0.004715414454596405
-0.4913370290349121,-0.4913370290349121,0.9961178255220678,0.0037721851589907875
-0.4912242808262818,-0.4912242808262818,1.0001103854504196,0.0028007096824656853
-0.49109584109464777,-0.49109584109464777,1.0019429785598706,0.0038825474837908347
-0.49096210452116795,-0.49096210452116795,0.997795488172479,0.0025606429304989163
-0.4909139896459237,-0.4909139896459237,1.0006194510583797,0.0026004794363836308
-0.4908405280119041,-0.4908405280119041,1.0002615226807223,0.002861140978273437
-0.4907849905619514,-0.4907849905619514,1.0008100030385922,0.003854097244300031
-0.49071224110157347,-0.49071224110157347,1.0006213265478499,0.0034958171530347797
-0.4905687509286508,-0.4905687509286508,1.0004112222506842,0.003949239109569733
-0.4904524772551667,-0.4904524772551667,1.0002922409201909,0.004965228102399206
-0.4903789239906473,-0.4903789239906473,0.9995770928997381,0.003027320184888002
-0.4902988623114652,-0.4902988623114652,1.0011007966244185,0.004541051958995287
-0.4901934329966025,-0.4901934329966025,1.0045578573336715,0.0031427990380374473
-0.49012853015665314,-0.49012853015665314,1.0015977412167616,0.003206186269356954
-0.4900505685553071,-0.4900505685553071,1.0004043044292161,0.003625234055767674
-0.4899448181051412,-0.4899448181051412,1.0017644221367665,0.0029925535931484425
-0.48983408703788883,-0.48983408703788883,0.997805235606297,0.003684086602243155
-0.4896937560828519,-0.4896937560828519,1.000239400761918,0.0027903916907403748
-0.4895836794603383,-0.4895836794603383,0.9994444442112276,0.0026515747937437646
-0.48953150354209357,-0.48953150354209357,1.001604207187631,0.0028900801472142093
-0.4894458043541817,-0.4894458043541817,1.001390052020735,0.0037081054807019884
-0.48934117680983036,-0.48934117680983036,1.0006635902646481,0.0032386172907386034
-0.4892437802234781,-0.4892437802234781,0.9986077028889383,0.0035877392706145325
-0.48914280621538636,-0.48914280621538636,0.9998402115724497,0.0026528929002287726
-0.48902192216119145,-0.48902192216119145,0.9995051180279375,0.003062835869434166
-0.48892385551152984,-0.48892385551152984,0.9979192162531938,0.0027257707809369225
-0.48883033900274314,-0.48883033900274314,1.001098324104633,0.002796358418507641
-0.488651815582125,-0.488651815582125,1.0010074394476836,0.0028980956169860025
-0.48856919910977015,-0.48856919910977015,1.0006204852019587,0.003934319186787423
-0.48841112238587814,-0.48841112238587814,0.9998120252300369,0.00239123904894793
-0.48831658687558954,-0.48831658687558954,1.0011553190819658,0.002867843439518315
-0.48821020680697985,-0.48821020680697985,0.9996624115908663,0.002947036656174718
-0.48804639090740237,-0.48804639090740237,0.9979401274249167,0.002625222416670461
-0.4879642698688258,-0.4879642698688258,0.9983028271144775,0.0026177226355033525
-0.48791060274816117,-0.48791060274816117,1.0004923201753393,0.002359081687128147
-0.48780574855118175,-0.48780574855118175,0.9970923937010923,0.0030300285376981062
-0.4876442894266802,-0.4876442894266802,1.0009085444657388,0.003885482874214725
-0.4875203872055863,-0.4875203872055863,1.0009214148246892,0.0026393309178997407
-0.4874145267225686,-0.4874145267225686,1.0016747897734464,0.0027773431457410263
-0.4872970716591226,-0.4872970716591226,1.0025030111556832,0.003192562411013262
-0.48718900593812575,-0.48718900593812575,0.9998695572846312,0.002894363335923562
-0.4870951079596125,-0.4870951079596125,1.0008061892432587,0.0026343319652151415
-0.48691762029702657,-0.48691762029702657,1.0008781416036971,0.003636233585126071
-0.48670993618288777,-0.48670993618288777,0.9992690137864193,0.0028956389479854574
-0.4864468258296256,-0.4864468258296256,1.0021662229417028,0.002523984001744391
-0.48632393188236167,-0.48632393188236167,1.0024985975274758,0.0037327155128197855
-0.4861888639476092,-0.4861888639476092,0.9995555432639485,0.003880878251079155
-0.4859686170377245,-0.4859686170377245,1.000807470331328,0.0038234593986880465
-0.4857717883263831,-0.4857717883263831,0.998275530881471,0.0037410758759032817
-0.48568288028400275,-0.48568288028400275,0.9998988999673621,0.0027710195573701045
-0.48554925482530964,-0.48554925482530964,1.0018836851202777,0.002677919631188876
-0.4854600646380277,-0.4854600646380277,1.0020191691217533,0.0038837237700002684
-0.4853827996899781,-0.4853827996899781,0.9995092833165085,0.003912540998113531
-0.48531638413187467,-0.48531638413187467,1.0030884713123973,0.002709761111060854
-0.48524699699046325,-0.48524699699046325,1.0001848666648476,0.002903041105411294
-0.48516084721995867,-0.48516084721995867,0.9987945189364172,0.004525698685866942
-0.48508050412710874,-0.48508050412710874,0.9994303788335183,0.0028712928052253986
-0.48499229351218676,-0.48499229351218676,1.0004106381786397,0.0028205156340118417
-0.4849577361208503,-0.4849577361208503,1.0016758901483376,0.0028450652978630883
-0.4849008461555059,-0.4849008461555059,0.9977299052247419,0.0042026474871902164
-0.48477323528786653,-0.48477323528786653,0.9999785571557365,0.0036365418594630034
-0.48466504864773013,-0.48466504864773013,1.0015509982420299,0.0027895970973461207
-0.48459413262389717,-0.48459413262389717,0.9982792853967254,0.003958637953416029
-0.48447020194143986,-0.48447020194143986,0.9991368438654824,0.003746457468249402
-0.4842930658094701,-0.4842930658094701,1.0007025170007906,0.002892285327506632
-0.4841989475462469,-0.4841989475462469,0.9991727265351903,0.0026971130849025625
-0.4841190148195892,-0.4841190148195892,1.001665854106303,0.0027886986837701994
-0.4839969728709548,-0.4839969728709548,1.0007415060950176,0.003074565464666583
-0.48391339931986294,-0.48391339931986294,1.0008045037154703,0.0036668331184198737
-0.48383787040875176,-0.48383787040875176,1.0019657118829177,0.0029590191829063904
-0.48373775154614124,-0.48373775154614124,0.9987290535185762,0.0028143583494068397
-0.48362722766032673,-0.48362722766032673,0.999513780968136,0.003747680924671605
-0.4835159892689262,-0.4835159892689262,1.0005986947297663,0.0028144632718704356
-0.4833872613598942,-0.4833872613598942,1.0036160264573564,0.0031965341908391223
-0.4832739650257281,-0.4832739650257281,0.9988954842262455,0.003912617138715284
-0.48316884797022797,-0.48316884797022797,0.9987583909717539,0.0037496077372626384
-0.48295814229786627,-0.48295814229786627,0.9993697692119745,0.0033880957650987364
-0.4828142362915969,-0.4828142362915969,0.9988948120910728,0.0029771894933943305
-0.48267613667048864,-0.48267613667048864,0.9962796297713709,0.0024894292349193596
-0.4825872863722907,-0.4825872863722907,1.0012058356440259,0.0024939752968171783
-0.48247444026346786,-0.48247444026346786,0.9989250303159014,0.002948686395019361
-0.4823815510993882,-0.4823815510993882,1.0020358469646975,0.0037027550676001684
-0.4822515122476034,-0.4822515122476034,0.9973357842173115,0.002941577200239143
-0.482161680739955,-0.482161680739955,1.0017851481369155,0.002883527202871655
-0.4820291617696057,-0.4820291617696057,1.0002807401453038,0.0030464541699915825
-0.48192181628546676,-0.48192181628546676,1.0015900768348187,0.0027796176096045386
-0.4818406870777835,-0.4818406870777835,1.0001880916615533,0.0026690264443606404
-0.48174174079467774,-0.48174174079467774,1.0002219446520426,0.0028681973718421936
-0.48160694675825655,-0.48160694675825655,0.9995745576800582,0.0023311806600164547
-0.48146557251020566,-0.48146557251020566,0.9946062189189238,0.0050508162397371785
-0.4813907629970345,-0.4813907629970345,0.999371991236003,0.0030020119601169293
-0.48117074016918193,-0.48117074016918193,1.000455750214431,0.0031675722292968623
-0.4810038926152629,-0.4810038926152629,1.0000487541586505,0.002535915851873862
-0.48088534547860035,-0.48088534547860035,1.0019584467772886,0.0028113906219647536
-0.4807968911132775,-0.4807968911132775,0.996450740092893,0.0026537386941030616
-0.4806847002044378,-0.4806847002044378,0.9980648056515105,0.003699242919400642
-0.48052080445049794,-0.48052080445049794,1.001432484763354,0.0035053857085139356
-0.4804023107724788,-0.4804023107724788,1.0005401561410117,0.002613441097680676
-0.48028484317328546,-0.48028484317328546,0.9973197907493722,0.00282076540429574
-0.4801785937299428,-0.4801785937299428,0.9994617990377268,0.003743653399676761
-0.48009840387749136,-0.48009840387749136,0.9987693346321695,0.002714988516212289
-0.47998733977656227,-0.47998733977656227,1.0025155816295988,0.005154149193955571
-0.47983869976887944,-0.47983869976887944,0.998337551455515,0.004681266112454959
-0.4796454063798592,-0.4796454063798592,0.9973580545556624,0.003808556729748367
-0.4794797112554079,-0.4794797112554079,1.0015165781229267,0.0027108404156999948
-0.4793966219091089,-0.4793966219091089,0.9993602327343002,0.002458298119950067
-0.4793179572137888,-0.4793179572137888,0.9999927203363104,0.002956662431532352
-0.4792641516047297,-0.4792641516047297,0.9999611349016637,0.003854904726200982
-0.47917358867416626,-0.47917358867416626,0.9989932920530533,0.0034970076679664884
-0.47906215265684293,-0.47906215265684293,0.9991876783837407,0.003857275534198473
-0.47894899248713046,-0.47894899248713046,1.0006247039167022,0.003663355008189597
-0.4788612477488641,-0.4788612477488641,0.9971864954825289,0.0026151946442065973
-0.4787834145667148,-0.4787834145667148,0.9988669458579637,0.003747855810352859
-0.4786850698059425,-0.4786850698059425,0.9986712712620527,0.0038564511357229323
-0.4786110598826781,-0.4786110598826781,0.9992857395241854,0.0033139096057068973
-0.47854063907434463,-0.47854063907434463,1.000020079206033,0.003723585999062403
-0.4784370505847619,-0.4784370505847619,0.9989497705335921,0.0028704456477039366
-0.4783234053677006,-0.4783234053677006,1.0009653155074065,0.0037894258767921934
-0.4781418053607922,-0.4781418053607922,0.9987324408402527,0.002602267462211976
-0.4780542792701453,-0.4780542792701453,1.0000702333168623,0.00287766586706924
-0.4780009174864972,-0.4780009174864972,0.9993506338335987,0.002858800001452313
-0.47792870051489444,-0.47792870051489444,0.9997261608728472,0.0037199382424556856
-0.47780473490565784,-0.47780473490565784,1.0010416660238382,0.0032465656167131956
-0.47772789329028453,-0.47772789329028453,1.0008638763791826,0.0038221339252225836
-0.477648605806462,-0.477648605806462,1.0018318665894093,0.002455403401924451
-0.4775257706438424,-0.4775257706438424,0.9998120039870457,0.002963127103758807
-0.47742476103740045,-0.47742476103740045,1.003537397208031,0.0028807114390352355
-0.47731188727775586,-0.47731188727775586,1.0015973847712918,0.0027947465156910795
-0.47716025358677144,-0.47716025358677144,1.0013432869567673,0.003152158516557328
-0.47705875829196887,-0.47705875829196887,1.0014210461832942,0.0038205693896058747
-0.4769041902341996,-0.4769041902341996,1.0021040874671683,0.0037058842053223815
-0.47680109372886365,-0.47680109372886365,0.9980130869678645,0.002864212198108925
-0.4766783350503829,-0.4766783350503829,1.000336484497857,0.0029843344430099707
-0.4765218715678202,-0.4765218715678202,0.9995520131437038,0.002634403817573528
-0.47645217166355,-0.47645217166355,0.9991525829656578,0.0027502569243464453
-0.476382319311233,-0.476382319311233,1.0020075972605755,0.0025400945234865
-0.4763055260293186,-0.4763055260293186,1.0001021245527124,0.0027882742337721174
-0.47617984996977614,-0.47617984996977614,0.9998851716735917,0.003777937646872411
-0.47600470745528584,-0.47600470745528584,0.99600432508583,0.002829587877314796
-0.4758883464593964,-0.4758883464593964,1.0020714906122012,0.002703440846778946
-0.4757588709660922,-0.4757588709660922,0.9981007612314381,0.003260768268458438
-0.4756135828087281,-0.4756135828087281,0.9994674597291148,0.0026612473595229694
-0.47550324750773143,-0.47550324750773143,0.9981096831442919,0.0034888848669777034
-0.47534263458292114,-0.47534263458292114,1.001128619242555,0.002945737799595476
-0.4751393712555,-0.4751393712555,1.001333839599349,0.002642434674818259
-0.4749218719698547,-0.4749218719698547,1.0001719478731685,0.0025262591660778037
-0.47482305123267,-0.47482305123267,1.00051241098406,0.00367466264597762
-0.4746855455618061,-0.4746855455618061,0.9977687415373465,0.0037853029074481938
-0.4745770521527447,-0.4745770521527447,0.9986146314957539,0.003667892508296685
-0.47434500992749234,-0.47434500992749234,1.0010938515643562,0.0037102009397111065
-0.47420361578842857,-0.47420361578842857,1.00136876632925,0.002678075190680134
-0.4740806251495087,-0.4740806251495087,0.9984988414632326,0.0025902546746716633
-0.4739725605184503,-0.4739725605184503,1.0007392655647191,0.003726022687494151
-0.4738918106624624,-0.4738918106624624,0.9982964305024324,0.0028308379371441623
-0.47379477338909054,-0.47379477338909054,1.0000479856912485,0.003617868531732603
-0.4737464858393651,-0.4737464858393651,1.0117620512061571,0.003079618040534841
-0.4736559628814575,-0.4736559628814575,1.0021360042398437,0.004402649026525712
-0.4735713269052212,-0.4735713269052212,1.0014927226959232,0.0031008657557114925
-0.47347217904025457,-0.47347217904025457,1.004058216944221,0.0030228129612262754
-0.47343709004926493,-0.47343709004926493,1.0008098940675962,0.0026669969764525413
-0.4733931353235675,-0.4733931353235675,0.9979549868900579,0.003855890460017141
-0.4732982095112675,-0.4732982095112675,0.9979726486864491,0.0029167730813979423
-0.47318149641287166,-0.47318149641287166,1.000385765213955,0.0038311286784855486
-0.47309700547266403,-0.47309700547266403,1.0024588821348435,0.002927296411709778
-0.4730018902286247,-0.4730018902286247,1.0023782525307765,0.0038204867816176427
-0.47283505223022076,-0.47283505223022076,0.9981292013820673,0.0037281238478331763
-0.4727337813361373,-0.4727337813361373,0.9983420399602766,0.0036609397411697954
-0.4726541388379701,-0.4726541388379701,0.9946976005759328,0.0027336389026359495
-0.47257433485792716,-0.47257433485792716,1.0010256597783254,0.002674873450540062
-0.4724874660743808,-0.4724874660743808,1.0008167443318372,0.00303808987680304
-0.47239842837952895,-0.47239842837952895,1.001258850684404,0.002954192037691196
-0.47231968642081484,-0.47231968642081484,1.000797393191058,0.0035684331773083488
-0.47218371942362863,-0.47218371942362863,0.998974559610329,0.0038378242802287197
