time,time,flux,flux_err
-0.4999447306957639,-0.4999447306957639,1.0000300300124874,8.666375607179638e-05
-0.4998138216462394,-0.4998138216462394,1.0000381938782366,7.651625726736488e-05
-0.4997473714560329,-0.4997473714560329,1.000017966156356,7.558105465464024e-05
-0.499550582246593,-0.499550582246593,1.000183507429074,7.305872500578274e-05
-0.4994177871187276,-0.4994177871187276,1.0000643344491706,7.674633592936951e-05
-0.49934263156537784,-0.49934263156537784,0.9999158114861609,7.428845777457643e-05
-0.4992480515182251,-0.4992480515182251,0.9999573253392466,7.29347020533414e-05
-0.49914681219815976,-0.49914681219815976,1.0000989154257947,7.269729249731444e-05
-0.4990330883585557,-0.4990330883585557,0.9999512384431399,7.704947649761585e-05
-0.4988651592248061,-0.4988651592248061,1.000018223473187,7.418228671000311e-05
-0.49878947600736867,-0.49878947600736867,0.999907131338313,7.394827032295866e-05
-0.49868776998118847,-0.49868776998118847,0.9999277964056814,7.615024117892704e-05
-0.49860973912655027,-0.49860973912655027,1.0000889070817556,7.603190792665168e-05
-0.4984111067300546,-0.4984111067300546,0.9999591951155367,7.536311141629315e-05
-0.49832347958581524,-0.49832347958581524,0.9999938223244385,7.306145154810454e-05
-0.4981669844681164,-0.4981669844681164,1.0001721165374395,7.771809182570451e-05
-0.49802291495725515,-0.49802291495725515,1.0000254822310217,7.358999573743912e-05
-0.49788964650797424,-0.49788964650797424,0.9999168783488563,8.144360261034444e-05
-0.497757133669802,-0.497757133669802,1.0001162502263945,7.643402138986586e-05
-0.4976716111792484,-0.4976716111792484,0.999981267866626,7.745107377582352e-05
-0.49757230401592095,-0.49757230401592095,1.0001022644078987,7.332775908013824e-05
-0.4974688355323451,-0.4974688355323451,1.0000448868569625,7.581396137891264e-05
-0.4973813748845714,-0.4973813748845714,0.99999979573945,7.34294687524308e-05
-0.49726415806799196,-0.49726415806799196,1.0000035155344178,7.485928981507047e-05
-0.4971130795209319,-0.4971130795209319,1.000073459633579,7.44143346195507e-05
-0.4969244088795676,-0.4969244088795676,0.9999833880515757,7.374978040122563e-05
-0.49677425193585806,-0.49677425193585806,1.0000593754289033,7.435101556605897e-05
-0.4966002099063189,-0.4966002099063189,1.0000765173308044,8.27711346409526e-05
-0.4964522175156162,-0.4964522175156162,1.0000861206821683,7.551074585601051e-05
-0.4962859117797052,-0.4962859117797052,1.0001051374986691,7.579679471252668e-05
-0.49611239002770163,-0.49611239002770163,1.0000266094720842,7.594066547697658e-05
-0.4960137469548499,-0.4960137469548499,0.999925117552307,7.44402709152106e-05
-0.49586597624365825,-0.49586597624365825,0.9998785101364358,7.396752042091675e-05
-0.49572489671045333,-0.49572489671045333,1.0000735556089915,8.026439485888783e-05
-0.4956087646096421,-0.4956087646096421,1.0000366238053682,7.442677878320587e-05
-0.49552836114162346,-0.49552836114162346,0.9999093190688383,7.58526216848081e-05
-0.4954319730968564,-0.4954319730968564,0.9998829206226183,7.626611178561499e-05
-0.4953118598270521,-0.4953118598270521,0.9999686205980541,7.848135326547591e-05
-0.4950978749031492,-0.4950978749031492,0.9999692811363857,7.468787631911185e-05
-0.4949912912947184,-0.4949912912947184,1.000041713829565,7.479336451073899e-05
-0.4948640930386318,-0.4948640930386318,1.0001144843407759,7.305662891482349e-05
-0.49475420298840617,-0.49475420298840617,1.0001616382001686,7.549769517085123e-05
-0.49459298666115503,-0.49459298666115503,1.0000383192736453,7.711235762192464e-05
-0.49447037506251945,-0.49447037506251945,1.0000193984942523,7.409734198328318e-05
-0.49441696062422125,-0.49441696062422125,0.999982252168323,7.801415539023998e-05
-0.4943118851617328,-0.4943118851617328,0.9999461591398233,7.436205393537879e-05
-0.4941806095048378,-0.4941806095048378,1.0001089959369254,7.447630778445075e-05
-0.49406829590079726,-0.49406829590079726,0.9997947886252291,7.46648118568514e-05
-0.4938845518096059,-0.4938845518096059,0.9999375401891291,7.612278685625637e-05
-0.49372270551102704,-0.49372270551102704,0.9999788105063612,7.498978767148196e-05
-0.49361749950257944,-0.49361749950257944,0.9999443949828631,8.16044679174177e-05
-0.4934651510731783,-0.4934651510731783,1.0000821965055176,7.6280744101501e-05
-0.4933327247163106,-0.4933327247163106,1.0001030279715597,7.515517666023236e-05
-0.49324178728929835,-0.49324178728929835,0.9999713356992336,7.549641910592528e-05
-0.4931575058188173,-0.4931575058188173,1.0000673235439788,7.363548507552216e-05
-0.49308567190673785,-0.49308567190673785,1.00000972467808,7.613329086718594e-05
-0.49294020660599924,-0.49294020660599924,1.00000990835127,7.670541912648884e-05
-0.49281148861991825,-0.49281148861991825,0.9999809539664719,7.901300774295519e-05
-0.49267048372348654,-0.49267048372348654,0.9998593846937289,7.308677178930035e-05
-0.4925769327281159,-0.4925769327281159,0.9998723621068557,7.279821172443988e-05
-0.49240723937691655,-0.49240723937691655,0.9999610582826758,7.68675528621498e-05
-0.49226687003538244,-0.49226687003538244,0.999926062994423,8.219485054033252e-05
-0.49214191853025113,-0.49214191853025113,1.0000097423782763,7.848500806850544e-05
-0.4920179471715528,-0.4920179471715528,0.9998479107533882,7.510269380769919e-05
-0.49189846566368944,-0.49189846566368944,0.9999590434924442,7.598628202429593e-05
-0.49174407950631577,-0.49174407950631577,1.0000907931101028,7.309762654464675e-05
-0.4916397102206247,-0.4916397102206247,0.9999578937189618,7.656601645947794e-05
-0.49154246189355033,-0.49154246189355033,1.000011292042832,7.430528435011347e-05
-0.4914431095479813,-0.4914431095479813,0.9999486031006967,7.559521084362465e-05
-0.49129855960491114,-0.49129855960491114,1.0000025743730128,7.654462614354937e-05
-0.4911663716775365,-0.4911663716775365,0.9999773208045022,7.912836837187174e-05
-0.4910869550803909,-0.4910869550803909,0.9999637337658331,7.69916460097125e-05
-0.4909796838896,-0.4909796838896,0.9999374406625497,7.46866889694087e-05
-0.49083899829420263,-0.49083899829420263,0.9999459761073639,7.628132208062179e-05
-0.49072872353353886,-0.49072872353353886,1.0000217615813458,7.472918961009329e-05
-0.4905592452167184,-0.4905592452167184,1.0000944762794979,7.746169169720488e-05
-0.4904517186325393,-0.4904517186325393,1.0001450753722823,7.243992509202264e-05
-0.4903713154613797,-0.4903713154613797,0.999999542685743,7.7255130904729e-05
-0.49021754358618636,-0.49021754358618636,1.0000760132693258,7.703766519915463e-05
-0.4900504039527732,-0.4900504039527732,1.0000066775042806,7.427681753086042e-05
-0.4898982035127119,-0.4898982035127119,1.0000440435051043,7.537026604159277e-05
-0.4898024088302918,-0.4898024088302918,0.9999651094611413,7.530373104814077e-05
-0.4896619716913847,-0.4896619716913847,0.999967925390729,7.90655282657782e-05
-0.48942903387651315,-0.48942903387651315,1.0000183457088923,7.334595661030239e-05
-0.48930097131888034,-0.48930097131888034,1.000079465311815,7.981801679877233e-05
-0.48919444327038947,-0.48919444327038947,0.9999615142016222,7.528525241507881e-05
-0.4890530212498561,-0.4890530212498561,0.999959696736606,7.535588034644468e-05
-0.4889301443457953,-0.4889301443457953,1.000025609582725,7.763902319489267e-05
-0.4888274542361614,-0.4888274542361614,0.9999103647780048,7.803157546951911e-05
-0.48870203805927304,-0.48870203805927304,1.0000084308275565,7.361934188408009e-05
-0.488604441931966,-0.488604441931966,0.9999498410247657,7.722616949108602e-05
-0.4884444384879316,-0.4884444384879316,1.0000764563951858,7.607236366436843e-05
-0.4883384875291085,-0.4883384875291085,1.0000097362180866,7.472203211365067e-05
-0.48810653118271147,-0.48810653118271147,1.000019729126888,7.683057767026436e-05
-0.48798296202003255,-0.48798296202003255,1.0000911704355968,7.990697086178982e-05
-0.4878850010260066,-0.4878850010260066,0.9999446981117796,7.678447364691199e-05
-0.4877240652393084,-0.4877240652393084,1.000071001143794,7.715217023350161e-05
-0.4875838089188619,-0.4875838089188619,1.0000357293747986,7.580812680930378e-05
-0.48746858553931816,-0.48746858553931816,0.9999985122376991,7.483322815673524e-05
-0.48733088510853123,-0.48733088510853123,0.9999495199182376,7.336159072600681e-05
-0.4872516060073394,-0.4872516060073394,0.9999474284981602,7.782753608084966e-05
-0.4871200099682028,-0.4871200099682028,0.999988292393865,7.61532096006541e-05
-0.4869896339143452,-0.4869896339143452,0.9999930460317789,7.746441313775722e-05
-0.48685547871209567,-0.48685547871209567,0.9999559186837168,7.785489703439692e-05
-0.48667529026715783,-0.48667529026715783,1.0001011371229773,7.515058846396181e-05
-0.48657727555182645,-0.48657727555182645,0.9999348479306345,7.63995010917814e-05
-0.4864782913355157,-0.4864782913355157,1.000023506930949,7.557982737657235e-05
-0.48626320459807176,-0.48626320459807176,0.9999238477873573,7.376234671954948e-05
-0.4861075565160718,-0.4861075565160718,0.9999199037108617,7.274580662018648e-05
-0.4860629631955817,-0.4860629631955817,0.9998208872893548,7.595041205977595e-05
-0.48588993616431253,-0.48588993616431253,1.000035659833547,7.337800474905444e-05
-0.4857265565457055,-0.4857265565457055,0.9999397387067166,7.802858253279249e-05
-0.4856020152918063,-0.4856020152918063,1.0000503326930603,7.394092176699632e-05
-0.4854753711057128,-0.4854753711057128,1.0000234429002037,7.606411947870764e-05
-0.4853271005304123,-0.4853271005304123,0.999977349392173,7.871223984508708e-05
-0.4851705166467582,-0.4851705166467582,1.0000203292048953,7.323142111323669e-05
-0.48505078629605125,-0.48505078629605125,0.999938765751543,7.567244749840928e-05
-0.48497692638920853,-0.48497692638920853,0.9999786146381723,7.873897059316243e-05
-0.48487462779303314,-0.48487462779303314,0.99982243367595,7.777474922308599e-05
-0.48467825765837913,-0.48467825765837913,1.0001755721670988,7.362404498591994e-05
-0.4845161679550074,-0.4845161679550074,0.9999620098535014,7.639182102609476e-05
-0.4844242772356665,-0.4844242772356665,0.9999852115424233,7.62787079337763e-05
-0.48432339988285095,-0.48432339988285095,0.9999238803985856,7.386931020467918e-05
-0.4841840266475629,-0.4841840266475629,1.0000412324886108,7.408686658361067e-05
-0.4840108746328042,-0.4840108746328042,1.0000022711206324,7.380273707469621e-05
-0.48392306533205554,-0.48392306533205554,0.9999418006066818,7.42069908123028e-05
-0.48379276830528395,-0.48379276830528395,0.999987687004724,7.347984833022193e-05
-0.4836747127745184,-0.4836747127745184,0.9999046695994795,7.935364512121648e-05
-0.48355626189731993,-0.48355626189731993,1.0000800369901266,7.670299001063753e-05
-0.4833977532223798,-0.4833977532223798,1.0001267973530028,7.738891369716875e-05
-0.4832108642840467,-0.4832108642840467,1.0000479488258067,7.842546518532549e-05
-0.4830484661019,-0.4830484661019,1.0000272636576537,7.407230925749199e-05
-0.48295894543261964,-0.48295894543261964,1.000019299562614,7.405230118992602e-05
-0.4828440277124173,-0.4828440277124173,0.9999972713444738,7.48863661839745e-05
-0.48266081769834274,-0.48266081769834274,1.0000351276272965,7.492684822819524e-05
-0.48256743866950275,-0.48256743866950275,0.9999036743497491,7.395697442967009e-05
-0.4824245285657526,-0.4824245285657526,1.0001625549963216,7.992209381603647e-05
-0.48229063258622773,-0.48229063258622773,1.000032783359551,7.807333754698048e-05
-0.4822102441910829,-0.4822102441910829,0.9999230400519654,7.723328136845335e-05
-0.48211817454866834,-0.48211817454866834,0.9998789904186818,7.523797805039481e-05
-0.48184587148643915,-0.48184587148643915,1.0000266684738857,7.685448926779322e-05
-0.48173330285499105,-0.48173330285499105,0.9999847496160152,7.259638448201322e-05
-0.4815387255301175,-0.4815387255301175,1.0000993114146395,7.394966426926554e-05
-0.48133404001855523,-0.48133404001855523,0.9999437851597592,7.384714965754017e-05
-0.4812294955336256,-0.4812294955336256,1.0000384362051717,7.421842968523402e-05
-0.48107274110443543,-0.48107274110443543,1.000114023862682,7.753961745171757e-05
-0.4808046702994034,-0.4808046702994034,1.000007816059611,7.568136012078722e-05
-0.4806599287549034,-0.4806599287549034,1.0000490094962422,7.961995900436993e-05
-0.480568463831878,-0.480568463831878,1.000123259255017,7.431421650364808e-05
-0.4804707418610633,-0.4804707418610633,1.0000064759422271,7.470888489114912e-05
-0.4803382122212497,-0.4803382122212497,1.000054241588904,7.349834009442592e-05
-0.4801943491955171,-0.4801943491955171,1.0000434141605996,7.640119072171361e-05
-0.48009239335369785,-0.48009239335369785,1.000040714504038,7.573142902223005e-05
-0.48000857025836013,-0.48000857025836013,1.0001130251241885,7.383894476272841e-05
-0.4798975581281411,-0.4798975581281411,1.000052536020918,7.462421703055081e-05
-0.4797059613549209,-0.4797059613549209,0.9999921314781073,7.418167638781905e-05
-0.4796075216378085,-0.4796075216378085,1.0000225554570927,7.587535152716153e-05
-0.4794793001579819,-0.4794793001579819,1.0001037090258769,7.685423226446616e-05
-0.4793075198576844,-0.4793075198576844,1.0000614944858468,7.713243687209198e-05
-0.47918484774127135,-0.47918484774127135,1.0001689652469157,7.248683443753137e-05
-0.47904821819247445,-0.47904821819247445,0.9998830252905906,7.475796337056747e-05
-0.47888542267101003,-0.47888542267101003,0.9999855184616093,7.756647121603372e-05
-0.4787285120277375,-0.4787285120277375,1.0001792279680242,7.466534058052338e-05
-0.47863206314723356,-0.47863206314723356,1.0000010929851073,7.337241532550637e-05
-0.4784907421184471,-0.4784907421184471,1.0000302305925748,7.452457822205981e-05
-0.4782996802983689,-0.4782996802983689,1.0001241250311428,7.579680142902421e-05
-0.47821415911021176,-0.47821415911021176,1.0000686244703472,7.990424593389307e-05
-0.47803232219594066,-0.47803232219594066,1.0000559539504181,7.292229529807941e-05
-0.4779075340666168,-0.4779075340666168,0.9999084007459448,7.892576981729182e-05
-0.4778112961306761,-0.4778112961306761,0.9998782159272169,7.565275987693804e-05
-0.477627470142761,-0.477627470142761,1.0000667503791214,7.367035329999381e-05
-0.47741281858689033,-0.47741281858689033,0.9999554463941458,7.281176833296358e-05
-0.477303539631248,-0.477303539631248,1.0001198949310328,7.585913011282138e-05
-0.4771637040132191,-0.4771637040132191,1.000008126328171,7.401013007360319e-05
-0.4769598596576543,-0.4769598596576543,0.9999814072688608,7.552525696174209e-05
-0.4768678769869439,-0.4768678769869439,1.0001286626274475,7.437509599351814e-05
-0.4767749582701072,-0.4767749582701072,0.9999030606787727,7.880819947730447e-05
-0.4766571857238887,-0.4766571857238887,1.0001594294869298,7.718359182264163e-05
-0.4764254876965424,-0.4764254876965424,1.000002121912138,7.559827019753883e-05
-0.4763272178803163,-0.4763272178803163,1.000083645654069,7.675857506031309e-05
-0.4762386260961648,-0.4762386260961648,1.0000636867043091,7.532212160140064e-05
-0.47612597820334485,-0.47612597820334485,1.0000361774903284,7.486204657406228e-05
-0.47598736958389054,-0.47598736958389054,1.000168312005746,7.349382615351722e-05
-0.4758835679429467,-0.4758835679429467,0.9999980956360937,7.701140995107867e-05
-0.4757798457052559,-0.4757798457052559,0.9999069167574468,7.354270197519308e-05
-0.47567589188038256,-0.47567589188038256,1.0000115835987344,7.651126913437462e-05
-0.4756035837650415,-0.4756035837650415,1.000092606293345,7.355411331943886e-05
-0.4755207906346186,-0.4755207906346186,1.0000752498647565,7.480284188476631e-05
-0.47532427644109704,-0.47532427644109704,1.0000053696633837,7.391665298602422e-05
-0.4751749240989739,-0.4751749240989739,1.0000881721438835,7.477182188673503e-05
-0.4749950679266476,-0.4749950679266476,1.0000374800525158,7.798289176026844e-05
-0.4747807547362754,-0.4747807547362754,1.0000617687995483,7.368677004675296e-05
-0.4746405198260618,-0.4746405198260618,0.9998464569263689,7.709202513389841e-05
-0.47450491830386454,-0.47450491830386454,1.0000255203610409,7.612817485310507e-05
-0.4743603516217263,-0.4743603516217263,1.0000386422213583,7.540047985239509e-05
-0.47427122298031466,-0.47427122298031466,0.9999870286229384,7.725041286622356e-05
-0.4740433013867005,-0.4740433013867005,0.9999667126030184,7.34157704675919e-05
-0.47395422566478373,-0.47395422566478373,0.9998763929215778,7.536229562292222e-05
-0.4738619303541782,-0.4738619303541782,0.9998992642209235,8.092359121739375e-05
-0.47370456763674157,-0.47370456763674157,0.9999950244383304,7.282618180428384e-05
-0.47359317357841063,-0.47359317357841063,0.9998451987244694,7.719148482734589e-05
-0.4734867847793794,-0.4734867847793794,1.0000801516154105,7.493565046346525e-05
-0.4733763918018667,-0.4733763918018667,1.0001309430524765,7.814460131716508e-05
-0.4732015311034047,-0.4732015311034047,0.9999570597020938,7.562480952687229e-05
-0.47308973905455787,-0.47308973905455787,1.000015640552246,7.33160961971218e-05
-0.4729186145668791,-0.4729186145668791,1.0000179796884499,7.355860256876857e-05
-0.4728284160766634,-0.4728284160766634,1.0000428669190629,7.399452027165545e-05
-0.4726521410215355,-0.4726521410215355,1.0000448604697456,7.426309122281965e-05
-0.47255513204363525,-0.47255513204363525,0.9999902510339655,7.444544208842894e-05
-0.47244087077706354,-0.47244087077706354,0.9999545566622661,7.887314359686808e-05
-0.47238008246713437,-0.47238008246713437,0.999844963398153,7.58446274925518e-05
-0.4723356191199855,-0.4723356191199855,1.0000497360749432,7.938790040291675e-05
-0.4722021449408203,-0.4722021449408203,1.0000093012256188,7.503110097597039e-05
-0.4720476001959469,-0.4720476001959469,1.0001613733414954,7.30593134430483e-05
-0.47194864132688963,-0.47194864132688963,1.0001914441945634,7.443498740197812e-05
-0.47185651158142716,-0.47185651158142716,0.9999323178590096,7.716240650969142e-05
-0.4717579156815191,-0.4717579156815191,1.0000734986332183,7.460183378554831e-05
-0.47165318285187824,-0.47165318285187824,0.9999187609469937,7.688467707498689e-05
-0.4715077628963627,-0.4715077628963627,1.0001512113332218,7.762877453033823e-05
-0.4713835512804508,-0.4713835512804508,1.0001749438626872,7.537309091190643e-05
-0.47125586291440413,-0.47125586291440413,0.9999543717690624,7.58327453379718e-05
-0.47119292551797115,-0.47119292551797115,0.9998777008816709,7.466452594403381e-05
-0.4710497851840046,-0.4710497851840046,0.9999796659561035,7.342451140427614e-05
-0.47090031047700903,-0.47090031047700903,1.0000365500527764,7.842141873272955e-05
-0.4707884128518344,-0.4707884128518344,0.9999998190771319,7.908274399384492e-05
-0.47070441985852085,-0.47070441985852085,0.9999377211933755,7.702451593321558e-05
-0.47059444435944897,-0.47059444435944897,0.99996863974836,7.466189380166638e-05
-0.470420277233643,-0.470420277233643,1.000127600035034,7.34542585438251e-05
-0.47031989299794075,-0.47031989299794075,0.9999192347279584,8.032546592099913e-05
-0.47013339976692803,-0.47013339976692803,1.0000512944231028,7.596964035641558e-05
-0.47002118125383274,-0.47002118125383274,1.0001571740936044,7.497635332599603e-05
-0.46993217081617333,-0.46993217081617333,1.0001023194177283,7.780833761906724e-05
-0.46969262262864503,-0.46969262262864503,1.0000050197371375,7.474709832268895e-05
-0.4695976923852868,-0.4695976923852868,0.9999505368895163,7.706210665326337e-05
-0.46949952458307964,-0.46949952458307964,1.0001932324343388,7.852792623698723e-05
-0.4693808876683761,-0.4693808876683761,0.9997671859141797,7.356364810147636e-05
-0.4693248544972448,-0.4693248544972448,0.9998585158498969,7.635070087295323e-05
-0.4692136810903321,-0.4692136810903321,1.0000138315517373,7.411408971783992e-05
-0.4690812765104056,-0.4690812765104056,0.9999413934396543,7.584071891233687e-05
-0.4689363772609795,-0.4689363772609795,1.000135635079007,7.484672179929581e-05
-0.46877598196151665,-0.46877598196151665,1.000057938872823,7.415026534474527e-05
-0.4686448902939446,-0.4686448902939446,0.9999822170206304,7.376408924789444e-05
-0.468536189126462,-0.468536189126462,1.0000346394051471,7.633511491300644e-05
-0.46832222935117895,-0.46832222935117895,1.0000431225635689,7.468595094839976e-05
-0.4682050757073739,-0.4682050757073739,1.0000080155112172,7.991314587990392e-05
