time,time,flux,flux_err
-0.4998561695562482,-0.4998561695562482,0.9999058759615244,0.00014853118732879712
-0.4994947650496518,-0.4994947650496518,1.000075161694664,0.0001601153392635412
-0.4993333071906818,-0.4993333071906818,0.9999163687394665,0.00013719370715599015
-0.49919279560126595,-0.49919279560126595,1.0000175456690532,0.0001313790798052736
-0.49892986249615207,-0.49892986249615207,0.9999180593924996,0.00013542885474339294
-0.4987159977550618,-0.4987159977550618,0.99990005754129,0.00013184540133478307
-0.49834957081184256,-0.49834957081184256,1.0000296702389564,0.00015888019366312034
-0.4981518622225849,-0.4981518622225849,0.9998362776963307,0.00013469069204133437
-0.4979799878841732,-0.4979799878841732,0.9999661673512703,0.00013595328480111348
-0.49774077684269286,-0.49774077684269286,1.000160571947824,0.00013892507737728836
-0.49743645661510527,-0.49743645661510527,1.0001998845479902,0.00014992574507480938
-0.4971668755155406,-0.4971668755155406,1.0000236292181446,0.00014190374201669364
-0.49704608782194554,-0.49704608782194554,0.9998615418934262,0.00014396283722365174
-0.49671250280953244,-0.49671250280953244,0.9999178520276999,0.0001355912351195256
-0.49650648787792306,-0.49650648787792306,1.0000244829207925,0.00015376058344725906
-0.49623505685594865,-0.49623505685594865,0.9999627434820451,0.00014318770710347072
-0.49601630250544987,-0.49601630250544987,1.0000760514236433,0.000136622531227059
-0.4957441305334214,-0.4957441305334214,1.0001849426269718,0.00015347211801411696
-0.4955233935528668,-0.4955233935528668,0.9998541778006087,0.00013826315941748953
-0.4951735049238778,-0.4951735049238778,0.999756055157634,0.00013336720553656765
-0.49482110437820664,-0.49482110437820664,1.000097921864225,0.00014178788163324123
-0.49451561454479814,-0.49451561454479814,1.0000701668809515,0.0001423266189245023
-0.4943146833305946,-0.4943146833305946,0.9999277213425918,0.00014345090057896762
-0.4940052017700509,-0.4940052017700509,1.000283761371795,0.00013828147216413383
-0.4937988385994686,-0.4937988385994686,1.00021020070253,0.00013691982705625824
-0.4936262298782822,-0.4936262298782822,0.999910069302385,0.00014270686778720173
-0.4934449242966366,-0.4934449242966366,1.0000027171218073,0.00014217073742869678
-0.49320777533866933,-0.49320777533866933,0.9999300859642373,0.00013347367944504873
-0.4929193589283386,-0.4929193589283386,1.0001400414121555,0.0001498942226680393
-0.49260454097238837,-0.49260454097238837,1.000063409313785,0.0001343560347970959
-0.49248941393452694,-0.49248941393452694,0.9999228932656237,0.00015074407086747708
-0.4923679162428016,-0.4923679162428016,0.9999395504194007,0.0001437831783502942
-0.49216750889172545,-0.49216750889172545,0.9998150084803268,0.00013372578010529464
-0.491865897164098,-0.491865897164098,0.999978997571002,0.00013848447404821612
-0.4914438863983378,-0.4914438863983378,0.9999246503024366,0.00015210007413135832
-0.49115604617254577,-0.49115604617254577,1.0000942384308047,0.00014313336361476188
-0.4906967098591849,-0.4906967098591849,0.9999922541159874,0.0001363817747509853
-0.4905745957890758,-0.4905745957890758,1.0000641635483833,0.00015019950631455195
-0.49042632185010004,-0.49042632185010004,1.0002648083240868,0.00013801640434188983
-0.49023910539544885,-0.49023910539544885,1.0001985926209387,0.00014047630317474174
-0.49012500016542615,-0.49012500016542615,1.0002159599997422,0.00013851582470019827
-0.48992057224822927,-0.48992057224822927,0.999815666834887,0.00015028597992294157
-0.48971336928370873,-0.48971336928370873,0.9998826884625146,0.00014637646409795195
-0.4895758973871125,-0.4895758973871125,0.99997595922211,0.00014316933485895996
-0.4892158346425276,-0.4892158346425276,1.0001186069032932,0.00013893196551004503
-0.4889405177760636,-0.4889405177760636,0.9999477833405518,0.00014131901995034717
-0.48869539554289076,-0.48869539554289076,0.999860226674415,0.0001371012712396332
-0.4884416531524039,-0.4884416531524039,0.9998545891168591,0.00014920948689995053
-0.4882585011888295,-0.4882585011888295,1.0001930197836084,0.00013555386780015607
-0.48809407198277766,-0.48809407198277766,1.0000081051417622,0.00013730706550587612
-0.4878069279715419,-0.4878069279715419,0.9999682340620607,0.00014016101685079325
-0.4875472588086268,-0.4875472588086268,1.0000897499610586,0.0001426934741135306
-0.4872829729196383,-0.4872829729196383,0.9999886754725728,0.00013324372352552477
-0.4870562449839781,-0.4870562449839781,0.9999039907109865,0.0001328838805100693
-0.4868056765379151,-0.4868056765379151,1.0000334247440352,0.00014225162454635382
-0.4866521910676965,-0.4866521910676965,1.000045293230614,0.00015022280481880382
-0.48647429287084376,-0.48647429287084376,0.9998016226518761,0.00014395511704599518
-0.48630699432396796,-0.48630699432396796,1.0001584418035188,0.00013468434045354775
-0.48613537691126113,-0.48613537691126113,1.0001519476811431,0.00013889067627440894
-0.48579756184626605,-0.48579756184626605,0.9998592072436047,0.00014854797510333292
-0.4856031112038181,-0.4856031112038181,0.999965221316138,0.00014423275476409473
-0.48535338857909666,-0.48535338857909666,0.9999535439730526,0.00014995224530295852
-0.48515242730791214,-0.48515242730791214,0.9999287580714965,0.0001318989039271351
-0.48496194908802864,-0.48496194908802864,1.0001561721162817,0.00013504837684536662
-0.4847672514122678,-0.4847672514122678,0.999793547436673,0.0001532066571705023
-0.4845581830071751,-0.4845581830071751,0.9999873616195787,0.00014206584076040227
-0.48428523356560615,-0.48428523356560615,1.000093035554482,0.00014616139226895867
-0.484087575119338,-0.484087575119338,1.0000984718179313,0.0001417574635984053
-0.4839094923052471,-0.4839094923052471,0.9999819057184739,0.0001503816222408687
-0.4837221004461753,-0.4837221004461753,1.0000879192441663,0.00014180614952671308
-0.48347080702369566,-0.48347080702369566,1.000075055262304,0.00014113692375663565
-0.48332281147304457,-0.48332281147304457,0.9998412511390441,0.0001424916146731829
-0.4829516005964251,-0.4829516005964251,0.9999606657809306,0.00015478865089300328
-0.4826529699523235,-0.4826529699523235,1.0002704896610601,0.0001362917148530495
-0.4824865855043754,-0.4824865855043754,0.9999889193562902,0.00014504723336850126
-0.4821734591387212,-0.4821734591387212,0.9999420747490939,0.00013542806023225865
-0.48174207020056203,-0.48174207020056203,1.0000221453033185,0.00014909853520676252
-0.48141092195146484,-0.48141092195146484,1.0001743592650283,0.00013252727684352745
-0.4811514116328908,-0.4811514116328908,1.0000374022223832,0.00013452274906705232
-0.4809558106033364,-0.4809558106033364,0.9999083151645525,0.00014752515555881555
-0.4807840351902996,-0.4807840351902996,1.0002626438391715,0.00014104366021253269
-0.4806766091933241,-0.4806766091933241,1.0000894230326374,0.0001440719050438704
-0.48053632905211996,-0.48053632905211996,1.0000946198228298,0.0001339394666051059
-0.48036320607789096,-0.48036320607789096,1.0000115990050755,0.00014188993311421743
-0.4800109583098674,-0.4800109583098674,1.0001094482543504,0.00013887727158689463
-0.4797293003764935,-0.4797293003764935,1.0000354028480607,0.00015234023960682857
-0.4795269682974322,-0.4795269682974322,1.0001558030727522,0.0001460562647857139
-0.4793697349334252,-0.4793697349334252,1.0000424402832553,0.00013454306345169997
-0.479150559430127,-0.479150559430127,0.999897494953984,0.00013366201519224326
-0.4790082912048092,-0.4790082912048092,1.0001245130375813,0.0001461557378053527
-0.478841347474372,-0.478841347474372,0.9998555056076459,0.00015005895951561576
-0.4785323141055414,-0.4785323141055414,0.9999098191550712,0.0001325476735471097
-0.4784175677865278,-0.4784175677865278,1.000091750381048,0.0001440735126071175
-0.4781589986945619,-0.4781589986945619,0.9999735407397342,0.00015015722050171567
-0.47794622131623327,-0.47794622131623327,0.999955458559038,0.0001502897242574432
-0.477832032754668,-0.477832032754668,1.0001842602662676,0.0001432063210521392
-0.4776521746607614,-0.4776521746607614,0.9997643979220197,0.000135326930380965
-0.47743233794753903,-0.47743233794753903,1.0001862886091988,0.00014221851835595248
-0.47718954240408495,-0.47718954240408495,1.0000996800178905,0.00014424578329805544
-0.47698302260250786,-0.47698302260250786,0.9998017878112477,0.00014348377456248617
-0.47680736349138897,-0.47680736349138897,1.0000848037485732,0.0001467600364256518
-0.47643923142022687,-0.47643923142022687,0.9999218154561571,0.0001328962288093788
-0.4761675074638333,-0.4761675074638333,1.0001113293371648,0.00013785102185367296
-0.47583074992580804,-0.47583074992580804,1.0002325103859826,0.00014065122142229954
-0.47562334010290214,-0.47562334010290214,1.0002139825939989,0.0001337313656749927
-0.4753565292689018,-0.4753565292689018,1.0000036110772212,0.00013437631482274712
-0.4752066135260975,-0.4752066135260975,0.999966505545474,0.0001331784596543
-0.47489208415645406,-0.47489208415645406,0.9999380280157881,0.00014952224554554502
-0.4747519066382665,-0.4747519066382665,1.0000648739015054,0.00013694177641233334
-0.474577634788875,-0.474577634788875,0.9999900730284736,0.00013135082852097616
-0.47433440383465497,-0.47433440383465497,0.9996389799449922,0.0001388119101676114
-0.4741532278698287,-0.4741532278698287,1.0000997936753735,0.00013202704079334887
-0.47385135724034627,-0.47385135724034627,0.9999728294544271,0.00015768614661081207
-0.4736032150511164,-0.4736032150511164,1.0000384400107785,0.00013593271123394602
-0.4734409957949538,-0.4734409957949538,1.0000860699621852,0.0001347995766281098
-0.4732730874675326,-0.4732730874675326,0.9999657107152489,0.00014039185440232755
-0.47300491921487264,-0.47300491921487264,0.9998671987953314,0.0001406733505033008
-0.4728131755487993,-0.4728131755487993,1.0000830427739804,0.00014692326326807198
-0.4725348932057386,-0.4725348932057386,0.9999085164853291,0.00015021453409703087
-0.4723862999322591,-0.4723862999322591,1.00017851405117,0.00013381806814756887
-0.4721292430156609,-0.4721292430156609,1.0001289869935854,0.00014444744658577964
-0.4719540514925029,-0.4719540514925029,0.9996553336485621,0.0001451925230567563
-0.4717532808543183,-0.4717532808543183,1.0000857757428,0.00014353251332190886
-0.47152775518770795,-0.47152775518770795,1.000000418656775,0.00014095802774478612
-0.47128173749370034,-0.47128173749370034,0.9999388612852123,0.00014676539723872575
-0.4710624301369535,-0.4710624301369535,1.0000076808268084,0.0001463350350494065
-0.47082314844155915,-0.47082314844155915,1.0000828460434383,0.00013831365203297318
-0.47052544070756996,-0.47052544070756996,1.0001776070219086,0.0001341806248997017
-0.47024188545183276,-0.47024188545183276,1.0000962774460904,0.0001402403885901616
-0.46997749114525506,-0.46997749114525506,1.0002260025951664,0.00013286719247999256
-0.4697856700688135,-0.4697856700688135,1.0004526451215843,0.00015107452612417256
-0.4695186768163694,-0.4695186768163694,0.9999847176114194,0.00014222539877633333
-0.4692192660921137,-0.4692192660921137,1.0000594683193256,0.0001327353446547868
-0.4690479672019137,-0.4690479672019137,1.0000394227467162,0.00014961493992124287
-0.4688093156190007,-0.4688093156190007,0.9997972100079198,0.0001333673273770038
-0.46862586473289414,-0.46862586473289414,1.0000591365458527,0.00013362139462315886
-0.46825936425011605,-0.46825936425011605,0.9999807073746927,0.00014151028885186565
-0.4679946562508121,-0.4679946562508121,1.000178116325241,0.0001433272902457428
-0.4679021631061914,-0.4679021631061914,0.9999400166482258,0.00014183153948469022
-0.46777129228285047,-0.46777129228285047,1.0000140717248462,0.00014312054548420793
-0.4675840465177316,-0.4675840465177316,1.0001354273392469,0.00013404244328105828
-0.46721990462683605,-0.46721990462683605,1.000008797694122,0.00014654070006062242
-0.4667309247815865,-0.4667309247815865,0.999681943653494,0.00014361924880888844
-0.46641879524104296,-0.46641879524104296,0.9997881151704051,0.00014317194328294236
-0.46606037191522776,-0.46606037191522776,0.999935716228023,0.00015038460979937255
-0.4659408327119309,-0.4659408327119309,0.999834889543482,0.0001342849946683583
-0.4657113621913595,-0.4657113621913595,0.9998555447284421,0.00014470511452517062
-0.46555726457736457,-0.46555726457736457,0.9997034829981128,0.00013851944405264652
-0.46539148065494373,-0.46539148065494373,1.000316877158447,0.0001528264394335694
-0.46517963165824766,-0.46517963165824766,1.0001297118332566,0.0001439896910307189
-0.4650453975511482,-0.4650453975511482,1.0002337133297026,0.00014413825970472358
-0.4647137100328109,-0.4647137100328109,0.9997964621671984,0.00014052525913055047
-0.46436234201537446,-0.46436234201537446,0.9998847284406457,0.0001413187746169287
-0.4641247943160124,-0.4641247943160124,1.0001766680499247,0.00013545165603666344
-0.4638777565662167,-0.4638777565662167,0.9999485628027582,0.00014198784684190508
-0.4636573705021874,-0.4636573705021874,0.9998242516903384,0.0001371523329042032
-0.46350058061652816,-0.46350058061652816,1.000172799345041,0.0001373904698342765
-0.46322021658706947,-0.46322021658706947,0.9998927293641519,0.00014071102637914023
-0.4628443465946475,-0.4628443465946475,0.9998151223766005,0.00014459319866824138
-0.46260913215519395,-0.46260913215519395,0.9999407412996735,0.00013940116653364274
-0.4623569052608218,-0.4623569052608218,1.0000724048358671,0.00013621637740448552
-0.4621230913515319,-0.4621230913515319,1.0001619052393642,0.00013955988359087168
-0.4619494921018486,-0.4619494921018486,0.9999525640801468,0.00014288992430251814
-0.4617827882495476,-0.4617827882495476,1.000141975708401,0.00014261949280252502
-0.46160202090250096,-0.46160202090250096,0.999918321733448,0.00013913131830737695
-0.4613149907061597,-0.4613149907061597,0.9999506561723075,0.00014906479079308886
-0.4610688048327575,-0.4610688048327575,1.0001835013224167,0.00014365711258654105
-0.46083444471587426,-0.46083444471587426,1.0001157134476883,0.00015208301701339635
-0.4606108589927317,-0.4606108589927317,1.0002232446287014,0.00013294476161247797
-0.4604575020712218,-0.4604575020712218,0.9999321426606012,0.00013329468687907966
-0.4602243598405039,-0.4602243598405039,0.9999288038711805,0.00014285015053621417
-0.4600731948448811,-0.4600731948448811,0.9997346781092746,0.00014998308337970268
-0.4598155995088746,-0.4598155995088746,1.000018600257596,0.00014305445461647174
-0.4595574814578868,-0.4595574814578868,0.9999869032918248,0.00014276197655079572
-0.4593708963438985,-0.4593708963438985,1.0000922503803609,0.00015066499094051628
-0.4591988136206055,-0.4591988136206055,0.9997313719880232,0.0001422221812825009
-0.45891939854918745,-0.45891939854918745,1.0000322094891894,0.00013948609057809177
-0.45877699633711017,-0.45877699633711017,0.9999877402288242,0.00014471705842469313
-0.4584611433412647,-0.4584611433412647,1.0001397427110157,0.0001529170619561507
-0.458135655602382,-0.458135655602382,0.9996968674863865,0.00013629088088035324
-0.45797510887350656,-0.45797510887350656,1.0000812476333625,0.00014044691778598956
-0.45776593838527335,-0.45776593838527335,1.0001349792851413,0.00013721714042277955
-0.4572703079218627,-0.4572703079218627,1.0002284705807927,0.0001488763632327755
-0.45688280901522377,-0.45688280901522377,0.999951670249548,0.00013438872738800816
-0.45660715833073484,-0.45660715833073484,0.9999304015267555,0.00013210331621319122
-0.45643364085117355,-0.45643364085117355,1.000206027459225,0.00014117226293834293
-0.4562570904265158,-0.4562570904265158,0.9999998588021464,0.00015331025107719021
-0.4561537841087556,-0.4561537841087556,0.9999234537700167,0.000140909877483092
-0.4560229544149479,-0.4560229544149479,1.0000146236992193,0.0001372274509200254
-0.455871946120169,-0.455871946120169,0.9998089761519138,0.00014105610183236624
-0.45550551617343443,-0.45550551617343443,1.000167276756001,0.00014671024588920934
-0.45521632315067107,-0.45521632315067107,0.9998245868638593,0.00015869374607363067
-0.45496027561894153,-0.45496027561894153,0.9999123027994846,0.00013345332049531734
-0.4547929721418768,-0.4547929721418768,1.0000403258644615,0.00013867810303141428
-0.45452581428544364,-0.45452581428544364,1.0001466396235386,0.00013920933763007548
-0.45437869311717805,-0.45437869311717805,0.9999770021228969,0.0001412501828794859
-0.4541692351878737,-0.4541692351878737,0.9999983243544358,0.00014916091436111895
-0.453924301477673,-0.453924301477673,0.9998550718864543,0.00013548114128004443
-0.4538164599463926,-0.4538164599463926,0.9999225633390669,0.00014363573861454288
-0.45356070534326137,-0.45356070534326137,0.9999385441571933,0.00015020435774442114
-0.45333844831620806,-0.45333844831620806,0.9999837643007705,0.0001516324519732346
-0.4532359643446398,-0.4532359643446398,0.9999613359667539,0.0001409593609933083
-0.45298252315551507,-0.45298252315551507,0.9999651502681003,0.00014140817487822305
-0.45278641921177043,-0.45278641921177043,0.9998723888840289,0.0001361694541396012
-0.452573865816521,-0.452573865816521,1.0001996409353948,0.0001513607931395152
-0.45240891994762933,-0.45240891994762933,1.0002532416583012,0.00014357589765048
-0.4522539249417605,-0.4522539249417605,1.0000124345593036,0.00013920660829019207
-0.45179762916668553,-0.45179762916668553,1.0000132013748497,0.0001345925903824757
-0.4515418842085637,-0.4515418842085637,1.000049026248614,0.00013662830353713132
-0.45119829158647917,-0.45119829158647917,0.9999217013810731,0.00014054835653727946
-0.450994664344762,-0.450994664344762,0.9999962211670294,0.00013493071870770683
-0.450739031379635,-0.450739031379635,1.0000313775448955,0.0001349531627638664
-0.45055515065032525,-0.45055515065032525,0.9998287426858263,0.00013992816579436613
-0.4503013376655872,-0.4503013376655872,1.0000977823915695,0.00014222373374268718
-0.4501442608481739,-0.4501442608481739,0.9997385740129754,0.00013621657370508613
-0.4499553293833742,-0.4499553293833742,0.9999244668348444,0.00013588432672215133
-0.44973032408743163,-0.44973032408743163,1.0000282738782162,0.0001339366796850563
-0.44951723853737346,-0.44951723853737346,1.0002266377405902,0.00013207966221512896
-0.44928275154088626,-0.44928275154088626,0.9998537929930823,0.0001575221732081248
-0.4490303574013524,-0.4490303574013524,0.9997494180578963,0.00013589398633904684
-0.44886803718982266,-0.44886803718982266,0.9997927505153277,0.00013511009256383244
-0.44872656115912835,-0.44872656115912835,1.000028083285386,0.00013571638457371676
-0.4484692971323966,-0.4484692971323966,1.0000941901441138,0.0001378046318181787
-0.44825068544014357,-0.44825068544014357,1.00021813892575,0.00015067821381363708
-0.4479999116709223,-0.4479999116709223,0.9998940796771775,0.00015270814010570255
-0.4478263809767668,-0.4478263809767668,0.9998335786718917,0.00014033789463934002
-0.4476212563706213,-0.4476212563706213,0.9997040399470434,0.00013974140080404417
-0.44741357416496613,-0.44741357416496613,1.0000052250182485,0.00014329144923660688
-0.44722396730212494,-0.44722396730212494,1.0002588597546682,0.00014606546346193958
-0.4469522409126512,-0.4469522409126512,0.9998229384128361,0.00014090456047877132
-0.44672327364969533,-0.44672327364969533,0.999939330184322,0.00015268056778125106
-0.4465694499216625,-0.4465694499216625,1.0000609831920408,0.00014587747554023337
-0.4463576659356477,-0.4463576659356477,1.0000805616596264,0.00013668349339766416
-0.4460814248013776,-0.4460814248013776,1.000023708363056,0.0001360221988803502
-0.4458052820555167,-0.4458052820555167,0.9999373090319835,0.00014341684731841982
-0.4454663186450489,-0.4454663186450489,0.9999919287626883,0.00013372868808420282
-0.4452112662693253,-0.4452112662693253,0.9999221191086999,0.0001509233576213872
-0.444891729101073,-0.444891729101073,0.9998003799918374,0.00014385413183290392
-0.4446473692820291,-0.4446473692820291,1.0001667469710092,0.00013214628716268727
-0.4444918420398608,-0.4444918420398608,1.0000383575599265,0.0001499560926355151
-0.4442847054990125,-0.4442847054990125,0.999963726579477,0.00013506607254852658
-0.4440526411694009,-0.4440526411694009,1.0001079052561725,0.00013349528700089147
-0.4437910850741901,-0.4437910850741901,0.9999046494585663,0.00014146435857040443
