time,time,flux,flux_err
-0.4999538314968959,-0.4999538314968959,1.000075849562644,0.00017895369826733944
-0.4997967798741835,-0.4997967798741835,1.0000036417961897,0.0002007347102892931
-0.4996316994644682,-0.4996316994644682,0.9998603875600662,0.00017770644273867945
-0.499514912829909,-0.499514912829909,0.9999988678685815,0.00017600014886015396
-0.49934623271474265,-0.49934623271474265,0.9999399649293407,0.00017154974560360856
-0.4992683940981806,-0.4992683940981806,1.0002233979478055,0.000164147557589734
-0.4991957685961097,-0.4991957685961097,1.0003340879220524,0.00016237836059456232
-0.49910647538708874,-0.49910647538708874,0.9999916847342314,0.00017481009354317376
-0.49893983339861736,-0.49893983339861736,1.0000108754600299,0.00015926360926889386
-0.4986820126920065,-0.4986820126920065,0.9998328159463066,0.00015564574233775124
-0.4985943806226715,-0.4985943806226715,1.0000790543365106,0.00015691603163586716
-0.4985167166450992,-0.4985167166450992,0.9998069749482031,0.00016225611892433942
-0.4984521992286318,-0.4984521992286318,0.9999428795590031,0.00017364539005105045
-0.49836730999159046,-0.49836730999159046,0.9999320366619209,0.0001717685464035134
-0.4982692038451205,-0.4982692038451205,0.9997938702947357,0.00015968715349234206
-0.4981183755444363,-0.4981183755444363,0.9999482011193379,0.00017443090204335976
-0.4979821570261265,-0.4979821570261265,1.0001342644849665,0.0001800599539231935
-0.49789249170280525,-0.49789249170280525,1.0000949624871998,0.0001549115560746924
-0.49779994698692465,-0.49779994698692465,0.9999407417612926,0.0001755046123358642
-0.49769377455450015,-0.49769377455450015,1.0002141259300905,0.00016150260439662026
-0.49752325831650523,-0.49752325831650523,0.9999221658938872,0.00016213380063314796
-0.4973923460856895,-0.4973923460856895,0.9997764529567619,0.00015901966267765417
-0.49726161293729093,-0.49726161293729093,1.0000217508306422,0.00018511014297679744
-0.4971828516325331,-0.4971828516325331,1.0000480339800804,0.00016392422415342547
-0.4970522493669705,-0.4970522493669705,0.9998650094475241,0.00017350444436491677
-0.49693892556606445,-0.49693892556606445,0.9999834511733505,0.00016201370764018324
-0.49683714419952596,-0.49683714419952596,0.9999357934860669,0.0001567416097608598
-0.496701126104017,-0.496701126104017,1.0001557004640156,0.00016877650262681326
-0.4965179649341735,-0.4965179649341735,1.000330476495165,0.0001628516380029455
-0.4964227537901024,-0.4964227537901024,1.0000438786096946,0.00015682310201620906
-0.4963321661729424,-0.4963321661729424,1.0000160980181352,0.00016343971011072194
-0.4962760446120228,-0.4962760446120228,1.000054946099685,0.00017268470303011653
-0.49614531997794986,-0.49614531997794986,0.9998137932304104,0.00015744785974164253
-0.4959570341539802,-0.4959570341539802,1.0001859710051781,0.0001738877213762581
-0.4957821862139099,-0.4957821862139099,1.000001362469182,0.00015814841527701063
-0.4956736296742747,-0.4956736296742747,1.0002010205388392,0.00016030661493967414
-0.49550358261403743,-0.49550358261403743,0.9997719003537713,0.0001612194792399852
-0.49538224604402786,-0.49538224604402786,0.999945845809523,0.00017245943335715157
-0.49519892962052836,-0.49519892962052836,1.0000186838685474,0.00015881657579708728
-0.495110610343545,-0.495110610343545,1.0001115786268848,0.0001745106223158934
-0.4950074167572893,-0.4950074167572893,1.0002572668469714,0.00015802682358299897
-0.49485889078932815,-0.49485889078932815,0.9998210784252712,0.0001587027965742879
-0.49473890603767356,-0.49473890603767356,1.0001950682204872,0.00017764815804640038
-0.49466584155452437,-0.49466584155452437,0.999827480494142,0.00015919825621048717
-0.4945931150825345,-0.4945931150825345,1.000076469551958,0.00018649498778378315
-0.49449245509458706,-0.49449245509458706,0.9995042179881721,0.00016155407451956582
-0.49428426667291203,-0.49428426667291203,1.0002954252764946,0.00017622314646506082
-0.4940720006539777,-0.4940720006539777,0.99995972777372,0.00015771910240607005
-0.49401488038274693,-0.49401488038274693,0.9998577983776084,0.00015967726847121032
-0.4939898575139523,-0.4939898575139523,1.0001442961914992,0.0001745969976977574
-0.4939236651698593,-0.4939236651698593,0.9999381200085964,0.0001805213871421803
-0.4937509816263628,-0.4937509816263628,0.9998399466483041,0.0001619934381498698
-0.49365705882955807,-0.49365705882955807,1.0000244298558216,0.0001643433488631987
-0.49353922163209063,-0.49353922163209063,0.9998700362551883,0.0001593993138903371
-0.4934692506256397,-0.4934692506256397,1.000079055360405,0.00015620309928986544
-0.4933519217731373,-0.4933519217731373,0.9999649338532534,0.0001758622215318434
-0.49323385669413256,-0.49323385669413256,0.9999993333875444,0.0001872088656037605
-0.49317003319738434,-0.49317003319738434,1.0000064737645187,0.0001536468938082632
-0.49303231552694343,-0.49303231552694343,0.9998590971765318,0.00015682539026356282
-0.4928647571243346,-0.4928647571243346,1.0000092669359588,0.00015477743705137828
-0.4927547319239238,-0.4927547319239238,1.0000345333653822,0.00016312241387717117
-0.4926189662248362,-0.4926189662248362,0.999728319842945,0.00015847003805465526
-0.49250264863949267,-0.49250264863949267,0.99988422487548,0.00019163163230550122
-0.49237189117411617,-0.49237189117411617,1.0000954241591458,0.00016138945264447928
-0.492254730033892,-0.492254730033892,0.9999380546967306,0.00016028919754692352
-0.49215537681302524,-0.49215537681302524,1.000089783010889,0.00015856853107632172
-0.4919921614455234,-0.4919921614455234,0.9999006637897196,0.00015859156393305997
-0.49177677761763333,-0.49177677761763333,0.9999164655969089,0.00016049865464271156
-0.4916738346895727,-0.4916738346895727,0.9998947277785468,0.0001871746167488262
-0.49158435184508564,-0.49158435184508564,0.999952508066092,0.0001586017015673153
-0.49152256106899583,-0.49152256106899583,1.0000697130205092,0.00016018164512931227
-0.49134795766949535,-0.49134795766949535,1.0001621286975393,0.00016392661917709832
-0.49114670162234686,-0.49114670162234686,0.9998728073974883,0.00015619635718586259
-0.49101881524475177,-0.49101881524475177,1.0001885271782966,0.00018557260567117866
-0.4909042184626742,-0.4909042184626742,1.000135201230663,0.00016375499846948212
-0.4908303590171272,-0.4908303590171272,1.0001350249177563,0.0001585818187501736
-0.49072163769669713,-0.49072163769669713,0.9999079533510831,0.0001815369466818012
-0.4906000106195279,-0.4906000106195279,1.0000356686873721,0.0001709252133577921
-0.4905049655899347,-0.4905049655899347,0.9998838058124416,0.00016504776596146443
-0.4903106731006119,-0.4903106731006119,1.0002207954501288,0.00017289605550330399
-0.49019656725577077,-0.49019656725577077,0.9999090911159891,0.00016172521153623513
-0.49011472265483463,-0.49011472265483463,0.9999558521816116,0.00015619143098729029
-0.4900456318559009,-0.4900456318559009,1.0002345642728394,0.00016152948049091742
-0.48994032275804783,-0.48994032275804783,1.0001284127166243,0.00017507223315723456
-0.48977829523573746,-0.48977829523573746,1.0001468026759137,0.00016001101722963305
-0.4895270020409953,-0.4895270020409953,1.0001562771487609,0.00016027329120203368
-0.4894356318131031,-0.4894356318131031,0.9999535982574239,0.00015518289088488062
-0.4893626280252647,-0.4893626280252647,0.999991851246946,0.00017833248632480233
-0.4892678913893178,-0.4892678913893178,0.9996464193704595,0.0001618619696518862
-0.48916655434077255,-0.48916655434077255,1.0001388598000902,0.0001742762299622764
-0.4890075661038281,-0.4890075661038281,1.00032477737158,0.0001604210091423416
-0.4888248143121018,-0.4888248143121018,1.0002619024258408,0.00016209536817112885
-0.48875678024851366,-0.48875678024851366,1.0001054958344546,0.00016268258362033585
-0.48866314802799027,-0.48866314802799027,1.0002114246984717,0.0001575477636193283
-0.48858312248194125,-0.48858312248194125,1.0002461649852894,0.00017622432618877583
-0.4884482053188549,-0.4884482053188549,1.0000545319520386,0.0001598273610521517
-0.48835608207882614,-0.48835608207882614,1.00020093863152,0.00016549940209200728
-0.4882239830410981,-0.4882239830410981,1.0000331690458952,0.00017302622054438075
-0.48811123352206776,-0.48811123352206776,0.9999011179762632,0.00016564236312462783
-0.4880290333800076,-0.4880290333800076,1.0001968496975202,0.00016091674325244358
-0.487944658681954,-0.487944658681954,1.000177938941049,0.0001590355430035421
-0.4878470338844636,-0.4878470338844636,1.0001347784821206,0.00017600189430273827
-0.4877282376866788,-0.4877282376866788,0.9999839266591369,0.00015979384344163514
-0.4876111290446715,-0.4876111290446715,1.0000186068976649,0.00016309970818719958
-0.4874540190503467,-0.4874540190503467,1.0000880943246306,0.00016958371790708367
-0.4873223253278411,-0.4873223253278411,1.0000885237766695,0.0001624979753871364
-0.4872063734692347,-0.4872063734692347,0.9998441772606228,0.00015994270898258032
-0.4871476687338145,-0.4871476687338145,1.0000152845311054,0.0001733022049330803
-0.4869899083794735,-0.4869899083794735,1.0000392268972786,0.00015930961256990038
-0.48677280288538893,-0.48677280288538893,1.0000171801385886,0.00017139866095982362
-0.48664268660868404,-0.48664268660868404,1.0000805256517178,0.0001601842630211215
-0.48653487052506533,-0.48653487052506533,1.0001977673797542,0.00016408552730307692
-0.48645506399989247,-0.48645506399989247,0.9997965133161358,0.0001591007507475959
-0.486367498945765,-0.486367498945765,1.0001221353523682,0.00016215863302195013
-0.48624973611513267,-0.48624973611513267,0.9999085791838151,0.00017141077688634116
-0.4860734183450404,-0.4860734183450404,1.0000864126779794,0.00017457424924517947
-0.4859725768852513,-0.4859725768852513,1.0001978323788012,0.00015651785127680117
-0.48593668286557656,-0.48593668286557656,1.0001066425853495,0.0001599709986997485
-0.4858417231873318,-0.4858417231873318,1.0000456835354736,0.0001578196646095184
-0.4856538763473509,-0.4856538763473509,1.0000419577804625,0.0001620074265571876
-0.4855408177289064,-0.4855408177289064,1.0000356438064961,0.00017219453441568187
-0.48542215357738316,-0.48542215357738316,0.99983978277624,0.00015844629876241592
-0.48529095157791746,-0.48529095157791746,0.9998281065840129,0.0001630023194788564
-0.48512183539496617,-0.48512183539496617,0.9998889451054913,0.0001596236735383727
-0.48498428975217395,-0.48498428975217395,1.0000932613963962,0.00016896241611715732
-0.48489837692977744,-0.48489837692977744,0.9999481936884212,0.00016331472850831223
-0.4848313820955809,-0.4848313820955809,1.0000205660761279,0.00017224302371536264
-0.48478563429234783,-0.48478563429234783,1.000020380728372,0.00017379475809764023
-0.48465582572534915,-0.48465582572534915,1.0003586063140888,0.00016036707608769514
-0.4845537800880265,-0.4845537800880265,1.0000863089687775,0.00015464997247192626
-0.4844666238044738,-0.4844666238044738,1.0002561851566412,0.00015929339932563654
-0.484315917747881,-0.484315917747881,1.0000610427529506,0.00016035269661033707
-0.48421422391911617,-0.48421422391911617,1.0000144946191152,0.0001728579190641742
-0.48414457759281504,-0.48414457759281504,0.9998013054673314,0.0001689636418334771
-0.4840322539093904,-0.4840322539093904,0.9998773693605211,0.0001728906775110227
-0.48388769934827,-0.48388769934827,1.0000217530025888,0.0001584479783351341
-0.48373765097931026,-0.48373765097931026,0.9998963256369603,0.00015633912456156792
-0.4836238539915939,-0.4836238539915939,1.0000373211644409,0.00015871537647768206
-0.48351725146203534,-0.48351725146203534,1.000193192706591,0.0001764848157942238
-0.48339593015625726,-0.48339593015625726,0.9999026307268594,0.0001717552989211292
-0.48320697630770154,-0.48320697630770154,1.0000653571150822,0.00016128258388739924
-0.48307478556016575,-0.48307478556016575,1.0001691145894724,0.00015984900293175265
-0.48299451311104347,-0.48299451311104347,1.0000531618617938,0.00016511616219768208
-0.4829112394087133,-0.4829112394087133,1.0002029179328142,0.00015901599719949955
-0.48274505900626535,-0.48274505900626535,1.0000135313478389,0.0001625502722863421
-0.48260486137369296,-0.48260486137369296,0.9999309950313009,0.0001730723937046957
-0.48253485260138407,-0.48253485260138407,1.0003483661918264,0.00017230747412012642
-0.48247051987200396,-0.48247051987200396,1.0000505794861065,0.00015628120799377016
-0.4824133754133072,-0.4824133754133072,0.9999096827529685,0.00016604453727408607
-0.4823335910543392,-0.4823335910543392,1.00007552965773,0.00015994363169338915
-0.4820884611348447,-0.4820884611348447,0.9997050344532419,0.00015666837018505738
-0.4819936708132445,-0.4819936708132445,0.9998819137496492,0.00015806029389123233
-0.48191660650336415,-0.48191660650336415,1.0002776208162625,0.00017220554633743846
-0.4818174504522176,-0.4818174504522176,0.9996989069133632,0.00017333379624193384
-0.4817195106763393,-0.4817195106763393,1.0001218597437709,0.00016534367838752986
-0.48157618204204483,-0.48157618204204483,0.9996914285138789,0.0001671311862735229
-0.4814447876218765,-0.4814447876218765,1.0000668322625383,0.0001757065828343968
-0.4812896691400965,-0.4812896691400965,1.0001659337985775,0.00016096929508750452
-0.48116056133949314,-0.48116056133949314,1.0002611789193265,0.00020439780310378051
-0.48109450602787546,-0.48109450602787546,0.9999474400900787,0.00017533734643101283
-0.480996463556221,-0.480996463556221,1.0001108887906873,0.00016600733793779033
-0.48088852387081715,-0.48088852387081715,0.9998469697965391,0.00017321328650624345
-0.4807326070484123,-0.4807326070484123,0.9999978312475394,0.00017846573210404622
-0.4805650673908531,-0.4805650673908531,1.000144950811465,0.0001607676933328084
-0.4804329548518581,-0.4804329548518581,0.9998967403067581,0.000154463807098043
-0.4803083005841472,-0.4803083005841472,0.9997957001108772,0.00017622113751145926
-0.4802401429216843,-0.4802401429216843,1.0001934648389184,0.0001615414801955374
-0.48017494832674856,-0.48017494832674856,1.0001309212265013,0.00015942357973371105
-0.48006021757464623,-0.48006021757464623,1.0002274975534058,0.0001740540211270939
-0.47992668466176835,-0.47992668466176835,1.0003671226202155,0.0001611675193072512
-0.4796786505074124,-0.4796786505074124,1.000231613382305,0.00015849622177450305
-0.47961049679943246,-0.47961049679943246,1.0001366640955849,0.00016129208954339679
-0.479538256705564,-0.479538256705564,1.0001107498133588,0.00017344946252479307
-0.4794640906744462,-0.4794640906744462,1.0000120583886953,0.0001626182097756095
-0.47936478583797,-0.47936478583797,1.000039620452199,0.0001641448041085132
-0.47920763553338475,-0.47920763553338475,1.0001926181598269,0.00015983110779438164
-0.4790726038409048,-0.4790726038409048,1.0000504461333917,0.00017717247886596925
-0.47897455969432484,-0.47897455969432484,0.9996795475229938,0.0001622714257147638
-0.478892463734519,-0.478892463734519,0.9999262014835019,0.00016007077192384565
-0.4787889880492003,-0.4787889880492003,0.9999951099271494,0.0001740666712797242
-0.4786374996343511,-0.4786374996343511,0.9999414795537966,0.00016286489977631184
-0.47854183970412123,-0.47854183970412123,0.9999901585741391,0.00015831641052113183
-0.4783790305707953,-0.4783790305707953,0.9999251661956178,0.00015825356976792456
-0.4782759148052719,-0.4782759148052719,0.9999787078839668,0.00017380154009541488
-0.47815732758972446,-0.47815732758972446,0.999901901403101,0.00017557440819182204
-0.478034481175564,-0.478034481175564,1.000138980245482,0.0001756827409049032
-0.4779622916415974,-0.4779622916415974,0.9999951909090343,0.00015886158503450613
-0.47784423144403265,-0.47784423144403265,1.0000547199862515,0.0001587883202503434
-0.47761966688995017,-0.47761966688995017,1.0001563038206256,0.0001709228208279285
-0.47748037293349627,-0.47748037293349627,1.0000203171787638,0.00016325411376377446
-0.47739851341757455,-0.47739851341757455,1.0001732766457347,0.00016356462389277535
-0.4773172900575446,-0.4773172900575446,1.0000814906404123,0.00016253484807217925
-0.47722852352817424,-0.47722852352817424,0.9999064200001065,0.0001708151689956948
-0.47702453274978324,-0.47702453274978324,0.9997899611753753,0.00015740862155293257
-0.47692812568930093,-0.47692812568930093,1.0001318157194696,0.00018850618412880087
-0.47684590917197056,-0.47684590917197056,1.0002042126874622,0.00015806944832011207
-0.47677270835993113,-0.47677270835993113,0.999920922246696,0.00016206361752299538
-0.47663201959512663,-0.47663201959512663,1.0002525634699442,0.00015949324794358697
-0.47646935721859335,-0.47646935721859335,0.9999377580097011,0.00017460376929790363
-0.4763464564763126,-0.4763464564763126,0.9999274305552118,0.0001587364234689051
-0.4762424841421307,-0.4762424841421307,1.0000960667328822,0.0001588526771435435
-0.47611944211676016,-0.47611944211676016,0.9998469250686686,0.00015811087228577818
-0.47598416536056903,-0.47598416536056903,0.9997025854990955,0.0001582566544380736
-0.47582710210044754,-0.47582710210044754,1.0002561436153359,0.0001558973087788747
-0.47577173526151456,-0.47577173526151456,0.9999419052766043,0.00016191468448795935
-0.4757085158620612,-0.4757085158620612,1.0002534339196807,0.0001717859868945491
-0.47564882799997577,-0.47564882799997577,0.9998689464985085,0.0001752745378009436
-0.47549881469094546,-0.47549881469094546,1.0000764749407616,0.0001591957064764175
-0.47540631650408616,-0.47540631650408616,1.0003415761462637,0.00015925416147974318
-0.4751792503062461,-0.4751792503062461,1.0000008652618888,0.00015861956115475906
-0.47510895618761423,-0.47510895618761423,1.0002045368503112,0.0001725878571958472
-0.4750554775360797,-0.4750554775360797,0.9999144998719951,0.000155521570642464
-0.4750017421974917,-0.4750017421974917,0.9999501233807031,0.00017376949569494993
-0.47488767651739183,-0.47488767651739183,0.9999133712440097,0.00017777643428077734
-0.4747433668220765,-0.4747433668220765,0.9998373350042294,0.0001624910857104484
-0.4746158655070758,-0.4746158655070758,1.0000077581917883,0.0001534247301857893
-0.4745335214676743,-0.4745335214676743,1.0000380330917196,0.0001621248421154044
-0.4743984647822799,-0.4743984647822799,0.9999270235324556,0.00017588179782421077
-0.47431984607028427,-0.47431984607028427,1.0002379593146384,0.00017268761774799524
-0.474247185686545,-0.474247185686545,0.9996818044161973,0.00017497598460797058
-0.4741621076667798,-0.4741621076667798,1.000038997464003,0.00015704507151688706
-0.4740200329622894,-0.4740200329622894,1.000048288259181,0.00016226821049425318
-0.4738594976151944,-0.4738594976151944,1.000028551543784,0.0001666817462249264
-0.4738081907926244,-0.4738081907926244,1.0000490794267716,0.00015804089513119402
-0.47370089000905863,-0.47370089000905863,0.9999672600200709,0.00015176013139684918
-0.4735802041133866,-0.4735802041133866,0.9998288272508992,0.00016344003450669467
-0.47343252694481636,-0.47343252694481636,0.9999700449738027,0.00018592149609921246
-0.47334608321689303,-0.47334608321689303,0.9999137811301317,0.00016043328972482985
-0.4732397434359882,-0.4732397434359882,1.0000862777010968,0.0001664396708504576
-0.4730144926063076,-0.4730144926063076,0.9998810784388953,0.000160774833186237
-0.47284093877970007,-0.47284093877970007,1.000167927714144,0.00015637699484921249
-0.47275291010882936,-0.47275291010882936,0.9998717818900522,0.00017059078096132445
-0.4726798391377088,-0.4726798391377088,0.9997866081020892,0.00017418267503059413
-0.47260692175259467,-0.47260692175259467,0.9999950446810161,0.00016056864514248963
-0.4724968741618795,-0.4724968741618795,1.0001576887231092,0.0001637770440391021
-0.47236515297772713,-0.47236515297772713,0.9998290286827849,0.0001584297025602602
-0.4722295278326783,-0.4722295278326783,0.9999408731524106,0.00016301061380948056
-0.47211427513175297,-0.47211427513175297,1.0002526348768652,0.00017354703928632392
-0.47198642412404296,-0.47198642412404296,1.000055620393094,0.00017172534350577925
-0.47189531784533756,-0.47189531784533756,0.9998339096737995,0.00016545564584048738
-0.47180962129714316,-0.47180962129714316,0.9998849635536553,0.00016155946207956694
-0.4716812313330593,-0.4716812313330593,1.0000005447600375,0.00018552581135699683
