time,time,flux,flux_err
-0.4997959356132299,-0.4997959356132299,0.9999166604227117,0.00011320307388323129
-0.4995493865740343,-0.4995493865740343,1.000216517070806,0.00010677601773074726
-0.4992068490106874,-0.4992068490106874,1.0000528239494821,0.00010631866357603117
-0.4989710836260087,-0.4989710836260087,1.0000237008366348,0.00010785688071594382
-0.49864446136533613,-0.49864446136533613,1.00004269189997,0.00010517986136156538
-0.49841073115310336,-0.49841073115310336,0.999902898201553,0.00011530759281896483
-0.49797064982305983,-0.49797064982305983,0.9998903300745511,0.00010596390112208381
-0.49773799045348144,-0.49773799045348144,0.9999737089922457,0.0001080536799910483
-0.49742890030669856,-0.49742890030669856,0.999939655706422,0.00010517631830419359
-0.4972064583002293,-0.4972064583002293,0.9999840724649793,0.00011555029165573526
-0.4968332208801883,-0.4968332208801883,0.9999330886200575,0.00010508350819501952
-0.49656355488282883,-0.49656355488282883,0.9999347877993422,0.00010857438941495995
-0.496301096549729,-0.496301096549729,0.999972773390897,0.00010541893526498543
-0.4960644362906578,-0.4960644362906578,0.9998723772017092,0.00011606586466715405
-0.49571213997807034,-0.49571213997807034,0.9999907606522198,0.00010528983838393063
-0.4953915211068988,-0.4953915211068988,1.0001405273467803,0.00010740750865508733
-0.4951473427756866,-0.4951473427756866,0.9999520275329925,0.00010675892734955917
-0.4948771688247689,-0.4948771688247689,1.0000571985842923,0.00011529579155955935
-0.4946057499494884,-0.4946057499494884,1.0000361785173786,0.00010603900532757671
-0.4942189683564152,-0.4942189683564152,1.000131625735559,0.00010781082896030487
-0.4939888451497154,-0.4939888451497154,0.9998476597105368,0.00010651325777506806
-0.4936924948267006,-0.4936924948267006,1.000083173487336,0.00011501445078318034
-0.4934715075593033,-0.4934715075593033,0.9998829826848208,0.00010675552343464565
-0.49305691071151614,-0.49305691071151614,0.9999305599581743,0.00010684160076848424
-0.49282500255513356,-0.49282500255513356,0.9998760233259875,0.00010762866512439367
-0.4925318575105052,-0.4925318575105052,1.00009135077606,0.0001050097470686922
-0.492255931767761,-0.492255931767761,1.0000325025332297,0.00010676636273293982
-0.4918413281833409,-0.4918413281833409,0.9997244453097827,0.00010683024122377154
-0.49160942914796807,-0.49160942914796807,0.9998722334429514,0.00010764793524444213
-0.4913331175210033,-0.4913331175210033,0.999850007342346,0.00010493337782831346
-0.49112141816777355,-0.49112141816777355,0.9997509663194613,0.0001067805193639118
-0.4906772130045226,-0.4906772130045226,0.9999615139019866,0.00010597034568002436
-0.4904230486207325,-0.4904230486207325,1.000125398807433,0.00010735230982997993
-0.49014546672149206,-0.49014546672149206,1.0000954500001173,0.00010457730444286419
-0.48996704014356285,-0.48996704014356285,1.0002976797970757,0.00010704814453047053
-0.48953980520736307,-0.48953980520736307,0.9998435172261481,0.00010508376457801948
-0.4892675081844914,-0.4892675081844914,1.0000797300030349,0.0001078483540846188
-0.489005618976455,-0.489005618976455,1.0003151638834473,0.00010630795172305265
-0.4888202776482899,-0.4888202776482899,1.000018921520497,0.00010563740060809127
-0.4885278967236843,-0.4885278967236843,1.0001939203911152,0.00010606158558602169
-0.488141034922802,-0.488141034922802,0.9998698653665871,0.00010792184375009036
-0.4878737815550778,-0.4878737815550778,1.0003093223326724,0.00010514391051695763
-0.48760470425395963,-0.48760470425395963,1.0000013485329726,0.00010561687588527989
-0.487441130320866,-0.487441130320866,1.0000311153212835,0.00010733756514162265
-0.48703049465349296,-0.48703049465349296,0.9999226208718612,0.00010598294833051544
-0.4867763256286878,-0.4867763256286878,1.0000090284813417,0.00010741668731899015
-0.48648984920719157,-0.48648984920719157,1.0001030899403218,0.00010459911666499584
-0.4862883989406043,-0.4862883989406043,0.9998962076410752,0.0001080189330505891
-0.48598761707947347,-0.48598761707947347,0.999909615176429,0.0001052801367926696
-0.4856668388986861,-0.4856668388986861,0.9999520191777677,0.00010761515041937369
-0.48538006924907223,-0.48538006924907223,0.9999782635676604,0.00010506677583434557
-0.48514519255418803,-0.48514519255418803,0.999978455189219,0.00010681996551060759
-0.4849376534156079,-0.4849376534156079,0.9999133425868031,0.00010626226561659853
-0.4845478331043239,-0.4845478331043239,0.999815699550924,0.00010683775604140044
-0.4842854249853133,-0.4842854249853133,0.9998017357131639,0.00010659096339299095
-0.4840079268719478,-0.4840079268719478,0.9999600084590007,0.0001046435555703052
-0.48383358106792684,-0.48383358106792684,0.9998018706836916,0.00010822541790913368
-0.4834619589150975,-0.4834619589150975,1.0001154205992482,0.00010509637184841949
-0.4831895921870853,-0.4831895921870853,1.0002300446920693,0.00010799750673052083
-0.48288690297711695,-0.48288690297711695,1.0002088044965058,0.00010475787821019582
-0.4826813275057589,-0.4826813275057589,1.0003519455191117,0.00010807167194429689
-0.4824353199519521,-0.4824353199519521,1.0000088880879385,0.0001051694966546071
-0.4820631014737103,-0.4820631014737103,1.0002026718206738,0.00010807186740005596
-0.48179597790131085,-0.48179597790131085,1.0001133600817596,0.00010515990043994602
-0.4815268372622086,-0.4815268372622086,1.00001440394683,0.00010561364687422365
-0.4813632504056784,-0.4813632504056784,1.0000265252367382,0.00010736535828670839
-0.4809526308248394,-0.4809526308248394,0.9998286250841335,0.00010597321016183537
-0.48069845377394815,-0.48069845377394815,0.9999679825290425,0.00010751841916823094
-0.48041201229455055,-0.48041201229455055,0.9999304835907313,0.00010459378697593924
-0.4802027644709369,-0.4802027644709369,1.000093724229649,0.0001070891609966668
-0.4798591889177374,-0.4798591889177374,1.0000330429736812,0.00010631903477708014
-0.47958891235824125,-0.47958891235824125,1.0001342851208563,0.0001077526387916013
-0.47930226716109703,-0.47930226716109703,1.0000751737271494,0.0001050805673569058
-0.47906729064322917,-0.47906729064322917,0.9999558226706216,0.00010684536906776714
-0.47878862747711537,-0.47878862747711537,1.0000546033960116,0.0001051903610095933
-0.4784341246849294,-0.4784341246849294,0.9996171033797541,0.00010790529852973166
-0.47820760201385043,-0.47820760201385043,0.999799583722943,0.00010671737522258411
-0.4779300837805181,-0.4779300837805181,0.9998343469451856,0.00010462203706383588
-0.4777266130270107,-0.4777266130270107,1.0001106677941327,0.00010702457848064655
-0.47730591258227834,-0.47730591258227834,0.9997148156870251,0.00010596196117939466
-0.4770730785575836,-0.4770730785575836,1.0000986357544108,0.00010846278360857118
-0.47680910171894764,-0.47680910171894764,1.000357174126602,0.00010474227227126389
-0.4765958875987678,-0.4765958875987678,0.9998551858710613,0.00010709535721083665
-0.47626309437158626,-0.47626309437158626,0.9999677084000697,0.00010529345931260329
-0.4759421563766807,-0.4759421563766807,1.0001808052070411,0.00010781923768905159
-0.475717233462251,-0.475717233462251,1.000118227793325,0.00010639294964951988
-0.4754489702125568,-0.4754489702125568,0.9998530591833485,0.00010559602059322292
-0.4752202740644975,-0.4752202740644975,0.9999692468212981,0.000106187384127995
-0.47482317322646284,-0.47482317322646284,0.9996574708409007,0.00010682543198377152
-0.47459140033282665,-0.47459140033282665,1.0001411725576443,0.00010798314295515088
-0.47433417534649036,-0.47433417534649036,1.0000247594090603,0.0001046007310930383
-0.4741249089196572,-0.4741249089196572,1.0000013713335978,0.00010710759182977624
-0.4737374050436074,-0.4737374050436074,0.9998612132903452,0.00010509507380635356
-0.4734673882653624,-0.4734673882653624,0.9998548451614884,0.00010905832834004127
-0.47322446513630323,-0.47322446513630323,0.9999205528848538,0.00010509475396882756
-0.4729893886417642,-0.4729893886417642,1.000059583425975,0.00010685018395689976
-0.4727108067427025,-0.4727108067427025,1.0000473200607893,0.00010518644771261479
-0.4723286832211272,-0.4723286832211272,0.9998822322556457,0.0001082623385051044
-0.4721086555522163,-0.4721086555522163,1.0000782655613054,0.00010649190919617608
-0.4718522406483373,-0.4718522406483373,0.9999376736219189,0.00010462213553779815
-0.4716487360369058,-0.4716487360369058,1.0001047855399412,0.00010704659743169609
-0.47122804893452325,-0.47122804893452325,0.9998910236657939,0.00010598354010891208
-0.47095273359572615,-0.47095273359572615,0.9998892784120266,0.00010736686449159234
-0.4707215829168149,-0.4707215829168149,0.9999695569764462,0.00010633908198411706
-0.470478195610076,-0.470478195610076,0.9999514765106285,0.00010713228333403481
-0.4701799815895015,-0.4701799815895015,0.9999383557914676,0.00010498283794995232
-0.46984310346747404,-0.46984310346747404,1.0002546011960907,0.00010752819342159966
-0.46961188544073595,-0.46961188544073595,0.9997522427702915,0.0001068485386811664
-0.46934264739912235,-0.46934264739912235,1.0001485045389102,0.00010686885409718535
-0.46912227227129505,-0.46912227227129505,0.9999869955160644,0.00010494593235016234
-0.468745260934827,-0.468745260934827,1.0000120681272766,0.00010685664555685386
-0.4684649088332719,-0.4684649088332719,0.999849042106919,0.0001081175236792095
-0.4682366762676281,-0.4682366762676281,1.0000574952109202,0.00010475197394406136
-0.4680083691740379,-0.4680083691740379,0.9999511832426838,0.00010698630306198718
-0.46765955899913936,-0.46765955899913936,1.0001254549590697,0.00010509754276357792
-0.46736588083056174,-0.46736588083056174,1.0001837271720428,0.00010782752445110672
-0.4671187044384567,-0.4671187044384567,1.0002924134765458,0.00010661297404611907
-0.4668712806438123,-0.4668712806438123,1.0004527444479057,0.00010707943752535707
-0.466578851701945,-0.466578851701945,0.9999601948922429,0.00010485449204449348
-0.4662403593055444,-0.4662403593055444,0.9997210367158189,0.00010665594016915634
-0.4660023163826679,-0.4660023163826679,1.0003265015952345,0.00010824709636101224
-0.46574881565597936,-0.46574881565597936,0.9998659524032385,0.00010558753044251426
-0.46545057496177833,-0.46545057496177833,1.0000408023368101,0.000106096527626215
-0.4651501853993011,-0.4651501853993011,0.9998355443224087,0.00010598025984210394
-0.4648748538498751,-0.4648748538498751,1.0001680208084878,0.00010733731663750798
-0.46464370457300674,-0.46464370457300674,1.0000459536881414,0.00010650072448477516
-0.46437872612128217,-0.46437872612128217,0.9999318721385331,0.00010685830626934567
-0.4640265420448145,-0.4640265420448145,0.9996659728290149,0.0001052703694033894
-0.46376516936762757,-0.46376516936762757,0.9997670195135131,0.0001074949628196936
-0.46353404214852956,-0.46353404214852956,0.9998946733641831,0.00010703730398923603
-0.46322496123925705,-0.46322496123925705,1.0000209629463064,0.00010691080716852283
-0.4628643351021651,-0.4628643351021651,1.0000174296419622,0.00010488864128138618
-0.46259362282631855,-0.46259362282631855,0.9999684798018968,0.00010668493853596579
-0.4623555942837356,-0.4623555942837356,0.9999160606790296,0.00010836031029733761
-0.4620771648485686,-0.4620771648485686,1.0000520769139605,0.00010658702125284776
-0.4617221075308919,-0.4617221075308919,1.0001915309045224,0.0001052169776380143
-0.46137804399839977,-0.46137804399839977,1.0000155034612177,0.00010667591259292658
-0.46114778123205724,-0.46114778123205724,1.000189399165197,0.00010827487086250367
-0.4609627089338176,-0.4609627089338176,0.999911971842573,0.00010476007302528107
-0.4606599355621427,-0.4606599355621427,1.0000485568154927,0.00010705568462751798
-0.460287894658353,-0.460287894658353,1.000079291463406,0.00010598135821290246
-0.46001254995900354,-0.46001254995900354,1.0000382608307004,0.00010735061144142919
-0.4597849984260904,-0.4597849984260904,1.0000394922823692,0.00010638080891926818
-0.4595164186642364,-0.4595164186642364,1.0000025877885703,0.00010685148222519434
-0.4591801671338828,-0.4591801671338828,0.9997487615045297,0.00010552722224381758
-0.4589028220880323,-0.4589028220880323,1.0000647948496844,0.00010752842859676488
-0.45867176746588145,-0.45867176746588145,0.9998997804727431,0.00010714985060211754
-0.45837685513096743,-0.45837685513096743,1.0000318491329465,0.00010662495868947759
-0.4580754151990334,-0.4580754151990334,0.9999078299400692,0.00010519531380938837
-0.4577623596520596,-0.4577623596520596,0.9998583596338406,0.00010685648394196954
-0.4575247460643084,-0.4575247460643084,1.0000534136091739,0.00010841696822481918
-0.4572656730360677,-0.4572656730360677,1.0000403005934995,0.0001066045307294912
-0.4569212827615047,-0.4569212827615047,1.0000762202192697,0.00010497040104106678
-0.45664117665053255,-0.45664117665053255,0.9997283400065902,0.00010597699809984239
-0.4564191568501542,-0.4564191568501542,0.999899604535328,0.00010714644591709486
-0.4561785869494486,-0.4561785869494486,0.9998330408689615,0.00010694681979333382
-0.45584074889981707,-0.45584074889981707,0.9999726581486575,0.0001066961923056761
-0.45549796573670276,-0.45549796573670276,0.9999216002575497,0.00010542054281967439
-0.45528819738424886,-0.45528819738424886,1.0000435406114434,0.00010648703435325647
-0.4550621499903798,-0.4550621499903798,0.9998386010288851,0.00010853124801224644
-0.45476000982873754,-0.45476000982873754,0.9999891285972163,0.0001067805248502861
-0.4544040320904742,-0.4544040320904742,0.9999702409829201,0.0001048704684190165
-0.45415114160851433,-0.45415114160851433,0.9998528927907927,0.00010602584705101669
-0.4539346699922021,-0.4539346699922021,1.0001225848450526,0.00010733770597940641
-0.45368148722224644,-0.45368148722224644,1.0000423337905406,0.00010750919888732114
-0.4533345602803195,-0.4533345602803195,1.000014202587676,0.00010582728290822227
-0.4529809316577939,-0.4529809316577939,0.9998120597426461,0.00010539554489063098
-0.45281338792212295,-0.45281338792212295,1.000152336478995,0.0001076618089955485
-0.45259392406001664,-0.45259392406001664,1.0000980236625732,0.00010729772536771176
-0.45225584712521255,-0.45225584712521255,0.9999770511745231,0.00010679374353817196
-0.4518782415453245,-0.4518782415453245,0.9998998310155718,0.00010513427963962404
-0.45168161116237115,-0.45168161116237115,0.9998878991886224,0.00010674835122841495
-0.4514468775662522,-0.4514468775662522,1.0000076549596464,0.00010853084348979276
-0.45118779598051334,-0.45118779598051334,0.9999739370640498,0.00010661198007605512
-0.4508251477445242,-0.4508251477445242,0.999815766277574,0.00010481187933690144
-0.4505135711874232,-0.4505135711874232,1.0002984683769618,0.00010611989784214048
-0.45034124146295085,-0.45034124146295085,0.9998601485545235,0.00010712493633589865
-0.45008129439607386,-0.45008129439607386,0.9997176527634084,0.00010707105264835519
-0.4497628751032835,-0.4497628751032835,1.0001219053402917,0.00010667623363768443
-0.4493738844762788,-0.4493738844762788,0.999911038968605,0.00010517440794125411
-0.44917579588307605,-0.44917579588307605,1.000114438276817,0.00010775224210699775
-0.44894721799181525,-0.44894721799181525,1.000084108871934,0.00010736299321162366
-0.4486249044193755,-0.4486249044193755,1.0001692460469545,0.00010705722762960012
-0.44830102906836944,-0.44830102906836944,0.9999128154942895,0.00010467565068621584
-0.44801767204781984,-0.44801767204781984,0.9998457133242529,0.00010692931119750016
-0.4478001563699593,-0.4478001563699593,1.0000527045985645,0.00010859206940596486
-0.4475403778755435,-0.4475403778755435,1.0000117470335335,0.00010669010537357109
-0.4471850782885781,-0.4471850782885781,1.0002151542255766,0.00010477499218207859
-0.44689805221817097,-0.44689805221817097,0.999963169335787,0.00010624960130877388
-0.446657373301656,-0.446657373301656,0.9999739507996971,0.00010695878684634396
-0.4464533427019205,-0.4464533427019205,0.9999140010691034,0.00010721775167863089
-0.44611315801498674,-0.44611315801498674,1.0000703322318334,0.00010686137291595038
-0.4457679979826253,-0.4457679979826253,1.0000897632642902,0.00010508087812217588
-0.44552669751091684,-0.44552669751091684,1.0001172547492108,0.00010688937919906291
-0.44530577137964544,-0.44530577137964544,0.9999561144798987,0.00010831690153683933
-0.4450346882034523,-0.4450346882034523,1.000185539233763,0.0001068529742123364
-0.44469049557308155,-0.44469049557308155,0.9999818545079311,0.00010472884556152124
-0.44442122241269433,-0.44442122241269433,1.0000871786077663,0.00010699162585825378
-0.4441484678638233,-0.4441484678638233,1.0000603844486726,0.00010751154593807617
-0.4439350161512209,-0.4439350161512209,0.9998899503119747,0.00010669406070562784
-0.44361050099402066,-0.44361050099402066,0.9999111081226149,0.00010589948916398743
-0.4432937620172595,-0.4432937620172595,0.999797132843512,0.00010540684495157855
-0.4430492210857153,-0.4430492210857153,1.0000245852153717,0.0001066763166322302
-0.4428230995587512,-0.4428230995587512,1.0001270630065153,0.00010828471316911318
-0.4425275459411068,-0.4425275459411068,0.9999110115728811,0.00010706001330693812
-0.44219404519207045,-0.44219404519207045,0.999897884762623,0.00010467877087802452
-0.44192649117334215,-0.44192649117334215,0.9998759267655067,0.00010691235371274683
-0.4416858728469947,-0.4416858728469947,1.0000486108006172,0.00010757544883403365
-0.4414441138656343,-0.4414441138656343,0.9999806150474336,0.00010778598808833882
-0.44110725490873504,-0.44110725490873504,0.9999028713205963,0.00010477984688584271
-0.4408202166266733,-0.4408202166266733,0.9998303763941797,0.00010623297063064954
-0.4405583738240921,-0.4405583738240921,0.9999018324062042,0.00010616261584045219
-0.44034794902382257,-0.44034794902382257,1.000009730211115,0.00010808798517421723
-0.4400352580774893,-0.4400352580774893,0.9998671152291492,0.00010687325393149919
-0.43965131253771117,-0.43965131253771117,0.9999393399729678,0.00010506199785438112
-0.4394488194915141,-0.4394488194915141,0.9999499844015162,0.00010691011151588785
-0.43922004639914575,-0.43922004639914575,0.9999178923026534,0.00010718758467958219
-0.43894517831547547,-0.43894517831547547,1.0000987061991857,0.00010805132166213024
-0.43859643560576844,-0.43859643560576844,0.9998740632775558,0.00010480157451995863
-0.4382797747067116,-0.4382797747067116,0.9997668366929329,0.00010692116589921005
-0.4380629040403733,-0.4380629040403733,1.000078683627371,0.0001076507626278849
-0.4378571107945334,-0.4378571107945334,1.0000558184482717,0.00010666493486954993
-0.4375326469553727,-0.4375326469553727,0.9999659493198998,0.00010589624197063769
-0.43717351529550685,-0.43717351529550685,0.9999866611776895,0.00010624771748375458
-0.43691165305652363,-0.43691165305652363,0.9999701030974956,0.00010617897767578035
-0.4367014795435239,-0.4367014795435239,0.9999264411017694,0.00010803010585291181
-0.4364496368483174,-0.4364496368483174,1.0001410252893175,0.00010707457142235164
-0.4360793918105344,-0.4360793918105344,0.999813313979039,0.00010499201622019865
-0.4358020926631525,-0.4358020926631525,0.9998251641142339,0.00010688983072997496
-0.4355733341068003,-0.4355733341068003,1.0000917736427095,0.00010728720879487309
-0.43533837240290724,-0.43533837240290724,0.9999143666986174,0.00010785329178230205
-0.4350232643862341,-0.4350232643862341,1.0001001602519561,0.00010493736527398465
-0.4346966328166729,-0.4346966328166729,1.0000021023228791,0.0001070044421929904
-0.4344238972480582,-0.4344238972480582,1.000520388313058,0.00010772114533806884
-0.43423270532476865,-0.43423270532476865,0.9998887240574221,0.00010580844280240482
-0.4339379088989176,-0.4339379088989176,1.0001163846579453,0.00010688555912607334
-0.43357277974801034,-0.43357277974801034,1.0000816849989627,0.00010528456482964141
-0.4333245628026191,-0.4333245628026191,1.0001761915289031,0.00010667877806795384
-0.43309851367965846,-0.43309851367965846,1.0000211124247411,0.00010845671840676811
-0.43285108091039887,-0.43285108091039887,1.000118608094244,0.00010690185262005137
-0.4324699800322264,-0.4324699800322264,0.9999708516505116,0.00010483324712200525
-0.4322019138830967,-0.4322019138830967,0.9997127718530694,0.00010692981254892932
