time,time,flux,flux_err
-0.4999234487586411,-0.4999234487586411,1.0001494516674274,7.085125889586506e-05
-0.49978932630172795,-0.49978932630172795,1.0000348558518055,7.013673424472566e-05
-0.4996788298434562,-0.4996788298434562,0.9999643580515136,7.106832180727713e-05
-0.4995343691877167,-0.4995343691877167,1.0000287548473827,6.43876474331352e-05
-0.49940324083902965,-0.49940324083902965,0.9999944470838236,6.824992406281162e-05
-0.49928211100395287,-0.49928211100395287,1.0000163245918725,6.630441536835665e-05
-0.4991563898379809,-0.4991563898379809,1.0000379278640328,6.527053393444627e-05
-0.4989888923188744,-0.4989888923188744,0.9999738378348741,6.38606371284063e-05
-0.4988554287401087,-0.4988554287401087,0.999891933237356,6.513635381116546e-05
-0.49874288812382017,-0.49874288812382017,1.0000833038438386,6.416040463136735e-05
-0.4986032842026134,-0.4986032842026134,1.0000380403962255,6.444190166267241e-05
-0.4984988436264189,-0.4984988436264189,0.9998808648514821,6.824644746703495e-05
-0.4983777226920381,-0.4983777226920381,0.9999222821742757,6.629231550251919e-05
-0.49825200331695785,-0.49825200331695785,0.9999996143959644,6.526563521876502e-05
-0.49808451026542,-0.49808451026542,1.0000461009290864,6.38671981347669e-05
-0.4979510370868809,-0.4979510370868809,0.9999733560230046,6.511660940437389e-05
-0.49783849676996395,-0.49783849676996395,0.9999364765329863,6.415812015926995e-05
-0.4976945606504103,-0.4976945606504103,0.9998461529502777,6.651082732953605e-05
-0.49755955718075595,-0.49755955718075595,0.9999678342191285,6.663960542820331e-05
-0.4974613030410467,-0.4974613030410467,1.0000544753879064,6.580596387018271e-05
-0.4973077171819398,-0.4973077171819398,1.0001093489697637,6.546307841839873e-05
-0.49717722849030677,-0.49717722849030677,1.0000498656891703,6.37607259250079e-05
-0.49704664543036187,-0.49704664543036187,1.000110625415271,6.510946542359909e-05
-0.49693410541669325,-0.49693410541669325,0.9999484001283424,6.415449793812641e-05
-0.4967901656757533,-0.4967901656757533,1.0000228766530552,6.651200655930186e-05
-0.4966551591018288,-0.4966551591018288,1.0001473591341508,6.664247616747623e-05
-0.4965569217225834,-0.4965569217225834,0.9999778262837438,6.581250874007432e-05
-0.49640332419323274,-0.49640332419323274,1.0001211605453606,6.546565056293109e-05
-0.49627285305075475,-0.49627285305075475,1.0000420055156436,6.376305757686922e-05
-0.4961422537720409,-0.4961422537720409,0.9999392751147068,6.508379294418548e-05
-0.4960282112199422,-0.4960282112199422,1.0000104887101071,6.437034122566787e-05
-0.49584945447002154,-0.49584945447002154,1.000032607361236,6.652054904885001e-05
-0.49573076524002885,-0.49573076524002885,1.0000573003582716,6.852269220204864e-05
-0.4956304814029181,-0.4956304814029181,1.00003006837762,6.37616001111195e-05
-0.49545947433477977,-0.49545947433477977,0.9999178445107321,6.511680240440459e-05
-0.4953648126623705,-0.4953648126623705,1.000008202853335,6.394752132261388e-05
-0.49523786210740467,-0.49523786210740467,1.0001521419437274,6.507738147485428e-05
-0.4951238139047575,-0.4951238139047575,1.000087831146695,6.437286753599748e-05
-0.4949450585698344,-0.4949450585698344,1.0000175668495288,6.6526250555787e-05
-0.49482636862929325,-0.49482636862929325,1.0000516509518187,6.851834313579724e-05
-0.49472610812792367,-0.49472610812792367,1.0000033449279264,6.375967989844871e-05
-0.4945550822495818,-0.4945550822495818,1.000019974729843,6.512371555637185e-05
-0.49444355415939184,-0.49444355415939184,0.9998441284725696,6.415908192625002e-05
-0.49432864461528536,-0.49432864461528536,1.0000118652078436,6.484923179440423e-05
-0.4942194165898798,-0.4942194165898798,0.9999975177135696,6.436843883163733e-05
-0.49404066267133545,-0.49404066267133545,0.9998916954279615,6.652171341684232e-05
-0.4939219720212577,-0.4939219720212577,1.0000936101548976,6.853017565645756e-05
-0.4938177756592381,-0.4938177756592381,1.0001878084292044,6.429959404773515e-05
-0.4936401793917753,-0.4936401793917753,1.0000129097607422,6.458756610599857e-05
-0.49353917735367075,-0.49353917735367075,1.0000673213294942,6.416665292755621e-05
-0.4934242507888428,-0.4934242507888428,1.0000439023072114,6.48301740052036e-05
-0.49331501927624116,-0.49331501927624116,1.0000131301293358,6.437515585624358e-05
-0.49313626677597994,-0.49313626677597994,1.0000629740028724,6.652733836263502e-05
-0.49301757541509234,-0.49301757541509234,1.0000572671912216,6.853298279804642e-05
-0.4929133960793649,-0.4929133960793649,1.000053281732913,6.429413801690058e-05
-0.4927053657682393,-0.4927053657682393,1.000072513740451,6.459497070869562e-05
-0.4926142419696703,-0.4926142419696703,1.0000175510820726,6.447308989572122e-05
-0.4924936419973619,-0.4924936419973619,1.0000119235027933,6.473864573756561e-05
-0.4923792985972796,-0.4923792985972796,0.9999265889847868,6.415041962641435e-05
-0.4922174008680827,-0.4922174008680827,1.0001038293008704,6.652784640436585e-05
-0.4921059436162693,-0.4921059436162693,0.999913989371797,6.852291162850362e-05
-0.4920090165007423,-0.4920090165007423,0.9999617076052869,6.429901666447651e-05
-0.4918009791743884,-0.4918009791743884,0.9999894364637258,6.459938769997305e-05
-0.49168167871317225,-0.49168167871317225,0.9999439219232414,6.454249480736874e-05
-0.4915595491670445,-0.4915595491670445,0.9999426853607309,6.46494216039606e-05
-0.49146774466070153,-0.49146774466070153,0.9999693455770755,6.444758559726995e-05
-0.49127965101748144,-0.49127965101748144,1.000048317916682,6.827388504004813e-05
-0.4911384512144366,-0.4911384512144366,1.0000353880592163,6.603997809933755e-05
-0.49102866373185633,-0.49102866373185633,1.0000647777121041,6.520418130134139e-05
-0.4908880675608088,-0.4908880675608088,1.0000539746743744,6.414248974994536e-05
-0.4907760033582008,-0.4907760033582008,0.9999912826573443,6.47703633240678e-05
-0.4906302361726091,-0.4906302361726091,1.000034961282836,6.429230918626082e-05
-0.49053891680070477,-0.49053891680070477,0.9999651702107654,6.457304804417903e-05
-0.49037525233716794,-0.49037525233716794,1.0000612228800638,6.829945821075148e-05
-0.49023406627341615,-0.49023406627341615,0.999965990757634,6.602957246706511e-05
-0.4901170382068699,-0.4901170382068699,0.9999401530546825,6.520078025505243e-05
-0.48998280186245324,-0.48998280186245324,0.9999895817452469,6.448837865370194e-05
-0.4898329441919088,-0.4898329441919088,0.9999496293759073,6.431704766775864e-05
-0.48971622754100963,-0.48971622754100963,0.9999675495667706,6.458653499094104e-05
-0.4895999473502968,-0.4895999473502968,0.9999129200577273,6.478739254864562e-05
-0.48945331501392386,-0.48945331501392386,0.9999974788999756,6.791042802189388e-05
-0.48932968133288457,-0.48932968133288457,1.0001304167131646,6.6028966189417e-05
-0.48918000562736097,-0.48918000562736097,0.9999895419218665,6.535284715536557e-05
-0.48907488446917,-0.48907488446917,0.9999033222573299,6.433151627475609e-05
-0.4889285636057821,-0.4889285636057821,1.000072887087412,6.430882178513957e-05
-0.4888118317574254,-0.4888118317574254,0.9999522711830695,6.45907615863193e-05
-0.48869554888167954,-0.48869554888167954,1.0000208801252979,6.478948560223946e-05
-0.4885313326611481,-0.4885313326611481,0.9999596527810309,6.828585211445474e-05
-0.4884139469765728,-0.4884139469765728,1.0000383879011818,6.563870584575456e-05
-0.4882648542037941,-0.4882648542037941,0.9999463305432776,6.52421694369575e-05
-0.4881484770187228,-0.4881484770187228,0.9999586019949142,6.431379755379027e-05
-0.4879990876411114,-0.4879990876411114,1.0000468897697512,6.44337067507112e-05
-0.4879074359796164,-0.4879074359796164,1.0000355684659485,6.459406802255159e-05
-0.4877712672882126,-0.4877712672882126,0.9998885528946506,6.668913430579409e-05
-0.48761787577803944,-0.48761787577803944,1.000073541020933,6.64369726640326e-05
-0.48750560807679905,-0.48750560807679905,1.0001027671340557,6.596052574356736e-05
-0.48734995894238864,-0.48734995894238864,1.0000768417465369,6.488968538166976e-05
-0.4872440895378304,-0.4872440895378304,1.0001086618172497,6.43238704785089e-05
-0.48708671287400307,-0.48708671287400307,1.0000475356364156,6.474182387921041e-05
-0.48699267245151534,-0.48699267245151534,1.0001117861650364,6.445806693689836e-05
-0.486822109617458,-0.486822109617458,1.0001245068090583,6.661863233361802e-05
-0.48669701228727147,-0.48669701228727147,1.0000157472358415,6.631182863036677e-05
-0.4866012293757251,-0.4866012293757251,1.000043626347628,6.596781693270097e-05
-0.4864194538239758,-0.4864194538239758,1.0001639336584192,6.500151289843014e-05
-0.486329646773504,-0.486329646773504,0.9999548504421835,6.421501510870374e-05
-0.486182328162846,-0.486182328162846,0.9999906747489327,6.472838300662129e-05
-0.4860810425070838,-0.4860810425070838,1.0000012859028142,6.445766453647187e-05
-0.4859177083956581,-0.4859177083956581,1.000026353893426,6.661241415834236e-05
-0.48576659044045983,-0.48576659044045983,0.9999014023264274,6.817290070325427e-05
-0.48567835949053234,-0.48567835949053234,1.0000962215599363,6.431459778919237e-05
-0.4854741731914203,-0.4854741731914203,0.9999570715639665,6.446898816107039e-05
-0.4853582226297249,-0.4853582226297249,0.999969713179308,6.453851869128315e-05
-0.48525675039802535,-0.48525675039802535,1.000044484000012,6.465746099456118e-05
-0.4851754434303587,-0.4851754434303587,1.0000237757514157,6.437222397996377e-05
-0.48497450914097157,-0.48497450914097157,1.0000263505520761,6.856954233749546e-05
-0.48484083571891573,-0.48484083571891573,1.000010423407399,6.602597319679826e-05
-0.48477022894037985,-0.48477022894037985,1.0001691833912265,6.461002500394217e-05
-0.48456978653690613,-0.48456978653690613,1.0000621128566245,6.446914835354849e-05
-0.4844456198054104,-0.4844456198054104,1.0000147755516988,6.439024982020253e-05
-0.4843108167745697,-0.4843108167745697,0.9999015362831305,6.460019530223115e-05
-0.4842224892453942,-0.4842224892453942,1.00000531626894,6.460123761680686e-05
-0.4840444616302989,-0.4840444616302989,1.0000149303166268,6.830222671549472e-05
-0.48391864579326693,-0.48391864579326693,0.9997981693851203,6.611207051575424e-05
-0.4838236789652058,-0.4838236789652058,0.9999545523073211,6.495336811012875e-05
-0.48366122261837174,-0.48366122261837174,1.0001048903769818,6.427392448172435e-05
-0.4835412422543868,-0.4835412422543868,0.9999598646583525,6.438078635251791e-05
-0.48340543092197097,-0.48340543092197097,0.9999966760689281,6.471115149771209e-05
-0.483282912932043,-0.483282912932043,1.0000689718472475,6.448488894132589e-05
-0.4831400629658503,-0.4831400629658503,0.999948499244573,6.830846041846237e-05
-0.4830142603054185,-0.4830142603054185,1.0001018957074912,6.613078218114485e-05
-0.48288311611892143,-0.48288311611892143,0.9999408740455195,6.495027950489851e-05
-0.4827568335030037,-0.4827568335030037,0.9999049093657154,6.426882773683176e-05
-0.48263656218033474,-0.48263656218033474,0.9999399125617998,6.471236886924011e-05
-0.4824810613408772,-0.4824810613408772,1.000091208551153,6.458629424436147e-05
-0.48234393214212334,-0.48234393214212334,0.9999796383481356,6.470327910551617e-05
-0.4822005398390388,-0.4822005398390388,1.0000832189110032,6.829313605211713e-05
-0.4820834669213241,-0.4820834669213241,1.00006545076847,6.623565969067931e-05
-0.4819193233223814,-0.4819193233223814,1.0000970916200353,6.493147948931826e-05
-0.4818392391932889,-0.4818392391932889,1.0000116572776527,6.41154383324293e-05
-0.48170346253835417,-0.48170346253835417,0.9999218362193287,6.682359514972629e-05
-0.48157666557613654,-0.48157666557613654,0.9999775321710734,6.459054319451319e-05
-0.48143953883903234,-0.48143953883903234,0.9999556070147019,6.470127209894893e-05
-0.4812855380613598,-0.4812855380613598,1.0000659545141943,7.033817047133513e-05
-0.48116058934035094,-0.48116058934035094,1.0000141252163481,6.458520556551144e-05
-0.480983433459636,-0.480983433459636,1.0000723392161341,6.43670908308523e-05
-0.4809128276547369,-0.4809128276547369,1.0002408031245287,6.411563289548745e-05
-0.4807876452675487,-0.4807876452675487,1.0000183699677105,6.686170705576178e-05
-0.4806722698125441,-0.4806722698125441,0.9999854935481041,6.458973992967945e-05
-0.48053514553386095,-0.48053514553386095,0.9999572711886564,6.469656197832994e-05
-0.48038113357753787,-0.48038113357753787,0.9999094902828032,7.03321976353152e-05
-0.4802562063907828,-0.4802562063907828,1.0000150313905938,6.45932178021537e-05
-0.4800745813695187,-0.4800745813695187,0.9998364148310334,6.456292786169471e-05
-0.47998509477315,-0.47998509477315,1.0000065527206257,6.441127948892941e-05
-0.4798677528847861,-0.4798677528847861,1.000003639503295,6.420257168128003e-05
-0.4797490595233171,-0.4797490595233171,1.0000704834766418,6.437147222176104e-05
-0.4796095324421401,-0.4796095324421401,0.9999363793634959,6.664303381636122e-05
-0.47945879257906654,-0.47945879257906654,1.0001585641518052,7.070640940558766e-05
-0.4793518234454723,-0.4793518234454723,1.0001047162311998,6.459036807721114e-05
-0.47916607245625753,-0.47916607245625753,0.9999548086388261,6.4218541849969e-05
-0.47907036330155395,-0.47907036330155395,1.000145763456207,6.476191855456603e-05
-0.4789416644557377,-0.4789416644557377,1.0001190903480572,6.420879013461023e-05
-0.4788496135192304,-0.4788496135192304,1.0000307159620563,6.426129907937726e-05
-0.4787263589275028,-0.4787263589275028,1.0000232807215528,6.470491841235728e-05
-0.4785723246146631,-0.4785723246146631,1.0000688941338667,7.032747044700621e-05
-0.4784474404989851,-0.4784474404989851,0.9999764852515052,6.458923118574957e-05
-0.47824632308918924,-0.47824632308918924,0.9999254599069355,6.666723670488611e-05
-0.47814631573423866,-0.47814631573423866,0.9999436232476203,6.427814642942875e-05
-0.4780269502382339,-0.4780269502382339,1.0000364241404052,6.488824153868759e-05
-0.47792109584941045,-0.47792109584941045,1.0000747679053092,6.461990228034939e-05
-0.4777920336606769,-0.4777920336606769,1.0000088558929043,6.620152753765389e-05
-0.47762916980444176,-0.47762916980444176,0.9999267411621998,6.839307508950584e-05
-0.4775430575560904,-0.4775430575560904,0.9999571319055006,6.458726741730428e-05
-0.47733056108760363,-0.47733056108760363,1.0000677890251128,6.410956715007772e-05
-0.4772172209091991,-0.4772172209091991,0.9998988881547988,6.43201574292012e-05
-0.47711522984767496,-0.47711522984767496,1.0000274211981128,6.73730953226881e-05
-0.4770166992344059,-0.4770166992344059,0.9999469936785307,6.462101874091011e-05
-0.4768894013481827,-0.4768894013481827,0.9999586449831692,6.63599308281026e-05
-0.476753536120475,-0.476753536120475,0.9999158196275448,6.827782538948508e-05
-0.47663867461325254,-0.47663867461325254,1.0001264971171029,6.459092187439452e-05
-0.4764528984939943,-0.4764528984939943,0.9999886068959307,6.421758759176931e-05
-0.4763375589027305,-0.4763375589027305,0.9999811177053697,6.428615602308864e-05
-0.47623298447153956,-0.47623298447153956,0.9999867168713481,6.72110500989093e-05
-0.4761314702504819,-0.4761314702504819,1.0000131952122386,6.437618389827437e-05
-0.4760241830124016,-0.4760241830124016,1.0000815327171757,6.424024908531438e-05
-0.4758944066656909,-0.4758944066656909,0.9999657649411382,6.877950620418012e-05
-0.47574931021671885,-0.47574931021671885,0.9999728918743965,6.59530478236287e-05
-0.47560603911958876,-0.47560603911958876,1.0000695349849622,6.458466546696328e-05
-0.4754864933650026,-0.4754864933650026,1.0000610393074152,6.411736109396729e-05
-0.47536710169594587,-0.47536710169594587,0.9998508196936827,6.485984238932061e-05
-0.475265487880921,-0.475265487880921,1.000034579233051,6.68260557163289e-05
-0.47516631893657857,-0.47516631893657857,0.9999981443007915,6.446545258181561e-05
-0.47505201480524306,-0.47505201480524306,1.0000052489716726,6.641864921832729e-05
-0.4748887114714989,-0.4748887114714989,1.0000603011869638,6.81915255531512e-05
-0.47472977993076027,-0.47472977993076027,1.0001937955808888,6.49263105693382e-05
-0.4746041293116889,-0.4746041293116889,1.0000125499184251,6.411665000184577e-05
-0.47448111469792026,-0.47448111469792026,1.0000006650397935,6.44603293314294e-05
-0.4743899350183199,-0.4743899350183199,1.0000433566064963,6.689088287273887e-05
-0.47430350938054744,-0.47430350938054744,0.9999585171399069,6.462157354032166e-05
-0.47417623227307215,-0.47417623227307215,1.0000165330833668,6.636101029337678e-05
-0.4740114364827832,-0.4740114364827832,0.9999937744332211,6.829994034601941e-05
-0.4738676105431637,-0.4738676105431637,0.9999876802027362,6.458335119783552e-05
-0.47371299500725284,-0.47371299500725284,0.9999510978233097,6.410184762412283e-05
-0.47359971024778813,-0.47359971024778813,1.0000685954941841,6.433232763405424e-05
-0.47349764353136836,-0.47349764353136836,1.0000002275715945,6.734369779842151e-05
-0.47341212132708393,-0.47341212132708393,1.000054230349663,6.425702332371602e-05
-0.47329675090421686,-0.47329675090421686,0.9999388593162386,6.423734442470501e-05
-0.47318118911916257,-0.47318118911916257,1.0000412413992879,6.878914027612834e-05
-0.4730287240149039,-0.4730287240149039,1.0001548787972343,6.64676746043028e-05
-0.4728522193851063,-0.4728522193851063,0.9999929327444204,6.414422740222304e-05
-0.4727500244343787,-0.4727500244343787,0.999997107176128,6.44042749646602e-05
-0.47263761839594737,-0.47263761839594737,0.9998837458552015,6.687190259153141e-05
-0.4725327080490104,-0.4725327080490104,1.0000293078222853,6.458950326407013e-05
-0.4724123959057692,-0.4724123959057692,0.9999597866279053,6.416238909327075e-05
-0.4723128910938044,-0.4723128910938044,0.9999808327926456,6.856132296160998e-05
-0.4721430051946015,-0.4721430051946015,0.9999784075196558,6.645946001920084e-05
-0.471981082616918,-0.471981082616918,0.9999668387933646,6.446141535187868e-05
-0.4718689371893504,-0.4718689371893504,1.000029373812702,6.410646219519702e-05
-0.47174957146049223,-0.47174957146049223,0.999977690206063,6.485142017310796e-05
-0.47164789775067106,-0.47164789775067106,0.9999530989156723,6.681322221488523e-05
-0.4715381387095249,-0.4715381387095249,1.0001267599645214,6.43757088954285e-05
-0.4714307659882593,-0.4714307659882593,0.9999618446761737,6.65207925912103e-05
-0.4712711477369112,-0.4712711477369112,0.9999062065047424,6.816293822515905e-05
-0.4711376938549904,-0.4711376938549904,0.9999261498972929,6.472896975087182e-05
-0.4709909682115153,-0.4709909682115153,0.9999801667510979,6.39498680191985e-05
-0.4708865772665149,-0.4708865772665149,0.9999817598837293,6.433249120084907e-05
-0.47078445375060485,-0.47078445375060485,0.9999572875172525,6.731591299563033e-05
-0.4706859229034762,-0.4706859229034762,1.000019413683827,6.46265777153629e-05
-0.4705633778983668,-0.4705633778983668,1.0000797578230398,6.430568842198958e-05
-0.47043268440407926,-0.47043268440407926,1.0000559099396313,7.032634063880344e-05
-0.47029728655823533,-0.47029728655823533,0.99996215648621,6.439974420629067e-05
-0.47010028488924716,-0.47010028488924716,1.0001253667162646,6.411141527233629e-05
-0.47001053052181874,-0.47001053052181874,1.0000752070484429,6.445148335923913e-05
-0.46990224984321005,-0.46990224984321005,1.0000153430996117,6.713836317179985e-05
-0.4698006890179613,-0.4698006890179613,0.9999344087464135,6.436958215900838e-05
-0.4696747227216008,-0.4696747227216008,1.0000884465574091,6.465193641028102e-05
-0.4695494786935228,-0.4695494786935228,1.0000446776099192,6.803341341842096e-05
-0.4694298480176826,-0.4694298480176826,1.000042188669155,6.645224584632566e-05
-0.46923182813372366,-0.46923182813372366,0.9999741116403769,6.462707857215784e-05
-0.46913775091042,-0.46913775091042,1.0001194343547763,6.375035582147884e-05
-0.46904004229988344,-0.46904004229988344,1.0000847646425588,6.500342089222182e-05
-0.46893470516998265,-0.46893470516998265,1.000049014615761,6.681095565787967e-05
-0.46882496808989343,-0.46882496808989343,0.9999934314752386,6.436677263034547e-05
-0.46869528601480964,-0.46869528601480964,1.0000399184660238,6.855840833834407e-05
-0.4685254622910634,-0.4685254622910634,1.0000396198496935,6.646358176409795e-05
-0.4683484563305342,-0.4683484563305342,1.000135462525417,6.449239415793121e-05
