time,time,flux,flux_err
-0.4997392241906103,-0.4997392241906103,0.9999286573634496,0.0001067919115088004
-0.4991612656012876,-0.4991612656012876,0.9999915842386509,9.803856459205391e-05
-0.4986432454024907,-0.4986432454024907,1.0002021861051804,0.00010182928460066815
-0.4978802997356979,-0.4978802997356979,0.9999572067053576,9.613006220050831e-05
-0.4972469945641933,-0.4972469945641933,1.0001044120768976,0.00010487212309455828
-0.4964012084819842,-0.4964012084819842,0.9997950376068957,9.808540399661803e-05
-0.4957890539371874,-0.4957890539371874,1.0000898952083506,9.612309034129503e-05
-0.49463674922881185,-0.49463674922881185,1.000026969969574,9.78507257836413e-05
-0.49334556895773857,-0.49334556895773857,1.0000666536842562,9.994009772635928e-05
-0.4920119866030291,-0.4920119866030291,1.0002062586050502,9.992651125308519e-05
-0.49140802447218446,-0.49140802447218446,0.9999194665760147,9.621282358215994e-05
-0.4909263779496541,-0.4909263779496541,0.9999130908834157,9.997200640902244e-05
-0.4902424228726886,-0.4902424228726886,1.000136031248145,9.806820092713186e-05
-0.48978095722268333,-0.48978095722268333,0.9999092343612158,9.996444207304544e-05
-0.48893884268181864,-0.48893884268181864,0.9999182806584533,9.611069291883686e-05
-0.48821680145920254,-0.48821680145920254,0.9999453270291259,0.00010571473851574366
-0.48763163211988286,-0.48763163211988286,1.0000795830780478,9.999254557747118e-05
-0.4868672221520683,-0.4868672221520683,1.000118604693194,9.588227689149006e-05
-0.4857559428870445,-0.4857559428870445,1.0000271324894139,9.61182862718306e-05
-0.48411238585831595,-0.48411238585831595,1.0000657022725596,0.00010182097114976398
-0.4832572250452358,-0.4832572250452358,1.0000726195748442,9.814582961190659e-05
-0.4827071748237358,-0.4827071748237358,1.0000109714516126,9.804418938112118e-05
-0.4821525932726217,-0.4821525932726217,1.0001296410099327,9.806615562778517e-05
-0.48160662889131345,-0.48160662889131345,1.000136789071046,0.00010183897736979372
-0.4810514489916386,-0.4810514489916386,1.0000770235200176,9.806597654513759e-05
-0.48032060072291644,-0.48032060072291644,1.000134574013979,9.807980527346745e-05
-0.47938683655229397,-0.47938683655229397,0.9999642699636524,9.814038745528444e-05
-0.47894370191788765,-0.47894370191788765,1.0000732001275887,9.805332665405013e-05
-0.47788724296551666,-0.47788724296551666,1.0001687463817874,9.780581980260482e-05
-0.47668866024177986,-0.47668866024177986,1.000063658596881,9.80364152918853e-05
-0.4750845838803798,-0.4750845838803798,0.9999632293472608,9.988583434869911e-05
-0.4745559101342224,-0.4745559101342224,1.0000051982621638,9.82196825181018e-05
-0.474048518424388,-0.474048518424388,1.000055910185987,9.611720172793933e-05
-0.4736135980958352,-0.4736135980958352,1.0002140524264005,9.807178993919987e-05
-0.47308852441201454,-0.47308852441201454,0.9999857821979381,0.00010181758363677026
-0.4725245527224615,-0.4725245527224615,0.9999306683680048,9.808650971416383e-05
-0.47159208048833534,-0.47159208048833534,0.9999243007637844,9.613587582484753e-05
-0.4707866672833916,-0.4707866672833916,0.9999482122046034,0.00010006366878148785
-0.47030850146256853,-0.47030850146256853,0.9999891302302875,9.610251202619352e-05
-0.46908245726081077,-0.46908245726081077,1.0001107150487132,9.777715761210927e-05
-0.4674655033421004,-0.4674655033421004,1.0000409831407493,9.995188419247857e-05
-0.46635729216213806,-0.46635729216213806,0.9997640186324924,9.987563742900054e-05
-0.4658226536033908,-0.4658226536033908,0.9999988202950266,9.632978802333905e-05
-0.4654113852564478,-0.4654113852564478,1.0000022698249549,9.809538182327508e-05
-0.464839433436282,-0.464839433436282,1.0000305503743703,9.80560136803657e-05
-0.4644342039391631,-0.4644342039391631,1.0000834670637113,0.00010183328460993868
-0.4636785075563239,-0.4636785075563239,1.0000338605064087,9.616001992315877e-05
-0.4624040467781015,-0.4624040467781015,1.0000805361479337,0.00010000727561054188
-0.46181520242244006,-0.46181520242244006,0.9999989037585519,9.611046155979556e-05
-0.4605781312915497,-0.4605781312915497,0.9999875535021097,9.772752561961066e-05
-0.45885153144481594,-0.45885153144481594,1.000018563069227,0.00010366783893400397
-0.4579482391971396,-0.4579482391971396,1.0000005977630881,9.986595233555434e-05
-0.4574403826671187,-0.4574403826671187,1.0000730326717309,9.637213532859913e-05
-0.4569858813571045,-0.4569858813571045,1.0000858692039316,9.611218239704493e-05
-0.45646657453035006,-0.45646657453035006,0.9999871110424987,9.806118246064842e-05
-0.4559840725560207,-0.4559840725560207,1.0000209067109114,0.00010365219205617721
-0.45535467188747136,-0.45535467188747136,1.0000990732858288,9.615028983674904e-05
-0.4541453174460912,-0.4541453174460912,0.9999522283479658,9.806882682363816e-05
-0.453450659615919,-0.453450659615919,1.0000915407832467,9.809130108417866e-05
-0.4523623243789189,-0.4523623243789189,1.0001111797430318,9.765589989573102e-05
-0.4506654854019871,-0.4506654854019871,1.000005662817824,0.00010184618177837255
-0.4495389070129022,-0.4495389070129022,0.9999885930288592,9.99615091584715e-05
-0.44888057365024,-0.44888057365024,0.9998174713107572,9.61219308231854e-05
-0.4484164833032992,-0.4484164833032992,1.000026170393036,9.805100689278699e-05
-0.4478104063338833,-0.4478104063338833,0.9999615016629224,9.806794456739948e-05
-0.44741335600847376,-0.44741335600847376,0.9999195738509435,0.000101813100532175
-0.44669655296602284,-0.44669655296602284,0.9999183545110268,9.613780625911954e-05
-0.4453707981912885,-0.4453707981912885,1.0000974207881423,9.806230687695464e-05
-0.44482710786978713,-0.44482710786978713,1.000064550659686,9.808915087587591e-05
-0.443569765711436,-0.443569765711436,1.0001506448641893,9.762277124940213e-05
-0.4417869270168012,-0.4417869270168012,1.0001694051118442,0.00010366178547643946
-0.4409092356363544,-0.4409092356363544,0.9998598571374334,9.805657492205008e-05
-0.44025662910135,-0.44025662910135,1.0000483719407047,9.612495357098474e-05
-0.4398508339509135,-0.4398508339509135,0.9999788112517305,9.997568119684464e-05
-0.43928860191081187,-0.43928860191081187,1.0000843740891647,9.611477020064679e-05
-0.4388951587548945,-0.4388951587548945,0.9999611490378788,0.00010182608945687662
-0.438017987733474,-0.438017987733474,0.999999469628011,9.809868627523278e-05
-0.436733182327589,-0.436733182327589,0.9999920469457058,9.808609544632231e-05
-0.43611476207734085,-0.43611476207734085,0.9998687908001557,9.608542005923925e-05
-0.4347354306955822,-0.4347354306955822,0.9999097521762511,9.946712174363933e-05
-0.43303093357826583,-0.43303093357826583,1.0001310999313446,0.00010184428931881136
-0.4322716382856015,-0.4322716382856015,1.0001450060842179,9.806332324319386e-05
-0.4316585451830178,-0.4316585451830178,0.9998823898762057,9.611512952967691e-05
-0.43126383537019136,-0.43126383537019136,0.999933587608643,9.997677299971508e-05
-0.43065504128462634,-0.43065504128462634,1.0000769585903064,9.804682979641106e-05
-0.43032251096447,-0.43032251096447,0.9999928302741289,9.996266623784942e-05
-0.4291556023672456,-0.4291556023672456,0.999919845299085,9.809679934197631e-05
-0.42815150043170436,-0.42815150043170436,1.000139093171606,9.807465718941816e-05
-0.42761970885039774,-0.42761970885039774,1.0000836856396724,9.610603443083028e-05
-0.4262259210809134,-0.4262259210809134,1.000021475727713,9.939860541759702e-05
-0.42465515735093506,-0.42465515735093506,1.0001804444837838,0.00010193993231158343
-0.42400700321013574,-0.42400700321013574,1.0000426493229813,9.807855534125095e-05
-0.4234036985319108,-0.4234036985319108,1.0001582204265342,9.806329974840352e-05
-0.42293444082897624,-0.42293444082897624,1.0001277824885064,9.805047048906947e-05
-0.42240616130875425,-0.42240616130875425,0.9998634403147895,9.612248538162759e-05
-0.42191039984463713,-0.42191039984463713,1.0000268991476893,0.00010181284734846609
-0.4213267157028895,-0.4213267157028895,0.9999667471057428,9.809374791905797e-05
-0.4198340645933058,-0.4198340645933058,0.9999374303290971,9.61228205099593e-05
-0.4193151988991303,-0.4193151988991303,0.9999945396902833,9.808826093421269e-05
-0.41829631685977803,-0.41829631685977803,1.0000072759650904,9.739919493340172e-05
-0.41675832140899727,-0.41675832140899727,0.9999814231982613,0.00010000161630386919
-0.4157616404816508,-0.4157616404816508,0.9999995964388196,9.996747999254028e-05
-0.4151497488026507,-0.4151497488026507,0.9999383524047625,9.807195562574914e-05
-0.41458466768672225,-0.41458466768672225,1.000011311586275,9.609461340659808e-05
-0.4141250533546554,-0.4141250533546554,1.0000090251630462,9.996370308651932e-05
-0.41354857409605755,-0.41354857409605755,1.0000878179710906,9.993709984313014e-05
-0.413174335952499,-0.413174335952499,1.000161051246371,0.00010066658418866238
-0.4121406098944135,-0.4121406098944135,0.9999425930935818,9.809521583868483e-05
-0.41112423451268115,-0.41112423451268115,0.9999210000949542,9.615263867532856e-05
-0.4103553437802475,-0.4103553437802475,1.0001398921768083,9.818718298028873e-05
-0.4092071897379356,-0.4092071897379356,1.000013454825784,9.925992450439785e-05
-0.40754935701843353,-0.40754935701843353,0.9999869781675024,9.995406258805266e-05
-0.4068836026097415,-0.4068836026097415,1.0000212718823482,9.807591793098221e-05
-0.4062852507660864,-0.4062852507660864,1.000263004167731,9.806177970219165e-05
-0.4058488032023888,-0.4058488032023888,0.9999578304523263,9.80591297825696e-05
-0.4052529118402163,-0.4052529118402163,0.9999522310683873,9.805333485925544e-05
-0.40477177095017397,-0.40477177095017397,1.0000135871955795,9.996096580868589e-05
-0.40390464531665204,-0.40390464531665204,1.000041119219426,0.00010078977511537621
-0.4026323843136197,-0.4026323843136197,0.9999592671385301,9.413139997790603e-05
-0.4018507884989958,-0.4018507884989958,0.9999714691092567,0.00010015518941471097
-0.400697971766931,-0.400697971766931,0.9999201890069033,9.916604949814112e-05
-0.3990356285503367,-0.3990356285503367,0.9999648802577216,9.99560475486617e-05
-0.3983856695500435,-0.3983856695500435,0.9999298255225566,9.806949966874002e-05
-0.39777987890702204,-0.39777987890702204,1.0000681916998795,9.806661483107435e-05
-0.397351159673417,-0.397351159673417,1.0000150455368584,9.805443383018135e-05
-0.3966698774107499,-0.3966698774107499,1.0000149762831196,9.806035713542938e-05
-0.396137071159319,-0.396137071159319,0.9999679618454207,0.0001027166291872702
-0.3953412259783363,-0.3953412259783363,0.9999867638053234,9.80872627291466e-05
-0.39414768175047354,-0.39414768175047354,1.000022495866492,9.412827048199954e-05
-0.3933392859034939,-0.3933392859034939,1.000067700821913,0.00010019372852401966
-0.3921888494194718,-0.3921888494194718,0.9999443647397032,9.909246614115983e-05
-0.3905220149375964,-0.3905220149375964,1.000053115835864,9.99521700208883e-05
-0.3898878144711489,-0.3898878144711489,0.9999771754839989,9.809139255618596e-05
-0.3892805644980399,-0.3892805644980399,1.000203610249649,9.808475564082138e-05
-0.38884772098681425,-0.38884772098681425,1.0000206120591077,9.805362514908552e-05
-0.38816419416689313,-0.38816419416689313,1.0000524741041619,9.806755817642872e-05
-0.3876173278520582,-0.3876173278520582,1.000174799941045,0.00010291861783923224
-0.38683324554003773,-0.38683324554003773,0.9998512928056863,9.614827805925993e-05
-0.38566143517091406,-0.38566143517091406,1.0001100529498135,9.61146404026456e-05
-0.3848299322737148,-0.3848299322737148,1.0002706459899422,9.81016585460386e-05
-0.3836777629243443,-0.3836777629243443,1.0001069402405602,0.00010116900523190883
-0.3820085172279505,-0.3820085172279505,1.0001273176157472,9.995361464516928e-05
-0.38139003737596794,-0.38139003737596794,0.9999063807179251,9.807624402232119e-05
-0.3807842243142659,-0.3807842243142659,1.0000094406758016,9.808405063075128e-05
-0.3803415724891238,-0.3803415724891238,0.9999642743899345,9.804348322762942e-05
-0.3796586300217314,-0.3796586300217314,1.0000262727083837,9.807657542904423e-05
-0.379097674289369,-0.379097674289369,1.0000215252542355,0.00010313801480029504
-0.3783360219735187,-0.3783360219735187,1.000151371490979,9.616351030227629e-05
-0.37716466619749556,-0.37716466619749556,1.0000296185617175,9.61266070673306e-05
-0.37632114603475203,-0.37632114603475203,1.0000719199563926,9.807536442209538e-05
-0.37516629437741356,-0.37516629437741356,0.9999057452278141,0.00010117205984571496
-0.3734951316873776,-0.3734951316873776,0.9999669787158252,9.995575338910459e-05
-0.37289233348274137,-0.37289233348274137,1.0000224618120703,9.810850009050558e-05
-0.37234702270361597,-0.37234702270361597,1.0002065421695758,0.00010579155519776953
-0.37190290522703434,-0.37190290522703434,1.0000715782049967,9.99382057559293e-05
-0.37130788059148473,-0.37130788059148473,1.0001505074002865,9.808396362319387e-05
-0.3707058196334401,-0.3707058196334401,0.9999673497344442,9.995209310481883e-05
-0.37009396028588526,-0.37009396028588526,1.0000348025434846,9.973590344370374e-05
-0.3687584200553829,-0.3687584200553829,1.000060692049212,9.613663120435712e-05
-0.36808530405687634,-0.36808530405687634,1.000085131189667,9.807764652553206e-05
-0.3669471909786807,-0.3669471909786807,1.0000649925691445,9.934880153500323e-05
-0.3651953853463056,-0.3651953853463056,1.0002292649040025,9.996583008434236e-05
-0.36448676479631104,-0.36448676479631104,1.0001489761219908,9.808757814932419e-05
-0.36393225453502964,-0.36393225453502964,0.9997603098730957,9.807540771804727e-05
-0.363389810823719,-0.363389810823719,0.9999732976237447,9.993111647726416e-05
-0.36280095060647,-0.36280095060647,0.9999859223454628,9.807169580405951e-05
-0.36207141339837107,-0.36207141339837107,1.0000227662382632,9.995317558285511e-05
-0.3614078475628048,-0.3614078475628048,1.0000414433132758,0.00010188019437456915
-0.36026035679096824,-0.36026035679096824,0.9998682075096845,9.611903552345189e-05
-0.3593038668273948,-0.3593038668273948,1.0001246626727223,9.807096339104646e-05
-0.3578569748147856,-0.3578569748147856,1.0000283440276145,0.00010225807165978658
-0.3564227067923639,-0.3564227067923639,1.0000388887968348,9.994575168499189e-05
-0.3558971398655558,-0.3558971398655558,0.999838242711877,9.809566909436531e-05
-0.35530770574405324,-0.35530770574405324,1.0002549760205572,9.615061635938292e-05
-0.35481216658954506,-0.35481216658954506,1.0001129509865294,9.994454060804602e-05
-0.3541013944719452,-0.3541013944719452,1.0001073239066165,9.80735401073319e-05
-0.35346891518856866,-0.35346891518856866,0.9997934936288271,9.997758294561667e-05
-0.3527739942801418,-0.3527739942801418,1.0000401538831807,0.00010213304564140227
-0.35164818122575525,-0.35164818122575525,0.999951641283974,9.614167781229429e-05
-0.3505823656159919,-0.3505823656159919,1.0000380136993636,9.85871392124762e-05
-0.34896010272204875,-0.34896010272204875,1.0001596892781772,9.995504565090713e-05
-0.3477986145095201,-0.3477986145095201,1.000061785820923,9.993248176857839e-05
-0.34736108136130495,-0.34736108136130495,1.0002274495519166,9.619569249048436e-05
-0.34680922014813403,-0.34680922014813403,0.9999932099219249,9.806802418697326e-05
-0.3463021463539917,-0.3463021463539917,1.0000136712306567,9.99560742446282e-05
-0.3455938357568812,-0.3455938357568812,0.9999430695619405,9.80855744582273e-05
-0.344961770856753,-0.344961770856753,1.0001739766941924,9.99884923794113e-05
-0.34425828568346334,-0.34425828568346334,0.9999539346492152,0.00010243200916543413
-0.3431520163983805,-0.3431520163983805,1.0000439510655852,9.614435753951233e-05
-0.34208074895723256,-0.34208074895723256,0.9999291148206086,9.865315272090795e-05
-0.3404513398534618,-0.3404513398534618,0.9997744428673508,9.99420337967287e-05
-0.33929056423075965,-0.33929056423075965,1.0000181211935286,9.99513019944522e-05
-0.33886769790842663,-0.33886769790842663,1.0000914248003696,9.621669042891024e-05
-0.3384095342247747,-0.3384095342247747,0.9999833716229988,0.00010011046842040778
-0.3378572427871404,-0.3378572427871404,1.000073050602881,9.8042364999428e-05
-0.33723183734691703,-0.33723183734691703,1.0000238542735866,9.807038423544625e-05
-0.33639391771284866,-0.33639391771284866,1.000012639829657,9.80823502034029e-05
-0.3357426694710739,-0.3357426694710739,0.99998509759189,0.00010273225978695737
-0.3346559552010149,-0.3346559552010149,0.9999240387006084,9.614479008341845e-05
-0.3335359513526782,-0.3335359513526782,1.0000169423769814,9.608548031710113e-05
-0.33157594907388555,-0.33157594907388555,1.0002331572228456,0.00010181642592815995
-0.33065562455449254,-0.33065562455449254,0.9999383542910009,9.621865935200403e-05
-0.33020133335958235,-0.33020133335958235,0.9997388756690778,9.806633639142403e-05
-0.32954692786443046,-0.32954692786443046,1.000112562378671,9.805455317443105e-05
-0.3290376986929914,-0.3290376986929914,1.00009742268352,9.803900729996901e-05
-0.3281958505016519,-0.3281958505016519,1.0000194991378315,0.00010002110152164664
-0.32771655155229384,-0.32771655155229384,1.0001698137969777,0.00010123227943481864
-0.32679486645211,-0.32679486645211,1.0000842481773708,9.808245215358043e-05
-0.32579747364507056,-0.32579747364507056,0.9999974026336307,9.796121465681167e-05
-0.3247690120391781,-0.3247690120391781,0.9999621405322288,9.803644052215174e-05
-0.32301403185701927,-0.32301403185701927,1.0000373877192295,0.00010184294371267213
-0.32228383044712244,-0.32228383044712244,1.000090367148617,9.816624660766336e-05
-0.3217849074280821,-0.3217849074280821,1.000199070625189,9.81041165471446e-05
-0.32117831047507933,-0.32117831047507933,1.0000921121142974,9.613310979720525e-05
-0.3206423926370917,-0.3206423926370917,1.0000055758938173,9.994788075964658e-05
-0.3198232550552348,-0.3198232550552348,0.9997638969039638,9.806869607200807e-05
-0.31921351721684915,-0.31921351721684915,0.9999248506568632,0.00010164737580540563
-0.31838119188323616,-0.31838119188323616,0.9999316946457361,9.809190030625451e-05
-0.31746366739971565,-0.31746366739971565,0.9999108674809083,9.613225406836404e-05
-0.31653826459660195,-0.31653826459660195,1.0000054980038962,9.791733057390754e-05
-0.3149708902841667,-0.3149708902841667,0.9998665503247745,9.997377262556348e-05
-0.3138946192571893,-0.3138946192571893,1.0000087140121878,9.991494308224278e-05
-0.31338802083628253,-0.31338802083628253,1.000044883209168,9.632554526587547e-05
-0.31280787717550995,-0.31280787717550995,1.0000229232469153,9.806302235020712e-05
-0.3122596658155089,-0.3122596658155089,0.999882185890481,9.992733795023477e-05
-0.31148434345668646,-0.31148434345668646,1.000047324279695,9.807346169578158e-05
-0.3108477750181919,-0.3108477750181919,0.9999377178773298,0.00010213343392609329
-0.31001997991406827,-0.31001997991406827,0.9999159806737469,9.807569095054999e-05
-0.3091837916697841,-0.3091837916697841,1.000025505149877,9.414139056485419e-05
-0.30823316058085765,-0.30823316058085765,1.0000152046478878,9.9846622139849e-05
-0.30680895179102663,-0.30680895179102663,1.0000299377801056,9.99617266300062e-05
-0.3055111802997999,-0.3055111802997999,1.0000536953801773,9.802544362020784e-05
-0.30488479797786566,-0.30488479797786566,1.0000615466670655,9.813208806534301e-05
-0.30430782080511565,-0.30430782080511565,1.0000738353240206,9.807968545365606e-05
-0.3037493891490158,-0.3037493891490158,1.0000653392036878,9.996110436775511e-05
-0.30298031349375376,-0.30298031349375376,1.0000303465486258,9.613042318301653e-05
-0.3023487479367759,-0.3023487479367759,0.9999139617716463,0.00010447625109132855
-0.30150820878043305,-0.30150820878043305,1.0001629818064637,9.809077733242199e-05
-0.3006966223358177,-0.3006966223358177,1.0000737441213534,9.413136288122213e-05
-0.29953039952379185,-0.29953039952379185,1.0001127909697987,9.788691298809175e-05
-0.29809922908316366,-0.29809922908316366,0.9999975263980403,0.00010183198685275284
-0.29700926983496173,-0.29700926983496173,1.0000049893435796,9.800479900076164e-05
-0.29639146451081616,-0.29639146451081616,1.000076272000032,9.619442545589974e-05
-0.2958906192419818,-0.2958906192419818,0.9999551317731623,9.9981175008582e-05
-0.2952960325405002,-0.2952960325405002,0.999933258738207,9.994094972192687e-05
