time,time,flux,flux_err
-0.49989893890172726,-0.49989893890172726,0.9999889898630441,0.00028757483288759095
-0.49979157782217953,-0.49979157782217953,0.9998965537208707,0.00030036741765206534
-0.4996347811278004,-0.4996347811278004,0.9997970131753635,0.0002864529358573029
-0.49950674281353713,-0.49950674281353713,1.0005606491466554,0.0002796744820639143
-0.4993913698301185,-0.4993913698301185,0.9998785669172161,0.00026410893607282
-0.49927208619119484,-0.49927208619119484,1.0002609966992895,0.00026277144407839214
-0.49916989645644205,-0.49916989645644205,1.0000101682076887,0.00026513440274599583
-0.49908242757592236,-0.49908242757592236,0.9999206644364893,0.0002672014080429144
-0.4989542370880372,-0.4989542370880372,1.0000528977215182,0.0002733681177421015
-0.4988641889503924,-0.4988641889503924,1.0000533131641092,0.0002646064482099787
-0.4987588901880372,-0.4987588901880372,0.9998486561481078,0.000269317536681722
-0.49865520256498713,-0.49865520256498713,1.0000750904284683,0.00027230020799983074
-0.49856791810234424,-0.49856791810234424,0.9997822476869104,0.0002546575220889802
-0.49846783297907676,-0.49846783297907676,0.9998597899401623,0.0002600051558896741
-0.4983955514682748,-0.4983955514682748,0.9998750079983173,0.0002727223014290331
-0.498291611426248,-0.498291611426248,0.9998102158523118,0.00030726110728291397
-0.49820213211205555,-0.49820213211205555,1.0000652021729712,0.00026139287183138627
-0.4980823594632966,-0.4980823594632966,1.0001610688736988,0.0002597469786960491
-0.4979810702192481,-0.4979810702192481,0.9997667381917171,0.00029018126729880086
-0.4978737867939344,-0.4978737867939344,0.9999651921438237,0.00026577197085733424
-0.49776421812348415,-0.49776421812348415,1.000423070393759,0.00026025711667209246
-0.49765348597356934,-0.49765348597356934,0.9996454081834798,0.00028434259146812815
-0.4975330451379705,-0.4975330451379705,0.9999645097249823,0.00027601614285596796
-0.4974456035990443,-0.4974456035990443,1.000271991822387,0.0002566889421170639
-0.4973261683633609,-0.4973261683633609,1.0000762438042832,0.000269991247469419
-0.49719972028397025,-0.49719972028397025,1.0000975716780764,0.0002883629299249889
-0.49710683259763755,-0.49710683259763755,1.0000428607161858,0.0002563021274248539
-0.49698639736088807,-0.49698639736088807,1.000576998935776,0.0002700706437323272
-0.49683599197960576,-0.49683599197960576,1.0002753480705084,0.0002857745073393459
-0.4967458018902107,-0.4967458018902107,1.0000665425241801,0.0002495642286366754
-0.49662867884908335,-0.49662867884908335,1.0003192460060162,0.00027009330927214696
-0.49648156112234576,-0.49648156112234576,0.9998604473434225,0.0002787592184426912
-0.4964072702474368,-0.4964072702474368,0.9996513546126341,0.000266853620348677
-0.4962937844429689,-0.4962937844429689,1.0001979397222134,0.00026210752558475506
-0.4961510800414544,-0.4961510800414544,0.9998049359394601,0.00027984698234624644
-0.4960534110177832,-0.4960534110177832,0.999782515414482,0.000267013501493403
-0.4959105063222523,-0.4959105063222523,0.9996182166040753,0.00027256046034889234
-0.4957754864655726,-0.4957754864655726,1.0000219744224466,0.0002868737651388154
-0.4957156486532767,-0.4957156486532767,0.999938813038747,0.0002779237888301634
-0.49555651375849263,-0.49555651375849263,0.9999963511733208,0.00026918281980637483
-0.4953926650865469,-0.4953926650865469,0.9997915802210434,0.0002865003425471468
-0.4952994750296057,-0.4952994750296057,1.000119637501412,0.00026864097464738206
-0.495122281928343,-0.495122281928343,0.9999865052842323,0.00026220788512246684
-0.49501506188244093,-0.49501506188244093,1.0003726585221377,0.0002779661240503383
-0.49491572268816525,-0.49491572268816525,1.000439378893812,0.0002785960859848595
-0.4947524234463344,-0.4947524234463344,1.0002889643525539,0.0002623262942972305
-0.4946399340777134,-0.4946399340777134,1.0001629249239137,0.0002879021312334773
-0.4944956414794433,-0.4944956414794433,1.0000430377323801,0.00027883024329209164
-0.4943779388762778,-0.4943779388762778,0.9998284581563359,0.0002895540904946633
-0.4942610776291986,-0.4942610776291986,1.000336143475836,0.00029645411088093993
-0.49409478600136936,-0.49409478600136936,1.0000649233555656,0.0002918531125273009
-0.493957531824708,-0.493957531824708,1.0000004512997216,0.0002594058650698556
-0.4938056593069632,-0.4938056593069632,1.0002394433784791,0.0003124397884393754
-0.49368726485627124,-0.49368726485627124,0.9998903187488221,0.0002557037520604955
-0.49355778271055895,-0.49355778271055895,1.0002080747231354,0.0002648800295479114
-0.49346770935953826,-0.49346770935953826,1.0001951472238118,0.0002791846396352143
-0.49336639189496057,-0.49336639189496057,0.9996147711722972,0.0002927687614791776
-0.49322436340880815,-0.49322436340880815,1.000170191058577,0.00024515094206801303
-0.4930845898401458,-0.4930845898401458,0.9994824763471609,0.00030440153264228465
-0.49294531250125145,-0.49294531250125145,0.9998807104248136,0.00025450802363781065
-0.4927594967579353,-0.4927594967579353,1.0002405635036304,0.00030547888345017156
-0.492663671282935,-0.492663671282935,1.0002259557533684,0.00025634285143247737
-0.4924689759733155,-0.4924689759733155,1.0003741645441573,0.0002585172931710967
-0.49238094237152835,-0.49238094237152835,1.0000186113692702,0.00029864409822660364
-0.4922552124640788,-0.4922552124640788,1.0003360932686145,0.0002487283806187367
-0.4920877580298111,-0.4920877580298111,0.9997752400203271,0.00029032704036413917
-0.4919989604713919,-0.4919989604713919,0.9997370271640891,0.0002691638292074633
-0.49183510383372775,-0.49183510383372775,0.99972181185416,0.0002503462628106196
-0.49168737253858125,-0.49168737253858125,0.9996203344309761,0.0002990734031215957
-0.49149184393318135,-0.49149184393318135,0.9998902562154312,0.0002569957608770916
-0.49131558874141773,-0.49131558874141773,0.9997589488318844,0.0003046326975909174
-0.4911096919218835,-0.4911096919218835,0.9998454524505356,0.00025781218155583303
-0.4909218546774355,-0.4909218546774355,1.0003367795111668,0.00030793120729550444
-0.4907287730835378,-0.4907287730835378,0.9998519916471247,0.0002580915084695144
-0.49063999991849416,-0.49063999991849416,1.0003642374370152,0.0003296862641744634
-0.49043149392091434,-0.49043149392091434,0.9999851440055572,0.00027582859109517215
-0.4902782737641246,-0.4902782737641246,0.9999723142646371,0.0003410204829271424
-0.49002411799447143,-0.49002411799447143,0.9995888480032541,0.00029064817309532715
-0.4897443868801929,-0.4897443868801929,1.0000258244952525,0.0002646446099341521
-0.4895625458433642,-0.4895625458433642,1.0000110480064572,0.0002924476021658698
-0.48934759180992843,-0.48934759180992843,1.000168214183228,0.00028474705577293327
-0.48913428529995145,-0.48913428529995145,1.000163676717928,0.00026125773079087723
-0.4889271042084147,-0.4889271042084147,1.0001914478245495,0.00027710783379906946
-0.48872688277479026,-0.48872688277479026,1.0000531395656251,0.00030100058338292877
-0.4885010543919634,-0.4885010543919634,1.0000981885981424,0.00024480151169719823
-0.4883321303444973,-0.4883321303444973,0.9998416177835259,0.0002850449512907714
-0.4880205703448155,-0.4880205703448155,0.9996113517651137,0.00029205894420112526
-0.48774657338653926,-0.48774657338653926,1.000335638487234,0.0002589951291406405
-0.48745630968332987,-0.48745630968332987,0.9997773302692907,0.0002876270503933359
-0.48726894755091055,-0.48726894755091055,1.0000700859583944,0.0003217818071661156
-0.487052783335821,-0.487052783335821,0.9999452186954791,0.00026464474934823057
-0.48685089622740635,-0.48685089622740635,1.0001233954664688,0.00029422460473691006
-0.4865896765506477,-0.4865896765506477,0.9997408828963845,0.00029187004209801036
-0.48637524631994894,-0.48637524631994894,0.9999491114027691,0.00025725084365883506
-0.4861997586885991,-0.4861997586885991,0.9999271067508673,0.00030128078745836204
-0.48603180988575334,-0.48603180988575334,0.9998631155203043,0.00026781630866271945
-0.4858781037728477,-0.4858781037728477,1.0001790365908818,0.00028543225388620813
-0.48568726748926566,-0.48568726748926566,1.0000234331053814,0.00026130967539515933
-0.48551897200304667,-0.48551897200304667,1.0000487904978752,0.0002913044178373454
-0.48530366787817913,-0.48530366787817913,1.0001316703146057,0.00030263311639457135
-0.48517375699229887,-0.48517375699229887,1.0003021298339714,0.00025972663053644895
-0.4849683161934081,-0.4849683161934081,1.000203427678178,0.0002940747771621785
-0.4847987457185809,-0.4847987457185809,0.9999811596352808,0.00026944585816550604
-0.4846196720798616,-0.4846196720798616,0.999656331213651,0.0002840996534156359
-0.48442138764221454,-0.48442138764221454,0.9999969529811821,0.0002650152023990794
-0.4842493540112628,-0.4842493540112628,1.0003195716239965,0.0002890892115973916
-0.4840474736294709,-0.4840474736294709,0.999877157535828,0.00026548895796746
-0.48385548224905506,-0.48385548224905506,0.9998034082128235,0.00029095018305724503
-0.48364566252057556,-0.48364566252057556,0.9997910093883838,0.00029646359389885247
-0.48351787702849836,-0.48351787702849836,1.0001590153819075,0.00027975147983285646
-0.48333720229857136,-0.48333720229857136,1.0001078597168571,0.0002694749226758689
-0.48325206137960774,-0.48325206137960774,1.0005029356618576,0.0002711385772961099
-0.4831250138806354,-0.4831250138806354,0.9997556128249784,0.0002776319942495769
-0.4829350677522598,-0.4829350677522598,1.000287378349803,0.00025743733196262894
-0.48286440117299206,-0.48286440117299206,1.0001013313570195,0.0002884579821508415
-0.48267473275991507,-0.48267473275991507,1.0014942567916143,0.00029516581568154765
-0.4825506929155381,-0.4825506929155381,1.0000260618631327,0.0002831558578638921
-0.4823376537853619,-0.4823376537853619,0.9997794511660189,0.0002742828112729602
-0.4821669614313578,-0.4821669614313578,0.9998125517052674,0.0002992286004366528
-0.48194242576282703,-0.48194242576282703,0.9999232764839994,0.0002698391293295237
-0.48173070218181235,-0.48173070218181235,0.9998730642347917,0.00030327022232532993
-0.4815705243010598,-0.4815705243010598,0.9998698014267591,0.00025861318384777716
-0.48135654156139934,-0.48135654156139934,1.0000699073173853,0.00028952196619541707
-0.4812005693253013,-0.4812005693253013,1.000301683694404,0.0002932786303494896
-0.4810138406915939,-0.4810138406915939,1.000657465645009,0.00027003811881468775
-0.4808334614011983,-0.4808334614011983,1.0002033757094135,0.00029917306958093337
-0.48060010183398844,-0.48060010183398844,1.0001585328451168,0.0002996316047754881
-0.4804177917008928,-0.4804177917008928,0.9996338984256183,0.00026898614385362403
-0.4801422102384095,-0.4801422102384095,1.000069025332765,0.0002956331386822411
-0.47988599965246975,-0.47988599965246975,0.9997096890516962,0.0002983827472987757
-0.47968087739427573,-0.47968087739427573,1.00020681573965,0.00026051048367866774
-0.4794198773110111,-0.4794198773110111,1.0004430046492983,0.00029004276073891805
-0.47922644832215155,-0.47922644832215155,1.000023164112828,0.0002905098575406137
-0.47903533540447824,-0.47903533540447824,1.000213411627631,0.00027349531240253804
-0.47888821216038197,-0.47888821216038197,0.9996844180462526,0.00029675058999023096
-0.4786835922415776,-0.4786835922415776,1.0001984173330818,0.0002624749846706431
-0.47848795060635896,-0.47848795060635896,0.9995809999824925,0.00029448921344028757
-0.4782453329084092,-0.4782453329084092,0.9999571973099879,0.00029969526719864835
-0.47799826161935927,-0.47799826161935927,0.9999307147569361,0.00026373616403952186
-0.4777536299428903,-0.4777536299428903,0.9998134848792034,0.0002889644347462326
-0.4775540904862282,-0.4775540904862282,1.0000733473557315,0.0002913899544114248
-0.4773292529214814,-0.4773292529214814,0.9993908824597458,0.00027112950429529026
-0.47718606550843107,-0.47718606550843107,0.9999551860339337,0.0002898903532630851
-0.4769540908819181,-0.4769540908819181,0.9998864531847914,0.00027583751627498383
-0.47682719054064365,-0.47682719054064365,0.9998573347293132,0.00029711410090892007
-0.47659746979625195,-0.47659746979625195,0.9999251653660528,0.00027607705208497696
-0.4764668515526864,-0.4764668515526864,0.9999638314039696,0.0002904326518271875
-0.47624307705191316,-0.47624307705191316,1.000226457055268,0.0002682896953683516
-0.47613500241641304,-0.47613500241641304,1.000196286946258,0.00026200464161547357
-0.47589086551379295,-0.47589086551379295,1.0000857771841913,0.0002631260804089625
-0.4757981092567206,-0.4757981092567206,1.0002384188236468,0.00026878265110874246
-0.47555732719993105,-0.47555732719993105,1.000113879217269,0.00026370095438505754
-0.47546830384089844,-0.47546830384089844,1.0001130646608443,0.0002578216664901055
-0.47530030664711376,-0.47530030664711376,0.9999044645315692,0.00028256628468316896
-0.4751277467243199,-0.4751277467243199,1.0001156449561406,0.00025212007248241947
-0.47503954149142374,-0.47503954149142374,1.0000311732853262,0.0003130929693291274
-0.4748138907867542,-0.4748138907867542,1.0001588904963459,0.0002555880528150531
-0.47473428007142504,-0.47473428007142504,1.0003503374020863,0.00026446706163939866
-0.4744654184592946,-0.4744654184592946,0.9997903455838923,0.00025565252128116617
-0.47437563932908233,-0.47437563932908233,0.9995343341712172,0.00026448603185496363
-0.47409264845919097,-0.47409264845919097,0.9998421993393005,0.0002647283038177151
-0.4739327388051606,-0.4739327388051606,1.0001164902706607,0.00024969157800422344
-0.4736935032851761,-0.4736935032851761,0.9997161120187247,0.00027009982096251503
-0.47354871610878035,-0.47354871610878035,1.0002410887766857,0.000250584050548569
-0.47333909283916,-0.47333909283916,1.0000770229516367,0.0002703275576941437
-0.4732014225141029,-0.4732014225141029,1.000042449113787,0.0002504497520060071
-0.4729565613983141,-0.4729565613983141,0.9998856787834167,0.000275953670291942
-0.47285392029298234,-0.47285392029298234,0.9994951264049403,0.00025502196702835764
-0.47259922433368046,-0.47259922433368046,1.0000353256753687,0.00028244470359186367
-0.47250680188226396,-0.47250680188226396,0.9999377991793166,0.0002503134677917511
-0.4722696438904677,-0.4722696438904677,0.9999898407776209,0.00027190362404821034
-0.47218839715860667,-0.47218839715860667,0.9999425720297068,0.00025996072845647694
-0.4719356571564276,-0.4719356571564276,1.00018128635064,0.0002646719180524453
-0.4718556677311426,-0.4718556677311426,0.9998069311363788,0.0002658872026940312
-0.47159053820942065,-0.47159053820942065,0.9996351734546923,0.000263304697806837
-0.4714841198940121,-0.4714841198940121,1.0001579747580114,0.0002627554697979025
-0.4711711399955675,-0.4711711399955675,1.000105760809765,0.00027818871076972526
-0.47105568671104264,-0.47105568671104264,0.9999741527236022,0.00025429790328820374
-0.47079248162408477,-0.47079248162408477,0.9998697916604842,0.00027660257638275644
-0.4706146423071914,-0.4706146423071914,1.0006239141315907,0.00025515177414653454
-0.4704147447788273,-0.4704147447788273,0.9998793763094067,0.0002761055537127758
-0.4702177593950182,-0.4702177593950182,0.999602994418874,0.00025333395402862054
-0.4700525428539549,-0.4700525428539549,0.9998271732541617,0.0002761255590212097
-0.46990713152918034,-0.46990713152918034,0.9999789730205929,0.0002575041263771158
-0.469698330135725,-0.469698330135725,1.000129617418644,0.0003029398961760017
-0.46955442475737075,-0.46955442475737075,1.0001667802297214,0.0002654227407319752
-0.4693338246041094,-0.4693338246041094,1.0001445129194544,0.0002708064340569174
-0.4692152326446376,-0.4692152326446376,1.000258810963205,0.000296389900419657
-0.46899260135687654,-0.46899260135687654,0.9999782181011078,0.00027152170236894023
-0.46889840951334916,-0.46889840951334916,1.0001972040791656,0.0002800338643948441
-0.4687395316344919,-0.4687395316344919,1.0000277419775487,0.0002984436630442574
-0.46861315136848136,-0.46861315136848136,0.9999063456005262,0.00026533940975938676
-0.46850195468432504,-0.46850195468432504,1.0001522684458095,0.00027798834076885417
-0.46827118650544436,-0.46827118650544436,0.999999503378859,0.00024901429611880687
-0.4681839175107598,-0.4681839175107598,1.0003361230989067,0.00029290542074609404
-0.46795764079797664,-0.46795764079797664,1.0001491882037379,0.00025315374692589266
-0.4678264123176632,-0.4678264123176632,1.0005337848027622,0.0002709962850707177
-0.4676501140696928,-0.4676501140696928,1.0000340147584446,0.00024889298567389967
-0.46747548261337213,-0.46747548261337213,1.0001156574912335,0.00027498046270773197
-0.4672481051857176,-0.4672481051857176,0.9998961320647057,0.0002531386855083394
-0.46708090902029653,-0.46708090902029653,1.0001703178399572,0.0002749673905433843
-0.46684242114715746,-0.46684242114715746,0.9998756221793794,0.00027293315537987937
-0.46668002522492313,-0.46668002522492313,0.999958669667922,0.0002632314983059801
-0.466474157878838,-0.466474157878838,0.9998059854967287,0.0002598434722400157
-0.4663501132316014,-0.4663501132316014,1.000088141675506,0.00027658229896662385
-0.4661472230014624,-0.4661472230014624,1.0000506280465666,0.0002594510041370993
-0.4660117478997563,-0.4660117478997563,1.0000380647085982,0.0002750135256092579
-0.46583700008850426,-0.46583700008850426,0.9995380898285358,0.0002550355284713883
-0.46568663638172436,-0.46568663638172436,1.0001778213161527,0.0002705827231302221
-0.46556214710071797,-0.46556214710071797,1.0002069769566035,0.0002606596126700208
-0.46535322128547707,-0.46535322128547707,1.0002238470127331,0.00027934508900198066
-0.4652124313855893,-0.4652124313855893,1.0002113547144615,0.0002558915349883369
-0.46502543450405937,-0.46502543450405937,1.0003344259244078,0.0002581552874072838
-0.4648859637010901,-0.4648859637010901,1.0002093237561744,0.0002697133601690362
-0.4647157837483974,-0.4647157837483974,1.00010460271078,0.00024760847300047057
-0.4645696115352621,-0.4645696115352621,1.0001898478327462,0.00027949620708968417
-0.46446593925138585,-0.46446593925138585,1.0001470901123686,0.00024231600684040426
-0.4643147444228816,-0.4643147444228816,0.9999639006072158,0.0002760728709399163
-0.4641688955503923,-0.4641688955503923,0.9998635445134116,0.0002716749887439982
-0.464020471132244,-0.464020471132244,0.9996339793944203,0.00025041173890555255
-0.4638772257996607,-0.4638772257996607,1.0004540153604,0.0002775342459510072
-0.463711254781083,-0.463711254781083,1.0000459034163485,0.0002789496059479717
-0.46358795701526107,-0.46358795701526107,0.9998187579276527,0.0002755450704965337
-0.46341664008723454,-0.46341664008723454,1.0002368940824404,0.00026048527603972105
-0.46332686683599605,-0.46332686683599605,1.0001308182276483,0.00028449241422833193
-0.4631758609379176,-0.4631758609379176,1.0000369376145681,0.00026667799058240814
-0.4630200270592468,-0.4630200270592468,1.0001397897879651,0.00028207736753403526
-0.46289700072302364,-0.46289700072302364,1.000219307984254,0.0002506597646989619
-0.46269829080629277,-0.46269829080629277,1.0001273031344617,0.0002998965902695077
-0.4625653791365039,-0.4625653791365039,0.9999691809462383,0.00024967253515115336
-0.4623945792816812,-0.4623945792816812,0.9998673996029603,0.00027776764561975725
-0.46229612219976846,-0.46229612219976846,0.9998679367487486,0.0002914052844184629
-0.46214997041242895,-0.46214997041242895,1.000183229086014,0.00024659327859892337
-0.4620068443153286,-0.4620068443153286,1.0001366214768268,0.00027977603632032183
-0.46187024351092987,-0.46187024351092987,0.9999447160261704,0.0002875116018249484
-0.46170208118346634,-0.46170208118346634,0.9998381414648867,0.00025024156131382366
-0.461547131131374,-0.461547131131374,0.9999884480941736,0.00029903333289268004
-0.4613981106071151,-0.4613981106071151,0.9998724438312913,0.0002478019484444921
-0.46118672573866204,-0.46118672573866204,0.9999819367786961,0.0003189068931187761
-0.4610521431743109,-0.4610521431743109,0.9998121292024669,0.00025202775859951414
-0.4608712605004257,-0.4608712605004257,1.0000497056534727,0.00028539836996609966
-0.46075289613218046,-0.46075289613218046,1.0001689358605048,0.0002937213875825181
-0.46067182048864197,-0.46067182048864197,0.9999416672466301,0.0002573909854958883
