time,time,flux,flux_err
-0.49984229944796726,-0.49984229944796726,0.9999797089548249,0.00012827258236814467
-0.4996284752516658,-0.4996284752516658,1.0001265963366601,0.00011727707852289718
-0.49947518737462815,-0.49947518737462815,0.9998973856300107,0.00011759234908467089
-0.49923159001700695,-0.49923159001700695,0.9998809436875986,0.00012726820514639465
-0.49894287976567286,-0.49894287976567286,1.0001811827126623,0.00011906288735331768
-0.4987850995355984,-0.4987850995355984,1.0000536022718525,0.00011560606567878186
-0.4985438188290573,-0.4985438188290573,1.000062489394049,0.00012037381489005381
-0.49826968555062195,-0.49826968555062195,1.0000062009443238,0.0001231038413058081
-0.4980911427956016,-0.4980911427956016,1.0001101948908442,0.00011890753092666123
-0.4979445466080506,-0.4979445466080506,0.999988644943849,0.000123059189129818
-0.49774140227018504,-0.49774140227018504,1.0000487926417487,0.00012068748617932543
-0.4975517131249944,-0.4975517131249944,1.000026590463293,0.00012147190563385891
-0.4973865405721881,-0.4973865405721881,0.9998885340073553,0.0001239577571393394
-0.4972174220478337,-0.4972174220478337,0.9999410765282322,0.00012028102802418793
-0.4969530173642852,-0.4969530173642852,1.0000161935682677,0.00011880742507765416
-0.49669994550713453,-0.49669994550713453,1.0002071610493135,0.00011943469937599505
-0.4965045910612389,-0.4965045910612389,0.9999368375545711,0.00011699776602881894
-0.4962380160606699,-0.4962380160606699,1.0000306804332795,0.0001255058414272526
-0.4960326821637864,-0.4960326821637864,0.9999711514761984,0.00012050631850791492
-0.4958281840372365,-0.4958281840372365,1.0000769170415658,0.00011658557661541272
-0.4956313482914993,-0.4956313482914993,1.0001903422907574,0.00012666011594686293
-0.49544221741671207,-0.49544221741671207,0.9999614997726134,0.00011829375224762602
-0.495152893334307,-0.495152893334307,1.0001152531175928,0.00011604266043875933
-0.494909353494586,-0.494909353494586,1.0000542155548016,0.0001209155324386992
-0.4946853362984257,-0.4946853362984257,0.9998507169786179,0.00011688874275090562
-0.49446710685588185,-0.49446710685588185,0.9998630715132821,0.00011833783517961309
-0.49427158515100017,-0.49427158515100017,0.9997927307314907,0.00011803552006306567
-0.4940705477281881,-0.4940705477281881,1.0001675097954883,0.00011454787847565255
-0.4939150872800383,-0.4939150872800383,0.9998960937444696,0.00011895519494914608
-0.4937050147935224,-0.4937050147935224,1.000003720390581,0.0001189772941167958
-0.49351504327496515,-0.49351504327496515,1.0001011050908162,0.0001161943724925862
-0.4932696692456375,-0.4932696692456375,0.9998346996896157,0.00011569796466485466
-0.4929946505581029,-0.4929946505581029,0.9998839288943003,0.0001281064782757846
-0.4926689400424948,-0.4926689400424948,1.0000473183028045,0.00012188237450291507
-0.492456599126308,-0.492456599126308,0.999982050412213,0.00012108525922362002
-0.4922757993830601,-0.4922757993830601,0.9999489245626826,0.00012121487584548928
-0.4919263155730732,-0.4919263155730732,1.0001745692252493,0.000119421342900316
-0.49166757345665246,-0.49166757345665246,1.0000648064716064,0.00011579685893806737
-0.4915258886401716,-0.4915258886401716,0.999964670020859,0.00011917348755348686
-0.49128156335646056,-0.49128156335646056,0.9999127620703602,0.00012480007031536675
-0.4909524305956438,-0.4909524305956438,0.9999663640531071,0.00011835925911048538
-0.4908203786821105,-0.4908203786821105,1.0000231624244915,0.00011519592012167823
-0.49072249236778587,-0.49072249236778587,0.9999805546454394,0.00011729670047055752
-0.49059461925717185,-0.49059461925717185,0.9998858970664222,0.00011604761340717283
-0.4904305159136129,-0.4904305159136129,0.9998755582025739,0.00012067180871480115
-0.4901901450721198,-0.4901901450721198,1.0000937052947445,0.00011740681548656831
-0.48998867996488116,-0.48998867996488116,0.9999817225339287,0.00012379903938719455
-0.48981371290356035,-0.48981371290356035,1.000113340629977,0.00011530632297508934
-0.4895143311325228,-0.4895143311325228,0.9999341240302357,0.00011635699176701469
-0.48931619192517245,-0.48931619192517245,1.000064680989149,0.00011920454106885063
-0.4891136671263666,-0.4891136671263666,1.0000429360430059,0.00011723659833189804
-0.48887442151317373,-0.48887442151317373,1.0000196336292644,0.00011735824405801121
-0.4887076128034096,-0.4887076128034096,0.9997018217855915,0.00012205224530439503
-0.48853360259236067,-0.48853360259236067,0.9999474801304615,0.00011644597382738714
-0.48831886132466024,-0.48831886132466024,0.9998529815455972,0.0001205165247224492
-0.4881782223696064,-0.4881782223696064,0.999750727326328,0.00011803362018600331
-0.48782647486732456,-0.48782647486732456,0.9998936109757018,0.0001165065385343052
-0.4875767445380916,-0.4875767445380916,1.0000165349703742,0.00012062708382621795
-0.48732934687359375,-0.48732934687359375,0.9998074369361563,0.00011876244925796685
-0.48715413906320465,-0.48715413906320465,0.9997268534791578,0.00011988159949280353
-0.4868517498653091,-0.4868517498653091,0.9998869294317997,0.00011950156285573845
-0.48667084131593585,-0.48667084131593585,1.0000716916559933,0.00011518805688204296
-0.48649363109580007,-0.48649363109580007,1.0001013048069878,0.00012428721572256118
-0.48629268055810826,-0.48629268055810826,0.9999722781907675,0.00011596122704825705
-0.48589307392176123,-0.48589307392176123,0.9999739191698884,0.00012524316246009765
-0.4855617184344737,-0.4855617184344737,1.0000588758510183,0.0001158104766512932
-0.4852764262621349,-0.4852764262621349,1.0000276221012778,0.0001164808974329897
-0.485127590403863,-0.485127590403863,0.9999654119070585,0.000116077303702637
-0.4849956011174072,-0.4849956011174072,0.9999764453153077,0.00011860998732173254
-0.4847333392746805,-0.4847333392746805,0.99995886524367,0.00012234284533307966
-0.48448374918298215,-0.48448374918298215,0.9999317091280439,0.00011619303430762387
-0.4842777092460892,-0.4842777092460892,0.9999286088263123,0.00012122701873775065
-0.4840608276310377,-0.4840608276310377,1.0000274034763295,0.00011638091817978208
-0.4837612816510955,-0.4837612816510955,0.999823700260525,0.0001231419026142653
-0.4835094988186029,-0.4835094988186029,0.9999562014476201,0.00011804502821612319
-0.4833439599540725,-0.4833439599540725,1.0000562219462166,0.00011634735204476776
-0.4832144532905659,-0.4832144532905659,0.9998469443021714,0.00011639156917322021
-0.4830730053297884,-0.4830730053297884,0.9998589288423897,0.0001178460543500204
-0.48277847388453665,-0.48277847388453665,1.0000102620432838,0.00012457464113846338
-0.48256997564822085,-0.48256997564822085,0.9999716654300036,0.00011654344655948488
-0.4822214296727907,-0.4822214296727907,0.9998951394882158,0.00011770233350454811
-0.4819678833380749,-0.4819678833380749,1.0000526628979838,0.00011865066831541642
-0.4816984355711611,-0.4816984355711611,0.9998544288096408,0.00012303137222423
-0.4815289079095237,-0.4815289079095237,0.9999453843319704,0.00011872875240707818
-0.48133537899775547,-0.48133537899775547,0.9999034642417051,0.00012008469407750117
-0.4810978469555266,-0.4810978469555266,1.0001734827522277,0.00011777810305571793
-0.4809834056781256,-0.4809834056781256,0.9999358661978658,0.00011991157845573277
-0.4807727353516384,-0.4807727353516384,0.9998576705769688,0.00011598479173023567
-0.48040125176048604,-0.48040125176048604,1.0000284426534896,0.00011843859890019468
-0.4802554640744347,-0.4802554640744347,0.9997983161647348,0.00011984925908811497
-0.4800246904276719,-0.4800246904276719,0.9999557646066976,0.00011868986052842468
-0.479730708727584,-0.479730708727584,0.9999266372890272,0.00011831677298143858
-0.47955120788610656,-0.47955120788610656,1.0000032219502357,0.00012569401028185575
-0.4793429411176476,-0.4793429411176476,0.9998181740507608,0.00011931154756384292
-0.478983954355499,-0.478983954355499,1.000037168561662,0.00012156427031272605
-0.4787108439842996,-0.4787108439842996,0.9998995671845169,0.0001235111053269708
-0.4783291412277322,-0.4783291412277322,1.0000367765873417,0.00011785650245795852
-0.4780254313700425,-0.4780254313700425,1.0000603706912112,0.00011917978213444348
-0.47782196371481406,-0.47782196371481406,0.9999134634836915,0.00011585659248175843
-0.47761327879634335,-0.47761327879634335,1.0000758340329967,0.0001271550970866803
-0.4773182962628198,-0.4773182962628198,0.9999654274307653,0.0001299381206725997
-0.4771076006203657,-0.4771076006203657,0.999910001809646,0.00011672172688605254
-0.4768827347645129,-0.4768827347645129,1.0000164294968257,0.00011581729487309387
-0.4765548085757473,-0.4765548085757473,1.0000394161288324,0.00012331278278982294
-0.47631312054290903,-0.47631312054290903,0.9999591328895834,0.00011525470846538373
-0.47617254400029196,-0.47617254400029196,0.9998691385948881,0.00011972901655853101
-0.4760209362291789,-0.4760209362291789,0.9999346947610228,0.00011908774697506619
-0.4758131266440614,-0.4758131266440614,1.0000788099541613,0.00011911910111808138
-0.475524346610473,-0.475524346610473,1.0000432340812506,0.00012550797764929162
-0.4753139150867355,-0.4753139150867355,0.9998717820603364,0.0001165668335610152
-0.47508811084990155,-0.47508811084990155,1.0000457401105927,0.00012092883740159597
-0.47489933893302805,-0.47489933893302805,0.99997757515386,0.0001156864920595532
-0.47462927651868086,-0.47462927651868086,0.9999121540589802,0.00011843483599638163
-0.47445617373959975,-0.47445617373959975,0.9999729474914524,0.00012248975623045276
-0.47427707807146363,-0.47427707807146363,0.9999885059078885,0.00011567835732654724
-0.47414343648051727,-0.47414343648051727,1.0001539226788774,0.0001180867161666484
-0.473908722820488,-0.473908722820488,0.9998498798479936,0.00012157573042564166
-0.47376802519866035,-0.47376802519866035,1.0000524902305667,0.00012027275165147208
-0.47359143350695376,-0.47359143350695376,1.0000744395919612,0.00011812156117617636
-0.473319996950886,-0.473319996950886,0.9999408142418806,0.00012433158863436633
-0.4730632057355251,-0.4730632057355251,1.0002380652170153,0.0001207421134282692
-0.4728678687446518,-0.4728678687446518,1.0001032566202173,0.0001170743222636236
-0.472618954758218,-0.472618954758218,0.999949914613395,0.00011692549663867072
-0.4723735020997992,-0.4723735020997992,1.0001292753697222,0.00012876993648927953
-0.4721832403993176,-0.4721832403993176,1.0001485348251473,0.00011862374330311972
-0.4719070189021295,-0.4719070189021295,1.000092112223332,0.00011852360389186698
-0.47164578939264173,-0.47164578939264173,1.000035568413362,0.00012109730737044505
-0.47141797413059977,-0.47141797413059977,0.9999245030165026,0.00011615065656207736
-0.4711964531954436,-0.4711964531954436,1.0001741063828467,0.00011792077491106618
-0.4710347940934298,-0.4710347940934298,0.9998456441554457,0.0001167178834008492
-0.47087648702072327,-0.47087648702072327,0.9999442766897054,0.00011615724242818753
-0.4706679657341738,-0.4706679657341738,1.0000791528381991,0.00011777436723941497
-0.4705329171971243,-0.4705329171971243,0.9999875296922174,0.00011479435876809118
-0.47040464180026903,-0.47040464180026903,0.9999559961947065,0.0001241604198371022
-0.47021240141402815,-0.47021240141402815,1.0000748889160156,0.00012499586881729876
-0.46990823271553384,-0.46990823271553384,1.0001319578475734,0.00011705072245958277
-0.46975705550139535,-0.46975705550139535,1.0000133240274278,0.00011712904799617329
-0.4695487906807102,-0.4695487906807102,0.9999165514961621,0.00012389266842809533
-0.4691678070870694,-0.4691678070870694,0.9999392460247156,0.0001175812467808993
-0.4689615808230883,-0.4689615808230883,1.0000827203798228,0.00011808127206153898
-0.46878965961004726,-0.46878965961004726,1.0000291196755184,0.00011764323658628578
-0.4685510122246342,-0.4685510122246342,1.0001141160641325,0.00012182843814482424
-0.46826430236906164,-0.46826430236906164,0.9999287480857815,0.00012403404578055502
-0.46800689111623794,-0.46800689111623794,1.00009971750545,0.00012081125161619147
-0.46774925747231466,-0.46774925747231466,0.9998957796534069,0.00011636123320670738
-0.46748051383474376,-0.46748051383474376,0.999827949752173,0.0001212040019840056
-0.46729636579257205,-0.46729636579257205,0.999914910280177,0.00011706983463518177
-0.46713402641689755,-0.46713402641689755,0.9999552852297354,0.00012358543262307178
-0.4669236910602194,-0.4669236910602194,0.9999200708947538,0.00011611216252507706
-0.4668060288677225,-0.4668060288677225,0.9997090842280907,0.00012313981445469032
-0.4665810438178596,-0.4665810438178596,0.9999065851702766,0.00011972880355347128
-0.4664387355136569,-0.4664387355136569,1.000224141513841,0.0001222811313722305
-0.46618671273536166,-0.46618671273536166,0.9999887799947956,0.00011705002628609488
-0.465938679483952,-0.465938679483952,1.0000000385688905,0.0001189765502808879
-0.46572957355165273,-0.46572957355165273,1.0000855473785148,0.0001197151992660927
-0.46540554539096773,-0.46540554539096773,0.9999496797248877,0.0001187318091257356
-0.46516010052146156,-0.46516010052146156,0.9999738750920294,0.00012030508665098498
-0.46493841316114415,-0.46493841316114415,0.9999741675445779,0.00011918552400316713
-0.4646701477315219,-0.4646701477315219,1.0001281154791362,0.00011693103216932189
-0.46439314664821724,-0.46439314664821724,0.999937018638076,0.00011465568488886546
-0.46405629867003884,-0.46405629867003884,0.9998307200397072,0.00011521929092764872
-0.4638246404727397,-0.4638246404727397,1.0001349566050788,0.00012106565203183238
-0.46357763285413967,-0.46357763285413967,1.0002597822227648,0.00011827924535360188
-0.4633991579648864,-0.4633991579648864,1.0000901959108828,0.00011591584820532597
-0.46321994996760624,-0.46321994996760624,1.0001876686937634,0.00011854415269921487
-0.46309510206992854,-0.46309510206992854,1.0001217477821698,0.00012941158152504067
-0.46279946451832077,-0.46279946451832077,0.999980548747445,0.00011518924717317609
-0.46260766243431134,-0.46260766243431134,0.9999461305273503,0.0001186081522751344
-0.4623792168793443,-0.4623792168793443,0.9999324309049242,0.00011691493319718996
-0.4619591911912721,-0.4619591911912721,0.9998327159614183,0.00012505687698395309
-0.46165238728135594,-0.46165238728135594,1.0000142936207683,0.00011801192480082696
-0.4614983655839751,-0.4614983655839751,0.9999913248290859,0.00011901592078733655
-0.461250230857695,-0.461250230857695,0.999935427397322,0.00012622625625505012
-0.4609158800136356,-0.4609158800136356,0.999897130201415,0.0001171528718572277
-0.4607403817724844,-0.4607403817724844,0.999959194404297,0.00012150405193219657
-0.46056473312928575,-0.46056473312928575,1.0002105206130099,0.00012217408118899394
-0.4602593215480738,-0.4602593215480738,0.9998737118023339,0.00012167763404826659
-0.460062645511789,-0.460062645511789,0.9998622182872419,0.00011903687035568642
-0.4599583094175614,-0.4599583094175614,1.0000871466757342,0.00012130572937194465
-0.45974786524457156,-0.45974786524457156,1.0001402733866516,0.0001180913416086941
-0.4594978709683346,-0.4594978709683346,0.9998857119032716,0.00011981949224613815
-0.4592779750302725,-0.4592779750302725,0.9999859894105475,0.0001241729496526073
-0.4590612896863604,-0.4590612896863604,0.9998180416243351,0.00011696826685603274
-0.4587126017686387,-0.4587126017686387,0.9997362123856852,0.00011771692341254148
-0.4584846881007252,-0.4584846881007252,0.9998836379152227,0.00011938864530291603
-0.4582664226691122,-0.4582664226691122,1.0001200080448251,0.00011698178983773444
-0.45806196089397416,-0.45806196089397416,1.0000893602017071,0.00012695222786696117
-0.4578775371170195,-0.4578775371170195,0.9999655669469412,0.00011898649540392582
-0.45769088891102,-0.45769088891102,1.0001575798422195,0.0001188335452027084
-0.45747871588973793,-0.45747871588973793,0.9999060439892604,0.00011753077434976319
-0.457336860428768,-0.457336860428768,1.0000750356150565,0.00011766513061018944
-0.45709375309816097,-0.45709375309816097,0.9998665290053103,0.00011759888427505727
-0.4568389233580092,-0.4568389233580092,1.000015970353953,0.0001174956715992066
-0.45668977017558066,-0.45668977017558066,1.0000176682935846,0.00011825448922113296
-0.4565152050105098,-0.4565152050105098,1.0002179105440248,0.00011848689950765632
-0.45629804275740754,-0.45629804275740754,0.9998950373322189,0.00011657795680570818
-0.4561548207748274,-0.4561548207748274,0.9998790079332014,0.00011526313126068144
-0.45595402040635236,-0.45595402040635236,0.999966879469192,0.00011922098664452346
-0.455762054270599,-0.455762054270599,0.9999954573045432,0.0001161293289040044
-0.4555426062870538,-0.4555426062870538,0.9999125042601854,0.00011517171680935052
-0.45531349874363514,-0.45531349874363514,1.0000445681833772,0.00011702800040417784
-0.4550366133167699,-0.4550366133167699,0.9999677122467293,0.0001294341069425234
-0.4546595581450674,-0.4546595581450674,0.9999491415122452,0.00011740805017410577
-0.4544293198545347,-0.4544293198545347,0.9999012480199093,0.00011916579148973068
-0.45429666483832987,-0.45429666483832987,1.0000922008389137,0.00011716956586770231
-0.45396442197088616,-0.45396442197088616,0.9998711839491368,0.0001260451665431858
-0.45372610986960354,-0.45372610986960354,0.9996909370521422,0.00011753704970735245
-0.45349034495302476,-0.45349034495302476,0.9999975497152904,0.00011702822049299951
-0.4532944836078968,-0.4532944836078968,0.9999882727787849,0.00012410577927260527
-0.45305431155793485,-0.45305431155793485,0.9998010576139066,0.00012304818129258216
-0.4528040965902619,-0.4528040965902619,1.000047281027942,0.00011569937719791608
-0.45270778463309397,-0.45270778463309397,0.9999389081421894,0.00011641487961666492
-0.4525626978967921,-0.4525626978967921,1.0001481563874992,0.00011561672814044746
-0.45241903493952124,-0.45241903493952124,1.0000214324553212,0.00011872787171867541
-0.4522087719393312,-0.4522087719393312,0.999907096473574,0.00012091685270531518
-0.4519839953100018,-0.4519839953100018,1.0001257983478387,0.00012092013705834062
-0.4517795364728954,-0.4517795364728954,0.9999925412766271,0.0001165160461032718
-0.4514665939881525,-0.4514665939881525,1.0000915038677203,0.00011634755103768247
-0.45121141683412136,-0.45121141683412136,1.0001929631783848,0.0001164698103782931
-0.4510212622422841,-0.4510212622422841,1.0001222094778117,0.00011744880156349389
-0.4507902542980446,-0.4507902542980446,0.9997477786119221,0.00012060778315518144
-0.4506131725385785,-0.4506131725385785,0.9997838652173027,0.00011773411842335419
-0.4503809789042862,-0.4503809789042862,1.0002540852271065,0.00012076167877533315
-0.4501895884837722,-0.4501895884837722,0.9999728895003616,0.00011959674407401778
-0.4499961441419146,-0.4499961441419146,1.0001198920639376,0.00011563828209599646
-0.449608728120802,-0.449608728120802,1.0000254435808398,0.00012119221954011359
-0.4494671327120159,-0.4494671327120159,0.9999482876615593,0.00011821500133767924
-0.4492716753265995,-0.4492716753265995,0.9999404958014655,0.00012121663243838358
-0.44899680199741854,-0.44899680199741854,0.9999373775630194,0.00011652168561811249
-0.4487288032993092,-0.4487288032993092,1.0000632633414814,0.0001251919393108428
-0.4486201133018767,-0.4486201133018767,0.9999055583725337,0.00011368762804300286
-0.4484447583359724,-0.4484447583359724,0.9998734728992099,0.00012542242092692575
-0.44809533428997383,-0.44809533428997383,0.9999789445336933,0.00012051833878118927
-0.4478852894390002,-0.4478852894390002,1.000130901445329,0.00012408163908238283
-0.4475912071444327,-0.4475912071444327,0.9999420155166442,0.00011635688968427457
-0.44738242262537825,-0.44738242262537825,1.0003103452022315,0.00011629577728050626
-0.4471661610688898,-0.4471661610688898,0.9999974097241934,0.00011647116286156185
-0.44704523402033375,-0.44704523402033375,1.0000635501995085,0.00011582448164089255
-0.44682004536589376,-0.44682004536589376,0.999923067541632,0.0001250686920374521
-0.44647154129706906,-0.44647154129706906,0.999924149148352,0.00011762869790972276
-0.44626423237132257,-0.44626423237132257,1.000345123305956,0.00011537811264556751
-0.446039596979972,-0.446039596979972,1.0001134507553664,0.00011745039721739179
