time,time,flux,flux_err
-0.49978898559711527,-0.49978898559711527,1.000029417226146,6.476486570557133e-05
-0.49942713878554057,-0.49942713878554057,0.9999958591792897,6.44335571795113e-05
-0.4991114978744008,-0.4991114978744008,0.9999490010665406,6.475667379816382e-05
-0.49844182717279184,-0.49844182717279184,1.0000614610133653,6.469513993889026e-05
-0.4979210533761943,-0.4979210533761943,0.999904725909366,6.512498653073514e-05
-0.4974659203166084,-0.4974659203166084,1.000103423136274,6.458508997924539e-05
-0.49727456757682376,-0.49727456757682376,1.000033188847801,6.449996958619758e-05
-0.49668166880801434,-0.49668166880801434,1.000002063572834,6.478045211383892e-05
-0.4960466803619056,-0.4960466803619056,1.0001368576475773,6.47714377470827e-05
-0.4953633238685143,-0.4953633238685143,0.9999443371971729,6.40585907318891e-05
-0.4948459122038912,-0.4948459122038912,0.9999700429307132,6.474888629241085e-05
-0.4944351333746454,-0.4944351333746454,0.9999944510128506,6.47640726283924e-05
-0.49388836371654177,-0.49388836371654177,1.0000320080477583,6.519093700540696e-05
-0.4932557910018659,-0.4932557910018659,1.0000542585007337,6.446007400054941e-05
-0.49293859507452,-0.49293859507452,0.9998560562664063,6.585611799573145e-05
-0.4926938116208476,-0.4926938116208476,1.0000482409918057,6.481138664670741e-05
-0.4923959194260533,-0.4923959194260533,1.0000136380688853,6.431605389277517e-05
-0.4918053187182522,-0.4918053187182522,1.000029533777656,6.476664930701276e-05
-0.4912337871035561,-0.4912337871035561,0.9998989222716513,6.44368728844946e-05
-0.4908173300449562,-0.4908173300449562,1.0000724340446694,6.442938004829411e-05
-0.49020162816668744,-0.49020162816668744,1.0000379574615264,6.44579870113423e-05
-0.48972754745045677,-0.48972754745045677,1.0000969934496875,6.508493508916315e-05
-0.4893255856994074,-0.4893255856994074,0.9998981881956155,6.48147150577961e-05
-0.4886226127418922,-0.4886226127418922,0.9999568421282733,6.477944592744385e-05
-0.48819216491028783,-0.48819216491028783,0.9999326245546929,6.461104417568927e-05
-0.48735629331786184,-0.48735629331786184,1.0000095900813133,6.442781044621328e-05
-0.48662565144186376,-0.48662565144186376,1.0000134871402053,6.514515199871688e-05
-0.48617653047549536,-0.48617653047549536,1.0000044734299134,6.475335869630742e-05
-0.48566664859026787,-0.48566664859026787,1.0000239902896917,6.445074883900134e-05
-0.4849995719981962,-0.4849995719981962,0.9999966022559725,6.476788709154405e-05
-0.4845277900523797,-0.4845277900523797,0.9999828668091173,6.487036582649265e-05
-0.4839843005021976,-0.4839843005021976,0.9999888081624905,6.451471741124041e-05
-0.48371775048217386,-0.48371775048217386,1.0000046068544863,6.487420319093373e-05
-0.4830579895948176,-0.4830579895948176,1.0000002355492654,6.475800667103351e-05
-0.48236790856681183,-0.48236790856681183,0.9999185121685944,6.41200121825475e-05
-0.48164956550172067,-0.48164956550172067,1.000049245407014,6.476184283326661e-05
-0.48131349770992526,-0.48131349770992526,1.00005104185365,6.482487700441438e-05
-0.4810438721389801,-0.4810438721389801,0.9999974281527404,6.476896382357041e-05
-0.4801435870016576,-0.4801435870016576,1.0000279169259438,6.488497573987799e-05
-0.47965148066359686,-0.47965148066359686,0.9999871078763128,6.488749834861863e-05
-0.4792599055239407,-0.4792599055239407,1.0000748980016305,6.458997174370125e-05
-0.47894117375544737,-0.47894117375544737,0.9999353483846154,6.476220587051024e-05
-0.47832017402979543,-0.47832017402979543,1.0000610382435065,6.47697465129459e-05
-0.47773673018600676,-0.47773673018600676,0.9999464316090634,6.44380451441665e-05
-0.4770357492991025,-0.4770357492991025,0.9998369279064887,6.439047131003542e-05
-0.47666099705602394,-0.47666099705602394,1.0000447435204174,6.481780468350761e-05
-0.47633277782151706,-0.47633277782151706,1.0000688794514294,6.437172183126484e-05
-0.4758216849877499,-0.4758216849877499,1.0000865381183845,6.520050055803338e-05
-0.47518220530182587,-0.47518220530182587,1.0000593638757187,6.446366977356804e-05
-0.474865170934936,-0.474865170934936,0.9999532331557776,6.616436982939208e-05
-0.4746659744625504,-0.4746659744625504,0.9999059944968856,6.48478610386003e-05
-0.4744012790477427,-0.4744012790477427,0.9999429340304269,6.436333307814831e-05
-0.47374162036576306,-0.47374162036576306,1.0000961528191354,6.476719468277007e-05
-0.47316168664910946,-0.47316168664910946,0.9999963169294978,6.44433995506366e-05
-0.4726475434676104,-0.4726475434676104,1.0001146512093804,6.444248741876837e-05
-0.4720275133855466,-0.4720275133855466,1.0000371160042958,6.443843113676988e-05
-0.4715809238885413,-0.4715809238885413,1.0000354756801921,6.547002586663314e-05
-0.4709501356323017,-0.4709501356323017,1.0000108666126932,6.487332104083435e-05
-0.4704473539764876,-0.4704473539764876,0.9998606275908047,6.445937712489505e-05
-0.4699863628738967,-0.4699863628738967,1.000003346363205,6.452966894148077e-05
-0.4692024454321654,-0.4692024454321654,1.0000429966840045,6.474738763636467e-05
-0.468553634986165,-0.468553634986165,1.0000678940390582,6.515737737416465e-05
-0.4681136735525797,-0.4681136735525797,0.9999507046780212,6.476313032480256e-05
-0.46758931752701755,-0.46758931752701755,0.9999276966817586,6.445663659502391e-05
-0.46698275871603984,-0.46698275871603984,1.0000094317286385,6.476356467676854e-05
-0.46654420422855764,-0.46654420422855764,0.9999083479678441,6.480999163058257e-05
-0.4659731352214294,-0.4659731352214294,1.0000490001084053,6.450086795998283e-05
-0.46564614170856655,-0.46564614170856655,1.0000154328006359,6.48595283077737e-05
-0.46492395796594793,-0.46492395796594793,1.0000231221015823,6.481862012115572e-05
-0.46412593576969813,-0.46412593576969813,1.000089877762475,6.444805427510049e-05
-0.46359188955902936,-0.46359188955902936,0.9999527316402961,6.475661701967125e-05
-0.4632471356744645,-0.4632471356744645,1.0000363026485748,6.482371157357449e-05
-0.46297632081405027,-0.46297632081405027,1.0000435937429415,6.476324083459455e-05
-0.46207579028850887,-0.46207579028850887,1.0000154846558147,6.484298467885831e-05
-0.46166138173866783,-0.46166138173866783,0.9999901076026741,6.488378779339173e-05
-0.4612213703774614,-0.4612213703774614,1.0000193725996032,6.459725732664081e-05
-0.46095096335411656,-0.46095096335411656,0.9998843259606298,6.527130158201567e-05
-0.4603722382431442,-0.4603722382431442,0.9999611765366481,6.516025607684647e-05
-0.4597782237520732,-0.4597782237520732,1.0000063710063485,6.443802021795553e-05
-0.4591576859173074,-0.4591576859173074,0.9998855989802523,6.40031358993391e-05
-0.45873926786807717,-0.45873926786807717,0.9999423043447772,6.482129099725427e-05
-0.45837233270649447,-0.45837233270649447,0.9999957314314141,6.475026885582656e-05
-0.45808632282787587,-0.45808632282787587,0.9999456421986281,6.471691400359261e-05
-0.45740213407916597,-0.45740213407916597,0.9999863619761709,6.480652182472647e-05
-0.45697623324522285,-0.45697623324522285,0.9999420713557073,6.483960033142266e-05
-0.456696081233531,-0.456696081233531,1.0000017616589854,6.629455637837424e-05
-0.45648194383102236,-0.45648194383102236,0.9999329694714097,6.490179744178309e-05
-0.4560781426756876,-0.4560781426756876,1.0000405417402902,6.438849168096182e-05
-0.4553935423777148,-0.4553935423777148,1.0000328271647487,6.477392685350951e-05
-0.4549137128211441,-0.4549137128211441,1.0000075780712974,6.474904901849904e-05
-0.45431326255347815,-0.45431326255347815,1.0001122464699654,6.445237779694256e-05
-0.45373715056994113,-0.45373715056994113,0.9998761068550248,6.445287691245305e-05
-0.4533526722931128,-0.4533526722931128,1.0000850740239868,6.552035972805149e-05
-0.4525823082876741,-0.4525823082876741,1.0000340592891117,6.444311115824528e-05
-0.4522186714646523,-0.4522186714646523,0.9999746750794459,6.489760968116497e-05
-0.45169316129613435,-0.45169316129613435,0.9999815741232381,6.444049081215355e-05
-0.45111382553441215,-0.45111382553441215,0.9999550182463668,6.437844878318185e-05
-0.4504899194660538,-0.4504899194660538,1.000029421025778,6.516024239606639e-05
-0.4500981518511253,-0.4500981518511253,1.0000803148639978,6.483477260102252e-05
-0.4496330565736571,-0.4496330565736571,1.0000501776346553,6.405362942932667e-05
-0.4490484995803854,-0.4490484995803854,0.9999622500354871,6.476231511553061e-05
-0.44856356320451596,-0.44856356320451596,0.9999313859936843,6.512455960053699e-05
-0.4480108187926817,-0.4480108187926817,1.0000253831396406,6.44896582901478e-05
-0.44759387958256414,-0.44759387958256414,0.999953814979375,6.485468577569978e-05
-0.44685775543694034,-0.44685775543694034,0.9999481020477534,6.48154201382117e-05
-0.4460556271667883,-0.4460556271667883,1.0000003937980444,6.444522014040895e-05
-0.4454513538257743,-0.4454513538257743,1.0000332498588027,6.512948790256566e-05
-0.44514254240784795,-0.44514254240784795,1.0000345910427901,6.481198888147597e-05
-0.4447375410483801,-0.4447375410483801,0.9999909425341249,6.443546064947862e-05
-0.4439048182211991,-0.4439048182211991,0.9999483978411157,6.480139979711436e-05
-0.4435004817714798,-0.4435004817714798,1.0001129898674015,6.488728395368705e-05
-0.4430697598254483,-0.4430697598254483,1.0000304637567177,6.452365486142518e-05
-0.4426622791113914,-0.4426622791113914,0.9999977142199213,6.54741422303667e-05
-0.44209327394491993,-0.44209327394491993,1.000118062783561,6.509225663601412e-05
-0.44141196501805097,-0.44141196501805097,1.0000553471716205,6.406283539009214e-05
-0.4408053557999665,-0.4408053557999665,1.0000028255774782,6.476456241047887e-05
-0.4404312683749595,-0.4404312683749595,0.9999673049817239,6.482317026156936e-05
-0.44016089616488896,-0.44016089616488896,0.9999422803641771,6.437254519790348e-05
-0.4393316703433811,-0.4393316703433811,1.0000652599277127,6.480353760279423e-05
-0.4388348553788092,-0.4388348553788092,0.999990165838385,6.488135945527577e-05
-0.4385700574486691,-0.4385700574486691,0.9999343001449841,6.690006053586292e-05
-0.4383672072501213,-0.4383672072501213,1.0000444925304515,6.48099360101556e-05
-0.43785884032258765,-0.43785884032258765,0.9999088005032506,6.438314902919289e-05
-0.43723955468813075,-0.43723955468813075,1.000138351784433,6.516091687726627e-05
-0.4367496495025989,-0.4367496495025989,1.0000042147579715,6.443821607857892e-05
-0.43609299418822045,-0.43609299418822045,1.0000287234554535,6.445718458280112e-05
-0.435586947388947,-0.435586947388947,1.0000121903354096,6.477045002964104e-05
-0.4353100035208627,-0.4353100035208627,1.0001244868367247,6.522383892875964e-05
-0.43465879298819343,-0.43465879298819343,1.0000458168449078,6.448523985887388e-05
-0.4342144694237504,-0.4342144694237504,1.0001231145336136,6.48418568366926e-05
-0.433828817599715,-0.433828817599715,0.9998847065122615,6.451387622180059e-05
-0.4333797920437064,-0.4333797920437064,0.9999416557618664,6.43685255243381e-05
-0.43259916435708873,-0.43259916435708873,1.0000765939255756,6.476419403444844e-05
-0.4321814606519183,-0.4321814606519183,0.9999959485971539,6.552625246715621e-05
-0.43191151092905783,-0.43191151092905783,1.0000210170036663,6.443829105872944e-05
-0.4313151003385428,-0.4313151003385428,1.0000487215212437,6.445534191437647e-05
-0.4307492878513585,-0.4307492878513585,1.0001732528203209,6.469123588279524e-05
-0.43030857546109474,-0.43030857546109474,0.999853577895428,6.486981545441117e-05
-0.4297174590486975,-0.4297174590486975,0.9999825298695111,6.445644182252986e-05
-0.42931642823896254,-0.42931642823896254,1.0000159073536434,6.502851592946174e-05
-0.4284479384739825,-0.4284479384739825,0.9999703419855297,6.443478007009185e-05
-0.4276910176020465,-0.4276910176020465,1.0000011362505428,6.514767352367167e-05
-0.42724759561679093,-0.42724759561679093,0.9999633677650882,6.475510013262e-05
-0.4269051546230912,-0.4269051546230912,1.0000221276876602,6.443711963280424e-05
-0.426254683015577,-0.426254683015577,1.0002003252220182,6.48605587318669e-05
-0.425693266325834,-0.425693266325834,0.9999987916698558,6.51277462903518e-05
-0.42521502843083,-0.42521502843083,1.0000394407661735,6.457726989513418e-05
-0.4248946821033314,-0.4248946821033314,0.9999953847404305,6.46657689631597e-05
-0.424362059723353,-0.424362059723353,1.0000727304365837,6.514447960329994e-05
-0.42385395352976046,-0.42385395352976046,1.0001931495285148,6.48323433150597e-05
-0.42315644849149975,-0.42315644849149975,1.0000313345472713,6.399927443362187e-05
-0.42267516617357614,-0.42267516617357614,1.00003825325207,6.481212763320477e-05
-0.4222935416488326,-0.4222935416488326,0.9999928749074345,6.482123991737303e-05
-0.42198307164217114,-0.42198307164217114,1.0000270788479007,6.435974870665383e-05
-0.4211235347975162,-0.4211235347975162,1.0001273417675531,6.480899045655237e-05
-0.4206937632370682,-0.4206937632370682,0.9999358539475732,6.724579389519691e-05
-0.4204091960025835,-0.4204091960025835,1.0000356190322452,6.459514355312199e-05
-0.42013393312809055,-0.42013393312809055,1.0000222221981983,6.442269230151864e-05
-0.4193844629073283,-0.4193844629073283,1.0000790352767308,6.51016988221285e-05
-0.41887221009092174,-0.41887221009092174,1.000032796526831,6.48349185525869e-05
-0.41843504841817775,-0.41843504841817775,0.999999942553619,6.404520329841266e-05
-0.4179085962190584,-0.4179085962190584,0.9999276766217177,6.437702821353505e-05
-0.41747101141445453,-0.41747101141445453,0.9999517445807141,6.51577806551954e-05
-0.4171984795393655,-0.4171984795393655,1.0000532019470834,6.491520145589942e-05
-0.416580549981154,-0.416580549981154,1.0000335407292475,6.448641595774491e-05
-0.4161431858236028,-0.4161431858236028,0.999942073911847,6.483372466002552e-05
-0.4157675273316272,-0.4157675273316272,0.9999866499477321,6.521227107551047e-05
-0.4154061980174447,-0.4154061980174447,1.0000044007080242,6.431165138825147e-05
-0.4146617261430947,-0.4146617261430947,1.0000234628275984,6.482660530175896e-05
-0.41418004635561373,-0.41418004635561373,1.0000517842287562,6.515487602995659e-05
-0.4136195715946087,-0.4136195715946087,1.0000582864247107,6.405348085335818e-05
-0.41301518083637345,-0.41301518083637345,1.0000111808441297,6.445143695798765e-05
-0.41252319358973183,-0.41252319358973183,1.0000723569706582,6.512772458085692e-05
-0.4119796872088045,-0.4119796872088045,0.9999987108020255,6.487862133470211e-05
-0.41149876429335563,-0.41149876429335563,1.0000537914579535,6.447029101469278e-05
-0.41090138162180667,-0.41090138162180667,1.0000019130186009,6.490767660745911e-05
-0.4100574950221926,-0.4100574950221926,0.9999791498842463,6.411470633021055e-05
-0.4094336401685723,-0.4094336401685723,0.9998946234595699,6.51309403839064e-05
-0.4090521380356222,-0.4090521380356222,0.9999343668712022,6.513091900918736e-05
-0.40853307216239043,-0.40853307216239043,0.9999804723747342,6.437573973550962e-05
-0.4077777693943062,-0.4077777693943062,1.0000889609456975,6.51242541603587e-05
-0.4073350729740923,-0.4073350729740923,0.999906282409003,6.456782077657464e-05
-0.4069094726612093,-0.4069094726612093,1.0000265384166342,6.446445303343036e-05
-0.406535490405804,-0.406535490405804,0.9999236655443504,6.531672479263469e-05
-0.40598089854174757,-0.40598089854174757,1.0000236941694862,6.514526797840052e-05
-0.4054014406974602,-0.4054014406974602,1.000029166825494,6.40638971821115e-05
-0.4047386415040819,-0.4047386415040819,1.0000109568997484,6.476104840342748e-05
-0.4043806831919937,-0.4043806831919937,0.9999322147145973,6.443099440169427e-05
-0.4040605612870422,-0.4040605612870422,0.9999623528570293,6.476703506676806e-05
-0.4035084945309791,-0.4035084945309791,1.0000269856914241,6.44032864307601e-05
-0.40286501025257165,-0.40286501025257165,0.9999198552655647,6.512583816475e-05
-0.40244422579999084,-0.40244422579999084,1.000150463290345,6.426740482558932e-05
-0.4022558904107427,-0.4022558904107427,1.0000444900425394,6.483456264446963e-05
-0.401783630742284,-0.401783630742284,1.0000479839930194,6.443426376715646e-05
-0.4011194295795576,-0.4011194295795576,1.000001669913709,6.515918392929579e-05
-0.4006100423379394,-0.4006100423379394,0.9999907466871167,6.443378477204498e-05
-0.4000618542995653,-0.4000618542995653,0.9999299154600608,6.439241157729628e-05
-0.3995234657340916,-0.3995234657340916,0.9999784355784926,6.482659667577748e-05
-0.3992404200405872,-0.3992404200405872,0.9999793462922668,6.509332677113089e-05
-0.3985024047513434,-0.3985024047513434,0.9999830106847621,6.448419106246495e-05
-0.3980719918763498,-0.3980719918763498,0.9997870162171457,6.483583374657253e-05
-0.39781893567414955,-0.39781893567414955,1.0000536875235337,6.532234756141495e-05
-0.3975315588497324,-0.3975315588497324,0.9998870320534163,6.468854094145374e-05
-0.39710542182583597,-0.39710542182583597,0.999900948588363,6.436517462289856e-05
-0.3963646055315621,-0.3963646055315621,1.0000057756279468,6.516137389699368e-05
-0.39602469622768693,-0.39602469622768693,1.0000196314977958,6.475349515875209e-05
-0.39554369175457393,-0.39554369175457393,1.0000243850601127,6.404384439392588e-05
-0.394944670212135,-0.394944670212135,1.0000675735469797,6.483355889907434e-05
-0.3945326664863387,-0.3945326664863387,1.000059985621469,6.50753832529052e-05
-0.3939831400595722,-0.3939831400595722,0.9999809783631657,6.488141051848954e-05
-0.3934229270860669,-0.3934229270860669,1.00002244498042,6.447542314221389e-05
-0.39283205582541997,-0.39283205582541997,0.9999902118685693,6.488094646606754e-05
-0.39198367312565097,-0.39198367312565097,0.9999982797737756,6.449934775803781e-05
-0.39136717221626893,-0.39136717221626893,1.0001089595749992,6.47677420589531e-05
-0.39095377422563615,-0.39095377422563615,1.0000173220975221,6.477627298362776e-05
-0.3903949315630598,-0.3903949315630598,0.9999938625678559,6.446145961511417e-05
-0.3897154487247462,-0.3897154487247462,1.000081094120468,6.511960414926838e-05
-0.38925388988573106,-0.38925388988573106,1.0000265347202764,6.456778822445673e-05
-0.38887656779261304,-0.38887656779261304,1.0000656915406396,6.447271704258212e-05
-0.3885825475648744,-0.3885825475648744,0.9999635336981282,6.527472591526205e-05
-0.387878845717205,-0.387878845717205,0.9999690402010909,6.442508712818754e-05
-0.3871574816570501,-0.3871574816570501,1.0001243158081856,6.40605550184073e-05
-0.38659935915347887,-0.38659935915347887,0.9999960429008885,6.476144312661385e-05
-0.386227170030179,-0.386227170030179,1.0000536332624388,6.480897258117809e-05
-0.38585969368359657,-0.38585969368359657,1.0000563256941128,6.439559313427193e-05
-0.38509277375924283,-0.38509277375924283,0.9999640779447445,6.497902046159236e-05
-0.38460757909924725,-0.38460757909924725,0.9999408318648804,6.488408748206575e-05
-0.384228868248465,-0.384228868248465,1.0000230570236321,6.459917304535997e-05
-0.3838689070995315,-0.3838689070995315,0.9999116454619561,6.44288460960162e-05
-0.38314861756734897,-0.38314861756734897,0.9999345888290028,6.508289432986758e-05
-0.3825657102628611,-0.3825657102628611,1.0000889749504716,6.404860571675836e-05
-0.3818932566187868,-0.3818932566187868,1.0001131304991262,6.477248785502092e-05
-0.3814496489583689,-0.3814496489583689,0.9999860732118879,6.483406252440197e-05
-0.38108669557550456,-0.38108669557550456,0.9999903029763677,6.476061316714661e-05
-0.3802914344269084,-0.3802914344269084,0.9999936568514866,6.482106131355049e-05
-0.37993649841737354,-0.37993649841737354,0.9999798624477358,6.484021100569075e-05
-0.37969725222646955,-0.37969725222646955,1.000005796135254,6.539035789092731e-05
-0.37940386533155107,-0.37940386533155107,1.0000252867505186,6.486590660578662e-05
-0.3788592068638536,-0.3788592068638536,1.0000214464782702,6.437855944461402e-05
-0.378208385212929,-0.378208385212929,0.9999968583916606,6.477509287461128e-05
-0.37779208907086287,-0.37779208907086287,1.0000021948303857,6.443249090963648e-05
-0.3772037834758521,-0.3772037834758521,1.0000740765754064,6.445641018412623e-05
-0.37667078193771886,-0.37667078193771886,0.9999303517462981,6.476727521481869e-05
-0.37632244814012666,-0.37632244814012666,1.0000836401890982,6.51317090763188e-05
-0.3756123195598775,-0.3756123195598775,0.9999451955431722,6.444429113108823e-05
