time,time,flux,flux_err
-0.4997486603915604,-0.4997486603915604,0.9990860596745469,0.0010212452277571621
-0.49862714880291603,-0.49862714880291603,0.9997865239891986,0.0009294982946836305
-0.4977830806754355,-0.4977830806754355,0.9993782353144702,0.00092996988451147
-0.49694859727314905,-0.49694859727314905,1.0007584005914907,0.0009386678493797488
-0.4964682743564481,-0.4964682743564481,1.000263651277614,0.0009353496379042646
-0.49618480429344347,-0.49618480429344347,1.000229791251633,0.0010004816288609897
-0.4957502867691801,-0.4957502867691801,1.0016463004135208,0.0010857113852487726
-0.49511852400028145,-0.49511852400028145,1.0003049883935076,0.0009264900766853034
-0.49463854026107584,-0.49463854026107584,1.000260906975872,0.0009299427644943921
-0.49424304072454106,-0.49424304072454106,1.0002296134978763,0.0009286701806730746
-0.49344603057325004,-0.49344603057325004,1.0009827679631091,0.001314739089254365
-0.49291424762341196,-0.49291424762341196,0.9993402668463339,0.0009348857412541748
-0.4919382566615241,-0.4919382566615241,1.0000784961980604,0.0009479271728976375
-0.49073196237077354,-0.49073196237077354,0.9989181932744813,0.0009686168947328561
-0.490066306765948,-0.490066306765948,1.0016595553387708,0.0009185980857912151
-0.489341912024247,-0.489341912024247,1.0003096279910075,0.0009304088940790486
-0.4885202870609646,-0.4885202870609646,0.9997329538039874,0.0009306925094392276
-0.48791073277097896,-0.48791073277097896,1.0011191557481092,0.0009326849600125584
-0.4872873495973181,-0.4872873495973181,1.0003685695196793,0.000934870856204931
-0.4867914095397282,-0.4867914095397282,1.0008572959977096,0.0009411468316386509
-0.4856189423604519,-0.4856189423604519,0.999174491737228,0.000927183851562083
-0.4851638038351666,-0.4851638038351666,0.999191567561758,0.001040600950740797
-0.484397796614212,-0.484397796614212,0.9982823135827793,0.0009337619625003777
-0.48325963484239765,-0.48325963484239765,0.9997569022982677,0.0009265218228155898
-0.4823781163737294,-0.4823781163737294,0.9996658980175722,0.0009336772502677081
-0.48177014085813424,-0.48177014085813424,0.9987232270825064,0.0009420122198035081
-0.4814341785888246,-0.4814341785888246,0.9995342923658432,0.0009325616116176944
-0.4807381766164326,-0.4807381766164326,1.0012705398856556,0.0009335717297962957
-0.4801864888861019,-0.4801864888861019,1.0001084319144309,0.0009345382828614303
-0.4797033914233907,-0.4797033914233907,1.0007402378586114,0.0009308573441401654
-0.47893991643722983,-0.47893991643722983,1.0005639187660766,0.0012510384594541677
-0.47843080428501705,-0.47843080428501705,0.9990695146884306,0.0009388321350883754
-0.47780448539488135,-0.47780448539488135,0.9996361993453343,0.0009318928455316594
-0.47676471068916726,-0.47676471068916726,1.0005099662890822,0.0009411324462798085
-0.47556970870427906,-0.47556970870427906,1.0002521195518908,0.0009507700116874641
-0.47508505961232006,-0.47508505961232006,0.9998883965444652,0.0009124280169436958
-0.4746036165721307,-0.4746036165721307,0.9994665735972784,0.0009319136031684603
-0.47363499736675296,-0.47363499736675296,1.000067437304064,0.0009371454217318173
-0.4730212403657788,-0.4730212403657788,0.9993754189936743,0.000934864939481587
-0.47234222886399946,-0.47234222886399946,1.0004654467378975,0.0009348102656229005
-0.4712743118194339,-0.4712743118194339,0.998760381459823,0.000935397753752592
-0.4704537017896655,-0.4704537017896655,0.999557279706759,0.0009972615910760771
-0.4694991796510294,-0.4694991796510294,1.0017891668878307,0.0009357556048317933
-0.4685283722821623,-0.4685283722821623,1.0020922594836184,0.0009238734840322121
-0.4677140899118967,-0.4677140899118967,1.0002079516673361,0.0009357256226456389
-0.467083298725629,-0.467083298725629,1.000803690526296,0.0009438880106440132
-0.4663201466741157,-0.4663201466741157,1.0012374939546274,0.0009409218486360595
-0.46568538562714823,-0.46568538562714823,1.0004296586979728,0.000931107394320773
-0.4651749209311674,-0.4651749209311674,0.9993036720888305,0.0009329829205410502
-0.46440428068235634,-0.46440428068235634,0.9987673404656403,0.0009436088504688091
-0.4636272706229647,-0.4636272706229647,0.9987139371344641,0.000940606867750768
-0.4629086274901056,-0.4629086274901056,0.9996683219181179,0.000933842870461028
-0.46194970848664524,-0.46194970848664524,1.0016101349285105,0.0009369132816004159
-0.4606350634516275,-0.4606350634516275,0.9992958674374878,0.0009436654428673707
-0.4602434535067005,-0.4602434535067005,0.9995653902089494,0.0009103167652947856
-0.45978689017065333,-0.45978689017065333,0.9997402606954173,0.0009343054248330941
-0.45904076893784806,-0.45904076893784806,0.9998890670429308,0.0009293057180215182
-0.4585069512970222,-0.4585069512970222,1.0001187355051449,0.0009342511910700967
-0.45758299190492835,-0.45758299190492835,1.0003145323620872,0.0009297944255441781
-0.45700369432233856,-0.45700369432233856,0.9979000398685425,0.0009410089472243123
-0.45602686259298936,-0.45602686259298936,1.0006682452883464,0.0009404522274667253
-0.4549802958412329,-0.4549802958412329,1.0001272316588274,0.000965593008919021
-0.4540200142400863,-0.4540200142400863,0.9991011960262787,0.0009372268790553298
-0.45348975094238997,-0.45348975094238997,1.0000962804377966,0.0010451290110691969
-0.45272810797032437,-0.45272810797032437,0.9995243416085288,0.0009327690245314744
-0.4520193729971652,-0.4520193729971652,1.0008170336538238,0.0009377664366725897
-0.4511372046552424,-0.4511372046552424,1.0011697367725014,0.000933155384026691
-0.4507368787570158,-0.4507368787570158,1.0011086508053626,0.0009345989548841434
-0.44997550770713135,-0.44997550770713135,1.0000615371258177,0.0009378274418542405
-0.44905635239265396,-0.44905635239265396,0.9991765343384096,0.0009339010439570441
-0.4482534801667498,-0.4482534801667498,0.9989264553911132,0.0009292687804151742
-0.44721420804489753,-0.44721420804489753,1.0004769357949843,0.0009307166855053658
-0.44616642995824807,-0.44616642995824807,1.0009201912155494,0.0009345924920264655
-0.4455656030339014,-0.4455656030339014,0.9999197920198567,0.0009405826756374565
-0.4450580571377941,-0.4450580571377941,0.9991096785062726,0.0010111663460914857
-0.4445470838625624,-0.4445470838625624,1.0010461030487712,0.0011171180544178798
-0.4440129051436088,-0.4440129051436088,1.0001241026850836,0.0009267232182991758
-0.44349083382621757,-0.44349083382621757,1.001077821054587,0.0009434007335432013
-0.44300681340901066,-0.44300681340901066,1.0011200849796738,0.0009278478176981736
-0.44246455194006556,-0.44246455194006556,1.0018124660412329,0.001349276428373802
-0.4418425711453892,-0.4418425711453892,1.004246481530315,0.0009324146090693233
-0.440582963378256,-0.440582963378256,1.0004119190534662,0.0009485090056862636
-0.4392126919417933,-0.4392126919417933,1.0009108654113494,0.0009361865468529745
-0.43844634287670486,-0.43844634287670486,1.0007045648743729,0.0009106963797636729
-0.4373403489233169,-0.4373403489233169,1.0002178733044715,0.0009340895757958777
-0.43676504760514945,-0.43676504760514945,1.0012023904903269,0.0009283885047468065
-0.43624682238296375,-0.43624682238296375,1.0004511060699923,0.001198316239468357
-0.43579831857277895,-0.43579831857277895,0.9999709012460645,0.0009409326038332914
-0.43453515849541874,-0.43453515849541874,0.9998018548049883,0.0010437334633237635
-0.43404651555101736,-0.43404651555101736,1.001238945762395,0.0009324470876510733
-0.4332463808459579,-0.4332463808459579,1.0000620904900832,0.0009321169354469609
-0.432256930663425,-0.432256930663425,1.0005916988959584,0.0009325017169039421
-0.4313790783351578,-0.4313790783351578,1.0000130334695527,0.0009331164791181063
-0.43078021244655246,-0.43078021244655246,0.999946325719753,0.0009427362618621424
-0.43051740029332,-0.43051740029332,1.0008556270559317,0.0009359655223276973
-0.4300403833083692,-0.4300403833083692,1.0003965755572586,0.0009881638742078966
-0.42934982160077195,-0.42934982160077195,1.004119945797444,0.0009258760640676667
-0.4288468151942652,-0.4288468151942652,1.0010580826886302,0.0009327912429999797
-0.4282574725417362,-0.4282574725417362,1.0008404267093567,0.0009400327784301783
-0.42753765421221035,-0.42753765421221035,1.0009218441692316,0.0012815975903986004
-0.42691034858653437,-0.42691034858653437,0.9994902909281004,0.0009317569782835843
-0.4260407427522296,-0.4260407427522296,1.0000148975953587,0.0009430649073918303
-0.425137279673072,-0.425137279673072,1.0010099095003142,0.0009317333784204634
-0.4241724058359978,-0.4241724058359978,1.000023311277417,0.0009146292813147008
-0.42354223310758243,-0.42354223310758243,0.9991098781465256,0.0009346327555856343
-0.42255789658156573,-0.42255789658156573,0.9992196775535849,0.0009386034510015298
-0.4221243105101166,-0.4221243105101166,0.9992440751384729,0.0009341620482010577
-0.421579087140708,-0.421579087140708,0.9998115660028652,0.0009332839727878648
-0.4208947025472298,-0.4208947025472298,0.9999041685275915,0.0009426718723223572
-0.41986494539960406,-0.41986494539960406,1.0012011137387002,0.0009497531378998156
-0.41921839039350745,-0.41921839039350745,0.9983912916200591,0.000994582249449478
-0.41821413544021196,-0.41821413544021196,1.0004430420448966,0.0009352633588676016
-0.41747572497915825,-0.41747572497915825,1.0011244281678882,0.0009248033186260209
-0.4165995301285875,-0.4165995301285875,1.002356672422158,0.0009353726989312376
-0.4158747357141692,-0.4158747357141692,1.0004241503643203,0.0009393243586422312
-0.4152322476031259,-0.4152322476031259,1.0015900247177119,0.0009436514182191265
-0.41469351951018324,-0.41469351951018324,1.0010426518527704,0.0009300705039711497
-0.4141748090929468,-0.4141748090929468,1.0005895472338928,0.0009330509484956129
-0.4135976383680827,-0.4135976383680827,0.9994889697445994,0.0009311259966987652
-0.4130412280384917,-0.4130412280384917,0.9992043853115504,0.0009462045277649374
-0.4124422508888529,-0.4124422508888529,1.0007050568405575,0.0009383206915830906
-0.41170085913836374,-0.41170085913836374,1.0014494879524931,0.0009469803805253823
-0.4111528821100364,-0.4111528821100364,1.000027903728235,0.0009371690427352449
-0.40987621505191785,-0.40987621505191785,1.0013757761174655,0.0009457023598083434
-0.40932628101509183,-0.40932628101509183,0.9982681238089899,0.0009066110813455442
-0.40913464206969363,-0.40913464206969363,0.9994407629664538,0.0009352420070881178
-0.4083789997428539,-0.4083789997428539,1.0004293049381547,0.000936518898924572
-0.40743412041993,-0.40743412041993,1.0011551156135405,0.000935055966187213
-0.4066771922101907,-0.4066771922101907,1.0008299379777712,0.0009298676752015435
-0.40610519005713286,-0.40610519005713286,1.0002578935570043,0.0009399390914244344
-0.40493554219356154,-0.40493554219356154,1.000355521118871,0.0009433916787403351
-0.40413841606423373,-0.40413841606423373,1.001236830838162,0.0009735738281216328
-0.4030060030054301,-0.4030060030054301,1.0006508540777361,0.0009295088329347072
-0.4022596435068408,-0.4022596435068408,1.001174587514194,0.0009231157423775456
-0.4015775584419316,-0.4015775584419316,0.9998619499522003,0.0009403576906008175
-0.4009712519873574,-0.4009712519873574,1.0008796485313212,0.0009475992728688175
-0.40059848644668816,-0.40059848644668816,0.9998341586421036,0.0009316106326714409
-0.3999854382418562,-0.3999854382418562,1.0011387265192053,0.0009290735375663292
-0.3995525779435411,-0.3995525779435411,1.000186330748247,0.000930684342063937
-0.39884640787713577,-0.39884640787713577,1.000087212856137,0.0009307873195090211
-0.39819642385991755,-0.39819642385991755,0.9996726621947655,0.0009458122163374081
-0.39759025637613377,-0.39759025637613377,0.9978037138547364,0.0009289982144833084
-0.39650892024801576,-0.39650892024801576,0.9998311068643986,0.0009305289514056241
-0.3956246117239061,-0.3956246117239061,1.0009461622267408,0.0009352349703035196
-0.3946771805669414,-0.3946771805669414,1.0011802103894358,0.0009378732723344079
-0.39438230181840483,-0.39438230181840483,1.000223166499783,0.0009323871065378844
-0.39388113035674904,-0.39388113035674904,1.0027295318010832,0.0012514891443977496
-0.3932887566363206,-0.3932887566363206,0.9994646885930045,0.0009257284788811145
-0.39291467718503553,-0.39291467718503553,1.0029592282738542,0.000937077088955726
-0.3921292608261865,-0.3921292608261865,1.000456158608714,0.0009336119174285324
-0.3915826462856785,-0.3915826462856785,1.0021487193232892,0.0013674782885898832
-0.39099170170811703,-0.39099170170811703,1.0002685384763936,0.0009351285071014714
-0.39044875346371555,-0.39044875346371555,1.0005319681729485,0.0009359571292032274
-0.3890126617727219,-0.3890126617727219,1.001142353974552,0.0009561404507215466
-0.3879707187566964,-0.3879707187566964,1.0005964245568264,0.0009303892408798999
-0.38717644905627824,-0.38717644905627824,0.9998035784290021,0.0009278458899332745
-0.38629537778033407,-0.38629537778033407,0.9991373500300428,0.0009385638692129668
-0.38543070178784544,-0.38543070178784544,1.000500453870402,0.0009367394347473019
-0.38506924026078193,-0.38506924026078193,0.9994506524162547,0.0009334572151862145
-0.3843932672185474,-0.3843932672185474,1.0000562434902414,0.000929200965322635
-0.3832728619345289,-0.3832728619345289,0.9988989576518055,0.000933243364086426
-0.3825515034746786,-0.3825515034746786,1.0006231164321113,0.0009286220529165964
-0.3812594583185273,-0.3812594583185273,0.9996688280141341,0.0009294189749800358
-0.38022905872639967,-0.38022905872639967,0.9998625004959468,0.0009431709923450911
-0.3796288013960293,-0.3796288013960293,1.0003446034919061,0.0009412534294349998
-0.37930666461470536,-0.37930666461470536,1.0008273361324236,0.0009960971921038936
-0.3787145847163629,-0.3787145847163629,0.9996032626976726,0.0010856938930901797
-0.37823156683152775,-0.37823156683152775,0.9987879701707767,0.0009347134452291026
-0.37781996849298594,-0.37781996849298594,1.0010696908095744,0.0009352408269796339
-0.3773176168913778,-0.3773176168913778,0.999093147733495,0.0009328101635361795
-0.37655329210319904,-0.37655329210319904,1.0007235486526915,0.001317482382767612
-0.37611441602493867,-0.37611441602493867,0.9990786342840291,0.0009350300152684933
-0.3750143124510942,-0.3750143124510942,0.9978948538405368,0.000951987659754407
-0.37351528739818607,-0.37351528739818607,1.0001358896586807,0.0009311653605486839
-0.37290067920039294,-0.37290067920039294,0.9984221270576636,0.0009138871359017494
-0.3721136069514614,-0.3721136069514614,1.001764746687843,0.0009339204248221185
-0.371329540755687,-0.371329540755687,1.0000746714430835,0.0009349900427436149
-0.37083799849569915,-0.37083799849569915,1.0022529002601879,0.0009299378946062743
-0.370434964785818,-0.370434964785818,1.0008702931281985,0.0009325435540320016
-0.3699081854283577,-0.3699081854283577,0.999926614550108,0.0009436787497032999
-0.36891820698874656,-0.36891820698874656,0.9994286308073507,0.0009278252678614644
-0.36844104191623045,-0.36844104191623045,0.9982920833769215,0.001043909046821916
-0.3678421293130668,-0.3678421293130668,0.9989816521393999,0.0009333078340250411
-0.3666734601305507,-0.3666734601305507,1.0013621825511174,0.000927146660958098
-0.36575691429243307,-0.36575691429243307,0.9997424403528772,0.0009297405839470942
-0.36508918242252547,-0.36508918242252547,1.0006703197734388,0.0009422187127453554
-0.36474730586924126,-0.36474730586924126,1.0000044358048346,0.0009335395833424681
-0.36412239453784423,-0.36412239453784423,1.0005537773355655,0.0009376654582184613
-0.3635283845898812,-0.3635283845898812,1.0003408975293617,0.000933536380942827
-0.36297329866720246,-0.36297329866720246,1.0005795273458955,0.0009302820005870618
-0.3623096719878959,-0.3623096719878959,1.000378466777402,0.0012508605889294383
-0.36165470631531205,-0.36165470631531205,1.0008615049424097,0.0009391566464896533
-0.3612097513389017,-0.3612097513389017,0.9977492924506848,0.0009282599353685209
-0.3602073148780619,-0.3602073148780619,1.00095290506323,0.0009431229164313691
-0.3590791100934439,-0.3590791100934439,1.0007669216475734,0.0009392888688226521
-0.35842852506757483,-0.35842852506757483,1.0008646335645424,0.000922880111958446
-0.3581819712475408,-0.3581819712475408,0.9997477852876612,0.0009286074473053394
-0.3574109730107011,-0.3574109730107011,0.9991701372837781,0.0009353176137322113
-0.35673265290024575,-0.35673265290024575,1.0011499042482073,0.0009384928256394529
-0.35609634241991445,-0.35609634241991445,1.0005873007871968,0.0009318136102999027
-0.35542794119246535,-0.35542794119246535,1.0000916011351597,0.0009376946067048744
-0.35424745920972783,-0.35424745920972783,0.9997778314947448,0.0009345314196086303
-0.35358911279399763,-0.35358911279399763,0.999298941411143,0.0009966272761880086
-0.35266340805828805,-0.35266340805828805,0.9987414586266994,0.0009337660514759363
-0.3517514212624519,-0.3517514212624519,0.9983529917080007,0.0009235690730470756
-0.3508646868613141,-0.3508646868613141,0.9996554756707388,0.0009357165513114548
-0.35017457498397564,-0.35017457498397564,0.9995322710760564,0.0009427627634134239
-0.3493610179371899,-0.3493610179371899,0.9993986866603366,0.0009402605473264235
-0.34884347386905573,-0.34884347386905573,1.0009398772547624,0.0009285163212463773
-0.34825885966929493,-0.34825885966929493,1.0006912861407322,0.0009339979398318224
-0.3474202016681375,-0.3474202016681375,1.0011819138655287,0.0009474651442693785
-0.3467757617472671,-0.3467757617472671,0.9985095888801669,0.0009370399330093963
-0.34596480801410506,-0.34596480801410506,0.9999666375577236,0.0009328239026377506
-0.34517444461380364,-0.34517444461380364,1.0007779155185794,0.0009371463543161734
-0.34380556862743106,-0.34380556862743106,1.0008800216093718,0.0009418748145044009
-0.3434370125636633,-0.3434370125636633,1.0000004582808932,0.0009172571886413763
-0.3430082440863771,-0.3430082440863771,0.9987710777542675,0.000934246594377021
-0.34224646842994844,-0.34224646842994844,1.0010960895719698,0.0009297035912175864
-0.3416267089276516,-0.3416267089276516,0.9999339624386092,0.0009341564697020971
-0.34080460328768825,-0.34080460328768825,0.999364723711518,0.0009295843274275099
-0.34022826186046584,-0.34022826186046584,1.0002806893767264,0.0009416461503815868
-0.33924951574299483,-0.33924951574299483,0.99995968761553,0.0009408881184850006
-0.3382037956995191,-0.3382037956995191,0.9999519841279891,0.0009664076447457572
-0.3372418383762124,-0.3372418383762124,1.0016795440276045,0.0009376723154220584
-0.33671269342376037,-0.33671269342376037,0.9997934034059275,0.0010473791925537986
-0.3358498266490642,-0.3358498266490642,1.0002943179358876,0.0009369707072557184
-0.33509527431888275,-0.33509527431888275,0.9998130999494919,0.0009366617549316257
-0.3342126557829033,-0.3342126557829033,1.0002500327463428,0.0009293208389385445
-0.33384267799483497,-0.33384267799483497,1.0003264283326747,0.0009340536321727556
-0.3329921423792257,-0.3329921423792257,1.0014026608585267,0.0009419126802137771
-0.3321580496733077,-0.3321580496733077,0.999208476463876,0.0009303846523141963
-0.3311156933821621,-0.3311156933821621,1.0004401511090397,0.000932684166611345
-0.3298443189109094,-0.3298443189109094,0.9987252061281111,0.0009342099564003418
-0.32888717408641244,-0.32888717408641244,1.0006459530410965,0.0009405863518445014
-0.32835623269420466,-0.32835623269420466,1.001872848662618,0.001018857491489903
-0.3278857807024906,-0.3278857807024906,1.00072524950537,0.0011214989252099287
-0.32730005155244724,-0.32730005155244724,1.0001371898898699,0.0009261666001285836
-0.3267462739859184,-0.3267462739859184,0.9998237940199093,0.0009317752410026487
-0.3262863462085079,-0.3262863462085079,1.0003630714153124,0.0009390849791589816
-0.32568922574137105,-0.32568922574137105,1.0015838425156758,0.0013530767959687086
-0.3250650131049042,-0.3250650131049042,0.9992710306005588,0.0009313505762590409
-0.3237316122984339,-0.3237316122984339,0.9997753562053993,0.000948881200283137
-0.3224893716178485,-0.3224893716178485,0.9997022893675069,0.0009315671559453739
-0.3218475833389675,-0.3218475833389675,0.9998618055281057,0.000916053570516402
-0.3207526758873428,-0.3207526758873428,1.0003145814592214,0.0009297314961718688
