time,time,flux,flux_err
-0.4992449014171143,-0.4992449014171143,1.0001467183330086,0.0007654413662106442
-0.4984296671937045,-0.4984296671937045,0.9998622448435937,0.0007944068739091014
-0.49745618742538983,-0.49745618742538983,0.9999335900371144,0.0007635147009569591
-0.49700124863156814,-0.49700124863156814,1.0000177776327002,0.0007201762826110603
-0.4963270756263228,-0.4963270756263228,1.0008646266981303,0.0006980305438217208
-0.4947733524502837,-0.4947733524502837,0.9996285083347493,0.00070164853978582
-0.49361875562026397,-0.49361875562026397,0.9992446085435377,0.000693627412549093
-0.4931158291263273,-0.4931158291263273,1.000088174117907,0.0006967584878406782
-0.49230650743993465,-0.49230650743993465,1.0004446503839963,0.0006935358507522639
-0.4918138452936546,-0.4918138452936546,0.9987228083030928,0.0006999246813944287
-0.49145716517305116,-0.49145716517305116,1.0003918166831696,0.0007092852490879651
-0.49075840388904907,-0.49075840388904907,1.000951514561905,0.000694701220058301
-0.4900799694507441,-0.4900799694507441,0.9996457526145786,0.000697200689562845
-0.4888825601643475,-0.4888825601643475,0.9999395420121671,0.0007112991830618871
-0.48821887006633913,-0.48821887006633913,1.0000332027390053,0.0006942687472232643
-0.487602150443854,-0.487602150443854,1.0004915462982096,0.0007136981034396789
-0.4868559418820951,-0.4868559418820951,0.9994950628043373,0.0006892155869092878
-0.48647363506024704,-0.48647363506024704,0.9996356677919028,0.0007104508986736961
-0.4855246457795147,-0.4855246457795147,0.9998664702866675,0.0006926721177108776
-0.48461229864697086,-0.48461229864697086,1.0006562753753807,0.0006962511961400732
-0.48410646004776936,-0.48410646004776936,0.9999295501689269,0.0007006252522073945
-0.4832737989934685,-0.4832737989934685,1.002676723072885,0.0006975552303907757
-0.4822119542041037,-0.4822119542041037,0.9998580704344067,0.000737381244907208
-0.481124486875342,-0.481124486875342,0.9995938516602427,0.0006995483366046909
-0.48034996192291146,-0.48034996192291146,1.0001554310625544,0.00069622411088099
-0.4792859253124334,-0.4792859253124334,1.0002073855645353,0.0007168741744728708
-0.4780648394378659,-0.4780648394378659,1.0000299989732364,0.0007294223236676091
-0.47755396692155044,-0.47755396692155044,1.000865913062682,0.0007006904685385079
-0.47684153599184353,-0.47684153599184353,0.9991607177629594,0.0006994085435379356
-0.4760888481956499,-0.4760888481956499,1.0002653803107338,0.0006949095313678226
-0.47571744147498973,-0.47571744147498973,0.9997469736921039,0.0006970366979460771
-0.47529055763588984,-0.47529055763588984,0.999287456523201,0.0007021027226029156
-0.4744304878287949,-0.4744304878287949,0.999971597602719,0.0007015758446689611
-0.4740338511597656,-0.4740338511597656,0.9999741304167289,0.0006956185480678774
-0.4731516660867783,-0.4731516660867783,0.998970660949767,0.0006965243772186142
-0.47232852211091086,-0.47232852211091086,0.9997386529693145,0.0006993405904769952
-0.47162624325501384,-0.47162624325501384,0.9991764530900715,0.0007350538269215581
-0.47048400229396065,-0.47048400229396065,1.0006935575195075,0.0006977221905256491
-0.4689663005912735,-0.4689663005912735,0.9988309580639905,0.0007002418127154038
-0.46839815200510204,-0.46839815200510204,0.9996548607550583,0.0006957885196569927
-0.4675982260996534,-0.4675982260996534,1.0001178960117456,0.0007276207792043957
-0.46704282999780844,-0.46704282999780844,0.9996434233042942,0.0006949697021333803
-0.4664987100630242,-0.4664987100630242,0.9997673794535509,0.0007088230623141084
-0.4651220993466268,-0.4651220993466268,1.0019146463510844,0.0007003600215296387
-0.4639093663587118,-0.4639093663587118,1.0008841097401189,0.0007131120688823277
-0.46305480071969213,-0.46305480071969213,0.9980366247870119,0.0007058699357265132
-0.461990189300559,-0.461990189300559,0.9990405022960877,0.0006920001316896263
-0.4614789140621724,-0.4614789140621724,1.0004892230154219,0.0006930457936803881
-0.4604728837279254,-0.4604728837279254,0.9989015816218115,0.0007234921025767437
-0.4598881032827194,-0.4598881032827194,0.9997986892874844,0.0006965547770942549
-0.45950924251956166,-0.45950924251956166,1.0000688046248247,0.0007079985386893988
-0.4587426708552812,-0.4587426708552812,0.9998500403903863,0.0006951333925689138
-0.45804494887561303,-0.45804494887561303,0.9997722205740919,0.0006960121149085033
-0.4568485270334349,-0.4568485270334349,0.9991796905603584,0.0006961980121952899
-0.4562254088821646,-0.4562254088821646,1.0004506930394446,0.0007081684052324113
-0.45567873652180424,-0.45567873652180424,1.0001948754752554,0.000703018544930884
-0.4542375132230518,-0.4542375132230518,1.0007568099082396,0.0007380927758636138
-0.45284689585751037,-0.45284689585751037,0.9994138056135666,0.0006983683759474758
-0.45233698931333494,-0.45233698931333494,1.000352713945198,0.0006911364367892518
-0.45153189224001833,-0.45153189224001833,0.9998091870461568,0.0006938898076633259
-0.4509768696851097,-0.4509768696851097,0.9989879671663981,0.0006988241595321853
-0.45060832654999106,-0.45060832654999106,0.9995097543985011,0.0007083561583315281
-0.44979862699328804,-0.44979862699328804,0.9994249234472802,0.0007317227173878356
-0.44916560078781914,-0.44916560078781914,0.9997929590012328,0.0006935597950842684
-0.44823404437629505,-0.44823404437629505,0.9996146663780905,0.0007176945255446169
-0.4474085250934877,-0.4474085250934877,0.9997338700809216,0.0006931524126874444
-0.44706260266393655,-0.44706260266393655,1.0010763380966972,0.0007160686639481866
-0.4462167428340763,-0.4462167428340763,0.9999368567019757,0.0006926836109438019
-0.4456369456187531,-0.4456369456187531,1.0050034672164514,0.0006964520102868734
-0.4447858455037931,-0.4447858455037931,0.9990613150874676,0.0006940010650393856
-0.4437624157690152,-0.4437624157690152,1.000385118194266,0.0006963875482812312
-0.44305801138470996,-0.44305801138470996,1.000062783261346,0.0007327748630911852
-0.44218557312342455,-0.44218557312342455,0.999857823642221,0.0006973419308963405
-0.44157702918673747,-0.44157702918673747,0.9996497856114044,0.0006960666479944505
-0.44053026237597803,-0.44053026237597803,0.9994272813399168,0.0006982382666945374
-0.43981878591512213,-0.43981878591512213,0.9996898268668699,0.0007011700957844397
-0.43840664505332827,-0.43840664505332827,1.0007984107509331,0.0007179889846953218
-0.4369387130573159,-0.4369387130573159,1.00004824586195,0.0006934382200813253
-0.4364028497991967,-0.4364028497991967,0.9994295136169633,0.0007015923097536542
-0.4356107393206912,-0.4356107393206912,0.9995948535366065,0.0006975308011200294
-0.43509944254910804,-0.43509944254910804,1.000122897998209,0.0006951839581825668
-0.4346813798212679,-0.4346813798212679,0.9996606512621999,0.0006960063015966513
-0.43409833433688616,-0.43409833433688616,0.9999325128159468,0.0007070080569422028
-0.4331743187511165,-0.4331743187511165,1.000960002196891,0.0006940603684763729
-0.4324937907367712,-0.4324937907367712,1.0009001342812485,0.0007256200930183729
-0.43174817825347417,-0.43174817825347417,0.9994825541359976,0.0007287932929704334
-0.4312461027118843,-0.4312461027118843,0.9997190783460889,0.0007128873428913546
-0.4299819201711216,-0.4299819201711216,1.00007032346203,0.0007269486980206899
-0.42849627241230337,-0.42849627241230337,0.9995358952025253,0.0007086187943378493
-0.42770477739104534,-0.42770477739104534,1.0006899086314711,0.0006968868828502049
-0.42709585427801355,-0.42709585427801355,0.9987637788816146,0.0006980943483398319
-0.4264825307160208,-0.4264825307160208,1.000679806441766,0.00069432647095661
-0.4259945182209776,-0.4259945182209776,1.0011423321421096,0.0007094751685958313
-0.4252926866785856,-0.4252926866785856,1.000099847064605,0.0006991155598055123
-0.42439261301842635,-0.42439261301842635,0.9987605192599682,0.0006984594069676224
-0.4231536145089194,-0.4231536145089194,1.0002995081024664,0.0007127604893418351
-0.4225398564187344,-0.4225398564187344,0.9997592851980366,0.0006958093112411392
-0.42168387569181504,-0.42168387569181504,1.0000054811698782,0.0007050411882079578
-0.42085124779841865,-0.42085124779841865,1.0006312603706775,0.0006925182288398411
-0.42047443934061446,-0.42047443934061446,0.9994582946777589,0.0007130079506667632
-0.41942839710827684,-0.41942839710827684,1.000283622597301,0.0006948017555890699
-0.4189533577322436,-0.4189533577322436,0.999329962265685,0.0007052521292019657
-0.4186716257725493,-0.4186716257725493,1.000398179830343,0.0007102033773952632
-0.4181462323074811,-0.4181462323074811,0.9985585225793716,0.0007010668599950263
-0.41773196576687044,-0.41773196576687044,1.0001061644819322,0.0006953986017914335
-0.41713804347164113,-0.41713804347164113,1.000352952241125,0.0007011753368956698
-0.41557516141110684,-0.41557516141110684,1.0009267470823329,0.0006966839421817577
-0.4152390348208428,-0.4152390348208428,1.0008727003959508,0.0007160700126785172
-0.41458333431728533,-0.41458333431728533,0.9998295016841252,0.0007155795014411784
-0.41315331983205394,-0.41315331983205394,0.9991599226998009,0.0006955490164947193
-0.4118978233753296,-0.4118978233753296,1.0002495649440348,0.000692638298765723
-0.41099956038960955,-0.41099956038960955,1.0007513217492536,0.0006956336986717606
-0.4101857129156997,-0.4101857129156997,0.9997667306474703,0.0006950651134211368
-0.40975966423138743,-0.40975966423138743,0.9996207845835524,0.0007102087034109274
-0.40891624815776595,-0.40891624815776595,0.999383787635461,0.0007014057244199495
-0.40838676993371337,-0.40838676993371337,1.0007799915556874,0.0006950137267414932
-0.4073915648645198,-0.4073915648645198,1.0013316585864316,0.0006950849980956891
-0.4067154905635107,-0.4067154905635107,0.999098799661771,0.0006952794871313477
-0.40626520488003737,-0.40626520488003737,0.999242213820936,0.000711879056060599
-0.4054114654994919,-0.4054114654994919,0.9990184028602112,0.0007014995993167158
-0.40429413196616226,-0.40429413196616226,0.9999741435089472,0.0006990497289330685
-0.40321402874105844,-0.40321402874105844,0.9995912008575797,0.0006968429858571069
-0.40257086104975315,-0.40257086104975315,0.9996103483993448,0.000702038359973519
-0.4016916041553486,-0.4016916041553486,0.9988799636780021,0.0006984342939132299
-0.4008289605473692,-0.4008289605473692,0.9996763498403418,0.0007013260866666057
-0.3997789504675893,-0.3997789504675893,1.0001260356895716,0.0006925731665448204
-0.3991077991304337,-0.3991077991304337,1.0006286919956073,0.0007025794403580168
-0.39793408143304987,-0.39793408143304987,0.9996318100600352,0.0007114147697387903
-0.3972683087253245,-0.3972683087253245,0.9992910581353243,0.0007014307490264997
-0.3962639601122646,-0.3962639601122646,0.9997317367399111,0.0006929415271377703
-0.39568571092313504,-0.39568571092313504,0.9994036436831173,0.0006934420087382337
-0.3949609019131458,-0.3949609019131458,0.9992471302037202,0.0007405618710785304
-0.39434924979141217,-0.39434924979141217,0.9990006522152978,0.00069569123734146
-0.3938670080686279,-0.3938670080686279,1.000410364688561,0.0006999055621182296
-0.3933462417800911,-0.3933462417800911,0.9984226452239815,0.0007020761811047691
-0.3923235365364235,-0.3923235365364235,0.9985732746069654,0.0006945939444098388
-0.3914911015614052,-0.3914911015614052,1.0012981562401666,0.000732927867765284
-0.39063265819422666,-0.39063265819422666,0.9999502967454312,0.000698474308906779
-0.3900651448479039,-0.3900651448479039,0.9997701885643929,0.0007150913340426494
-0.38860196350797194,-0.38860196350797194,0.9998816652550018,0.0007036041335910036
-0.3875190988735994,-0.3875190988735994,1.000165853193119,0.000698053309777412
-0.3869747634678788,-0.3869747634678788,1.0008237222566596,0.0006964553301550779
-0.3862849926081253,-0.3862849926081253,0.9976784397710224,0.0006933591890256795
-0.3854895244410727,-0.3854895244410727,0.9993852681561382,0.0006954637615424939
-0.3851190482288075,-0.3851190482288075,0.998983028648567,0.0007062963114321771
-0.3844318826952076,-0.3844318826952076,0.999507690636368,0.0007026852502646501
-0.38355095789811455,-0.38355095789811455,1.0002931845031475,0.000693877457437891
-0.3827155435428722,-0.3827155435428722,1.0000911061889248,0.0007095870097829112
-0.38187930810236137,-0.38187930810236137,0.9999740528152294,0.0006968512275657383
-0.381498152090353,-0.381498152090353,1.0001926023980743,0.0007075292150517309
-0.38072752393272824,-0.38072752393272824,0.9999856116169739,0.0006991359978079808
-0.3801978163595777,-0.3801978163595777,1.0000479876326658,0.0006911927853213842
-0.3798656347862561,-0.3798656347862561,1.0004646939343305,0.0007088328470279141
-0.3791544731677277,-0.3791544731677277,0.9992159992226322,0.0006943439879786504
-0.37813566233453455,-0.37813566233453455,1.0004045277592604,0.000696258692495443
-0.37774194995727156,-0.37774194995727156,0.9996754038074684,0.0007018720389980743
-0.37718590545337066,-0.37718590545337066,0.999108440022128,0.000695773081552165
-0.3763623707185616,-0.3763623707185616,1.0001539934803616,0.0006993100368496558
-0.3751004484314763,-0.3751004484314763,0.9993551912997332,0.0007338014161706682
-0.3743156947733951,-0.3743156947733951,1.00001752492749,0.000703060732353675
-0.37350466812349625,-0.37350466812349625,0.9989184538866643,0.000711522248302024
-0.37230946101772133,-0.37230946101772133,1.0001589410238982,0.0007398994733311087
-0.3713485066822614,-0.3713485066822614,1.0001615558250052,0.0006915951417745387
-0.370708799023123,-0.370708799023123,1.0002229718803988,0.0006950234373272385
-0.3698027520113101,-0.3698027520113101,1.0004149279252672,0.0006922741716361147
-0.3692097048311552,-0.3692097048311552,1.000005033185556,0.0006968737019998637
-0.36884664637036624,-0.36884664637036624,0.9995847821186036,0.0007060854153072854
-0.36803928608278513,-0.36803928608278513,1.000351052982146,0.0007067181743154512
-0.3675263613666175,-0.3675263613666175,0.9999599840812259,0.0006972079383281737
-0.3670772883000609,-0.3670772883000609,1.0003999167152702,0.0006975507861751429
-0.36596793885692025,-0.36596793885692025,0.9993818473385936,0.0006952586862929663
-0.3655107101520116,-0.3655107101520116,0.999721552206165,0.0007120523181245133
-0.36431557379328294,-0.36431557379328294,1.000007132365964,0.0007128879534004794
-0.3626818922872189,-0.3626818922872189,0.9994044284439447,0.0007005481151940758
-0.3620026593962393,-0.3620026593962393,0.9989534572072516,0.0006965536817186032
-0.36133819171300274,-0.36133819171300274,0.999011705665966,0.0006943127784769162
-0.3606830322627502,-0.3606830322627502,0.9998422772470658,0.0007262386104601716
-0.36031036462736665,-0.36031036462736665,1.0003486535301782,0.0007044025893865061
-0.35905893942690453,-0.35905893942690453,1.0004063372531953,0.0006987642023379619
-0.3579687231729622,-0.3579687231729622,0.9992880705444751,0.0007156219960084692
-0.35697245413248313,-0.35697245413248313,0.9985578314053271,0.0006977667615966539
-0.35604482466223997,-0.35604482466223997,0.9997172286023245,0.0007047455631772257
-0.35509419337686265,-0.35509419337686265,0.999555903992192,0.000691715033002687
-0.35411286581438617,-0.35411286581438617,0.9987626573936508,0.0006991506916486803
-0.35340428208655794,-0.35340428208655794,0.999887253301539,0.0006929471995692833
-0.3530235101985454,-0.3530235101985454,1.0000903065090685,0.0007059581568652481
-0.35241972182047904,-0.35241972182047904,0.9999740860930189,0.000701666209961211
-0.35170927382205264,-0.35170927382205264,0.9995973497985997,0.0006960573402719588
-0.3508532939929864,-0.3508532939929864,1.0008033042450593,0.0006953179658777814
-0.3497746247099712,-0.3497746247099712,1.0010852242379829,0.000696506305670069
-0.34939201222368865,-0.34939201222368865,0.9990455963798569,0.0007152603565567798
-0.3485165758189396,-0.3485165758189396,1.0000331909774849,0.0006986417506114537
-0.34698361942573686,-0.34698361942573686,0.9977759267066506,0.0007224729870095628
-0.34608376232135923,-0.34608376232135923,1.0005094505298637,0.0006930342838788442
-0.345383858558489,-0.345383858558489,1.0007170937758325,0.0006931263652667902
-0.344658426244132,-0.344658426244132,1.0003631794081174,0.0007060369409369342
-0.3442691711366933,-0.3442691711366933,1.000076067371709,0.000704840064009849
-0.34376394274659106,-0.34376394274659106,1.0002350504685933,0.0007016691842627823
-0.3429740815859986,-0.3429740815859986,1.000052862496077,0.0007212973415041948
-0.34254215328255666,-0.34254215328255666,0.9999049801591882,0.0006971294372871544
-0.3417391397553729,-0.3417391397553729,0.9996111459296065,0.0007457443471411993
-0.3409131074913603,-0.3409131074913603,0.9999297492076874,0.0006955674037791666
-0.34062021336430914,-0.34062021336430914,1.0007734464005993,0.0007093497990744985
-0.3397012525361788,-0.3397012525361788,1.000581886075992,0.0006991566055352539
-0.33873787702250413,-0.33873787702250413,1.0013441490540893,0.000692907976498341
-0.33728493142916705,-0.33728493142916705,0.9998513604728577,0.0006966197369104887
-0.336669598743174,-0.336669598743174,0.9996381968076801,0.0007330403438936259
-0.33580076339640075,-0.33580076339640075,1.0003913102176463,0.0007157315002468229
-0.3353638725850033,-0.3353638725850033,0.9987241976416275,0.0006991126115332203
-0.33417498099879595,-0.33417498099879595,1.0002704794955537,0.0007313631371716242
-0.3334682307824551,-0.3334682307824551,1.0004181247260957,0.0007027553908742793
-0.3322232520360558,-0.3322232520360558,0.9992357437966268,0.0007193510518476381
-0.33054225489322564,-0.33054225489322564,1.0000736176851854,0.0006944055765013733
-0.3300171914546809,-0.3300171914546809,1.0010262196914086,0.0006915539332664647
-0.3292326987742854,-0.3292326987742854,0.9994944374753507,0.0007008462565861577
-0.3285620110749733,-0.3285620110749733,0.9997025714984483,0.0006953345484600703
-0.3280693443695782,-0.3280693443695782,1.0005219767748526,0.0007009987493924349
-0.3271766692691017,-0.3271766692691017,1.0002300583271384,0.0007010537550252816
-0.32663860797474625,-0.32663860797474625,1.0002155072642176,0.0006958245176218933
-0.3262104412824556,-0.3262104412824556,1.0000497049388992,0.0006962780417616441
-0.32535615339220386,-0.32535615339220386,1.000129151154417,0.0007208963206991425
-0.32497780673074883,-0.32497780673074883,0.9998623121665748,0.0006988175321667432
-0.3241857728629839,-0.3241857728629839,0.9997635406170376,0.000710099143474338
-0.3220705037434527,-0.3220705037434527,0.9998485824441012,0.0007022605635494761
-0.32124118860301676,-0.32124118860301676,0.9993800268731781,0.0007021955236826405
-0.3207244673249079,-0.3207244673249079,1.0000543664591874,0.0006947579008851726
-0.31996039926452796,-0.31996039926452796,0.9997282164203704,0.0006917544486377251
-0.31936402949868353,-0.31936402949868353,1.0016183375431547,0.0007088930131191608
-0.3180881879554363,-0.3180881879554363,1.000590332813274,0.0006978139981506828
-0.3172463554845308,-0.3172463554845308,1.0009832852803733,0.0007320761893423349
-0.3162697117069911,-0.3162697117069911,0.9996019543950071,0.0007115087246670673
-0.3157922745762335,-0.3157922745762335,0.999025655959867,0.0006930465484646165
-0.315097933846846,-0.315097933846846,1.0000534582212102,0.0007099742117028155
-0.3145102848284296,-0.3145102848284296,1.0001039001237035,0.0006949485274335035
-0.3141158086276846,-0.3141158086276846,0.9990288346534613,0.0007098190464852664
-0.3134612097055651,-0.3134612097055651,1.001602297091378,0.0006950599237911081
-0.31260679194965635,-0.31260679194965635,0.9997584912874267,0.0006938913857770558
-0.3122646773728775,-0.3122646773728775,0.9993403910046641,0.0007144850462971604
-0.31183212025644025,-0.31183212025644025,1.000627929720722,0.000700197559126916
-0.3111137444626365,-0.3111137444626365,1.0012024167420432,0.0006970353403310937
-0.310544835307519,-0.310544835307519,0.9997191894312284,0.0006990605180213821
-0.3090032327614608,-0.3090032327614608,1.0008914205602433,0.0006966008706503315
-0.3087354010727722,-0.3087354010727722,0.9999747746742333,0.0007138035495881706
-0.308147614660993,-0.308147614660993,1.0000237430922603,0.0007019332433229456
-0.3073090880752716,-0.3073090880752716,0.999113072481385,0.0007150904277729448
