time,time,flux,flux_err
-0.49992254898825195,-0.49992254898825195,1.0001111338627975,6.068006553912375e-05
-0.4996533362500486,-0.4996533362500486,1.0000262852062252,5.992477184838292e-05
-0.49937480387598043,-0.49937480387598043,0.9999579270521449,5.99203650846419e-05
-0.499165250279475,-0.499165250279475,0.9999816374363095,6.03986095547672e-05
-0.4990418358444003,-0.4990418358444003,1.0000280151983272,5.524275842431948e-05
-0.49880408935714515,-0.49880408935714515,1.000041079271113,5.483389591967568e-05
-0.4985090785048669,-0.4985090785048669,1.0000490535651274,5.5138833260772827e-05
-0.4981213502556784,-0.4981213502556784,1.0000410978893224,5.464367436531137e-05
-0.4978721335326554,-0.4978721335326554,0.9999964372877267,5.513882360998971e-05
-0.49758656408812385,-0.49758656408812385,1.0000190232985946,5.50326343055685e-05
-0.49702483929286245,-0.49702483929286245,0.9999995407656265,5.5108594046062105e-05
-0.4967666595330229,-0.4967666595330229,1.000014054318236,5.507767106309854e-05
-0.49650104869215284,-0.49650104869215284,1.0000492914917558,5.614170929240315e-05
-0.4960771469195606,-0.4960771469195606,1.0000307661289694,5.6116948958645614e-05
-0.49587052238930485,-0.49587052238930485,1.0000433643258455,5.550261959420489e-05
-0.49567697570309976,-0.49567697570309976,0.9998512239985493,5.5945186478067655e-05
-0.49542780399206093,-0.49542780399206093,1.0000575830164187,5.6257676184257716e-05
-0.49522978691384195,-0.49522978691384195,0.9999750264766083,5.690604123949251e-05
-0.4948557625320973,-0.4948557625320973,1.0000619361375773,5.580169223709747e-05
-0.4946623200899921,-0.4946623200899921,1.0000032234842495,5.534464236970904e-05
-0.4943929887318518,-0.4943929887318518,1.000075523848269,5.515949362657084e-05
-0.4940851042105351,-0.4940851042105351,1.0000509184474393,5.566519530083165e-05
-0.49384547777590343,-0.49384547777590343,1.0000074622672703,5.52042186534606e-05
-0.49355080038658344,-0.49355080038658344,1.0000599930506078,5.731127241505699e-05
-0.4931376720633125,-0.4931376720633125,1.0000209176788706,5.697554382814964e-05
-0.4928945778752677,-0.4928945778752677,0.9999487115683348,5.509444215359459e-05
-0.49257446387491655,-0.49257446387491655,0.9999114198596104,5.5728117598125234e-05
-0.4923669948126189,-0.4923669948126189,1.0000716717786777,5.5412543946936597e-05
-0.49208916522038637,-0.49208916522038637,0.999908492190033,5.5696264786444835e-05
-0.4919690086593619,-0.4919690086593619,1.0000110560635234,5.5497922581504615e-05
-0.4918141477042809,-0.4918141477042809,1.0000048268853967,5.5467474230636344e-05
-0.4915235231310362,-0.4915235231310362,0.9999380088605676,5.590992724048464e-05
-0.4911668491666205,-0.4911668491666205,1.000099575836175,5.525319184470312e-05
-0.49095319529587866,-0.49095319529587866,1.0001263558240048,5.513733613365468e-05
-0.49074278032639995,-0.49074278032639995,0.9999245895736688,5.456960079500508e-05
-0.49056535722629635,-0.49056535722629635,1.0000377573354693,5.9813615740291055e-05
-0.49036897576006594,-0.49036897576006594,0.9999521473784141,5.5371286782106115e-05
-0.4901201531291008,-0.4901201531291008,1.00000602161253,5.515103660923217e-05
-0.4898946598084876,-0.4898946598084876,1.000044237303208,5.589222142463302e-05
-0.4897564843093278,-0.4897564843093278,0.9999593697536346,5.487173606363462e-05
-0.48961733831092713,-0.48961733831092713,1.000098258839383,5.432061831484665e-05
-0.489279984717723,-0.489279984717723,1.0001139353424682,5.4598074732842197e-05
-0.48901986398850567,-0.48901986398850567,0.9999560067608255,5.481309233902472e-05
-0.4887836635112762,-0.4887836635112762,0.9998988745305255,5.484155456400598e-05
-0.4886566254193895,-0.4886566254193895,1.000027629128348,5.5187910871387504e-05
-0.48839453304244673,-0.48839453304244673,1.0001620195535492,5.441670655086014e-05
-0.4881708786531817,-0.4881708786531817,0.9999781481054744,5.525389841771302e-05
-0.48793052379915025,-0.48793052379915025,0.9999626177864902,5.471816860735367e-05
-0.487745542396442,-0.487745542396442,0.9998957808427555,5.541906365344694e-05
-0.4875195422908291,-0.4875195422908291,0.9998870895817851,5.516038124887345e-05
-0.48718489859602415,-0.48718489859602415,1.000020304955048,5.4463946473843815e-05
-0.4868942862987751,-0.4868942862987751,0.9998871619873515,5.527057320878804e-05
-0.4865870333975181,-0.4865870333975181,0.9999923751004358,5.56041261014331e-05
-0.48595886799157595,-0.48595886799157595,0.999956541539413,5.425160947294396e-05
-0.48576488517574035,-0.48576488517574035,0.9999514089937938,5.5455033555840456e-05
-0.4853332587634213,-0.4853332587634213,1.0000207666798133,5.634931821397325e-05
-0.48507528216869106,-0.48507528216869106,1.0000507727047379,5.614877301428804e-05
-0.4848355527879903,-0.4848355527879903,1.0000006188794672,5.5536806621341984e-05
-0.4846145707881078,-0.4846145707881078,1.0000246492744276,5.6630848149320746e-05
-0.48433287360530813,-0.48433287360530813,1.0000326908039692,5.5992911274277956e-05
-0.48403849806345534,-0.48403849806345534,1.0001657611566581,5.6391905459830977e-05
-0.4837357229698682,-0.4837357229698682,1.0000026105213862,5.600571393290241e-05
-0.4834957363374997,-0.4834957363374997,0.9999625906361846,5.5374292270213506e-05
-0.4833235622179927,-0.4833235622179927,1.0000179147782227,5.529326101566392e-05
-0.4830877551663434,-0.4830877551663434,0.9999812876909993,5.5542452011742636e-05
-0.48287867026228926,-0.48287867026228926,0.9999727040632527,5.54489909817035e-05
-0.48251840865705165,-0.48251840865705165,1.0000115555432845,5.6735153715412914e-05
-0.48197817749460226,-0.48197817749460226,1.0000190393510506,5.529268573746181e-05
-0.48165993263828566,-0.48165993263828566,1.0000292526759935,5.577744142999506e-05
-0.4814219007006614,-0.4814219007006614,0.9999286034970225,5.5573186929855314e-05
-0.4812090823194012,-0.4812090823194012,0.9999917646783315,5.556713370043807e-05
-0.4809855818952201,-0.4809855818952201,1.0000344645305077,5.5289346234235034e-05
-0.4809107150591444,-0.4809107150591444,0.9998727775142928,5.5778754493401614e-05
-0.48062105384597087,-0.48062105384597087,1.0000138278576967,5.554802405420251e-05
-0.4804448400594993,-0.4804448400594993,1.0000488778976049,5.558381240037802e-05
-0.4802250460896175,-0.4802250460896175,0.9999053955082232,5.587988319223213e-05
-0.4800285110919503,-0.4800285110919503,0.9999638822210184,5.5695702899313855e-05
-0.4798751698137494,-0.4798751698137494,0.9999774575767585,5.4005643364453016e-05
-0.47968363348336424,-0.47968363348336424,0.9999017508401593,5.53527668378917e-05
-0.4795281382306712,-0.4795281382306712,0.9999994326695951,5.748027295150542e-05
-0.4792401576181874,-0.4792401576181874,1.0000340570781077,5.559429467800226e-05
-0.4789968967001187,-0.4789968967001187,0.999994948488349,5.515770205353271e-05
-0.47884639151161534,-0.47884639151161534,0.9999198999099874,5.5748440671047804e-05
-0.4786778413254069,-0.4786778413254069,0.999971753530269,5.4679275228855016e-05
-0.4783252156339586,-0.4783252156339586,0.9999648200468604,5.459430080133633e-05
-0.478125001891749,-0.478125001891749,1.0000030560096635,5.4464222807165186e-05
-0.4778185547183966,-0.4778185547183966,1.000084844646251,5.47097065771272e-05
-0.47767578388447873,-0.47767578388447873,1.0000273065449141,5.5763492963961896e-05
-0.47743454145966097,-0.47743454145966097,0.9999945644375601,5.477403914877942e-05
-0.47726264887314757,-0.47726264887314757,0.9999598400728088,5.478177128615502e-05
-0.47702084540505896,-0.47702084540505896,0.9999424864693729,5.540446287276435e-05
-0.4767417511175154,-0.4767417511175154,0.9999716661019535,5.482905752396168e-05
-0.4763615952717373,-0.4763615952717373,0.999954207258671,5.516927674380285e-05
-0.4760216768743703,-0.4760216768743703,1.0000259073815319,5.4974288514049503e-05
-0.4758042417524848,-0.4758042417524848,1.0000567929159512,5.4801059684737796e-05
-0.4752625212597195,-0.4752625212597195,0.999982789292931,5.544310554146543e-05
-0.4746658123243833,-0.4746658123243833,0.999917383898622,5.639396597867815e-05
-0.4743324881710578,-0.4743324881710578,1.0000953332888352,5.519123937501766e-05
-0.47410595808178185,-0.47410595808178185,1.0000345851855619,5.610475182114771e-05
-0.4738996313215466,-0.4738996313215466,1.000046186896284,5.590873358385483e-05
-0.4736887949082302,-0.4736887949082302,1.0000190447657826,5.594618249811242e-05
-0.4734142647124827,-0.4734142647124827,0.9999896078482315,5.565242900315404e-05
-0.473090331061394,-0.473090331061394,0.9999161040566638,5.714441033325389e-05
-0.47284061026293783,-0.47284061026293783,1.0000533215865395,5.5265288498894384e-05
-0.4726056248357054,-0.4726056248357054,1.0001166667115455,5.591533343807857e-05
-0.47238140939734874,-0.47238140939734874,0.9999452019730397,5.521937495047856e-05
-0.4721600518329069,-0.4721600518329069,0.9999856397195298,5.518398734642524e-05
-0.47192924716800916,-0.47192924716800916,0.9999935942852491,5.5693267480411284e-05
-0.4717225305095781,-0.4717225305095781,1.0000005089999056,5.636941036197427e-05
-0.47151226468849927,-0.47151226468849927,0.9999782962576631,5.649249473070122e-05
-0.47112245551252274,-0.47112245551252274,0.9999427184549518,5.504093379906068e-05
-0.47076614005782175,-0.47076614005782175,1.0000124952877858,5.588747251722225e-05
-0.470455047863652,-0.470455047863652,0.9999070089773088,5.521837839703213e-05
-0.47021265420189595,-0.47021265420189595,0.9999173753199436,5.590074022273317e-05
-0.4699994710535975,-0.4699994710535975,1.0000343349372933,5.5288176829033075e-05
-0.4699206679710187,-0.4699206679710187,1.0000004895751036,5.617050883273888e-05
-0.4697480981092667,-0.4697480981092667,1.000007245482412,5.576196541397739e-05
-0.469545193578233,-0.469545193578233,1.0000960418806235,5.555022503042807e-05
-0.46929184095060916,-0.46929184095060916,1.0000415670583969,5.5524279380542707e-05
-0.4690673934557708,-0.4690673934557708,0.9998689367972498,5.560857412538579e-05
-0.4688967230002163,-0.4688967230002163,1.0000398747873773,5.535046800264721e-05
-0.46873012828582433,-0.46873012828582433,0.9999647290101908,5.463934228977267e-05
-0.46853243827063124,-0.46853243827063124,1.000094796658344,5.511741868546898e-05
-0.468131298510707,-0.468131298510707,0.9999577596482719,5.5604699069573596e-05
-0.4679249716544291,-0.4679249716544291,1.0000713504736445,5.5675315232421734e-05
-0.46775954369222744,-0.46775954369222744,1.0000148868451093,5.5261651813922184e-05
-0.46748005207336973,-0.46748005207336973,1.0000441189762221,5.4012208559788746e-05
-0.46725566206441727,-0.46725566206441727,0.9999640040245652,5.5044545478855326e-05
-0.4670423851814121,-0.4670423851814121,1.0000205615192999,5.371515624261616e-05
-0.46682320163527036,-0.46682320163527036,0.9999013741748382,5.5071548241096396e-05
-0.4665991766873049,-0.4665991766873049,1.0000427540909036,5.5319397305266543e-05
-0.46643150510208214,-0.46643150510208214,1.0000716359474495,5.5393252828025635e-05
-0.4662014181376435,-0.4662014181376435,0.9999458779659239,5.52621593091982e-05
-0.4659177495719632,-0.4659177495719632,1.0000260435617576,5.4684006227044014e-05
-0.46565749776782467,-0.46565749776782467,1.0001015010770105,5.504985671720481e-05
-0.4653808577626478,-0.4653808577626478,1.0000047111843096,5.5172429007891386e-05
-0.46492308480956124,-0.46492308480956124,1.0000090813204856,5.492018405282447e-05
-0.46456936034664975,-0.46456936034664975,1.0000011863990488,5.540635477506235e-05
-0.4639051115082111,-0.4639051115082111,1.000012845170867,5.503598766947349e-05
-0.46345224477991,-0.46345224477991,0.9999945509005853,5.5462801548750745e-05
-0.4631861173314974,-0.4631861173314974,0.9999763193137298,5.581753055222036e-05
-0.4629633860400645,-0.4629633860400645,1.0000753736500432,5.646774311289483e-05
-0.4627431244472973,-0.4627431244472973,1.0000271803301488,5.5538963176375634e-05
-0.4624549494503299,-0.4624549494503299,1.0000039010339703,5.558943983714926e-05
-0.4621120900439564,-0.4621120900439564,1.0000786957080663,5.6215761602446266e-05
-0.4618930145370541,-0.4618930145370541,1.0000271703040036,5.512269204644686e-05
-0.4616465020517353,-0.4616465020517353,1.0000241593973889,5.623548790819782e-05
-0.4613263528037351,-0.4613263528037351,0.9999773431646147,5.5230324388516575e-05
-0.46106041190214453,-0.46106041190214453,0.9999864288475824,5.4837179715948615e-05
-0.4608901170198806,-0.4608901170198806,0.9999346918070182,5.687405047096262e-05
-0.46064685325836763,-0.46064685325836763,0.9999176950931282,5.515053334886064e-05
-0.46004584156326017,-0.46004584156326017,0.9999686741533388,5.641214057648435e-05
-0.45973657022987025,-0.45973657022987025,1.0000229920970378,5.510606111453689e-05
-0.4594724903756287,-0.4594724903756287,0.9999708326890249,5.5361689294815115e-05
-0.4591970134119038,-0.4591970134119038,0.9999704285085697,5.581868884081112e-05
-0.4590346107550431,-0.4590346107550431,0.9999674062464955,5.524565125057646e-05
-0.45891869492188564,-0.45891869492188564,0.9999048798002995,5.570440130150363e-05
-0.4588051845697919,-0.4588051845697919,0.9999729386631128,5.588154694801472e-05
-0.45861528507084587,-0.45861528507084587,0.9999450677500287,5.570678485330252e-05
-0.4584114878874971,-0.4584114878874971,0.9999381827912212,5.581859075375617e-05
-0.458226667236886,-0.458226667236886,0.9999688238173601,5.549933900848462e-05
-0.45805390912864824,-0.45805390912864824,0.9999453114491959,5.510974679133228e-05
-0.45786308651731816,-0.45786308651731816,1.0000312762124932,5.534060048651973e-05
-0.4577024928148603,-0.4577024928148603,1.0000343583769506,5.4829689802275616e-05
-0.4573354777530767,-0.4573354777530767,1.0000176611562526,5.5748699969121086e-05
-0.4571167642367072,-0.4571167642367072,0.9999623826696251,5.562450891700674e-05
-0.45693367458006834,-0.45693367458006834,1.0000369707297354,5.487475695592821e-05
-0.4567653086094651,-0.4567653086094651,1.0000411874020696,5.592480184993801e-05
-0.45649890780623537,-0.45649890780623537,0.9998990544373519,5.4380758376409974e-05
-0.45626433588331566,-0.45626433588331566,1.0000215554487357,5.542756533909993e-05
-0.45603393617784604,-0.45603393617784604,0.9999672036456724,5.408525423750048e-05
-0.45584386221307793,-0.45584386221307793,1.000034096901428,5.4665070185259716e-05
-0.45561161522055044,-0.45561161522055044,0.9999328229743316,5.4753329356870474e-05
-0.45547619040007703,-0.45547619040007703,1.0001065220113685,5.4781395310756375e-05
-0.4552709966141265,-0.4552709966141265,0.9999738167256729,5.5121040967754115e-05
-0.4549128117301734,-0.4549128117301734,1.000115371373446,5.547039836955384e-05
-0.45462691817956513,-0.45462691817956513,1.0000175838910956,5.469001199661965e-05
-0.45419911291101017,-0.45419911291101017,1.0001126405315697,5.533159261681193e-05
-0.453934891501558,-0.453934891501558,0.9999417460511371,5.492002535345562e-05
-0.453769641611143,-0.453769641611143,1.0000382892984019,5.487279697225857e-05
-0.4531946912873536,-0.4531946912873536,0.9999671226997103,5.487314414516274e-05
-0.4528577407327248,-0.4528577407327248,0.999962411066641,5.5676356358012564e-05
-0.4524464003799949,-0.4524464003799949,1.0000948607151607,5.491638746264988e-05
-0.4521246662334306,-0.4521246662334306,1.0000916172067817,5.668681627577566e-05
-0.4518387516523944,-0.4518387516523944,1.0001051885273489,5.5786610836550596e-05
-0.4516154784272658,-0.4516154784272658,1.0000023921670433,5.6040095346087984e-05
-0.4512102335516829,-0.4512102335516829,0.9999705894959252,5.582187904409362e-05
-0.4510204560618149,-0.4510204560618149,0.9999704366794806,5.649436747458714e-05
-0.4506881811015774,-0.4506881811015774,0.9999532781667805,5.560590140502497e-05
-0.45047269681235774,-0.45047269681235774,1.0000068187247837,5.4462861291321346e-05
-0.4502201477094786,-0.4502201477094786,0.9999895357922071,5.5593370718869185e-05
-0.44997400613792704,-0.44997400613792704,0.9999690594063813,5.5380873290868495e-05
-0.44969216287136077,-0.44969216287136077,0.9999492823744024,5.7376743584462254e-05
-0.4489593623467954,-0.4489593623467954,0.999970495995643,5.569924961000765e-05
-0.44861975566018375,-0.44861975566018375,0.9998363344779969,5.549815752926401e-05
-0.4483536198153161,-0.4483536198153161,0.999928203984827,5.535814452594436e-05
-0.44813300064997746,-0.44813300064997746,1.00002248680749,5.559150825426423e-05
-0.44802350537793245,-0.44802350537793245,1.0000492367416924,5.529640224309305e-05
-0.4478694980236469,-0.4478694980236469,0.9999414033681772,5.547374131955814e-05
-0.44766624296607915,-0.44766624296607915,1.0000212401429178,5.634591717469522e-05
-0.44743308156612327,-0.44743308156612327,0.999952970884984,5.54547584055607e-05
-0.44728166356217114,-0.44728166356217114,1.0000371353299848,5.553457249190493e-05
-0.44710560046951286,-0.44710560046951286,1.0000358926857258,5.5435570948540074e-05
-0.44686210169165863,-0.44686210169165863,1.000040167709986,5.5676590720871416e-05
-0.4467101298359921,-0.4467101298359921,1.0000446799447233,5.4169686959931156e-05
-0.4463702212116914,-0.4463702212116914,0.9999451560393637,5.552969104115637e-05
-0.4461484161176486,-0.4461484161176486,1.0000098588087785,5.5755044165532516e-05
-0.4459694803983439,-0.4459694803983439,1.0000231274662945,5.5054015569556534e-05
-0.44574303028639406,-0.44574303028639406,1.000047188906843,5.5823224510977176e-05
-0.4455065220914548,-0.4455065220914548,1.0000518323691385,5.43381591278327e-05
-0.4453322858811589,-0.4453322858811589,0.9999505616673983,5.518046378413944e-05
-0.44518232003902086,-0.44518232003902086,1.0000203848150075,5.5785163402767786e-05
-0.4450543607614236,-0.4450543607614236,0.9999728124257892,5.4738191168887974e-05
-0.4448832916270476,-0.4448832916270476,1.00008726975337,5.460216812482416e-05
-0.4446794951771153,-0.4446794951771153,1.0000681255761372,5.461364738006128e-05
-0.44451689881971107,-0.44451689881971107,0.9999758744591892,5.493459334817973e-05
-0.4442585392709589,-0.4442585392709589,0.9999728694672617,5.511187552470843e-05
-0.44398433309979735,-0.44398433309979735,1.0000674069773976,5.5466289048982815e-05
-0.44366221957316154,-0.44366221957316154,1.0001119434051036,5.518233641398741e-05
-0.44323664584662764,-0.44323664584662764,0.9999974665506896,5.4834921983888674e-05
-0.4429589657462202,-0.4429589657462202,0.9999861482932175,5.5128796382863414e-05
-0.44281623836723155,-0.44281623836723155,1.0000069099119904,5.488074328004513e-05
-0.44227374401234554,-0.44227374401234554,0.999979764455143,5.510174801747282e-05
-0.44186580285022503,-0.44186580285022503,1.000070786573679,5.683097118949945e-05
-0.4415405070030829,-0.4415405070030829,0.999969912578109,5.4350445341390474e-05
-0.44121135674940887,-0.44121135674940887,0.9999788254471037,5.6697876259617264e-05
-0.4408677014580462,-0.4408677014580462,0.999980684121301,5.635427517411e-05
-0.4406979454914108,-0.4406979454914108,0.9999252270043855,5.594003939163633e-05
-0.44028426670120097,-0.44028426670120097,0.9998624064712193,5.557793051659786e-05
-0.4400188605388394,-0.4400188605388394,0.9999398382043341,5.70230838749701e-05
-0.4397358996007824,-0.4397358996007824,0.9999979839442105,5.505840248522364e-05
-0.43953288933844303,-0.43953288933844303,0.9999531886556744,5.49660701532572e-05
-0.4393028567370493,-0.4393028567370493,1.000033832529804,5.44166956698313e-05
-0.43918051226646637,-0.43918051226646637,0.9999824156172258,5.528620359280283e-05
-0.43893939975532703,-0.43893939975532703,1.0000119333899893,5.5625254743760276e-05
-0.43866551195969805,-0.43866551195969805,1.000223331836843,5.719920605608351e-05
-0.4379554291837849,-0.4379554291837849,0.9999951631544339,5.5715039121153167e-05
-0.4376760139450198,-0.4376760139450198,1.0000842160079448,5.5219252410818674e-05
-0.4374850849213544,-0.4374850849213544,1.0000395098060426,5.5003543834742174e-05
-0.4371950448607095,-0.4371950448607095,0.9999726218010441,5.582187351465099e-05
-0.437050445433124,-0.437050445433124,0.999982080092025,5.534756223245608e-05
-0.4369806393107865,-0.4369806393107865,0.9999617525529961,5.519176331509598e-05
-0.43676326910499486,-0.43676326910499486,0.9999932525106248,5.642404018278161e-05
-0.43656550119339954,-0.43656550119339954,1.000004429671084,5.525729547583329e-05
