time,time,flux,flux_err
-0.49982011962492834,-0.49982011962492834,1.000148990555668,0.00013268515793874835
-0.49952813974232413,-0.49952813974232413,0.9999133794932018,0.00012194702833724065
-0.49920714519539616,-0.49920714519539616,1.0000374902947449,0.00012052522059837281
-0.49875893096395885,-0.49875893096395885,0.999840524058377,0.00012040380669418357
-0.4982859248346358,-0.4982859248346358,1.0001128326056237,0.00012124164633979732
-0.49785439946717813,-0.49785439946717813,1.0000841840757886,0.0001177940420710272
-0.4975501953209459,-0.4975501953209459,0.9998259288817138,0.00011770114346147087
-0.49727313358234826,-0.49727313358234826,0.9999148398845932,0.00012089039520736945
-0.4969903774021077,-0.4969903774021077,1.0000996841356975,0.0001197699090198578
-0.4967712600075174,-0.4967712600075174,0.9999578338396906,0.00012071807608740064
-0.49649572792623076,-0.49649572792623076,1.0001363493825608,0.00012177400429874733
-0.4963003532400762,-0.4963003532400762,0.9998603417728681,0.00012113783018037106
-0.49612575787323293,-0.49612575787323293,0.9999660884831616,0.00012050826896921945
-0.49565970032927,-0.49565970032927,1.0000205373365243,0.00011760822868931932
-0.4951540678222955,-0.4951540678222955,0.9998479536502354,0.00011918983646753429
-0.4948196836834541,-0.4948196836834541,1.0000537250551462,0.00011787367552806342
-0.4945086776286189,-0.4945086776286189,1.000048255378448,0.00011952228227186568
-0.49417745015889525,-0.49417745015889525,1.0001337274821833,0.00011839843842769884
-0.4938949838338885,-0.4938949838338885,1.0001434333610832,0.00012064087299934503
-0.493654009810416,-0.493654009810416,1.0000318199957905,0.00011929805658375406
-0.4934342441636545,-0.4934342441636545,0.9998825805810313,0.00011762693711564451
-0.49319614965643266,-0.49319614965643266,1.0001662236945623,0.00011959297362086549
-0.49292849813355133,-0.49292849813355133,1.000041748371205,0.00012214565687826623
-0.4927847981205559,-0.4927847981205559,1.0001234632287228,0.00012154718915321206
-0.49251691267709247,-0.49251691267709247,1.000005693500819,0.0001230266987386695
-0.4921154090836353,-0.4921154090836353,1.0001016691451745,0.0001189140205901104
-0.49172050906490766,-0.49172050906490766,1.0001420792589006,0.00012131158191054181
-0.491447665123269,-0.491447665123269,0.9999006763355979,0.00011738297387822495
-0.49121166174518294,-0.49121166174518294,1.0001697281752748,0.00012044710225960011
-0.4909574670622533,-0.4909574670622533,0.999895553589363,0.00011606379942527111
-0.4907307039415173,-0.4907307039415173,1.0000228019238369,0.00011855456088316141
-0.49049775568637416,-0.49049775568637416,1.0001068116260665,0.00012177744415516898
-0.49031295328677515,-0.49031295328677515,1.000031814275968,0.00012104263206518801
-0.4901127732642635,-0.4901127732642635,1.0000729729216962,0.00011727239441673603
-0.48988709735422165,-0.48988709735422165,0.9999854249160706,0.00011956513413925017
-0.4897449785261415,-0.4897449785261415,0.9999202344405467,0.00011946149829838374
-0.48944243049118086,-0.48944243049118086,1.0001088144226915,0.0001229001955263853
-0.48929708787691195,-0.48929708787691195,0.9998215631482852,0.00012100685109341702
-0.4891153196869709,-0.4891153196869709,0.9999851666307977,0.00012251172428205028
-0.48865810678325944,-0.48865810678325944,1.0000464291118922,0.00012083205780614001
-0.4882825701177353,-0.4882825701177353,0.999929669347153,0.00011820404675743043
-0.4879235864267685,-0.4879235864267685,0.9999965848637178,0.0001180091430558112
-0.48770541129706546,-0.48770541129706546,0.9996627360750127,0.00012085185311613161
-0.48754651696508516,-0.48754651696508516,1.0000354366892128,0.00011673363805724085
-0.4871944897444337,-0.4871944897444337,0.9999915015025149,0.00011605694381906552
-0.48699095137344556,-0.48699095137344556,0.9999619695124892,0.0001221669645458983
-0.4868107517046155,-0.4868107517046155,0.9999207937250592,0.00012031492097190823
-0.4866615281476697,-0.4866615281476697,1.0001733611276689,0.00011731177058917934
-0.4864140308913193,-0.4864140308913193,1.0000714904193575,0.00011939498537418775
-0.48622473014183926,-0.48622473014183926,0.9999613634359751,0.00011850011615662491
-0.48594256804935865,-0.48594256804935865,0.9998418636766564,0.00011804862851897977
-0.48581127726720297,-0.48581127726720297,0.9998655851256517,0.00012046023315113571
-0.48555535348205014,-0.48555535348205014,1.0000065213539018,0.0001196679788000011
-0.48520760670653545,-0.48520760670653545,1.0000667158068246,0.00011834698783676009
-0.4848800004227087,-0.4848800004227087,0.9999243459045306,0.00012041973621112022
-0.4846178487729048,-0.4846178487729048,0.9998416323209123,0.00011654187601445093
-0.48433656322376917,-0.48433656322376917,1.0001407770917914,0.00012135974556134004
-0.4841386296604469,-0.4841386296604469,0.9999985589462014,0.00011735078966233984
-0.4837871195602929,-0.4837871195602929,1.0001106184186535,0.00011842106094753734
-0.4834911739344534,-0.4834911739344534,0.9997894707624176,0.00011962881216054941
-0.4833068630476191,-0.4833068630476191,1.0000784229680006,0.00011862768026352436
-0.48306056761721267,-0.48306056761721267,1.000002615386999,0.00011982693741588084
-0.4828932277923741,-0.4828932277923741,0.999890312018076,0.00011748140988662537
-0.4827244608626643,-0.4827244608626643,1.0001254238752117,0.00011661472987193038
-0.48244670440763004,-0.48244670440763004,1.0001970406583494,0.00012169825669457346
-0.48218419455661204,-0.48218419455661204,1.0001038476252575,0.00011848454123543928
-0.4816934749527718,-0.4816934749527718,1.0000991601634988,0.00012175677036181613
-0.48149370686587645,-0.48149370686587645,1.0000294501456832,0.00011867899557572493
-0.4811452344911231,-0.4811452344911231,0.999999284088946,0.00011911141552599482
-0.480820154320827,-0.480820154320827,1.0000742172736323,0.00011811947008362482
-0.48062353071291,-0.48062353071291,1.0002337152658562,0.00011864937107435574
-0.4803588817769196,-0.4803588817769196,0.9999172339682053,0.00011842212499789761
-0.4800726957291772,-0.4800726957291772,1.0000703248630176,0.00012262939191154954
-0.4798610225909215,-0.4798610225909215,0.9999442374793889,0.000118733187040702
-0.479636740488786,-0.479636740488786,0.9998976523045695,0.00011932443279996463
-0.47942616344371347,-0.47942616344371347,1.0000711136042124,0.00012050756230958207
-0.4791266138847277,-0.4791266138847277,1.0001916731026241,0.00012067722636954913
-0.4788678285534843,-0.4788678285534843,0.9997722162020803,0.0001218810392626337
-0.47862377584242494,-0.47862377584242494,1.000012124576172,0.00011841427397918558
-0.4781456440090551,-0.4781456440090551,1.0000237274857853,0.00012286196761404075
-0.4778351755841868,-0.4778351755841868,1.0000423560192657,0.00011874118834405368
-0.4774034093868977,-0.4774034093868977,0.9999517496740531,0.00012090221782895874
-0.47710343170620034,-0.47710343170620034,0.9999395985413102,0.00011865438923015648
-0.4767462006107962,-0.4767462006107962,0.9999324269316976,0.00011894991960605316
-0.47652211584863835,-0.47652211584863835,0.9999172988133432,0.00011828978430355884
-0.4763208706812293,-0.4763208706812293,1.0000376285924442,0.00011972838138847903
-0.476106274947233,-0.476106274947233,0.999889398942322,0.00011954653866357622
-0.4757431831763824,-0.4757431831763824,0.9997853858618356,0.00012091107733794491
-0.47543253240728517,-0.47543253240728517,1.0000439015061198,0.00012206822137077432
-0.474860623627319,-0.474860623627319,0.9998733424264941,0.00012047556191299789
-0.4745133625343442,-0.4745133625343442,0.9999254926420125,0.00012090742023935025
-0.474158308479673,-0.474158308479673,1.0000003658807826,0.00011790921955569865
-0.47389576439600206,-0.47389576439600206,1.000082209592804,0.00011908066818682819
-0.4734598744951654,-0.4734598744951654,0.9999235067079499,0.00011853254254087602
-0.4731878967235389,-0.4731878967235389,1.000057607635322,0.00012065236573822586
-0.4729383747486281,-0.4729383747486281,0.999863542412248,0.00011895363046191397
-0.4726899519198923,-0.4726899519198923,1.0000125969719116,0.00012074646831001362
-0.47231330040667674,-0.47231330040667674,1.0000590027625496,0.00012065432880135761
-0.47212890597365914,-0.47212890597365914,0.9999201003401085,0.00012206916972993406
-0.4719658042078663,-0.4719658042078663,1.0001171560595086,0.00012023117202673423
-0.4716028326212836,-0.4716028326212836,1.0000610655289228,0.00011922643293337395
-0.471174938956392,-0.471174938956392,1.000033967507496,0.0001202085213813084
-0.4708627785119461,-0.4708627785119461,1.0000561356782574,0.00011855162607768013
-0.4705034140475618,-0.4705034140475618,0.9999375540123667,0.00011923129098724431
-0.4701211152030737,-0.4701211152030737,0.9998527416464347,0.00011758375063131961
-0.4698726595393964,-0.4698726595393964,0.9999453619239181,0.00011906893495736964
-0.4695668787237082,-0.4695668787237082,0.9999605360019274,0.00012121813453344716
-0.4692929164128145,-0.4692929164128145,1.0000232465202956,0.00011760824654167133
-0.4690861331218912,-0.4690861331218912,0.999750112550492,0.00011944210022702812
-0.46877565307950136,-0.46877565307950136,1.0000761521677968,0.0001216248177206243
-0.46862031014461536,-0.46862031014461536,0.9999619588538771,0.0001205585388960657
-0.46841276830527934,-0.46841276830527934,1.0000691095905414,0.0001246964633138783
-0.4680342241495964,-0.4680342241495964,0.9999657406387918,0.00012092343050686927
-0.46760777314339064,-0.46760777314339064,0.9999512374594242,0.0001200831955670842
-0.4672569840775395,-0.4672569840775395,1.00016567291289,0.0001173647693300896
-0.4670509851224779,-0.4670509851224779,0.9999377841412732,0.00012098090808059516
-0.46676497690059476,-0.46676497690059476,1.000046154770126,0.0001163102816711601
-0.46644591951408076,-0.46644591951408076,1.0001826003704832,0.00012133515383338207
-0.46619217811021374,-0.46619217811021374,0.9998904183703015,0.00012092026951493165
-0.46597570788653686,-0.46597570788653686,1.0000075220467999,0.00011726304339173483
-0.46574863589485177,-0.46574863589485177,1.0000902196802,0.00011943242473123929
-0.465582940953027,-0.465582940953027,1.0000450681487005,0.00011831847049911356
-0.4652816271307529,-0.4652816271307529,0.9999751184695784,0.00012132924612447629
-0.4651358912080468,-0.4651358912080468,0.9999364815645869,0.00011997340869669305
-0.4647359989350662,-0.4647359989350662,0.9998836088774453,0.00012171946695972088
-0.4643919245288998,-0.4643919245288998,1.00015077363818,0.00012003344436785982
-0.46392673154841757,-0.46392673154841757,0.9999061190903864,0.00012083962118591193
-0.46363507508649493,-0.46363507508649493,1.0001236671936578,0.00012218427008159607
-0.46345116493248495,-0.46345116493248495,1.0000480543836834,0.00011729703870469038
-0.4631421793048503,-0.4631421793048503,0.9999661934268298,0.00011995695505070116
-0.4629610154785041,-0.4629610154785041,0.9999796021592788,0.00012098458350820313
-0.46272232312185224,-0.46272232312185224,0.9998305129780753,0.000119430906355425
-0.46261476374056654,-0.46261476374056654,0.999902557960439,0.00011815665381165579
-0.46245539353840287,-0.46245539353840287,1.0000136897317484,0.00011913736865533133
-0.4622421091611614,-0.4622421091611614,0.9999854762486251,0.00011963488265868815
-0.4621053290218697,-0.4621053290218697,1.000083515647295,0.00011855725096452988
-0.46187474195612593,-0.46187474195612593,0.9999236657671748,0.00011974343279369491
-0.46169305880903266,-0.46169305880903266,1.0002107683868289,0.00011903452399296646
-0.4614706421707524,-0.4614706421707524,1.0000222971002526,0.00011687637101258708
-0.46105641437752637,-0.46105641437752637,1.0000023019227355,0.00012201659172160534
-0.4606483673444018,-0.4606483673444018,0.9998600803003036,0.00011711162066200384
-0.4601913148195308,-0.4601913148195308,0.9999565597637277,0.00012139494221473165
-0.46002056100332994,-0.46002056100332994,1.0001193266394817,0.00011849266728644994
-0.4597949121074635,-0.4597949121074635,1.0000083471386163,0.00011667330672077643
-0.45943384647835045,-0.45943384647835045,0.9998940854971364,0.00011862408507086551
-0.4592237481090706,-0.4592237481090706,0.999910121907661,0.00011853822088112949
-0.459036329992523,-0.459036329992523,1.000227834748177,0.00011954943120315569
-0.458779849151324,-0.458779849151324,1.0001489514963495,0.00011924460010545789
-0.4587193643208593,-0.4587193643208593,0.9999601361162833,0.00011784998378368652
-0.4584988522772619,-0.4584988522772619,0.9999534594374196,0.00011908403238470153
-0.4582575711196114,-0.4582575711196114,1.0001414206102859,0.00012092853069359823
-0.45755519457452465,-0.45755519457452465,0.9999508520077283,0.00012053446628634017
-0.4572075873511494,-0.4572075873511494,1.0001138318896263,0.0001158317114366724
-0.4569605304728611,-0.4569605304728611,0.9998921597756798,0.00011963696457478095
-0.4567220052158518,-0.4567220052158518,1.000053154728545,0.00011989274245665618
-0.4563804506549786,-0.4563804506549786,0.9999763683692299,0.00011824306268797685
-0.45596546640372254,-0.45596546640372254,1.000158793462947,0.00012069512723123868
-0.4557439233605692,-0.4557439233605692,1.00005067617136,0.00012066395589329236
-0.4555625089997193,-0.4555625089997193,1.0000465224677515,0.00011837662388844842
-0.4553253045713063,-0.4553253045713063,1.0000083521702225,0.0001192657273900048
-0.45508246013268944,-0.45508246013268944,1.000014479567987,0.00011771251994858209
-0.4547734465399117,-0.4547734465399117,1.000174445099725,0.00012201193710161638
-0.4544674118551484,-0.4544674118551484,1.0001200672154638,0.00011867412707745855
-0.4540127228516212,-0.4540127228516212,0.9997656146264493,0.00012385310981787083
-0.4538115631505207,-0.4538115631505207,0.9999382371073903,0.00012068803256307263
-0.45339651566173417,-0.45339651566173417,1.0000279442205366,0.00012157217129325885
-0.45299302100247585,-0.45299302100247585,1.0000803150625963,0.00011829750825425508
-0.4527276218024781,-0.4527276218024781,0.9999842495527659,0.00011761607809527143
-0.4523634484030481,-0.4523634484030481,0.9998441981289359,0.00012062936982110205
-0.45216165109814027,-0.45216165109814027,0.9999518524606421,0.00012013741622984408
-0.45191377431256113,-0.45191377431256113,0.9998770353393551,0.00011792567958173657
-0.45162859107294934,-0.45162859107294934,0.9997909716309301,0.00012155102258409719
-0.45134662413256593,-0.45134662413256593,0.9998904902127252,0.00012153189716425834
-0.45075972428458044,-0.45075972428458044,0.9999145831882238,0.00012152974563896044
-0.4502417974443233,-0.4502417974443233,0.9999442114173928,0.00012088489923671233
-0.44989675217148034,-0.44989675217148034,0.9998399398509491,0.00011926605152269058
-0.44945388302294303,-0.44945388302294303,1.000035676860921,0.0001197888400819693
-0.4491854180589144,-0.4491854180589144,0.9999756519980261,0.00011944380494471249
-0.44881895600556165,-0.44881895600556165,0.9999518840628593,0.00012081114424860323
-0.4486081355746137,-0.4486081355746137,0.9999077215416123,0.00011834324780803053
-0.4483366822489188,-0.4483366822489188,1.0000081208603324,0.00011933869740530872
-0.4480411096214084,-0.4480411096214084,0.9999245436633281,0.0001239733350197585
-0.4478594250322203,-0.4478594250322203,0.9999255196571717,0.0001203044007354486
-0.44752287805313246,-0.44752287805313246,0.9999841219599757,0.00012044121014570354
-0.4469636725247256,-0.4469636725247256,0.9999015544867307,0.00012062424122858172
-0.44657826092370667,-0.44657826092370667,1.000034029249483,0.00012032782641829936
-0.4463967982272152,-0.4463967982272152,0.9999691907178834,0.00011897381114514506
-0.4460982466567657,-0.4460982466567657,0.9999856002484064,0.00011829495206597768
-0.4457797978029703,-0.4457797978029703,1.0001665872803405,0.00011756504779985268
-0.44549491002326247,-0.44549491002326247,0.9999818505370888,0.00012044010423610646
-0.44522887134735356,-0.44522887134735356,0.9999600456510429,0.0001184831518688236
-0.4450209340306174,-0.4450209340306174,1.0000706711547154,0.00012098778095514678
-0.4447984775993973,-0.4447984775993973,0.9999751406781027,0.00011831020278158885
-0.444575245823944,-0.444575245823944,0.999944710162153,0.00012103253335415591
-0.44440776326009657,-0.44440776326009657,0.9998832826904506,0.00012329098292464757
-0.444091171790933,-0.444091171790933,0.9999460673136525,0.00012096533269711886
-0.4435573744391149,-0.4435573744391149,0.9999109246068919,0.00012239716431044855
-0.4431784083586535,-0.4431784083586535,0.9999336659200706,0.0001174922158870534
-0.44292130523026574,-0.44292130523026574,0.9999012496589301,0.00012047192945454884
-0.442726746723929,-0.442726746723929,0.9997277169105198,0.00011734072723679823
-0.4423724455511547,-0.4423724455511547,0.9999691047690374,0.00011804495703428386
-0.44213131517681176,-0.44213131517681176,0.9999135879982269,0.00012143235822836955
-0.441985255345935,-0.441985255345935,0.9998350184187152,0.00011990527395378595
-0.4418339117546566,-0.4418339117546566,0.9999038067127624,0.00011732665106528185
-0.4415810978774971,-0.4415810978774971,0.9998506229291783,0.00011983356458405463
-0.4412036088942841,-0.4412036088942841,1.000090897351095,0.00011934997528646339
-0.44099574413339726,-0.44099574413339726,1.0000422323525175,0.00012061091251121241
-0.4406808279039979,-0.4406808279039979,0.9998038821197586,0.00012011124361816488
-0.4401437062333571,-0.4401437062333571,0.9999668893246166,0.00012201934440428588
-0.4395990525612433,-0.4395990525612433,1.0001828782335977,0.00012076190069975076
-0.43938067339840925,-0.43938067339840925,1.0000054375222,0.00011894385911360575
-0.43912130007811356,-0.43912130007811356,0.9998054894686248,0.0001178931269424583
-0.43886016837132047,-0.43886016837132047,0.9999915369227173,0.0001190943704527503
-0.4385831103740202,-0.4385831103740202,1.0000757489408103,0.00011830953117263618
-0.43847086462410517,-0.43847086462410517,1.0001084376078342,0.00011928334088827509
-0.4382585466686578,-0.4382585466686578,1.0001434320836364,0.00011844931133698259
-0.4380891994609556,-0.4380891994609556,0.9999259580621132,0.00011937888271921918
-0.43798747303007984,-0.43798747303007984,0.9997141322381384,0.00011708114679116978
-0.437691918470955,-0.437691918470955,1.0000837578236692,0.00011945345741778022
-0.4375139010837302,-0.4375139010837302,1.0000406216903208,0.00012193590990779432
-0.43690843190343004,-0.43690843190343004,0.9999119081980308,0.0001220608794238067
-0.4364582452682953,-0.4364582452682953,0.9998466101962814,0.00011770122592894209
-0.4361122229478497,-0.4361122229478497,1.0000044724212167,0.00012115060700498305
-0.43595311403259984,-0.43595311403259984,0.9999185315386839,0.00011831373758735501
-0.4357151189396973,-0.4357151189396973,0.9999951676819038,0.00011781586310554721
-0.4353483054881508,-0.4353483054881508,0.9998498614826976,0.00011861951847428804
-0.43505992186182996,-0.43505992186182996,0.9998934158093791,0.00011925169975361067
-0.43486874235750295,-0.43486874235750295,1.0000785616359071,0.00011844060575836553
-0.4346461407265451,-0.4346461407265451,1.00008791267086,0.00011959500129293148
-0.4344496193356463,-0.4344496193356463,0.9999801064523488,0.00011713488058424557
-0.4341550455726974,-0.4341550455726974,0.9999804229235976,0.00012253662243008075
-0.433993051869038,-0.433993051869038,1.0000842733665565,0.00012048076764598547
-0.43354467495591964,-0.43354467495591964,1.0001099089544767,0.00012085870116719259
-0.4332168650733365,-0.4332168650733365,0.9998033445823855,0.00011933682856949375
-0.432817272534885,-0.432817272534885,0.9999360832093928,0.00012034510730406166
-0.4324652573050116,-0.4324652573050116,0.9999237472556061,0.00011955777752448316
-0.43215492659510346,-0.43215492659510346,1.0001387072749417,0.00011857335146920285
-0.4318316254582896,-0.4318316254582896,0.9999305424448858,0.00012189395876399577
-0.4315598360153672,-0.4315598360153672,0.9999240776288977,0.0001187341512653314
-0.4313828074162302,-0.4313828074162302,1.000115390914462,0.00011803286088809251
-0.4311514472392446,-0.4311514472392446,1.0000162541392212,0.00011944566619913623
-0.43091809446705154,-0.43091809446705154,0.9998673012447714,0.00011674847234197134
