time,time,flux,flux_err
-0.4997907201880783,-0.4997907201880783,0.9999715805684278,0.00016880913767920684
-0.49948837791162076,-0.49948837791162076,0.9997825332885493,0.00015319079088286141
-0.49934910103838775,-0.49934910103838775,1.0001069513276561,0.00015669203602701752
-0.4990965051794774,-0.4990965051794774,1.0000688270256908,0.00015130360024792432
-0.49895213130439514,-0.49895213130439514,0.9998860771899005,0.00014561907040272108
-0.49883837080415105,-0.49883837080415105,1.0002602482142184,0.00015978934930460233
-0.49865698492649246,-0.49865698492649246,0.9999869018506538,0.00014630750007611613
-0.49854998984446863,-0.49854998984446863,0.999884061644995,0.0001460470297949919
-0.4984054183376429,-0.4984054183376429,1.0001010327256485,0.0001515462598056751
-0.49824494207059616,-0.49824494207059616,1.0001313076259577,0.000150696193894504
-0.4980006524223427,-0.4980006524223427,0.9997989407732657,0.00015288041736641762
-0.49780822284374154,-0.49780822284374154,1.0000159512499212,0.00015130180016548184
-0.497687436328124,-0.497687436328124,1.0000558107813782,0.0001506230493442581
-0.49760681322441086,-0.49760681322441086,1.0002306384856374,0.000152202647262715
-0.49742364101912245,-0.49742364101912245,0.9998194093342084,0.00014845652544797963
-0.49717582897792456,-0.49717582897792456,0.9999007102475934,0.00015541833637138487
-0.49701527505385457,-0.49701527505385457,0.9997509715893198,0.00015675882505489895
-0.4967497837184055,-0.4967497837184055,1.000112086721382,0.0001575459786864442
-0.49657465823329405,-0.49657465823329405,1.0002217533537003,0.0001491626274595703
-0.49647361637908033,-0.49647361637908033,0.9998107401454307,0.00015869052099689497
-0.4962833145640616,-0.4962833145640616,0.9999875335452264,0.000149776754607357
-0.49613301907811547,-0.49613301907811547,0.9999966741734114,0.00014744401188813923
-0.49600377632887105,-0.49600377632887105,0.9999454310945242,0.00015021461393129097
-0.4959166275577445,-0.4959166275577445,1.0002147928934015,0.00015042774458532446
-0.49567189203080486,-0.49567189203080486,0.9997626644721376,0.0001525377860500073
-0.49553156847468927,-0.49553156847468927,1.0001611790856058,0.00015221670396966606
-0.49533041187241905,-0.49533041187241905,1.0000942264406352,0.00015090655851241434
-0.49525006951153044,-0.49525006951153044,1.0003862281183409,0.00015495188238151306
-0.4950487239766517,-0.4950487239766517,0.9999175451288413,0.00015678861730577723
-0.49472304512237314,-0.49472304512237314,0.999708793745367,0.00015060803522642404
-0.4946287553735601,-0.4946287553735601,1.000103391877009,0.0001554544191598091
-0.4943822082255792,-0.4943822082255792,0.9997810269048358,0.00015744530845602137
-0.49416644071825433,-0.49416644071825433,0.9999416327152699,0.00015434744992707852
-0.49400731143759913,-0.49400731143759913,1.0002646386353473,0.00015452209003872432
-0.49382267238324856,-0.49382267238324856,0.9999879070179892,0.0001454397063879892
-0.4936704233121418,-0.4936704233121418,0.9998421236020235,0.00014832457816261183
-0.49359934793028515,-0.49359934793028515,1.0000920705320886,0.0001501603514215906
-0.4935188526309503,-0.4935188526309503,1.0000190434448002,0.00015071841239261836
-0.49331796825499624,-0.49331796825499624,1.0001462864825084,0.0001487161759071964
-0.4931296942901099,-0.4931296942901099,1.0001212276787022,0.0001498805234721784
-0.49294872023747305,-0.49294872023747305,1.0000394062728226,0.00015084263226408225
-0.49285077120293863,-0.49285077120293863,1.0003916525022416,0.00015000172496286811
-0.4927537706986186,-0.4927537706986186,0.9999941905159305,0.00015190053329746834
-0.4925185075029731,-0.4925185075029731,1.0000010146401779,0.00015365091601587542
-0.4923070183576783,-0.4923070183576783,0.9999886191138152,0.0001447224768128467
-0.4921740869875066,-0.4921740869875066,1.0002127200099273,0.0001536056305415896
-0.4918797196020023,-0.4918797196020023,0.9998538820859626,0.0001608901277086459
-0.49174444420277724,-0.49174444420277724,1.0000667263999286,0.00015266665496353995
-0.4915540114205214,-0.4915540114205214,0.9999168417856531,0.00015170920457673148
-0.4914026696533256,-0.4914026696533256,0.9999724116030485,0.00014313424709836423
-0.49126057457833666,-0.49126057457833666,1.000185115670845,0.0001481679814551096
-0.49120482123835246,-0.49120482123835246,0.9997570764707582,0.000149975533370369
-0.4911094327711908,-0.4911094327711908,0.9997256383191997,0.0001471999969854865
-0.4909438310125552,-0.4909438310125552,1.0001232093908932,0.00014796582174267546
-0.4907637829091982,-0.4907637829091982,1.00003899372476,0.00015018023724861488
-0.49057151957968015,-0.49057151957968015,0.9998261230581506,0.00015068457821149742
-0.4904594880368677,-0.4904594880368677,1.0000364932984263,0.00015281478529277195
-0.4902196491973882,-0.4902196491973882,1.0004077004135241,0.000153121349366361
-0.48994940393968134,-0.48994940393968134,0.9998577049489297,0.0001550110566668611
-0.4897886699596711,-0.4897886699596711,1.000024749145687,0.000149180667587434
-0.4895466129157285,-0.4895466129157285,1.0001031987249929,0.00015895515843348217
-0.4893130573691451,-0.4893130573691451,1.0000829849734345,0.0001569430745939479
-0.48909185436641567,-0.48909185436641567,0.9999862867742145,0.00014956313401583585
-0.4889186647917086,-0.4889186647917086,1.0002145292254017,0.0001544720806040753
-0.4888288334710523,-0.4888288334710523,0.9998911112152209,0.00014548553145375573
-0.4887386016998789,-0.4887386016998789,1.0002687904431402,0.0001472263249280243
-0.48853798920463304,-0.48853798920463304,0.9998225175658518,0.00014592344174676865
-0.4883674939723278,-0.4883674939723278,0.9999813019646338,0.00015228758225115823
-0.4881890261633089,-0.4881890261633089,0.9999053527300916,0.00015033597742206638
-0.48806544376348027,-0.48806544376348027,1.000078629615474,0.00015278645190151303
-0.4878729115822352,-0.4878729115822352,0.9999309975809242,0.0001552186954987171
-0.48764866534475004,-0.48764866534475004,0.9997227171474101,0.00014768061710470807
-0.4874807372332725,-0.4874807372332725,0.999992599406039,0.00015445393010463538
-0.48725762041649434,-0.48725762041649434,1.000068225048461,0.00015651165577851284
-0.48707917287538294,-0.48707917287538294,1.0000592631310679,0.00015234065306242813
-0.4869236412356258,-0.4869236412356258,0.9999078467551845,0.0001539659133788847
-0.48671938990155467,-0.48671938990155467,0.999795585382879,0.00015271988455589717
-0.48657248443050777,-0.48657248443050777,1.0000169291415808,0.00015302590979093046
-0.48645381721435116,-0.48645381721435116,0.999772649620364,0.00014450152046523694
-0.4863697810753365,-0.4863697810753365,0.9997451002024034,0.00014952112199228534
-0.4862254312465666,-0.4862254312465666,0.9996196632552892,0.00014912188090805738
-0.48613823614577995,-0.48613823614577995,0.9999613247026587,0.00014129890918822735
-0.4859945863681787,-0.4859945863681787,1.000126668528662,0.00015177457921157668
-0.48587523658934517,-0.48587523658934517,0.9997559185284185,0.00015204077861899972
-0.4858064138054033,-0.4858064138054033,0.9999586046699036,0.0001455556006724131
-0.4856714111469046,-0.4856714111469046,1.0001500382898214,0.00015274975187090013
-0.4855132021388272,-0.4855132021388272,1.00012984488411,0.0001519105446405198
-0.485347603567061,-0.485347603567061,0.9999155470114992,0.00015174560278340113
-0.4852188240583928,-0.4852188240583928,0.9998033457663353,0.00015355636629465946
-0.485077271379123,-0.485077271379123,1.0000351800418543,0.00014868997562408014
-0.48492313666138215,-0.48492313666138215,1.0001662000166207,0.00015341682999576545
-0.48470124189771013,-0.48470124189771013,0.999980426621824,0.0001594235776893348
-0.48455247077581587,-0.48455247077581587,0.9999435856137027,0.0001498531539100732
-0.4843186936494021,-0.4843186936494021,1.0000752999612397,0.00014687326387287968
-0.4841253681341186,-0.4841253681341186,1.0000733705851987,0.00015298218401932457
-0.4840362248913152,-0.4840362248913152,0.9999759492062343,0.00014676354243667685
-0.48392659379242103,-0.48392659379242103,0.9999891768521426,0.0001510575395754112
-0.4837620022633928,-0.4837620022633928,0.999987330595627,0.00014408735340638146
-0.4835904800187564,-0.4835904800187564,0.999937876718179,0.0001473774661626312
-0.48349051651821356,-0.48349051651821356,1.0000383167817997,0.0001483242746414018
-0.48339356026845054,-0.48339356026845054,0.9998669019526012,0.0001506516886113443
-0.4832694609009195,-0.4832694609009195,1.000179979885252,0.00015432456663726837
-0.48312794931407554,-0.48312794931407554,1.000266055539973,0.00014968208058981032
-0.48294369477735016,-0.48294369477735016,1.000018050606461,0.0001515208930172928
-0.48282139191505846,-0.48282139191505846,1.000052059531414,0.00015163194432541547
-0.48266416606275014,-0.48266416606275014,0.9998816717234543,0.00015095556549557572
-0.4824457077971601,-0.4824457077971601,1.0000031130633946,0.00015495812794000653
-0.4822609463444678,-0.4822609463444678,0.9998420750407204,0.00015176351545679516
-0.482104072241782,-0.482104072241782,1.0000290467757775,0.00014905402331199743
-0.48187832306648487,-0.48187832306648487,1.000092619132292,0.0001590863607424965
-0.4816911073619849,-0.4816911073619849,1.0000211962596395,0.00014195261746866494
-0.48159329512272964,-0.48159329512272964,0.9999731378286916,0.00014841122874838518
-0.48144616359568315,-0.48144616359568315,1.0001501979977738,0.00014806767515657818
-0.4812567316374043,-0.4812567316374043,1.0000387492823646,0.00014737211231502753
-0.4811697650438873,-0.4811697650438873,1.0001316401329654,0.00014366927794808433
-0.4810782369597291,-0.4810782369597291,1.0000119412060502,0.00015089612780120975
-0.48098597651551245,-0.48098597651551245,0.9999151757801631,0.00015555035594449373
-0.4808937663598044,-0.4808937663598044,1.0000114481200675,0.00015112798035951777
-0.4807709130553121,-0.4807709130553121,0.9999806562715177,0.0001490886309706637
-0.48061980005441,-0.48061980005441,1.000201720759645,0.00015660096594388828
-0.4805040479484887,-0.4805040479484887,0.9999927790162438,0.00014385145257988727
-0.4803535399158136,-0.4803535399158136,1.0001300324921851,0.00015406788861180846
-0.4801884801599954,-0.4801884801599954,0.9998450992411595,0.00015384848041678756
-0.4799669700951199,-0.4799669700951199,0.9999823103385573,0.00015139341605997905
-0.47986279900651424,-0.47986279900651424,0.9999324876743261,0.00014929178605949277
-0.4797401112256921,-0.4797401112256921,1.0001786171884566,0.00014813498895404622
-0.47953190042608185,-0.47953190042608185,0.9997951386111403,0.0001530527816587086
-0.47941071589666534,-0.47941071589666534,1.0000758501004852,0.00015082762364440947
-0.4792882575056865,-0.4792882575056865,0.9999023872958723,0.00014435750109527908
-0.47917232029212753,-0.47917232029212753,1.000074178737162,0.00014861866615330257
-0.4790468299928762,-0.4790468299928762,0.9996258606640065,0.00014533788066718728
-0.4788804875992355,-0.4788804875992355,0.9998069167960144,0.0001483095661945914
-0.47877881332751715,-0.47877881332751715,0.9999720103935849,0.00014666577479949562
-0.4786815761930484,-0.4786815761930484,0.9999976560324597,0.0001539388635508553
-0.4785713057470275,-0.4785713057470275,0.999915667016199,0.00015237251235428385
-0.47849071259479387,-0.47849071259479387,0.9999670285896445,0.00015176734132162228
-0.4784111191118427,-0.4784111191118427,0.9999795201503423,0.00014803378797547656
-0.4782929295004578,-0.4782929295004578,0.9999723750510185,0.00015513418933984707
-0.47816610677400606,-0.47816610677400606,0.9999714591983857,0.00014662851732696013
-0.47799583202649953,-0.47799583202649953,1.0000231530736277,0.00015420012933585478
-0.4778284709485888,-0.4778284709485888,0.9999482423118329,0.0001516333480588153
-0.4776279673096724,-0.4776279673096724,0.9996459348935481,0.0001546959514969144
-0.47748740130555234,-0.47748740130555234,0.9998818881733472,0.0001449826521515895
-0.47734228846311455,-0.47734228846311455,0.9999330212673924,0.00014150333741756412
-0.4771659578414983,-0.4771659578414983,0.9999987260981775,0.0001542787788855217
-0.4770107881857257,-0.4770107881857257,1.0000962062397172,0.00014754483511844946
-0.47685041705335607,-0.47685041705335607,0.9998380585590215,0.00015009539590285067
-0.4767626788714551,-0.4767626788714551,0.9999040024676316,0.0001501482255856365
-0.4766346514319594,-0.4766346514319594,0.9998072103637213,0.00014151746359078237
-0.4764818269526586,-0.4764818269526586,0.9999640043664441,0.00014439217924323012
-0.47636078277719207,-0.47636078277719207,1.0003008916022662,0.00015351635365752714
-0.4762033316532325,-0.4762033316532325,0.9997732083505586,0.0001525490047585123
-0.47608617100049744,-0.47608617100049744,1.0000261402674857,0.0001499443790601423
-0.475939654083777,-0.475939654083777,1.0001132675210809,0.00015154676925546994
-0.47583330192792345,-0.47583330192792345,1.0002556958823703,0.0001561935033705781
-0.4757002693302638,-0.4757002693302638,1.0000186006376237,0.00015683899487229212
-0.4755065133838798,-0.4755065133838798,1.0000057029178715,0.00015047217095922228
-0.4753673386709124,-0.4753673386709124,1.0000053922493495,0.00014937277189049222
-0.47520242319151296,-0.47520242319151296,0.9998907779380003,0.0001570713288176553
-0.475037410420191,-0.475037410420191,1.000095283742866,0.00014382088618764113
-0.47478424080691184,-0.47478424080691184,1.000210005381988,0.00015427872760853244
-0.47463238271011504,-0.47463238271011504,1.0000880378789945,0.00014757455373995909
-0.47444907696699373,-0.47444907696699373,1.0000156864181176,0.00014713824085755783
-0.47435896186361787,-0.47435896186361787,0.9998789601116294,0.00015013520791393905
-0.47423912097729043,-0.47423912097729043,1.0001523258210496,0.0001416503553171604
-0.47412146530623434,-0.47412146530623434,1.0000501612628663,0.00014215428117783313
-0.47401444268616616,-0.47401444268616616,0.999863543636096,0.0001506807583040666
-0.4738649790073396,-0.4738649790073396,1.000164782047385,0.0001548651751202868
-0.47374625716620355,-0.47374625716620355,1.0000503145626687,0.00015055254213527093
-0.4736045491925324,-0.4736045491925324,1.0000571718412892,0.0001517953504429941
-0.473507527331094,-0.473507527331094,0.9999365357609878,0.00015512677723788446
-0.4733393374670413,-0.4733393374670413,0.9999352745564609,0.0001587158721897301
-0.47315440781530926,-0.47315440781530926,1.0001920191733018,0.000149788008141334
-0.4730153346717998,-0.4730153346717998,1.0001581639913368,0.00014981415659005655
-0.4728573832726397,-0.4728573832726397,1.0002487849609236,0.00015157687318137996
-0.4726641826426203,-0.4726641826426203,1.0001421256872705,0.00014546202735140045
-0.47237880558604955,-0.47237880558604955,1.0000879943044845,0.00015451417551142066
-0.4722432545167976,-0.4722432545167976,0.999774347386577,0.00014770032683129782
-0.47205623685076714,-0.47205623685076714,0.9998209003009524,0.00014714140588658893
-0.4719698717286519,-0.4719698717286519,1.0000455742953693,0.000150139494616888
-0.47185137296255564,-0.47185137296255564,1.0001649698220116,0.00014161684083890432
-0.47169539621972945,-0.47169539621972945,0.9999148964251999,0.00014840612963725418
-0.47159304552624237,-0.47159304552624237,1.0001852966206213,0.00014978969775713693
-0.4714420771189907,-0.4714420771189907,1.0000711567031355,0.0001526753614187665
-0.47132224903907627,-0.47132224903907627,1.0002496970943615,0.00015030055279614655
-0.47119599044744975,-0.47119599044744975,1.0001507233316225,0.0001558134052935116
-0.4711031880950031,-0.4711031880950031,0.9999812964759623,0.0001513177758443984
-0.4709660362655995,-0.4709660362655995,1.0000350113863106,0.00015270280237815638
-0.470770287772757,-0.470770287772757,1.0000188291117442,0.00015168945169108952
-0.4706141735005076,-0.4706141735005076,1.000005753711911,0.0001519666731330047
-0.4704718467670318,-0.4704718467670318,0.9997453060461415,0.00015332865382847475
-0.47028663440723906,-0.47028663440723906,1.0000626413707872,0.00014502083873701565
-0.47001204891494125,-0.47001204891494125,0.9998395287867451,0.00016017420626949507
-0.46985482567033615,-0.46985482567033615,1.0001128616297756,0.0001492903472417075
-0.46965276418995927,-0.46965276418995927,0.9998228933916321,0.00014962089810572075
-0.4695563904067967,-0.4695563904067967,0.9999870265106132,0.0001461979375297061
-0.4694856075991993,-0.4694856075991993,0.9999886961749869,0.00013893974769525768
-0.46935197950006113,-0.46935197950006113,1.0000953763134854,0.00014739119075786846
-0.4692400604610157,-0.4692400604610157,0.9999586342554476,0.00015459449381068264
-0.4690767256404797,-0.4690767256404797,0.9999043189425846,0.00015561627984606898
-0.4689200833177892,-0.4689200833177892,0.9999344925290352,0.00015277052072016202
-0.468789984191244,-0.468789984191244,0.9999657490046647,0.00015562690794897728
-0.4686941368236148,-0.4686941368236148,0.9998272020325298,0.00015714864193981133
-0.4684994406023179,-0.4684994406023179,0.9997982136778554,0.00015483356390403504
-0.46834360915454454,-0.46834360915454454,1.0002345351109776,0.0001479743953054147
-0.46822025524743366,-0.46822025524743366,0.999975305200981,0.00015223402939531068
-0.4680714325106237,-0.4680714325106237,1.000150377836377,0.00015332813997131556
-0.46789460529034843,-0.46789460529034843,1.000000785190455,0.00014618774914437288
-0.4676185805212299,-0.4676185805212299,0.99983972582865,0.0001544826703226806
-0.4674495904640935,-0.4674495904640935,0.9997891749497357,0.00015162479852665235
-0.467254236331064,-0.467254236331064,0.999908956637443,0.00014960427878565294
-0.4671679063307238,-0.4671679063307238,1.0000655068980944,0.0001461961360138538
-0.46711149982147615,-0.46711149982147615,0.9998324693036246,0.0001386534165255901
-0.46707402997126335,-0.46707402997126335,1.0000757564204006,0.00014416805318011566
-0.46696029489976354,-0.46696029489976354,1.0000958904932025,0.00015481331442261746
-0.46683071088700673,-0.46683071088700673,0.9999337678909231,0.00014681594659445452
-0.4666463963927526,-0.4666463963927526,0.9998743875247795,0.0001552719893019064
-0.466490883728693,-0.466490883728693,0.9997348112979285,0.00015592009379128538
-0.46640141066964136,-0.46640141066964136,1.0001392100717381,0.00015349371612194266
-0.46630656243141855,-0.46630656243141855,0.9998625391147599,0.00015257470281613254
-0.466185827623849,-0.466185827623849,0.9997444764655856,0.00015775596356167471
-0.46602238717096045,-0.46602238717096045,0.9999810362270075,0.00015441921686637697
-0.465893740386673,-0.465893740386673,0.9998580697008806,0.00014667361498683885
-0.46576294334299745,-0.46576294334299745,1.000086922769398,0.0001533149969333533
-0.4656126869369473,-0.4656126869369473,0.9999474373391856,0.0001453115900372878
-0.4653378065224388,-0.4653378065224388,0.9998225312600884,0.00015605843404577994
-0.4651558281388134,-0.4651558281388134,1.0000817725343876,0.00014998709341959015
-0.46494444706404464,-0.46494444706404464,0.9998317198595768,0.0001471495194603877
-0.4648306914656132,-0.4648306914656132,1.0000913531332132,0.00014926682720188496
-0.4647685514515615,-0.4647685514515615,0.9999090173512286,0.00014596001343250643
-0.46472346104565077,-0.46472346104565077,1.0002330847779626,0.00013905136413852847
-0.464628469604213,-0.464628469604213,1.0000014526924788,0.00015039330437900753
-0.46451146570543644,-0.46451146570543644,0.9999447939855927,0.0001475863708258983
-0.4643833136113244,-0.4643833136113244,1.0001048743436862,0.0001507431789923227
-0.46422624340921176,-0.46422624340921176,1.0001631760398506,0.00015147823692270097
-0.46409822968707887,-0.46409822968707887,0.9998232715101926,0.00015580426534433063
-0.4640380963181087,-0.4640380963181087,1.0004107813166279,0.00015295800500074688
-0.46392870602649056,-0.46392870602649056,1.000197423407636,0.00015809916516469933
-0.4637543935335998,-0.4637543935335998,0.9999256698630778,0.00015455572953571842
-0.46357875856629105,-0.46357875856629105,1.0000090380259352,0.00015380058330977678
-0.46343361613253364,-0.46343361613253364,0.9999343305672156,0.00014583473395585222
-0.46330018816006485,-0.46330018816006485,1.0002060524414724,0.00015395745220763966
