time,time,flux,flux_err
-0.4996932767947631,-0.4996932767947631,0.999951346711741,8.428341014478606e-05
-0.4987030923148268,-0.4987030923148268,0.9999371083653695,8.563642134876221e-05
-0.49776462904992513,-0.49776462904992513,1.0000806682208614,8.464262018603338e-05
-0.49693745219216606,-0.49693745219216606,1.000044326450725,8.48583013829656e-05
-0.4964341288374271,-0.4964341288374271,1.0000863764643328,7.721899126885601e-05
-0.4958521973894676,-0.4958521973894676,0.9999318146987847,7.755320792732924e-05
-0.4948630447383039,-0.4948630447383039,1.0000986052759704,7.723884536479342e-05
-0.4942830919084372,-0.4942830919084372,0.9998707284748823,7.718081677829654e-05
-0.49380457935039884,-0.49380457935039884,0.9999501216548043,7.735670299324068e-05
-0.4933492577401921,-0.4933492577401921,1.0000401119258866,7.66708610818118e-05
-0.49243429997877686,-0.49243429997877686,0.9999769390906706,7.741776065430534e-05
-0.4918671136023477,-0.4918671136023477,1.0000809767292118,7.788711824831699e-05
-0.49131403205392415,-0.49131403205392415,1.0001649936431285,7.665407244106709e-05
-0.49030224021989854,-0.49030224021989854,1.0001391465898444,7.738102379503256e-05
-0.48921659499173986,-0.48921659499173986,1.000081345603371,7.759392865376962e-05
-0.4882639652234502,-0.4882639652234502,1.0002264766412954,7.695215306181702e-05
-0.48767548443283887,-0.48767548443283887,1.000064120135215,7.728954167836221e-05
-0.48731064723979217,-0.48731064723979217,0.999822569832791,7.786804286847148e-05
-0.48680451906402594,-0.48680451906402594,0.9999174016198333,7.714030495826546e-05
-0.4859221038554097,-0.4859221038554097,0.9999408187390619,7.782206586992616e-05
-0.48523304061964156,-0.48523304061964156,1.0000395967419151,7.691699327546116e-05
-0.48477122038020753,-0.48477122038020753,1.0000259380578662,7.820606692144898e-05
-0.4840135828475468,-0.4840135828475468,1.0000963844730182,7.694516600152737e-05
-0.4831699113157811,-0.4831699113157811,0.9998862864621444,7.844415847761299e-05
-0.48281527986400763,-0.48281527986400763,1.0000728718125211,7.743764560950884e-05
-0.48230205900617873,-0.48230205900617873,0.999969082362153,7.710181142285558e-05
-0.4813517944130581,-0.4813517944130581,1.000072847752126,7.680351498901605e-05
-0.4805373434093781,-0.4805373434093781,1.000053603321272,7.751943467892255e-05
-0.4798988275055308,-0.4798988275055308,1.000063950931788,7.751925045900536e-05
-0.4790614566736622,-0.4790614566736622,0.9998812655706434,7.685370918950114e-05
-0.47855351800390056,-0.47855351800390056,1.0000694726071573,7.744237697196677e-05
-0.4782559112412855,-0.4782559112412855,1.0000501494327685,7.766964751279198e-05
-0.47748646718100646,-0.47748646718100646,1.0000852499418038,8.182807609643521e-05
-0.4767619618185563,-0.4767619618185563,0.999920220153642,7.766534845849379e-05
-0.4762018428737065,-0.4762018428737065,0.999922383849985,7.74377260312962e-05
-0.47547336778370664,-0.47547336778370664,0.9999303266566189,7.703984929991062e-05
-0.47447630958631637,-0.47447630958631637,1.000128950913163,7.762510147935461e-05
-0.4739880850131158,-0.4739880850131158,0.9999574965148452,7.757945746738132e-05
-0.4737335474783322,-0.4737335474783322,0.9999072964120124,7.693537082124176e-05
-0.4729872567433631,-0.4729872567433631,0.9999949790429404,7.678654683338506e-05
-0.47190284497337415,-0.47190284497337415,1.0000736261350496,7.706656632702663e-05
-0.471344337015762,-0.471344337015762,0.9999461943975817,7.743963214694966e-05
-0.4704545114276698,-0.4704545114276698,0.9999716796230779,7.687739447977098e-05
-0.4696868137369165,-0.4696868137369165,1.0001205825106916,7.757435059857482e-05
-0.46909751601633615,-0.46909751601633615,0.999883816063624,7.734658579765629e-05
-0.46829255935153924,-0.46829255935153924,0.999933339413816,7.975512384735265e-05
-0.4676459105074173,-0.4676459105074173,0.9999291004964274,7.649018493338212e-05
-0.46726478120544923,-0.46726478120544923,1.0000658821748996,7.757112956055137e-05
-0.4665487552410923,-0.4665487552410923,0.9998497853452107,7.704087401692587e-05
-0.46568568537477406,-0.46568568537477406,1.0000113075791037,7.743773286100551e-05
-0.4651621361990692,-0.4651621361990692,0.9999780258972963,7.748503565430218e-05
-0.4648306208400754,-0.4648306208400754,0.9999948200463724,7.788797393675837e-05
-0.46428264725836926,-0.46428264725836926,1.0000611196827491,7.680519401952849e-05
-0.4632414286315907,-0.4632414286315907,1.000053707432284,7.710054481058323e-05
-0.46269044556538574,-0.46269044556538574,0.9998539460145676,7.734701694316629e-05
-0.46210860269202386,-0.46210860269202386,0.9999762838404852,7.735132211866613e-05
-0.46162886199890635,-0.46162886199890635,0.9999357097737711,7.688605353104466e-05
-0.46079657892405523,-0.46079657892405523,0.9999624103698668,7.680975084547536e-05
-0.46031421643565407,-0.46031421643565407,0.9999693711276063,7.784304694948874e-05
-0.4596302736259531,-0.4596302736259531,0.9999073923087979,7.734899971317919e-05
-0.4589414815156488,-0.4589414815156488,1.0002046125714226,7.667242247130406e-05
-0.4581207251088927,-0.4581207251088927,0.9999679163716839,7.786081184833346e-05
-0.4574167853337713,-0.4574167853337713,0.9999596491754748,7.797888862665607e-05
-0.4566171220998513,-0.4566171220998513,0.9999930612711193,7.677586539826337e-05
-0.4559415579569759,-0.4559415579569759,1.0000204913421096,7.826392544649971e-05
-0.45553526462463195,-0.45553526462463195,0.9999026668079217,7.789579466709363e-05
-0.4545780116546666,-0.4545780116546666,1.0001197233137527,7.693963685974332e-05
-0.4536728782579303,-0.4536728782579303,0.9999905465807537,7.739362580699413e-05
-0.45331117714231367,-0.45331117714231367,0.9999394093722886,7.72162856633711e-05
-0.45284030895272737,-0.45284030895272737,1.0001110751952833,7.692522016779816e-05
-0.4518135870312108,-0.4518135870312108,0.9999600193198264,7.692085170855426e-05
-0.4512025628762785,-0.4512025628762785,0.9999587964342028,7.82444345373949e-05
-0.4504887051269179,-0.4504887051269179,1.0001136892719442,7.66608186986897e-05
-0.4496602981816977,-0.4496602981816977,1.0000953215263668,7.692267998283838e-05
-0.4488726990181021,-0.4488726990181021,1.000002032772756,7.780988785644074e-05
-0.44818076507363,-0.44818076507363,1.0000380762121535,7.674701417453684e-05
-0.4472758989344584,-0.4472758989344584,1.0000124414387357,7.732287199550703e-05
-0.44676616896467747,-0.44676616896467747,1.0000621465023236,7.787434708260133e-05
-0.44616878846718466,-0.44616878846718466,1.0001762509777308,7.762875543717468e-05
-0.4455155213305261,-0.4455155213305261,0.9998894238996865,7.709152317845791e-05
-0.444794194077258,-0.444794194077258,0.9999673071129257,7.717533983989482e-05
-0.44427615104941653,-0.44427615104941653,0.9999573957734231,7.737322758553992e-05
-0.4436232347710757,-0.4436232347710757,1.0000367030686916,7.778806281522551e-05
-0.4426186377706472,-0.4426186377706472,1.0000617164460852,7.735834643406786e-05
-0.44222047841467427,-0.44222047841467427,0.9999381615655036,7.778310775180961e-05
-0.44172719001071525,-0.44172719001071525,1.000113151949522,7.710321457575999e-05
-0.44099960308813024,-0.44099960308813024,1.0000366905539715,7.642338119882893e-05
-0.4401214105542749,-0.4401214105542749,0.9999271873806098,7.730532836405087e-05
-0.4395432934863493,-0.4395432934863493,0.9999000517485575,7.712917877869252e-05
-0.4386392361368053,-0.4386392361368053,0.9998761558067596,7.730739673549553e-05
-0.43792818413639906,-0.43792818413639906,0.9999713855371477,7.734407775416066e-05
-0.437543437583372,-0.437543437583372,1.0001458638707574,7.717613470578923e-05
-0.4370565495279152,-0.4370565495279152,1.0000410168761042,7.747937928133507e-05
-0.43639945196046026,-0.43639945196046026,0.9999613147411237,8.343389612362418e-05
-0.43581351891043596,-0.43581351891043596,1.0000521069861272,7.696277684308068e-05
-0.4353601772454567,-0.4353601772454567,0.9999899851034375,7.744837189932834e-05
-0.4343981170153711,-0.4343981170153711,0.9999350714433586,7.747694283056765e-05
-0.4335083627607673,-0.4335083627607673,0.9999401780582418,7.705643626513519e-05
-0.4331902965059271,-0.4331902965059271,0.9999340663016734,7.855838882525772e-05
-0.432681054045679,-0.432681054045679,0.9999527103521997,7.692064110293894e-05
-0.4319391985744005,-0.4319391985744005,1.0001551602910148,7.685609329313416e-05
-0.43100007220054976,-0.43100007220054976,0.9999872195157374,7.753745114612607e-05
-0.4304494913580129,-0.4304494913580129,1.0000354090306591,7.747165267918097e-05
-0.42965295069152487,-0.42965295069152487,0.9999980160991753,7.639032677445457e-05
-0.42890647301392165,-0.42890647301392165,0.9998750917988926,7.756800839253332e-05
-0.4283181710925419,-0.4283181710925419,1.0000031697322558,7.735236818301287e-05
-0.42750889145827387,-0.42750889145827387,1.0001288591237778,8.027862969488893e-05
-0.42681574617163276,-0.42681574617163276,1.0000577990749862,7.659306365403603e-05
-0.4264815951057244,-0.4264815951057244,1.0000334932690151,7.775189747795141e-05
-0.42568971998116467,-0.42568971998116467,0.9999326534152809,7.763845968586311e-05
-0.4247297469060868,-0.4247297469060868,0.9999248699812,7.758680148597683e-05
-0.4244100524461828,-0.4244100524461828,0.9999550616290096,7.691320013904661e-05
-0.42416888347652276,-0.42416888347652276,1.000008162645562,7.74072454508329e-05
-0.42359122343477795,-0.42359122343477795,0.9999570361121718,7.73162458881411e-05
-0.4226199953147443,-0.4226199953147443,0.9999559833338878,7.712535788828394e-05
-0.4217900301911868,-0.4217900301911868,1.0000036761825815,7.747470780209177e-05
-0.4212025904271286,-0.4212025904271286,1.0001976632492586,7.687505278892106e-05
-0.42052738640923054,-0.42052738640923054,1.0000514156518359,7.669448447747751e-05
-0.4198780874692602,-0.4198780874692602,0.999890421983862,7.735569858151194e-05
-0.41942874120140916,-0.41942874120140916,1.000078037653584,7.784136560951912e-05
-0.4185847739019664,-0.4185847739019664,0.9998326385068845,7.727450725720693e-05
-0.417854976200033,-0.417854976200033,0.9999456714854571,7.705703089249548e-05
-0.4169805029552663,-0.4169805029552663,0.9999899556623653,7.832084040182799e-05
-0.41592791211442093,-0.41592791211442093,1.0000080077294857,7.681501555288526e-05
-0.4153361289383611,-0.4153361289383611,1.000073237081112,7.751101769444133e-05
-0.4149466329312418,-0.4149466329312418,1.000056014798774,7.863896846882865e-05
-0.4142691810237011,-0.4142691810237011,1.0000980331166418,7.681808327041618e-05
-0.4132666323101148,-0.4132666323101148,0.9998925378306576,7.70595965487279e-05
-0.41260526011465115,-0.41260526011465115,0.9999108921130715,7.763021452748761e-05
-0.4121442017552909,-0.4121442017552909,0.9999914549841673,7.6892443937134e-05
-0.4115513913886389,-0.4115513913886389,0.9999951263503759,7.700111047870387e-05
-0.4108203641109867,-0.4108203641109867,1.0000395667499404,7.737599738115339e-05
-0.4104337410768494,-0.4104337410768494,1.0000773037328465,7.770460686986006e-05
-0.4097562477487372,-0.4097562477487372,0.9999984969469295,7.67861832055195e-05
-0.409097150733578,-0.409097150733578,1.0000179972122476,7.697246274320638e-05
-0.4083396831294522,-0.4083396831294522,1.0000548238639118,7.741852618768195e-05
-0.40764425037195906,-0.40764425037195906,1.000134211486141,7.776889073471642e-05
-0.40679989228374325,-0.40679989228374325,1.0000447360905862,7.681386257914097e-05
-0.40614080347004344,-0.40614080347004344,1.0001115622180923,7.779668982827877e-05
-0.4057263768452685,-0.4057263768452685,0.999944285621309,7.751444150846555e-05
-0.4050286755838897,-0.4050286755838897,1.0000234225048863,7.737506902338389e-05
-0.40418508372677026,-0.40418508372677026,0.9999668898416599,7.737094354590836e-05
-0.403685466866591,-0.403685466866591,1.0000003665873496,7.763329705967774e-05
-0.4032073590118671,-0.4032073590118671,1.0000809509032536,7.69894298880962e-05
-0.4024794033553917,-0.4024794033553917,0.9998695233069096,7.683915666583668e-05
-0.4017346901149722,-0.4017346901149722,0.9998229638879309,7.795474147317444e-05
-0.4013476327963872,-0.4013476327963872,0.9999459365319543,7.747857672987453e-05
-0.4008024726790609,-0.4008024726790609,0.9999385721070938,7.669170912922492e-05
-0.3998065791034605,-0.3998065791034605,1.0000132419805845,7.728936246557701e-05
-0.3989611032127868,-0.3989611032127868,1.0000924176843198,7.749428072737615e-05
-0.3980746677669231,-0.3980746677669231,1.0000343349638459,7.695370949578326e-05
-0.39723231927200686,-0.39723231927200686,1.0000132491930325,7.732976987108618e-05
-0.39682315720128825,-0.39682315720128825,0.9999186041987249,7.753068342685613e-05
-0.3962144888850162,-0.3962144888850162,0.9998715795547849,7.695861037706597e-05
-0.3951950401475187,-0.3951950401475187,1.0000599921001698,7.766483570242512e-05
-0.39467344845761543,-0.39467344845761543,0.9998716234332024,7.698741072884609e-05
-0.3942400780157186,-0.3942400780157186,0.9999652623920049,7.777737189924881e-05
-0.39327504230313937,-0.39327504230313937,1.0000394074934942,7.700538287106403e-05
-0.3926039243757259,-0.3926039243757259,1.0000628232515445,7.858688226108305e-05
-0.3922434675565455,-0.3922434675565455,0.9999484412577401,7.709599683812518e-05
-0.39154398181126454,-0.39154398181126454,0.999964460260669,7.691018124008158e-05
-0.39077745530230457,-0.39077745530230457,1.0000156633810406,7.733446944064613e-05
-0.3901246943307342,-0.3901246943307342,1.000129997918878,7.716372135383599e-05
-0.3894569733965909,-0.3894569733965909,0.999968448544346,7.779930128774729e-05
-0.38859313003486023,-0.38859313003486023,0.9999557149641468,7.642120017713316e-05
-0.3880913437140407,-0.3880913437140407,1.000025792171812,7.756664435152973e-05
-0.3876469811220886,-0.3876469811220886,0.999972754507537,7.746847311158517e-05
-0.38700975840329194,-0.38700975840329194,0.99996055957869,8.096663632293186e-05
-0.3862140145531157,-0.3862140145531157,0.9999642675673777,7.690749667024733e-05
-0.3856983718811534,-0.3856983718811534,0.9999932726550875,7.786800366810333e-05
-0.3849117096659029,-0.3849117096659029,1.000021891305227,7.745432449090533e-05
-0.38413696543721015,-0.38413696543721015,1.0001815112920414,7.757553351493327e-05
-0.38364295702485834,-0.38364295702485834,0.9999465705006203,7.71051427953269e-05
-0.38347080362727864,-0.38347080362727864,0.9999879113188538,7.681422141695033e-05
-0.3830549277365208,-0.3830549277365208,1.000046109191088,7.742006669406783e-05
-0.382084193060291,-0.382084193060291,1.000073262772608,7.702249814086585e-05
-0.38104676243965513,-0.38104676243965513,1.0000263747200386,7.792073264431963e-05
-0.38044205083278937,-0.38044205083278937,1.0000247804314093,7.683521631003257e-05
-0.37972230739542284,-0.37972230739542284,0.9998858464213848,7.686650606478844e-05
-0.3791456930048298,-0.3791456930048298,1.0000954201214838,7.713892179755309e-05
-0.3786709697364131,-0.3786709697364131,0.9999567933483504,7.734213420689204e-05
-0.37787164249457417,-0.37787164249457417,0.9999440144131355,7.923632420238462e-05
-0.3770762845466379,-0.3770762845466379,1.0001031047808284,7.698258238542876e-05
-0.37623095047893,-0.37623095047893,0.9999459494323345,7.816722379114799e-05
-0.37513542313827203,-0.37513542313827203,1.000004927315296,7.680722555904864e-05
-0.37464676730742213,-0.37464676730742213,1.0001258712792194,7.739917715499323e-05
-0.3742777328734519,-0.3742777328734519,1.0000876592353485,7.900766431232429e-05
-0.3737703869643155,-0.3737703869643155,1.0000474398255226,7.729939939934937e-05
-0.372579415992368,-0.372579415992368,1.0000048907889478,7.772152924104392e-05
-0.3720002421789104,-0.3720002421789104,1.0001264763245237,7.699095498173703e-05
-0.3715950741287088,-0.3715950741287088,0.9998822181341099,7.780423067910192e-05
-0.3709337400534423,-0.3709337400534423,1.0000068975349443,7.687153830610858e-05
-0.3701507531630341,-0.3701507531630341,0.9999276907478423,7.733582697405444e-05
-0.3696560807089554,-0.3696560807089554,0.9999753416747508,7.771941537796596e-05
-0.3688381659187144,-0.3688381659187144,0.9999742272463319,7.663130656960329e-05
-0.3680745326419128,-0.3680745326419128,1.000172361877804,7.737346236761637e-05
-0.36724344788235613,-0.36724344788235613,1.0000534111120245,7.814583136763895e-05
-0.3663205585151445,-0.3663205585151445,1.0000289039034758,7.690927802906416e-05
-0.3654752044210909,-0.3654752044210909,0.9999238071048525,7.778374942892668e-05
-0.36517164393735585,-0.36517164393735585,0.9999428744664662,7.764840704160113e-05
-0.3645133924524998,-0.3645133924524998,1.0000722409266407,7.714224749856539e-05
-0.36366510507068595,-0.36366510507068595,1.0000585983294303,7.722905992492413e-05
-0.36308352537162136,-0.36308352537162136,0.9999665532110311,7.718349577560604e-05
-0.36266636407526676,-0.36266636407526676,0.9998917844350341,7.686899134088442e-05
-0.3621114485751605,-0.3621114485751605,1.0000541298840389,7.701402715086419e-05
-0.36107582977274433,-0.36107582977274433,0.9999209951140049,7.787763124680823e-05
-0.3605709951079916,-0.3605709951079916,0.9999794982046444,7.746767376383901e-05
-0.36001029975595883,-0.36001029975595883,1.000008709209201,7.678265642692376e-05
-0.3593103491119109,-0.3593103491119109,1.0000366176948412,7.653962115148168e-05
-0.35838514877832495,-0.35838514877832495,0.9999829615518244,7.752652147356785e-05
-0.35763355522358325,-0.35763355522358325,1.000044399008628,7.742702807443107e-05
-0.3568141947936965,-0.3568141947936965,0.9999962015946,7.645663204599538e-05
-0.356380112352781,-0.356380112352781,0.9999091696053755,7.732923259304953e-05
-0.3559161087614484,-0.3559161087614484,1.000000856552682,7.764305665401045e-05
-0.3549494834471261,-0.3549494834471261,1.0000535581894154,7.716180055200883e-05
-0.35413087701017504,-0.35413087701017504,1.0000547388611016,7.734862824136974e-05
-0.3537331154686399,-0.3537331154686399,0.9999573766646034,7.756091679252083e-05
-0.3533328276622342,-0.3533328276622342,0.9999804165264802,7.731293744198051e-05
-0.352215826723841,-0.352215826723841,1.0001505321238446,7.783667743471667e-05
-0.3517880938074086,-0.3517880938074086,0.9999467359347382,7.802588301717796e-05
-0.3513311113842065,-0.3513311113842065,1.0000662214258738,7.710326324475965e-05
-0.3505791327886982,-0.3505791327886982,1.0000292803297584,7.64053773577792e-05
-0.3495538386458065,-0.3495538386458065,1.0001341053155526,7.749122336827931e-05
-0.3489834621112095,-0.3489834621112095,1.0000148585681838,7.745721331704548e-05
-0.34815907003649044,-0.34815907003649044,1.0000226563538805,7.69154619113418e-05
-0.3474925127928145,-0.3474925127928145,1.000096352938008,7.784415823559829e-05
-0.3471487224654993,-0.3471487224654993,0.9999520844207848,7.719953123240089e-05
-0.3464211221842561,-0.3464211221842561,1.000009346870929,8.190899516776384e-05
-0.3457295736297965,-0.3457295736297965,0.999862980864723,7.716327263454902e-05
-0.34509574828261974,-0.34509574828261974,1.0000252517009591,7.743325657421628e-05
-0.3445593688462395,-0.3445593688462395,1.0000538962153536,7.745226152595483e-05
-0.3435858371522045,-0.3435858371522045,0.9999930964650805,7.723375082565577e-05
-0.3429057610715972,-0.3429057610715972,0.9999706504999974,7.713620209746878e-05
-0.3426504709670553,-0.3426504709670553,1.000013515435151,7.730610566466083e-05
-0.3421034893050091,-0.3421034893050091,0.9999299890582861,7.693334799205057e-05
-0.34105020413990134,-0.34105020413990134,1.0001156346054576,7.749626667059041e-05
-0.34033629299665336,-0.34033629299665336,1.0000059288266805,7.747935130240142e-05
-0.33962330260837914,-0.33962330260837914,1.000132134402786,7.731534282233665e-05
-0.338765233734739,-0.338765233734739,1.000099218315644,7.666434330708889e-05
-0.3381453554466134,-0.3381453554466134,1.0002389880415579,7.780131117515007e-05
-0.33739606372255365,-0.33739606372255365,1.0000184304319577,7.964044972675423e-05
-0.33661819886474403,-0.33661819886474403,0.9999415365441754,7.690306902415178e-05
-0.3360599692474352,-0.3360599692474352,0.9999438908677185,7.749658973789176e-05
-0.33533906952070536,-0.33533906952070536,1.0000812506636751,7.756958190338899e-05
-0.33428666268009694,-0.33428666268009694,0.9999627391216295,7.679537931366658e-05
