time,time,flux,flux_err
-0.4983628598798532,-0.4983628598798532,1.0000062238859686,5.315861919956786e-05
-0.4965045052726055,-0.4965045052726055,1.0000173705049604,5.319388129961173e-05
-0.4936087420544936,-0.4936087420544936,0.9999316737067584,5.30606143094468e-05
-0.4912822393031092,-0.4912822393031092,1.0000610826640084,5.329328663237498e-05
-0.48964936761476563,-0.48964936761476563,0.9999919301718119,5.3143758344590265e-05
-0.48833086847298546,-0.48833086847298546,1.000055595726106,5.3207047699590365e-05
-0.48647203331929634,-0.48647203331929634,0.999853833369104,5.32285709563175e-05
-0.48435132487793453,-0.48435132487793453,1.0000330153522676,5.317844009192202e-05
-0.4836995021309122,-0.4836995021309122,0.9999366970735274,5.3301911393531706e-05
-0.48245880499744087,-0.48245880499744087,1.0000719932064794,5.3241756956420614e-05
-0.48135673143988245,-0.48135673143988245,0.9999841216706121,5.317738956640574e-05
-0.4785721477397601,-0.4785721477397601,0.999981384165112,5.3162017205193606e-05
-0.47594692987622694,-0.47594692987622694,1.0000587340092761,5.3444743246374004e-05
-0.47452260553691306,-0.47452260553691306,0.999997516550607,5.340256685678372e-05
-0.4725693647065782,-0.4725693647065782,0.9999599160899681,5.313235010257611e-05
-0.470752631832147,-0.470752631832147,1.0000653037212892,5.319573980847819e-05
-0.46972363000822953,-0.46972363000822953,1.0001395693539963,5.311380981440404e-05
-0.4684180297481362,-0.4684180297481362,0.9999739796432145,5.3135736360641095e-05
-0.4660878192662494,-0.4660878192662494,1.00002080339832,5.314276069555485e-05
-0.4634540470447973,-0.4634540470447973,0.9999878146054713,5.313208898847677e-05
-0.46279134743090256,-0.46279134743090256,0.9999497991107464,5.3186384397931314e-05
-0.4612647846675827,-0.4612647846675827,1.0000037598318845,5.319074441548225e-05
-0.4597718321936554,-0.4597718321936554,0.9999386520181645,5.339553055935145e-05
-0.45765396692731886,-0.45765396692731886,0.999956840748595,5.3170704864841835e-05
-0.45590127796604063,-0.45590127796604063,0.9999817564475286,5.312280224317017e-05
-0.45502823217975674,-0.45502823217975674,1.000004790233527,5.319854013127494e-05
-0.4536614313299651,-0.4536614313299651,0.9999476117523456,5.3132912731412266e-05
-0.45138483803893903,-0.45138483803893903,1.0000156840648275,5.307683569122791e-05
-0.4493945391921443,-0.4493945391921443,1.0000303201787388,5.327141083246667e-05
-0.44795064820355035,-0.44795064820355035,1.000074558675578,5.321238061643361e-05
-0.4462494856707053,-0.4462494856707053,0.9999783240486254,5.3132853947023234e-05
-0.4429058865644038,-0.4429058865644038,0.9998627754747418,5.337360015979338e-05
-0.44096509502269327,-0.44096509502269327,1.0000154603143083,5.3074476440719885e-05
-0.4393394692902802,-0.4393394692902802,1.0000708071468072,5.3153777334809935e-05
-0.437329446466174,-0.437329446466174,1.000020764290645,5.30521528790904e-05
-0.4356155153029249,-0.4356155153029249,1.0000156129033708,5.3260673159578564e-05
-0.43407310079055605,-0.43407310079055605,0.9999879762669991,5.3143440603292745e-05
-0.4332905424264027,-0.4332905424264027,1.000026661781119,5.3344123104330945e-05
-0.43173761025827845,-0.43173761025827845,1.0000536105611946,5.33040707546583e-05
-0.4293789961899165,-0.4293789961899165,1.0000620567307634,5.3212989477542976e-05
-0.42733442833123264,-0.42733442833123264,1.0001099829907771,5.330353491748786e-05
-0.425898103461077,-0.425898103461077,0.9999957396829293,5.3173286717616934e-05
-0.4238492685195524,-0.4238492685195524,0.9999496229732967,5.3344558582881524e-05
-0.4218912861731951,-0.4218912861731951,1.0000098825677983,5.3175249351314436e-05
-0.42046200114273236,-0.42046200114273236,0.9999313962605271,5.325539066422351e-05
-0.41841284137335605,-0.41841284137335605,0.999985513782151,5.313902146712369e-05
-0.41688420191348996,-0.41688420191348996,0.9999267580483917,5.322823716163899e-05
-0.4143674748338526,-0.4143674748338526,0.9999206288355633,5.3135534631682565e-05
-0.41272995340987106,-0.41272995340987106,0.9999027272080628,5.317221496711918e-05
-0.4106402024408453,-0.4106402024408453,0.9998995268602732,5.3208495245550376e-05
-0.4080049069089,-0.4080049069089,1.0000078895854094,5.411236188442351e-05
-0.4067871621839004,-0.4067871621839004,0.9999951190016819,5.309249912590952e-05
-0.40570190862054006,-0.40570190862054006,1.0000675959728935,5.3145797720659474e-05
-0.40450821050908414,-0.40450821050908414,0.9999972993269738,5.338282273620212e-05
-0.40312588031811175,-0.40312588031811175,0.9999746445565509,5.3454191656967945e-05
-0.39965450301679084,-0.39965450301679084,1.0000228202835333,5.315026199721291e-05
-0.3988274619230651,-0.3988274619230651,0.9999177266930541,5.311111523948952e-05
-0.3972020323039033,-0.3972020323039033,0.9998807243491437,5.313881637572374e-05
-0.39496763103961713,-0.39496763103961713,1.0000250121530627,5.319203028585668e-05
-0.39231806231691735,-0.39231806231691735,0.9999585386677747,5.314718111913742e-05
-0.3903666443147813,-0.3903666443147813,0.9999826823561435,5.320391466538792e-05
-0.3882762088760501,-0.3882762088760501,1.0000382847841622,5.32132894822309e-05
-0.386282791904523,-0.386282791904523,1.0000746996285208,5.313784515647162e-05
-0.3857453274555155,-0.3857453274555155,0.9999131925232962,5.323581078239412e-05
-0.3845762799930526,-0.3845762799930526,0.9998869368637185,5.3356407068576894e-05
-0.38368453392904484,-0.38368453392904484,1.000009063154414,5.3125599400585065e-05
-0.38281051273224875,-0.38281051273224875,1.000032135454449,5.3158269992474444e-05
-0.3802116101505817,-0.3802116101505817,0.9999748371779746,5.3096046075221866e-05
-0.378073890133237,-0.378073890133237,0.9999235106986909,5.3224154631841014e-05
-0.3762069474963937,-0.3762069474963937,0.9999378444124043,5.357701022012905e-05
-0.3729415374546079,-0.3729415374546079,0.9999839295943179,5.319046475088054e-05
-0.3714455323352013,-0.3714455323352013,1.000010950402305,5.310995620339307e-05
-0.3702548749846756,-0.3702548749846756,1.000061476140354,5.319913153826837e-05
-0.36825505195738517,-0.36825505195738517,0.9999302258080899,5.321030927374959e-05
-0.3656114026904106,-0.3656114026904106,1.000095777877416,5.309834406716218e-05
-0.36463715828576826,-0.36463715828576826,1.000035062044556,5.318026546385076e-05
-0.3631815952612669,-0.3631815952612669,0.9999583333285302,5.320339800243534e-05
-0.36080184229358564,-0.36080184229358564,1.0001507708187956,5.321259364958504e-05
-0.35819473338342506,-0.35819473338342506,0.9999899814886802,5.3074772380694424e-05
-0.3570326819535694,-0.3570326819535694,1.0000305485725811,5.3247166395051716e-05
-0.35532788695418277,-0.35532788695418277,1.0000287086507644,5.311874079085562e-05
-0.3529487722815247,-0.3529487722815247,1.0000596303967257,5.3058500566150066e-05
-0.3510589694706141,-0.3510589694706141,0.9999614641836209,5.320431631056294e-05
-0.34933081840135854,-0.34933081840135854,0.9999103249382271,5.316659652732864e-05
-0.34744097691145726,-0.34744097691145726,0.9999906817101503,5.312021779520922e-05
-0.3443960671284003,-0.3443960671284003,1.0000307603364855,5.325163226906812e-05
-0.34269206308526917,-0.34269206308526917,0.9998369996750066,5.309839567463843e-05
-0.34135453643975777,-0.34135453643975777,0.9999868841594403,5.3121137134664696e-05
-0.3396411033172626,-0.3396411033172626,0.9999730044824412,5.3201744868253565e-05
-0.3384100329858484,-0.3384100329858484,1.0000061982873523,5.31187515281692e-05
-0.3364833949308377,-0.3364833949308377,0.9999230345653247,5.317617734638204e-05
-0.33539240875688847,-0.33539240875688847,0.9999459497368857,5.3363650646093674e-05
-0.33362469605053774,-0.33362469605053774,0.9999075901377765,5.313725238568868e-05
-0.3313884725430398,-0.3313884725430398,1.0000499013758817,5.319051745982605e-05
-0.32946576604008443,-0.32946576604008443,1.0000166313328038,5.316964441008338e-05
-0.3272295133108855,-0.3272295133108855,1.0000084566773029,5.31740655609866e-05
-0.32451586927491005,-0.32451586927491005,1.0000128751727195,5.3109251136451644e-05
-0.3221733810409205,-0.3221733810409205,1.0000520337148102,5.310332411603033e-05
-0.3202253602270503,-0.3202253602270503,1.000021215084393,5.335422951038161e-05
-0.3186910933247418,-0.3186910933247418,1.0000257901670344,5.3252350025625656e-05
-0.31531726904941026,-0.31531726904941026,1.000048896297835,5.315726619214696e-05
-0.3135050657772808,-0.3135050657772808,0.9999595284235234,5.3138656401623924e-05
-0.3113009697466623,-0.3113009697466623,0.9999632873945583,5.3109223574157224e-05
-0.3083800759792211,-0.3083800759792211,1.0000806931414967,5.30986704529387e-05
-0.30645762482454303,-0.30645762482454303,0.9999530824761779,5.319250146124922e-05
-0.3049059153796406,-0.3049059153796406,0.9999728823548182,5.320559355400608e-05
-0.3018941911563161,-0.3018941911563161,1.0000363462252462,5.313949966527157e-05
-0.3009215323923854,-0.3009215323923854,0.9999764452707168,5.334630091776057e-05
-0.2996438158937963,-0.2996438158937963,0.9999768395719333,5.3196349118583974e-05
-0.29859573319845367,-0.29859573319845367,0.9999247929299846,5.321248915021375e-05
-0.29597549318277744,-0.29597549318277744,0.9999022474424635,5.316053253621918e-05
-0.29336290412466043,-0.29336290412466043,1.0000010978833913,5.3402157074200585e-05
-0.2919537480323925,-0.2919537480323925,0.9999079126352786,5.339150201786919e-05
-0.2907287865062244,-0.2907287865062244,1.0001154466191466,5.337237101886369e-05
-0.28859009454754414,-0.28859009454754414,1.0000860263750595,5.314516377506324e-05
-0.2874499656187254,-0.2874499656187254,0.999944121363626,5.312607034405674e-05
-0.28607095959596335,-0.28607095959596335,0.9999658130334724,5.319932137144599e-05
-0.284654057136504,-0.284654057136504,0.9999661684937327,5.3144477929121346e-05
-0.28139849979634163,-0.28139849979634163,0.9999837969435512,5.30534524858616e-05
-0.2799518203974003,-0.2799518203974003,1.0000447013342344,5.320474064237871e-05
-0.27877742106211373,-0.27877742106211373,0.9999615127742366,5.318340808439593e-05
-0.276789904612815,-0.276789904612815,0.9999834010862994,5.3209344057977324e-05
-0.27410823180835,-0.27410823180835,0.9999068626906544,5.3116420263388934e-05
-0.27257783456443574,-0.27257783456443574,0.9999444250490483,5.3204137470599887e-05
-0.27137491931935076,-0.27137491931935076,1.0000154471062896,5.3150226169087505e-05
-0.2701442431047326,-0.2701442431047326,0.9999790037854087,5.313662241283262e-05
-0.26705907854484395,-0.26705907854484395,1.00005904858421,5.3115281414487405e-05
-0.26560565529216545,-0.26560565529216545,0.9999065623752683,5.3138782862306026e-05
-0.26387464429571994,-0.26387464429571994,1.00004493718708,5.317551450801767e-05
-0.2598606354702497,-0.2598606354702497,0.9999710774022266,5.3375096778927e-05
-0.25808616065623935,-0.25808616065623935,1.0000085547358069,5.306710533420603e-05
-0.25658641042828095,-0.25658641042828095,0.9998888772024053,5.311739171537421e-05
-0.255105612637999,-0.255105612637999,0.9999550229308791,5.332137342768744e-05
-0.2536898001402733,-0.2536898001402733,0.9999184332159732,5.310281677774972e-05
-0.25178092694841325,-0.25178092694841325,0.9999373601019428,5.320202670877635e-05
-0.25067026673641524,-0.25067026673641524,0.9999574166297762,5.3444072498238666e-05
-0.24931786342058332,-0.24931786342058332,0.9999967484960797,5.317369610131257e-05
-0.24746162619703682,-0.24746162619703682,0.9999456161684203,5.322912738984812e-05
-0.24557516997447237,-0.24557516997447237,0.9998702850344348,5.31613101718023e-05
-0.24390833782381377,-0.24390833782381377,0.9999334799945743,5.331758943198865e-05
-0.24245630954537772,-0.24245630954537772,0.9999498943470819,5.321017853000021e-05
-0.2401315672614146,-0.2401315672614146,1.0001095351161466,5.310868754011942e-05
-0.23778516367601696,-0.23778516367601696,0.9998613683764759,5.317716490045407e-05
-0.23669712191040163,-0.23669712191040163,1.0000823682610875,5.327791073037179e-05
-0.23463714218669338,-0.23463714218669338,0.9999421613744574,5.311456828078574e-05
-0.23299771721358412,-0.23299771721358412,0.999992431937979,5.327254738587759e-05
-0.23051756165805273,-0.23051756165805273,1.0000724463605635,5.314072122616909e-05
-0.2289570327338879,-0.2289570327338879,0.9999762915969006,5.317050721933004e-05
-0.2270582060184097,-0.2270582060184097,0.9999880026991347,5.322546181155596e-05
-0.22422740154288476,-0.22422740154288476,1.0000225570481154,5.31031636768399e-05
-0.22278124761505752,-0.22278124761505752,0.999967826473487,5.3118280450621495e-05
-0.2213408260635333,-0.2213408260635333,1.000091960286166,5.3341765417610454e-05
-0.22007195166224847,-0.22007195166224847,0.9999759802091704,5.3210312751128876e-05
-0.21660856556263752,-0.21660856556263752,1.000010149767403,5.3148492270584674e-05
-0.215242041311285,-0.215242041311285,1.000031242567236,5.3146598371496316e-05
-0.2133835029642796,-0.2133835029642796,1.000022712556523,5.311486295982318e-05
-0.21126000885269605,-0.21126000885269605,0.9999848992181484,5.320037633144211e-05
-0.20842094336258016,-0.20842094336258016,0.9998465897132984,5.3215683444566685e-05
-0.20676602119638118,-0.20676602119638118,1.0000893715096095,5.3405483537405e-05
-0.2043245608336292,-0.2043245608336292,0.9999960269515746,5.313821514795748e-05
-0.2029783720674459,-0.2029783720674459,1.0000005453229355,5.3139124543253735e-05
-0.20206389001687058,-0.20206389001687058,0.9999977222145185,5.33863204051574e-05
-0.20099287263583393,-0.20099287263583393,0.9999882664073219,5.3234356218688084e-05
-0.19991963009524624,-0.19991963009524624,0.9999750173626625,5.308019900334393e-05
-0.1973507133909152,-0.1973507133909152,1.0000154083556605,5.332998729625875e-05
-0.1953373069583904,-0.1953373069583904,0.9999275368588927,5.3200408940178445e-05
-0.1945080211997265,-0.1945080211997265,0.9999716182423418,5.3381785169951106e-05
-0.19247801880264886,-0.19247801880264886,1.0000953111344302,5.340151279223917e-05
-0.1893397655643639,-0.1893397655643639,0.9999664407431341,5.311720607820886e-05
-0.18811552837869386,-0.18811552837869386,0.9999647954295705,5.419777766914049e-05
-0.18725544974004152,-0.18725544974004152,1.000045374893015,5.3252642533601714e-05
-0.18592939699155978,-0.18592939699155978,1.0000884092036029,5.315718243762295e-05
-0.18461597772839014,-0.18461597772839014,1.0000370758852637,5.3185094567286896e-05
-0.18202517687896033,-0.18202517687896033,1.0000145830950269,5.316071194459358e-05
-0.18084141278231983,-0.18084141278231983,1.0000595839191362,5.3138722900527984e-05
-0.17913688010448822,-0.17913688010448822,0.9998615427070362,5.317028610290986e-05
-0.17606842505629175,-0.17606842505629175,1.0000512545782507,5.316260667339574e-05
-0.17424312710063533,-0.17424312710063533,1.0000133976979222,5.315453755940507e-05
-0.17301761844573776,-0.17301761844573776,0.9999773909840963,5.3114781911730486e-05
-0.17140352319838711,-0.17140352319838711,1.0000241576457807,5.315687515492398e-05
-0.16886011388123734,-0.16886011388123734,1.000040041383717,5.310401425846176e-05
-0.16732281197764678,-0.16732281197764678,0.9999319299527908,5.3151325466155864e-05
-0.165703870858124,-0.165703870858124,1.0000668143877152,5.3161938888482254e-05
-0.16363403169671073,-0.16363403169671073,1.000070256543467,5.319677361325265e-05
-0.16093286992545472,-0.16093286992545472,0.9999433953410893,5.3193617743682735e-05
-0.15954900380602338,-0.15954900380602338,1.0000573831651456,5.312130491463226e-05
-0.15807969253510237,-0.15807969253510237,1.0000784800928826,5.317599813337401e-05
-0.1562609925691504,-0.1562609925691504,0.9999627296261909,5.3141991102614066e-05
-0.15421505468402757,-0.15421505468402757,0.9999233696282017,5.32280120113535e-05
-0.15292271712678485,-0.15292271712678485,0.9999245174997622,5.316740571037957e-05
-0.15147752384800697,-0.15147752384800697,0.9999578076838743,5.3323204565583e-05
-0.14957608122640523,-0.14957608122640523,0.9999167639228916,5.3153521260541794e-05
-0.14684172361157835,-0.14684172361157835,1.0000401243309704,5.3168022529031175e-05
-0.14491182085766924,-0.14491182085766924,0.9998640707797468,5.317382139531254e-05
-0.1428192686929833,-0.1428192686929833,0.9999992808507315,5.31564439058815e-05
-0.14003424678521698,-0.14003424678521698,1.0001302947635284,5.308605405523096e-05
-0.13848691931343637,-0.13848691931343637,0.9999296014435132,5.317914597506891e-05
-0.13640620801452313,-0.13640620801452313,0.9998999189898491,5.335500767456531e-05
-0.13452044584118994,-0.13452044584118994,0.9999455203165282,5.322345833221007e-05
-0.13150658289087006,-0.13150658289087006,1.0000235859862352,5.314507879415959e-05
-0.12943107076862362,-0.12943107076862362,0.9999522453983735,5.3128737959570795e-05
-0.1263417787704384,-0.1263417787704384,0.9999393434724164,5.3144969162618896e-05
-0.1245424102904508,-0.1245424102904508,0.9999789666572413,5.312957465512415e-05
-0.12271916870231507,-0.12271916870231507,0.9999624721339107,5.3198895739854754e-05
-0.12076259103341727,-0.12076259103341727,1.000060276940189,5.317771073140513e-05
-0.11826007350318832,-0.11826007350318832,0.9998872828595072,5.317319418519252e-05
-0.1174179316876689,-0.1174179316876689,0.9999288964381771,5.328782642492705e-05
-0.116197142303281,-0.116197142303281,0.9999522694289633,5.323322895988966e-05
-0.11512683650216786,-0.11512683650216786,1.0000794981574372,5.314603759971012e-05
-0.11285280003212392,-0.11285280003212392,1.0000621656552124,5.3195737003349355e-05
-0.10985494401975301,-0.10985494401975301,0.999946582320167,5.344516055607797e-05
-0.10843171942833578,-0.10843171942833578,0.9999887031513361,5.33994553962774e-05
-0.10636632433597697,-0.10636632433597697,1.0000384699098785,5.31379712427782e-05
-0.10473022017395124,-0.10473022017395124,0.9999820988098064,5.3227293706865595e-05
-0.10394489966274705,-0.10394489966274705,1.0000073810500474,5.308635540777729e-05
-0.1025942478896468,-0.1025942478896468,1.0000002978858058,5.318343441337811e-05
-0.10067442908912198,-0.10067442908912198,1.000009192754902,5.3105558663307646e-05
-0.09768620768445543,-0.09768620768445543,0.9999671229068685,5.309398744465916e-05
-0.09681859564880142,-0.09681859564880142,1.0000156237727484,5.31809160551853e-05
-0.09517431409913116,-0.09517431409913116,1.0000023098532338,5.3149565266137245e-05
-0.09253594050678657,-0.09253594050678657,0.9999946772131374,5.3226033387261145e-05
-0.09040449189342326,-0.09040449189342326,1.0000656762442752,5.311523390190302e-05
-0.08902886136784219,-0.08902886136784219,1.000016520538019,5.340487277709525e-05
-0.08760749179782579,-0.08760749179782579,0.9999371464877639,5.312608892198434e-05
-0.08586763270723168,-0.08586763270723168,1.0000148657710173,5.305747612518595e-05
-0.08324394520896021,-0.08324394520896021,1.0000072412225918,5.3199388442729185e-05
-0.08174269655428361,-0.08174269655428361,1.0000088532646343,5.3190829605308506e-05
-0.07931677653832594,-0.07931677653832594,0.9999557787427698,5.318758465136082e-05
-0.07600891037436668,-0.07600891037436668,0.9999753279615564,5.332511678220823e-05
-0.07411328898160718,-0.07411328898160718,0.9999750994895373,5.3130250017561275e-05
-0.07278656887792749,-0.07278656887792749,1.0000090117009068,5.311939844003005e-05
-0.0712347166321706,-0.0712347166321706,1.0000388066973582,5.3053122419622225e-05
-0.0695249031574349,-0.0695249031574349,1.0000663190256187,5.326345842799938e-05
-0.06797601236758055,-0.06797601236758055,1.0000331784645602,5.317325142702464e-05
-0.06683074845786904,-0.06683074845786904,0.999977038704284,5.340078783948075e-05
-0.06493747296772198,-0.06493747296772198,1.0000308771240043,5.322062278795109e-05
-0.06272345647303154,-0.06272345647303154,1.0000111927686706,5.321949371518002e-05
-0.0609895341534866,-0.0609895341534866,1.0000303457275037,5.308528695405467e-05
-0.05915929136681371,-0.05915929136681371,1.0001549602256372,5.320628989740659e-05
-0.057420799961255396,-0.057420799961255396,0.999972134382133,5.33303169190375e-05
-0.05496016549150227,-0.05496016549150227,0.9999770624138037,5.313308234308326e-05
-0.05321158110164106,-0.05321158110164106,0.999943755480502,5.331121144083643e-05
-0.05132315158552956,-0.05132315158552956,1.0000824282218321,5.313131039486018e-05
