time,time,flux,flux_err
-0.4997947221175612,-0.4997947221175612,1.000082230343242,9.789919452976681e-05
-0.49944549512001685,-0.49944549512001685,0.999856820529487,8.878596577033966e-05
-0.49917628951588994,-0.49917628951588994,0.9999062402207333,8.892198089217896e-05
-0.49853530761174625,-0.49853530761174625,1.0000777594593315,8.885922172174491e-05
-0.497442650746234,-0.497442650746234,1.0000318955399254,8.527872617847651e-05
-0.49621890184789663,-0.49621890184789663,1.000224834002745,8.778681665655895e-05
-0.4953796108122333,-0.4953796108122333,0.9999883870975076,8.526541011634695e-05
-0.49406318760375145,-0.49406318760375145,1.0001113614605515,8.893353405792932e-05
-0.49314449280936967,-0.49314449280936967,0.9999688506267104,8.675536293743514e-05
-0.4926192092541896,-0.4926192092541896,0.9998495121802419,9.153123989179432e-05
-0.4921473257600155,-0.4921473257600155,0.9999355215762815,9.126305844650772e-05
-0.49183998073931434,-0.49183998073931434,0.9999489414434451,8.992502313935334e-05
-0.49130939802198553,-0.49130939802198553,1.000080152847116,9.109654302165822e-05
-0.4908004753786372,-0.4908004753786372,1.0001519074564125,8.679347097571147e-05
-0.4898751988897857,-0.4898751988897857,0.9998117166465885,8.953134911202874e-05
-0.4887581953109475,-0.4887581953109475,0.9999037495475338,8.564331555143963e-05
-0.4876662194626988,-0.4876662194626988,0.9999773181740759,8.667791445460829e-05
-0.4872072592479526,-0.4872072592479526,0.9999597250981113,8.660386850653145e-05
-0.4865251333445485,-0.4865251333445485,0.9998696016955011,9.148342177692405e-05
-0.4858873826320632,-0.4858873826320632,0.9998938146859591,9.080806965082413e-05
-0.4855121790547855,-0.4855121790547855,0.9999454550893073,8.984173931314579e-05
-0.4851170247704431,-0.4851170247704431,0.9998727265309398,8.997580789444865e-05
-0.48454860289784846,-0.48454860289784846,0.9999289201592412,9.005748935397872e-05
-0.4839658296943526,-0.4839658296943526,0.9999742860376305,8.987743490440057e-05
-0.48347259306756313,-0.48347259306756313,1.000041887166568,8.542273671647236e-05
-0.4821845821221359,-0.4821845821221359,1.0000074858255954,8.537870861015837e-05
-0.48172068444764593,-0.48172068444764593,1.0000939007125953,8.770726056823732e-05
-0.4811513045511674,-0.4811513045511674,1.000160866032099,8.640837658323538e-05
-0.48005244841988315,-0.48005244841988315,0.9999463800284939,8.643546506325488e-05
-0.4787101794994669,-0.4787101794994669,0.9999328059995858,8.866531697873816e-05
-0.47804447981980047,-0.47804447981980047,1.0000138462900394,9.268513895654522e-05
-0.47759014074981676,-0.47759014074981676,1.0000737611312094,9.129856592822978e-05
-0.477285858563846,-0.477285858563846,0.9998926981465143,9.031065311535678e-05
-0.47704439409426413,-0.47704439409426413,1.000017702855295,8.96394953662138e-05
-0.4764922083901183,-0.4764922083901183,1.000008405796664,8.952566153861684e-05
-0.4760846725861484,-0.4760846725861484,0.9999456884669848,8.672984692514985e-05
-0.47546614749517174,-0.47546614749517174,0.9999692953697961,8.843964282133426e-05
-0.47434473880930456,-0.47434473880930456,0.9998351676722912,8.53965290163679e-05
-0.473366203790647,-0.473366203790647,0.9999233405121707,8.783808327023495e-05
-0.47265665263767004,-0.47265665263767004,1.0000082359282882,8.880890313644335e-05
-0.4719132277306926,-0.4719132277306926,1.0000527369270402,9.265126436643114e-05
-0.4712558344574063,-0.4712558344574063,1.000105799156366,8.970847652991254e-05
-0.4708580084967252,-0.4708580084967252,0.9999050711972461,9.086719106316691e-05
-0.4705036364350235,-0.4705036364350235,0.999855890837042,8.999651975326012e-05
-0.47013724772405113,-0.47013724772405113,0.9999672045518346,8.894552366303631e-05
-0.4697752308988129,-0.4697752308988129,1.000087263729016,9.09052144772995e-05
-0.46926524355367294,-0.46926524355367294,0.9999836208209473,8.994237600127076e-05
-0.4682435719128989,-0.4682435719128989,1.0000717622351138,8.546577694404444e-05
-0.46715553917892977,-0.46715553917892977,0.9999879933851379,8.877653539824828e-05
-0.46643881094278183,-0.46643881094278183,0.9999400342784446,8.873987135543398e-05
-0.46541151544661263,-0.46541151544661263,0.9999835215981708,8.645864917013898e-05
-0.4640724279248388,-0.4640724279248388,0.9998401318213397,8.894322437510032e-05
-0.46336533004869124,-0.46336533004869124,1.0000170763288068,9.09655516889064e-05
-0.46293111688646604,-0.46293111688646604,1.0001417721889108,9.259974181578055e-05
-0.4625955146344495,-0.4625955146344495,1.0000451155402204,9.204625620362862e-05
-0.4622791722540569,-0.4622791722540569,0.9999761425221962,8.947147510480248e-05
-0.4617726530996151,-0.4617726530996151,1.000058491118778,8.813715756824198e-05
-0.46107762748506503,-0.46107762748506503,1.0000987592024184,8.995393084718407e-05
-0.460303918968566,-0.460303918968566,1.0000190274618492,8.531241463068964e-05
-0.45936276642169105,-0.45936276642169105,1.0001156466016128,8.552781443531743e-05
-0.45832693286210996,-0.45832693286210996,0.9999886349491189,8.683025759064027e-05
-0.45785649893587105,-0.45785649893587105,0.9999201463763351,8.657164322161285e-05
-0.4571173271564476,-0.4571173271564476,1.000095886163806,8.875231212294345e-05
-0.4565302147027978,-0.4565302147027978,1.0000238283057217,8.974801167168159e-05
-0.45613009627413703,-0.45613009627413703,0.9999041888596508,9.093770867817003e-05
-0.455826396538032,-0.455826396538032,0.9999017301758553,8.890055377921787e-05
-0.45547392858206875,-0.45547392858206875,0.999995871809198,9.008718532317398e-05
-0.45512726039232804,-0.45512726039232804,0.9999844764249758,8.908123095834431e-05
-0.4546919135893404,-0.4546919135893404,0.9999704353065157,9.170603212773284e-05
-0.45383883616450477,-0.45383883616450477,0.9998973101924935,8.773747676671953e-05
-0.4528040239361871,-0.4528040239361871,1.000226425177758,8.531836284899185e-05
-0.45214533639373256,-0.45214533639373256,0.9999794903790207,8.773886490044066e-05
-0.45157475457017426,-0.45157475457017426,1.0000199564023933,8.535906846245044e-05
-0.4508382184634684,-0.4508382184634684,0.9999387899829356,8.644612589023879e-05
-0.44916720616674866,-0.44916720616674866,1.0001495326285101,8.797501872655046e-05
-0.44861650645761986,-0.44861650645761986,1.0000761587403835,9.152448631177788e-05
-0.448205302668066,-0.448205302668066,0.999956539540805,9.128803426670908e-05
-0.4478754782714532,-0.4478754782714532,1.0000120112474034,9.011726973439035e-05
-0.44761865488762853,-0.44761865488762853,0.9998864815508088,9.065061770021149e-05
-0.44703984810985276,-0.44703984810985276,0.9997300655259458,8.952664503330659e-05
-0.4466661127575208,-0.4466661127575208,1.0000669706758938,8.676946033711358e-05
-0.44604162763207567,-0.44604162763207567,1.0001193349778923,8.789249820157582e-05
-0.4452647064572375,-0.4452647064572375,0.9999653410168017,8.657104849617456e-05
-0.4445271958291414,-0.4445271958291414,0.9999622385840377,8.579998817617832e-05
-0.44366001163361946,-0.44366001163361946,0.9999929762774722,8.874069667044337e-05
-0.4431746981528704,-0.4431746981528704,1.000082823687536,8.541561976002427e-05
-0.4424509246382513,-0.4424509246382513,0.9998213456627095,9.249365651345762e-05
-0.4416460666696366,-0.4416460666696366,0.999949020198129,9.091025375877304e-05
-0.44120190382163854,-0.44120190382163854,1.000059177302617,8.890198592707121e-05
-0.44091009592157204,-0.44091009592157204,0.9999771080956636,9.0150021200607e-05
-0.4405006859669811,-0.4405006859669811,1.0000860961740679,8.889356354794876e-05
-0.43991801227311955,-0.43991801227311955,1.0001603181620626,9.220069918525306e-05
-0.438896394220501,-0.438896394220501,1.000039389178291,8.805748818824214e-05
-0.4374852484288567,-0.4374852484288567,0.9999513886386424,8.797136253274925e-05
-0.4368911647987261,-0.4368911647987261,0.9999406356703432,9.14037065122097e-05
-0.43619513649027797,-0.43619513649027797,0.9998920278268819,8.638905697580396e-05
-0.4347380656457972,-0.4347380656457972,1.0000155405963551,8.656510939801121e-05
-0.4338977436411369,-0.4338977436411369,0.999961780245141,8.970666029425051e-05
-0.43344409409473883,-0.43344409409473883,0.999906637440476,9.148364147832469e-05
-0.4331619517237414,-0.4331619517237414,0.9999553639009594,9.018805473990208e-05
-0.4328544114752731,-0.4328544114752731,0.9998859902510082,9.020358476715944e-05
-0.4323264879749331,-0.4323264879749331,1.00003770487404,8.808500369801566e-05
-0.43176725506127694,-0.43176725506127694,1.0000788523291657,8.913579147712092e-05
-0.43131358939863274,-0.43131358939863274,1.0001033590646813,8.784343504012813e-05
-0.4304457460442791,-0.4304457460442791,0.9999221786449116,8.535397774990251e-05
-0.4291685184602102,-0.4291685184602102,0.9999996319173977,8.65523911238001e-05
-0.42869073192050566,-0.42869073192050566,0.9998553172554043,8.890504373644332e-05
-0.4282371600063925,-0.4282371600063925,0.999899015162012,8.650488220937066e-05
-0.4275639767271059,-0.4275639767271059,1.0000134058962913,8.873417872387939e-05
-0.42707515439687993,-0.42707515439687993,1.0001210494133137,8.9765983261913e-05
-0.4266876317022252,-0.4266876317022252,0.9999101107728159,8.970862126893284e-05
-0.42646595918704405,-0.42646595918704405,1.0000558358050602,8.893109112962954e-05
-0.4261150430800626,-0.4261150430800626,1.0000524592490048,9.01170240426659e-05
-0.4256832383580331,-0.4256832383580331,1.0000150578286289,8.774478020325002e-05
-0.42534271842523597,-0.42534271842523597,1.000048927111942,8.898087139812334e-05
-0.42399023738908,-0.42399023738908,0.9999535417652258,8.657141805850274e-05
-0.42265975730333594,-0.42265975730333594,0.9998908791617758,8.883133072881006e-05
-0.42188179316581226,-0.42188179316581226,0.9998668028476878,8.65061920815767e-05
-0.4208778301253915,-0.4208778301253915,0.9999936048511164,8.761117810932755e-05
-0.4194697923339845,-0.4194697923339845,1.0000448604071277,9.173797646695473e-05
-0.4189643473662727,-0.4189643473662727,1.0000738278487866,9.049676851350652e-05
-0.4185797025253123,-0.4185797025253123,1.0002007789981555,9.223346901164827e-05
-0.41830506964906816,-0.41830506964906816,1.0000963220398518,8.905051955487611e-05
-0.41789185677480417,-0.41789185677480417,1.0002415915471283,8.969736557440029e-05
-0.4174354285343725,-0.4174354285343725,1.0000288462456273,8.948963439396193e-05
-0.4166765350601054,-0.4166765350601054,1.0000662649314263,8.6662718358792e-05
-0.4153968048354727,-0.4153968048354727,1.000104504174186,8.564090058101845e-05
-0.4142186723736813,-0.4142186723736813,0.9999327157850757,8.795745569618264e-05
-0.41365676324203376,-0.41365676324203376,1.0000870743724184,8.662410550223629e-05
-0.41303948497079546,-0.41303948497079546,0.9999447610368728,9.148305705511701e-05
-0.41241910635435486,-0.41241910635435486,1.000166991638952,8.97465421437806e-05
-0.41199651564093076,-0.41199651564093076,1.000176827295656,8.888781814172038e-05
-0.41175669433941947,-0.41175669433941947,0.9999301923900363,8.989179775560494e-05
-0.4114572052494623,-0.4114572052494623,1.0002616097197776,8.887680832667095e-05
-0.4110558893364214,-0.4110558893364214,0.9998971682960539,9.00728606920044e-05
-0.4104261188833334,-0.4104261188833334,1.0000468614004259,8.990547905235704e-05
-0.41000170155530213,-0.41000170155530213,0.9999798078420392,8.88482730277052e-05
-0.4085791721183341,-0.4085791721183341,0.9999886981809019,8.561364182734321e-05
-0.40759888046377457,-0.40759888046377457,0.9999215090656719,8.632709945211785e-05
-0.4061993061179237,-0.4061993061179237,0.9999761509965831,8.76472821605914e-05
-0.40490946989957594,-0.40490946989957594,0.9999843741776704,9.037989971292596e-05
-0.404354103179503,-0.404354103179503,0.9999329469639114,9.183335431685576e-05
-0.40396524496754865,-0.40396524496754865,0.9999357964317422,9.15274773650004e-05
-0.4037033220942249,-0.4037033220942249,1.0000864796215225,9.017021925620671e-05
-0.40340194609962055,-0.40340194609962055,0.999946279153755,9.008291013779751e-05
-0.4030449532729108,-0.4030449532729108,1.000191089904164,8.924976520495836e-05
-0.402644949821115,-0.402644949821115,1.0000129109475304,8.691601271356862e-05
-0.40209214634014645,-0.40209214634014645,1.0001759295502777,9.254022871460165e-05
-0.40128477322068645,-0.40128477322068645,0.9999524135692234,8.539511707806415e-05
-0.4004375516182336,-0.4004375516182336,0.9999900742567602,8.66445570449615e-05
-0.39949669104025815,-0.39949669104025815,1.0000111388221158,8.663863999794921e-05
-0.3989161417055584,-0.3989161417055584,0.9999949759251672,8.765557829908498e-05
-0.3980347168566368,-0.3980347168566368,1.0000766625841577,8.874639972378721e-05
-0.39764491326059215,-0.39764491326059215,1.0000994160480814,8.986809815873453e-05
-0.39721047896382516,-0.39721047896382516,1.0000387363309318,8.999738876845853e-05
-0.39681064755714035,-0.39681064755714035,1.0001009329569464,8.998173584799569e-05
-0.3964822820096742,-0.3964822820096742,1.0000170040392862,8.992704319559807e-05
-0.39601798826624873,-0.39601798826624873,0.9998338373092406,9.003319875100536e-05
-0.3954482949222438,-0.3954482949222438,0.9997603210116488,8.652241391163773e-05
-0.39419421017519196,-0.39419421017519196,0.9999475000296794,8.649968363209231e-05
-0.393468838147237,-0.393468838147237,0.999852775347607,8.881708085260422e-05
-0.3926482596929418,-0.3926482596929418,0.9999628583403585,8.534765924708724e-05
-0.39185742812624086,-0.39185742812624086,0.9999245164223932,8.759290916587606e-05
-0.39035035624328884,-0.39035035624328884,1.0001301498765858,8.788593423276872e-05
-0.38957865374904943,-0.38957865374904943,1.0000438285570854,9.255866970127817e-05
-0.38911432276872804,-0.38911432276872804,0.9999908934569994,9.216326385407268e-05
-0.38883856083630236,-0.38883856083630236,0.9999639482248242,8.785573450597192e-05
-0.38836344674564316,-0.38836344674564316,0.9998370253849351,9.10839551535107e-05
-0.38796147464963726,-0.38796147464963726,1.0000339002189031,8.674660531077286e-05
-0.38715007352657266,-0.38715007352657266,1.0000735262212581,8.955570887936456e-05
-0.38613981538292136,-0.38613981538292136,0.9999396198455273,8.544188709882521e-05
-0.3850585094980488,-0.3850585094980488,1.0000079112564868,8.684246861755804e-05
-0.384446101073263,-0.384446101073263,1.0000529725479865,8.558207429949262e-05
-0.38385434835945487,-0.38385434835945487,0.999881478843119,9.143202763632663e-05
-0.38307392288043046,-0.38307392288043046,0.999968734921848,9.078257524553048e-05
-0.3826376227705623,-0.3826376227705623,1.0000491043030388,8.994743150548053e-05
-0.3822515103776823,-0.3822515103776823,1.000068948982958,8.99159346035477e-05
-0.3818428307589784,-0.3818428307589784,0.9999740452899086,9.006763646262572e-05
-0.38135816555150087,-0.38135816555150087,1.0002500919269885,8.886529821552637e-05
-0.3808329737512395,-0.3808329737512395,0.9999831999168715,8.880571432053034e-05
-0.37981949580280344,-0.37981949580280344,1.0000159720381732,8.545875563765127e-05
-0.37879965517349773,-0.37879965517349773,1.0000337752618609,8.776415930438778e-05
-0.3782651763103786,-0.3782651763103786,0.9998784961492015,8.765390535585868e-05
-0.37771169342304345,-0.37771169342304345,0.9999548600246463,8.532089465849762e-05
-0.3763409546241746,-0.3763409546241746,0.9999843885709453,8.769979451784935e-05
-0.37553104819817235,-0.37553104819817235,1.0000656997699253,8.868423295424378e-05
-0.37501072657614715,-0.37501072657614715,0.9999703885284955,9.368445622088425e-05
-0.37456402985189924,-0.37456402985189924,1.0000033338155174,9.236690101470423e-05
-0.37424564035609365,-0.37424564035609365,0.999934597812344,8.904185893251785e-05
-0.3739864887967997,-0.3739864887967997,0.9999206668018685,9.008175774919292e-05
-0.3734699291431752,-0.3734699291431752,1.0001156762792986,8.793257992161715e-05
-0.37305153973720734,-0.37305153973720734,1.0000240803737572,8.869776187376359e-05
-0.3723619578362559,-0.3723619578362559,1.0001507525062174,8.660255231144426e-05
-0.3715965399227571,-0.3715965399227571,1.0000276577483191,8.541993278215931e-05
-0.3706231042233412,-0.3706231042233412,0.9999218173099591,8.67609868978696e-05
-0.369910999948479,-0.369910999948479,0.999916914394173,8.777864130739248e-05
-0.36932275330254927,-0.36932275330254927,1.000043319916452,9.264225060651716e-05
-0.36849724500425507,-0.36849724500425507,0.9998933405568188,9.085360604489379e-05
-0.3679119674372487,-0.3679119674372487,1.0000393345017335,9.088670214921026e-05
-0.36755779853192505,-0.36755779853192505,0.9999334526114396,9.000854941890163e-05
-0.36719253644987476,-0.36719253644987476,1.000031244962012,8.896048789578058e-05
-0.36678326635301345,-0.36678326635301345,0.9999128333707186,9.094604123792126e-05
-0.36609463769127615,-0.36609463769127615,1.0000380995454923,8.880708958846698e-05
-0.36475048484426226,-0.36475048484426226,0.9998425583018214,8.659794866969445e-05
-0.3639327049517306,-0.3639327049517306,1.0000676944535916,9.096656420316934e-05
-0.3631295965213212,-0.3631295965213212,0.9998954422121539,8.645396900392881e-05
-0.36209369755379156,-0.36209369755379156,1.0001126284095112,8.777846618693548e-05
-0.3609049924642022,-0.3609049924642022,0.9999767854755325,9.002394598144841e-05
-0.36018209260291767,-0.36018209260291767,0.9999576239099284,9.132797973027656e-05
-0.3598071472639276,-0.3598071472639276,1.0000465378379204,9.244779617259471e-05
-0.35947280650216273,-0.35947280650216273,0.9999167483057707,9.084354883377882e-05
-0.35906575944463837,-0.35906575944463837,1.0000535598534939,8.830580996869902e-05
-0.3584089657131699,-0.3584089657131699,0.9999679009625689,8.793724890044537e-05
-0.35783296533263637,-0.35783296533263637,0.9998897702118033,8.887139420706059e-05
-0.35687238393438747,-0.35687238393438747,0.9999584233966738,8.538325013498546e-05
-0.35573394745078984,-0.35573394745078984,0.9999533062574244,8.556395807804856e-05
-0.35509390761362736,-0.35509390761362736,1.0000235620269982,8.790802364643975e-05
-0.35472097484962434,-0.35472097484962434,1.000046847729762,8.65726009539068e-05
-0.3539840431214543,-0.3539840431214543,1.0000423802783165,8.980803970285742e-05
-0.3535039749069256,-0.3535039749069256,0.9998867451048108,8.974344384403475e-05
-0.35311795913221433,-0.35311795913221433,1.0000246516738849,9.008541994347218e-05
-0.35282823171874045,-0.35282823171874045,1.0000843386537932,8.880912978630998e-05
-0.3524376556997595,-0.3524376556997595,0.9999914068096178,9.126142142361358e-05
-0.35211495085677597,-0.35211495085677597,1.0001093482946761,8.782125689330441e-05
-0.3517505175077531,-0.3517505175077531,0.9999775416162857,9.067875680795412e-05
-0.3512074518330337,-0.3512074518330337,0.999908800459329,8.878612847394498e-05
-0.3500158840084623,-0.3500158840084623,0.9997294099522932,8.540551003077768e-05
-0.34933703215283457,-0.34933703215283457,1.0002255118231385,8.78575368842503e-05
-0.348654466712469,-0.348654466712469,0.999956272565209,8.638282842031367e-05
-0.3478871101833647,-0.3478871101833647,1.000114059829367,8.64126752564021e-05
-0.346312138887879,-0.346312138887879,1.0000670941277439,8.80768056861793e-05
-0.34573778198246147,-0.34573778198246147,0.9998384752161502,9.259782603211885e-05
-0.34525899170039337,-0.34525899170039337,1.0000436188240562,9.128400670407267e-05
-0.3449300498868979,-0.3449300498868979,1.0000632412556716,9.011236543164774e-05
-0.3446726109868905,-0.3446726109868905,0.9997499596149426,9.06279277304556e-05
-0.34409461174873285,-0.34409461174873285,1.000027491291764,8.953042643772987e-05
-0.3437285442603752,-0.3437285442603752,1.0000426059149405,8.667494046567356e-05
-0.3431355130953307,-0.3431355130953307,1.0000387704435447,8.663247302376318e-05
-0.34214270627271615,-0.34214270627271615,0.9999863145680736,8.543589398682669e-05
-0.34120126471098045,-0.34120126471098045,1.0001626102128314,8.686058934505772e-05
-0.3405206463125069,-0.3405206463125069,1.0000211548109366,8.770958092979099e-05
-0.3399743953705183,-0.3399743953705183,0.9999168849917972,8.930642329526234e-05
-0.33918368695958634,-0.33918368695958634,0.9999142087284488,9.084104769891579e-05
-0.33845158545300363,-0.33845158545300363,0.9999404820425226,9.088286029850858e-05
