time,time,flux,flux_err
-0.49967887006702466,-0.49967887006702466,1.0000180374992527,4.275936604810678e-05
-0.4989974125552787,-0.4989974125552787,0.9999792356528938,4.2847631773268444e-05
-0.49804172589513956,-0.49804172589513956,0.9999329586106893,4.297215494024521e-05
-0.4975226240633977,-0.4975226240633977,1.0000703890049036,4.2753365625934174e-05
-0.4964310125600605,-0.4964310125600605,0.999989346401429,3.906404652819302e-05
-0.49600480211083775,-0.49600480211083775,0.9999646266505696,3.926110966230861e-05
-0.4956091915293655,-0.4956091915293655,1.0000679358435574,3.9050407129672295e-05
-0.4948272307367006,-0.4948272307367006,1.0000300187844997,3.889407534455867e-05
-0.49422423544310734,-0.49422423544310734,1.0000021547406075,3.916544757176404e-05
-0.4932771063387918,-0.4932771063387918,0.9999654197332812,3.895745632161037e-05
-0.49216814780884305,-0.49216814780884305,0.9999986546191305,3.914630478898429e-05
-0.49159619709753316,-0.49159619709753316,0.9999842065688863,3.9197529571032186e-05
-0.49107010859515865,-0.49107010859515865,0.999996138024958,3.905391949974216e-05
-0.4905590356938774,-0.4905590356938774,1.0000727362483546,3.917186046012982e-05
-0.4898771350606694,-0.4898771350606694,1.0000204304826827,3.905869765725643e-05
-0.48924661348646625,-0.48924661348646625,1.0000049486941105,3.9177553752239085e-05
-0.4882019526914519,-0.4882019526914519,1.000047475869921,3.919904839449763e-05
-0.4875774945779995,-0.4875774945779995,1.0000226356680004,3.92622701453338e-05
-0.4871382705059659,-0.4871382705059659,0.9999605765956833,3.90560267906334e-05
-0.48634080073461516,-0.48634080073461516,0.9999470239593344,3.897251101653773e-05
-0.4853413116012234,-0.4853413116012234,0.999994664938481,3.9060266971932905e-05
-0.48496074909417075,-0.48496074909417075,1.0000069534220906,3.907654547996951e-05
-0.4845601419248851,-0.4845601419248851,1.0000468453228268,3.908099055640853e-05
-0.4839669803564902,-0.4839669803564902,0.9999838370708055,3.910079660864561e-05
-0.4833161765061959,-0.4833161765061959,1.000039518759732,3.9142121578049825e-05
-0.4827809522423195,-0.4827809522423195,0.9999737132389089,3.9171228416672026e-05
-0.4820227780175628,-0.4820227780175628,0.9999754367418735,3.9158124527233496e-05
-0.4808674544648966,-0.4808674544648966,0.9999820373782968,3.9072491436754864e-05
-0.48036457020643863,-0.48036457020643863,1.0000421517505094,3.905144525262397e-05
-0.47979075107868996,-0.47979075107868996,1.0000851632771426,3.9072019998830365e-05
-0.47908371513622117,-0.47908371513622117,1.0000139220342183,3.917236367093814e-05
-0.47824737804548934,-0.47824737804548934,0.9999723517087455,3.914662116604594e-05
-0.4773771148742526,-0.4773771148742526,1.000050883650069,3.9158234257747566e-05
-0.4768038058580714,-0.4768038058580714,1.00004347131872,3.895913942558823e-05
-0.4764424337852688,-0.4764424337852688,0.9999945496654566,3.9152691452197095e-05
-0.47586403916648123,-0.47586403916648123,0.9999609848123322,3.9164258998930355e-05
-0.4748637788768974,-0.4748637788768974,1.0000343069409439,3.89878650599221e-05
-0.4739648381684674,-0.4739648381684674,1.000029419725174,3.915070880509779e-05
-0.4728968800533039,-0.4728968800533039,0.9999712068590811,3.9084519539408104e-05
-0.47247227278639914,-0.47247227278639914,1.000049138122409,3.9173820674565115e-05
-0.47216659088880986,-0.47216659088880986,1.0000071696627355,3.899140763746063e-05
-0.47148269265380804,-0.47148269265380804,1.0000359110041386,3.895716453653743e-05
-0.47087412137334467,-0.47087412137334467,1.000035940447901,3.915735706250697e-05
-0.47038767037374785,-0.47038767037374785,1.0000174117436391,3.907433573497636e-05
-0.46927716570353367,-0.46927716570353367,0.9999816470134638,3.9188715621131545e-05
-0.4685571354057174,-0.4685571354057174,0.9999985000221159,3.925298498109333e-05
-0.46808944926815454,-0.46808944926815454,0.9999163447097322,3.9143329872592086e-05
-0.46734710802702467,-0.46734710802702467,1.0000066784285777,3.905740865713999e-05
-0.4661513243234367,-0.4661513243234367,1.0001227148205085,3.9073971768557675e-05
-0.46566254065037355,-0.46566254065037355,1.000021488169843,3.9092007216397453e-05
-0.46533876978064653,-0.46533876978064653,1.0000030895539642,3.916208258151695e-05
-0.46434692631592045,-0.46434692631592045,1.000029834812223,3.9144174682910914e-05
-0.4635415668730275,-0.4635415668730275,0.9999752042478587,3.927129856995324e-05
-0.4625408741965657,-0.4625408741965657,0.9999971772372804,3.9058472150392566e-05
-0.46183511613708106,-0.46183511613708106,0.9999600258797143,3.905152329039419e-05
-0.46139074009843173,-0.46139074009843173,0.9999543852517399,3.9059488751462784e-05
-0.46100665356352694,-0.46100665356352694,0.9999292959763102,3.916143124237697e-05
-0.46061153907503466,-0.46061153907503466,0.9999885826416651,3.916840037009589e-05
-0.4598230416755541,-0.4598230416755541,0.9999922557744286,3.900406708620824e-05
-0.4593479127608589,-0.4593479127608589,1.0000124116502291,3.9354592735079257e-05
-0.4587079677163274,-0.4587079677163274,1.000056546545639,3.934197512935101e-05
-0.4581809328905365,-0.4581809328905365,1.0000081462908983,3.917239953162449e-05
-0.45769590371492086,-0.45769590371492086,1.0000268757944655,3.905322881580594e-05
-0.4571235174116737,-0.4571235174116737,0.9999700582699248,3.896394587334064e-05
-0.4565290956918034,-0.4565290956918034,1.0000213261512703,3.916218445741683e-05
-0.4557918243976019,-0.4557918243976019,0.9999645952775957,3.908279419863042e-05
-0.45479143119810034,-0.45479143119810034,1.0000293646214198,3.914536107937932e-05
-0.4538568032716285,-0.4538568032716285,0.999987448914062,3.917699469202573e-05
-0.4534663380138227,-0.4534663380138227,0.9999248099287831,3.927175331410089e-05
-0.4531546215082926,-0.4531546215082926,1.0000234483526014,3.9062846417205564e-05
-0.45236028799336053,-0.45236028799336053,1.0000369361054156,3.9282178275219776e-05
-0.4516069591329142,-0.4516069591329142,0.999987334340306,3.925985137640322e-05
-0.4505209723902226,-0.4505209723902226,1.000010548725049,3.9072555348049714e-05
-0.4495456618693424,-0.4495456618693424,1.0000341196840605,3.924788743523505e-05
-0.44902020516674385,-0.44902020516674385,0.9999852091637464,3.919008668736624e-05
-0.44843075650496755,-0.44843075650496755,0.9999925085863082,3.8875984599302456e-05
-0.4473048260435462,-0.4473048260435462,0.9999555637336244,3.89804127251834e-05
-0.446658172806201,-0.446658172806201,0.9999461370130724,3.906956774525597e-05
-0.4456847745452251,-0.4456847745452251,0.9999640305999342,3.9063638175506664e-05
-0.4451526545904926,-0.4451526545904926,0.9999416502486664,3.9284123997553286e-05
-0.4445817552536028,-0.4445817552536028,0.999970321364392,3.915122307190411e-05
-0.4439675692061428,-0.4439675692061428,0.9999784427868624,3.9154586937386393e-05
-0.44314208010328004,-0.44314208010328004,0.9999210256635422,3.917155413690772e-05
-0.44235619919854796,-0.44235619919854796,0.9999590602842385,3.896343859442936e-05
-0.44164896729780595,-0.44164896729780595,1.0000142767747038,3.917564108468636e-05
-0.4408843125565909,-0.4408843125565909,1.000075262098512,3.9283734332852883e-05
-0.4401027318555862,-0.4401027318555862,1.0000143480692578,3.9250171185702534e-05
-0.43956623920603305,-0.43956623920603305,0.9999979622428647,3.9259891224939345e-05
-0.43865415078689696,-0.43865415078689696,1.0000340377197827,3.8865602988738606e-05
-0.4380582091376709,-0.4380582091376709,0.9999733030272532,3.915796615040867e-05
-0.4375510933357873,-0.4375510933357873,1.0000177345526864,3.905757826084431e-05
-0.43688049394331757,-0.43688049394331757,0.9999909125466276,3.906939412350948e-05
-0.43634307628381064,-0.43634307628381064,1.0000689161999312,3.9201245217336284e-05
-0.4357914182539389,-0.4357914182539389,0.9999341481345573,3.92318774007723e-05
-0.4347757967079815,-0.4347757967079815,1.0000686150134992,3.915885140251523e-05
-0.43446706367467414,-0.43446706367467414,1.0000302897473365,3.916543100295291e-05
-0.43406609273588403,-0.43406609273588403,0.9999726040198604,3.8956937070753585e-05
-0.4333498579457228,-0.4333498579457228,0.9999893007189682,3.925758315459844e-05
-0.43233259705011734,-0.43233259705011734,0.9999607388311326,3.886480772394425e-05
-0.43143654750747373,-0.43143654750747373,1.0000354728013412,3.9072099982866944e-05
-0.4310617018250923,-0.4310617018250923,0.9999915471716296,3.9147248634105976e-05
-0.4302936796731956,-0.4302936796731956,0.9999948189877486,3.9158833597365485e-05
-0.42989089195762065,-0.42989089195762065,1.0000093538632213,3.9201875765762053e-05
-0.4295325884428166,-0.4295325884428166,0.9999775998843857,3.898413788756307e-05
-0.429107904247212,-0.429107904247212,1.0000555036106533,3.896027185361587e-05
-0.4281721177962027,-0.4281721177962027,0.9999741216559702,3.9059008026717095e-05
-0.4275410846355953,-0.4275410846355953,0.9999751869621761,3.9156058925812474e-05
-0.4263331174392079,-0.4263331174392079,0.9999747567540187,3.9077667513799185e-05
-0.4256788978345867,-0.4256788978345867,1.0000628952194934,3.916643221609973e-05
-0.4251692233083304,-0.4251692233083304,0.999931153845577,3.906489536596423e-05
-0.42402981873237877,-0.42402981873237877,1.000005224555054,3.905892838758872e-05
-0.4233123311329109,-0.4233123311329109,0.9999180090796855,3.9077118993075544e-05
-0.4229133059714513,-0.4229133059714513,1.0000212461585831,3.909440962723974e-05
-0.4221441406116355,-0.4221441406116355,1.0000390980332927,3.9061080832219306e-05
-0.4215312212159915,-0.4215312212159915,0.9999937940467923,3.926814499474031e-05
-0.4209364988477319,-0.4209364988477319,0.9998899712290935,3.916956481716614e-05
-0.4203495509347704,-0.4203495509347704,1.0000536119889905,3.924894911022544e-05
-0.4193777424727159,-0.4193777424727159,0.9999005387592572,3.8955535914218346e-05
-0.4185120473142888,-0.4185120473142888,1.000022583816496,3.896864766980415e-05
-0.4178177946123469,-0.4178177946123469,1.0000459405376163,3.909168173170789e-05
-0.4171263811760582,-0.4171263811760582,1.0000627778999844,3.9173186833306936e-05
-0.4164333360451565,-0.4164333360451565,1.0000477944695938,3.935360008111944e-05
-0.4156895003849058,-0.4156895003849058,0.9999651700957871,3.91541267934754e-05
-0.4149838748569891,-0.4149838748569891,0.9999810797012179,3.8956609041226303e-05
-0.41408621918017163,-0.41408621918017163,0.9999581922348628,3.916002226916382e-05
-0.41339065032880173,-0.41339065032880173,1.0000011214270328,3.900126193810007e-05
-0.4126657480825088,-0.4126657480825088,1.0000279816674411,3.908433992142558e-05
-0.41153302846723816,-0.41153302846723816,1.0000088348869551,3.905588205659843e-05
-0.41097879084845773,-0.41097879084845773,0.9999898469410567,3.918105290290462e-05
-0.41057989654000265,-0.41057989654000265,1.0000796181502203,3.906397629406556e-05
-0.40973741156194593,-0.40973741156194593,1.0000837744882851,3.905437451575271e-05
-0.408911111906491,-0.408911111906491,1.0000461696497531,3.916233625179259e-05
-0.40726378222971105,-0.40726378222971105,1.0000588275716946,3.905455102388455e-05
-0.4067468170294887,-0.4067468170294887,0.9999380056162421,3.9063730247320514e-05
-0.4064443497431057,-0.4064443497431057,0.9999942587653843,3.9277869600970846e-05
-0.4058480298728682,-0.4058480298728682,1.0000261883221553,3.8880462867895075e-05
-0.40525819079120995,-0.40525819079120995,0.999927010341876,3.9172419118978784e-05
-0.40462800535096904,-0.40462800535096904,1.0000689665768565,3.906975730905565e-05
-0.4040443776706525,-0.4040443776706525,1.0000130782735126,3.907467680802482e-05
-0.40361617169037345,-0.40361617169037345,0.9999336623622319,3.89680987693154e-05
-0.40254135597788265,-0.40254135597788265,1.0000130629917012,3.937485004661826e-05
-0.40160920201160477,-0.40160920201160477,1.000017510171878,3.9255890659296034e-05
-0.40085312789233285,-0.40085312789233285,1.0000032851989555,3.8961005850427946e-05
-0.40014652129611933,-0.40014652129611933,0.9999932968893033,3.896568368313984e-05
-0.3994168358738534,-0.3994168358738534,1.000082247532998,3.9073970396238154e-05
-0.3988732487159723,-0.3988732487159723,0.9999806929309271,3.907349086355048e-05
-0.3982478907564655,-0.3982478907564655,0.9999834823510728,3.901624638846635e-05
-0.3978469976122142,-0.3978469976122142,1.000027157741442,3.925459980164601e-05
-0.39730594838547406,-0.39730594838547406,1.0000069910310017,3.935166658666793e-05
-0.39670359730225757,-0.39670359730225757,1.000011552567895,3.914803401902748e-05
-0.39593934423683097,-0.39593934423683097,0.9999724029051112,3.896212125050192e-05
-0.3953582508518593,-0.3953582508518593,1.0000354462017023,3.906550005695945e-05
-0.3948118344123941,-0.3948118344123941,1.0000010495473088,3.9051813257272393e-05
-0.39393266167317054,-0.39393266167317054,1.0000474187282244,3.919154013011362e-05
-0.3934279624969349,-0.3934279624969349,1.0000054246423016,3.896666494432983e-05
-0.392769582697656,-0.392769582697656,0.9999916724388422,3.914267548418567e-05
-0.39198640609611174,-0.39198640609611174,0.9999489208997572,3.916086414393249e-05
-0.39171383672146476,-0.39171383672146476,0.9999877987475989,3.918001722242102e-05
-0.39137303695679293,-0.39137303695679293,1.0000079418572205,3.9049625757156044e-05
-0.39075258061129714,-0.39075258061129714,1.0000729074355204,3.9101244929771964e-05
-0.3902390838593419,-0.3902390838593419,1.0000197859353928,3.9159223728734346e-05
-0.38913116420517324,-0.38913116420517324,0.9999647644501787,3.896355942579826e-05
-0.38790097500314,-0.38790097500314,1.0000138687143967,3.914626791882162e-05
-0.38732874452034594,-0.38732874452034594,1.0000148316866642,3.919807244726191e-05
-0.38683536046228256,-0.38683536046228256,0.9999516440415188,3.895786025071753e-05
-0.3863613922476361,-0.3863613922476361,0.99999779603737,3.9067058074986325e-05
-0.38565629873264695,-0.38565629873264695,1.000032324505685,3.906710578791014e-05
-0.38495022121060174,-0.38495022121060174,0.9999987091118113,3.907635883048917e-05
-0.3836957397230435,-0.3836957397230435,0.9999669491786024,3.928814062195319e-05
-0.3831087655795272,-0.3831087655795272,1.000011307270508,3.916608703007952e-05
-0.3826472661581647,-0.3826472661581647,0.9999689441801415,3.906421779955983e-05
-0.3815740872683818,-0.3815740872683818,0.9999690401650817,3.8975242465967136e-05
-0.3809688405628549,-0.3809688405628549,0.999916373701564,3.9074272683572905e-05
-0.3806405344279483,-0.3806405344279483,0.9999329685449118,3.9076694723535525e-05
-0.3802516303039738,-0.3802516303039738,0.9999466612585346,3.906932785430824e-05
-0.37949247222713894,-0.37949247222713894,0.9999650463034027,3.919145226169852e-05
-0.3789232639603142,-0.3789232639603142,1.0000432718080905,3.915681494736819e-05
-0.37824773241663934,-0.37824773241663934,1.000030013571665,3.926882555876487e-05
-0.37692352024023423,-0.37692352024023423,1.000025914677885,3.895939902366931e-05
-0.3761323801794788,-0.3761323801794788,0.9999751595239694,3.896185933374265e-05
-0.3755237336117716,-0.3755237336117716,0.9999876598046773,3.906951300391993e-05
-0.37462513159698574,-0.37462513159698574,1.0000509216854279,3.9088248527067445e-05
-0.37363667860554417,-0.37363667860554417,0.9999787368050365,3.924625925229157e-05
-0.3730062667746097,-0.3730062667746097,1.000012815943979,3.916041921835663e-05
-0.37253730430893484,-0.37253730430893484,0.9999788029496604,3.8956913700040905e-05
-0.3721223359549185,-0.3721223359549185,1.0000054261148872,3.915694145427974e-05
-0.3713888383870653,-0.3713888383870653,0.999976873120737,3.9077198732854356e-05
-0.3704180373177223,-0.3704180373177223,0.999994193005558,3.90729651260433e-05
-0.36967276232826407,-0.36967276232826407,0.9999803775997378,3.9143512895480753e-05
-0.368630029400083,-0.368630029400083,1.0000538322558548,3.908619543485598e-05
-0.36820519797693124,-0.36820519797693124,0.9999626736391225,3.917267137069266e-05
-0.3679282671757392,-0.3679282671757392,1.0001110354359164,3.898349550817512e-05
-0.367566249439551,-0.367566249439551,0.9999463369745684,3.904846785585032e-05
-0.366677133389021,-0.366677133389021,1.0000366183153284,3.9061640806343594e-05
-0.36622409346673523,-0.36622409346673523,1.0000057707475556,3.9260355148374346e-05
-0.3653152129503724,-0.3653152129503724,0.9999506112778356,3.906777813069238e-05
-0.3644742112730455,-0.3644742112730455,1.0000829943065028,3.927473227478343e-05
-0.36399321789940586,-0.36399321789940586,1.0000759537644859,3.91479674606635e-05
-0.36342003025565645,-0.36342003025565645,1.0000083846843832,3.916279966452657e-05
-0.3623575191879354,-0.3623575191879354,1.000028969353367,3.896152147037287e-05
-0.3616947704133054,-0.3616947704133054,0.9999923202555238,3.908586180353159e-05
-0.3612750439388037,-0.3612750439388037,0.9999508288740442,3.908221253978381e-05
-0.36027204842102944,-0.36027204842102944,0.9999865414483725,3.914391596159799e-05
-0.3594668067918974,-0.3594668067918974,0.9999868213989359,3.9263416382360855e-05
-0.3582816586756962,-0.3582816586756962,1.000021745134875,3.906219645514269e-05
-0.3573750795920205,-0.3573750795920205,0.9999609107950196,3.9055963185800904e-05
-0.3568419230861764,-0.3568419230861764,1.0000210024893506,3.91588224935327e-05
-0.3564772486490256,-0.3564772486490256,1.0000096066501385,3.90681920745383e-05
-0.3558825109117606,-0.3558825109117606,0.9999932649469537,3.9210144479663055e-05
-0.3552945254472434,-0.3552945254472434,0.9999230965629963,3.915204150985008e-05
-0.3548574235093838,-0.3548574235093838,0.9999128149078889,3.934552953405047e-05
-0.35440895115971216,-0.35440895115971216,0.9999408872006855,3.9251584143624836e-05
-0.3537111076140718,-0.3537111076140718,1.0000332151481743,3.9053895546288955e-05
-0.3531493900933128,-0.3531493900933128,1.0000165127126317,3.9054805981344025e-05
-0.352436808913626,-0.352436808913626,1.0000128178136398,3.918812697364501e-05
-0.3515248402312864,-0.3515248402312864,1.0000147588807002,3.908457019117483e-05
-0.350547263072076,-0.350547263072076,0.9999758429273828,3.914917642755608e-05
-0.3497388633295486,-0.3497388633295486,0.9999852140121128,3.90771524166688e-05
-0.34936814606771804,-0.34936814606771804,0.9999516432312131,3.9145587063888833e-05
-0.3490453525577323,-0.3490453525577323,0.9999662049050148,3.927151146836901e-05
-0.3484287953295279,-0.3484287953295279,1.0000140557556851,3.91684497522853e-05
-0.34744270341689115,-0.34744270341689115,0.9998974958675426,3.9158251203486296e-05
-0.34636282524224954,-0.34636282524224954,0.9999767791525767,3.907670502610653e-05
-0.3453193090201239,-0.3453193090201239,0.9999835194288375,3.9348724478836315e-05
-0.3449188489554217,-0.3449188489554217,0.999960908824414,3.918656152428418e-05
-0.3444251690598321,-0.3444251690598321,0.9999482001474351,3.906283795491159e-05
-0.3437203358029365,-0.3437203358029365,1.00006431269648,3.8878411200860474e-05
-0.3427900624687027,-0.3427900624687027,0.9999592468625155,3.9088493683284786e-05
-0.3421278355155664,-0.3421278355155664,0.9999745309508542,3.906309130419722e-05
-0.3410511897855031,-0.3410511897855031,0.9999905766499187,3.928325365293113e-05
-0.34061438883145456,-0.34061438883145456,1.000002503689956,3.924483632663884e-05
-0.34019778987785687,-0.34019778987785687,0.9999859213825216,3.915595804778561e-05
-0.3394754512235522,-0.3394754512235522,1.0000698624050222,3.905805568420555e-05
-0.338627666222601,-0.338627666222601,0.9999659806352174,3.907861425303051e-05
-0.3379463902027055,-0.3379463902027055,0.9999931098363228,3.916007322864117e-05
-0.3372332540697244,-0.3372332540697244,0.9999918315224885,3.917694817495246e-05
-0.33650771918546524,-0.33650771918546524,0.9999997966475368,3.918507195365492e-05
-0.3358986437022395,-0.3358986437022395,1.000027744406053,3.915389687751416e-05
-0.3354130994557636,-0.3354130994557636,1.0000240501499076,3.925909653321707e-05
-0.33470889436648577,-0.33470889436648577,0.999937833672135,3.915198657780325e-05
-0.33411675009556346,-0.33411675009556346,1.0000843547626124,3.897206763697966e-05
-0.3334175910138583,-0.3334175910138583,0.9999744990058292,3.906012749689492e-05
-0.3328332703007618,-0.3328332703007618,1.0000611247404518,3.909152526239298e-05
-0.33215956504718636,-0.33215956504718636,0.9999671258309777,3.9188994758026316e-05
