time,time,flux,flux_err
-0.4997103292716929,-0.4997103292716929,0.9997074871038548,0.00043496290185934876
-0.49869023437774257,-0.49869023437774257,0.9996094388917051,0.00043550373658894447
-0.49781633630239713,-0.49781633630239713,0.9995991797952777,0.0004388759541011232
-0.4973949926243222,-0.4973949926243222,0.9999111853534493,0.00040146773548054276
-0.49642497977692984,-0.49642497977692984,0.9995656858448768,0.0003949749837173167
-0.4954122533687041,-0.4954122533687041,0.9999568159142866,0.0003999114236481296
-0.49456890825604205,-0.49456890825604205,1.0000599906296803,0.00039778142523691945
-0.4939383389159048,-0.4939383389159048,0.9998093741386398,0.0003916616363486695
-0.493298855509056,-0.493298855509056,1.000134004956874,0.0003998196231199974
-0.49255587360603387,-0.49255587360603387,0.99979953397801,0.00039917661478696087
-0.4918217641170486,-0.4918217641170486,1.0003220154027717,0.0003941889180253396
-0.49114191237531485,-0.49114191237531485,1.0011387538465244,0.00040062434905957137
-0.4904362537301495,-0.4904362537301495,1.0002918924568105,0.0004033647557449025
-0.4895933495638019,-0.4895933495638019,0.9994370865972041,0.0004025456651122867
-0.489159138125251,-0.489159138125251,1.0000680536273252,0.0004027312162481465
-0.4885332955629565,-0.4885332955629565,1.0003178171923461,0.0004023843140793026
-0.48790056170255414,-0.48790056170255414,1.0002336814253485,0.0003981048787424014
-0.4872041195398197,-0.4872041195398197,0.9997856387393405,0.00040123364061278024
-0.48664621288335186,-0.48664621288335186,1.0003432904149656,0.0004058768039168838
-0.48616174145136026,-0.48616174145136026,0.9997123689426937,0.0003982274107682539
-0.4858392577698396,-0.4858392577698396,0.9999694568024861,0.0003999888198052555
-0.4848648035658698,-0.4848648035658698,0.9998249065502742,0.0003968806135921264
-0.4840460979794443,-0.4840460979794443,1.0001761591797742,0.0004038932706259886
-0.4832921845532837,-0.4832921845532837,1.000261182548165,0.0004018292947379973
-0.48260047113581095,-0.48260047113581095,0.9997399450796862,0.00039797907523123397
-0.4820104301703395,-0.4820104301703395,0.9990471813822784,0.0003921347605581626
-0.48141590277955404,-0.48141590277955404,1.000199001145918,0.00040735049186739627
-0.4806998684027349,-0.4806998684027349,0.9996662537855752,0.0004000382515756502
-0.4802328148150991,-0.4802328148150991,0.9996054874012913,0.00039630986759999555
-0.47956000691337974,-0.47956000691337974,1.0007000086147915,0.00040039822762517695
-0.47827851546753664,-0.47827851546753664,1.0002000592328029,0.0004017909743841704
-0.4775306165669463,-0.4775306165669463,1.0006546926681974,0.0004020513838298946
-0.4768905363504018,-0.4768905363504018,1.0003881274655888,0.0004007231676057996
-0.47648015947124805,-0.47648015947124805,0.9998382857357446,0.00039946329028270214
-0.47581387016762167,-0.47581387016762167,1.0001903022181822,0.00039840432306529055
-0.4750985679878795,-0.4750985679878795,1.000256233701769,0.00040538230486575284
-0.47461491238864256,-0.47461491238864256,1.000056656284294,0.00040052169402264267
-0.4742868146087858,-0.4742868146087858,1.000075365484427,0.00039976797439974414
-0.4738200552208582,-0.4738200552208582,1.000321797914547,0.0004040672583002805
-0.4734131896635517,-0.4734131896635517,1.0002489540932862,0.0003969469568694847
-0.47271128683933056,-0.47271128683933056,0.9999284084301776,0.0004029407221308169
-0.4721788028582523,-0.4721788028582523,1.0002625599579738,0.0004051373920592194
-0.4716516504777246,-0.4716516504777246,1.0003151012591547,0.00040479105995716564
-0.4710524077163427,-0.4710524077163427,0.9993217013185347,0.0003979625216876271
-0.4703907006281952,-0.4703907006281952,1.000042998323917,0.00039876628981227216
-0.4697732620850729,-0.4697732620850729,1.0000870824663834,0.00039862453721467323
-0.46879787310244864,-0.46879787310244864,0.9992980975255554,0.00039722361465213804
-0.46794626358459934,-0.46794626358459934,0.9997304249698885,0.00039611397982100403
-0.466875375208474,-0.466875375208474,1.0001916939868418,0.00039840403118329557
-0.4663453375113022,-0.4663453375113022,1.000262017077101,0.00040207950275147306
-0.4658934309038159,-0.4658934309038159,1.000639438459697,0.0003976899693694253
-0.4653410083017661,-0.4653410083017661,1.0001972413659475,0.0004005489746741795
-0.46472121476981554,-0.46472121476981554,1.0002956397051754,0.00039493895938023504
-0.4638156580316718,-0.4638156580316718,1.0002305859081193,0.0003999568461905933
-0.46307961916318163,-0.46307961916318163,1.000525827034708,0.00040213602539429635
-0.4626103567534301,-0.4626103567534301,0.9999315733987203,0.0004015785354380383
-0.4621443771626218,-0.4621443771626218,1.000288051132823,0.0004069115370654109
-0.4618658974315622,-0.4618658974315622,1.0001597714765367,0.00039533665582949524
-0.46112065446577616,-0.46112065446577616,0.9995304006134603,0.0004064339107288417
-0.4602441217735759,-0.4602441217735759,0.9992155935958797,0.0004024662660098055
-0.4595044017354667,-0.4595044017354667,0.9996732463903368,0.0003980356344364228
-0.458925942973292,-0.458925942973292,1.0002284393971812,0.0004000117543919095
-0.4583987825266377,-0.4583987825266377,0.9999759376124351,0.0003985259280510152
-0.45734205302069314,-0.45734205302069314,0.9999994040095848,0.0003979730648177145
-0.45626206404922415,-0.45626206404922415,0.9999993407399973,0.00039899506083658184
-0.4554328868965968,-0.4554328868965968,0.999995818012574,0.00040058102513163376
-0.454674139754934,-0.454674139754934,0.9997852537580958,0.0004004238908893808
-0.45397302312994725,-0.45397302312994725,1.000562052740655,0.0004033092010632442
-0.45318896613825926,-0.45318896613825926,1.000735054243921,0.00039474779520723077
-0.45232682349451353,-0.45232682349451353,1.0007212195455892,0.00039758321232201426
-0.45163847895382786,-0.45163847895382786,0.999848439150607,0.0003955328565653568
-0.4512317731991061,-0.4512317731991061,1.0002534209038942,0.0004013687766527654
-0.4507104456963134,-0.4507104456963134,0.9999684971937007,0.0003986846278149012
-0.4500027412337658,-0.4500027412337658,0.9999446357205386,0.0004050160372612661
-0.4492119668488158,-0.4492119668488158,1.0006375713823645,0.0004038383584692428
-0.44845125074425596,-0.44845125074425596,1.0001531274939952,0.00040425913696663055
-0.44795645349586266,-0.44795645349586266,1.0000411912630471,0.00039824382792402106
-0.4474546993151307,-0.4474546993151307,1.0003147675213975,0.00039974423884801857
-0.44689643442980015,-0.44689643442980015,0.9996621282987294,0.0003927401747676327
-0.44601471083369687,-0.44601471083369687,0.9999063001335475,0.000391736913964437
-0.4452022112767736,-0.4452022112767736,1.0004253433703392,0.0004004750650182613
-0.44402989307272944,-0.44402989307272944,1.0004275166339127,0.000393174837965793
-0.44298465249084984,-0.44298465249084984,1.0004260635728621,0.0004029663271252845
-0.44216059238096933,-0.44216059238096933,0.9995054666867105,0.0003986272207660321
-0.4412585736899928,-0.4412585736899928,0.9999207369454683,0.00039449762962156626
-0.44071132512181066,-0.44071132512181066,1.0002557195720438,0.0004001553986577199
-0.439907306778332,-0.439907306778332,0.999432444741976,0.00039516240662185626
-0.4393809924709785,-0.4393809924709785,0.999793124634483,0.00040200393846363396
-0.4386219258361962,-0.4386219258361962,1.0008095821335163,0.0004002608814818981
-0.43812617517323815,-0.43812617517323815,1.000264910653317,0.0004032706172312239
-0.43754072744050065,-0.43754072744050065,1.0004817357011746,0.0004044400821619818
-0.437110826792923,-0.437110826792923,1.000199249949375,0.0004052565065935907
-0.4364975095522823,-0.4364975095522823,0.9996269009002112,0.0003964317088325484
-0.43602894083960564,-0.43602894083960564,1.0000115923458481,0.00040236155751358326
-0.43541055215100644,-0.43541055215100644,0.9996572624386649,0.000394860284531851
-0.43480880803399485,-0.43480880803399485,1.0000338104326463,0.00040140894927430843
-0.4341971502624801,-0.4341971502624801,0.999783344048548,0.0003936869551807862
-0.4333438776287949,-0.4333438776287949,1.0006034474561587,0.0004014701707162296
-0.432236847794411,-0.432236847794411,0.9997252876292222,0.00040099127794326536
-0.4315141075705469,-0.4315141075705469,1.000408971150163,0.00039472343846770635
-0.43062921881864896,-0.43062921881864896,1.0008127720254087,0.0004003883946455787
-0.4302607475729019,-0.4302607475729019,1.000132528710871,0.0004016576188412285
-0.4295201167726191,-0.4295201167726191,1.0003308567430251,0.00039558660531665917
-0.42894162302472977,-0.42894162302472977,1.0000437387137049,0.00039758508693749474
-0.4282758335422841,-0.4282758335422841,1.0002495248046148,0.000398729418359882
-0.4275682546925964,-0.4275682546925964,0.9998090061815565,0.00039636835232518907
-0.42674266599860855,-0.42674266599860855,1.000546015863921,0.0004004805320930712
-0.4260358078427089,-0.4260358078427089,1.000134424932305,0.0004036372019243792
-0.425568207338074,-0.425568207338074,0.9995460301308612,0.00040218745112533227
-0.42495544296034493,-0.42495544296034493,1.0000546833134956,0.00040196238124610626
-0.42468418424614357,-0.42468418424614357,1.0001846791080062,0.00039679478224828883
-0.4238980573398294,-0.4238980573398294,1.0002259418368604,0.0003983736107382622
-0.4232333599044068,-0.4232333599044068,1.0001946419246255,0.0003971296372993386
-0.4224450608591724,-0.4224450608591724,1.0003232535978546,0.0003979502899296544
-0.4215865514379402,-0.4215865514379402,1.0000457819009805,0.00039762046964851984
-0.42050131556388803,-0.42050131556388803,0.9996477419262055,0.00039487591116259155
-0.4193368520529475,-0.4193368520529475,1.0003185490665825,0.00040147474351309254
-0.418875201188348,-0.418875201188348,1.00009337289159,0.0003957230693330866
-0.41799262199056103,-0.41799262199056103,1.0006690869589563,0.00039684074411488833
-0.4170853613723011,-0.4170853613723011,1.0007718089497686,0.0003988355896485158
-0.4165457880350004,-0.4165457880350004,1.0001989941266136,0.0003972029843497751
-0.4160503261431586,-0.4160503261431586,1.0000709073594702,0.0003997167474866367
-0.4152603192655079,-0.4152603192655079,0.9995690970991371,0.00039383320719794625
-0.4143417530947772,-0.4143417530947772,0.9998129577980057,0.0003998964061428488
-0.41380371829363866,-0.41380371829363866,1.000187676256202,0.00040219388559694004
-0.41326652287025356,-0.41326652287025356,0.9999179773982781,0.00040333354606061895
-0.41302445984256336,-0.41302445984256336,0.9999675615727183,0.00039143829930597223
-0.4124256158946082,-0.4124256158946082,1.000327063986252,0.0003984661479694178
-0.4117769103584578,-0.4117769103584578,0.9999863415921133,0.0004023629344627526
-0.4111178955885407,-0.4111178955885407,0.9996144120597199,0.00039968878009966893
-0.4107448460534215,-0.4107448460534215,1.0004559858955442,0.00039807344091411596
-0.40996828366842236,-0.40996828366842236,1.0002356463747133,0.000397513523673626
-0.40902922232126004,-0.40902922232126004,0.9996541496453852,0.0003978724592836562
-0.40766228893844525,-0.40766228893844525,0.9998514478603713,0.00040135302209108733
-0.40701123715844006,-0.40701123715844006,0.9997889058809925,0.00039721576370995576
-0.40654240829098853,-0.40654240829098853,0.9995776818115287,0.0004054385495205208
-0.4058614951878553,-0.4058614951878553,0.9997370087843465,0.00039731118565668785
-0.4051160776070901,-0.4051160776070901,0.9998042074949451,0.00039456077628851184
-0.404510892174585,-0.404510892174585,0.9991142944091033,0.00039916221030888196
-0.4035401227178227,-0.4035401227178227,1.0001505588222994,0.0003973776974990839
-0.4024097759625874,-0.4024097759625874,1.0006456183080965,0.000398984871911719
-0.40189390891609944,-0.40189390891609944,1.0006927617602615,0.00040182289956131235
-0.4016278121598589,-0.4016278121598589,1.0004287258271742,0.00039780296052338424
-0.4008895926985133,-0.4008895926985133,1.0001768369798225,0.00039881826432062095
-0.4004899285209831,-0.4004899285209831,1.000320231837248,0.0003984215522440853
-0.3998718585251481,-0.3998718585251481,0.9997219838583987,0.00040054820630928213
-0.39924878243982675,-0.39924878243982675,0.999936743200449,0.0004019174533431584
-0.39847938599486954,-0.39847938599486954,0.9997729064552496,0.00039158867165463643
-0.39759696960245494,-0.39759696960245494,1.0001563860731328,0.0004016862524472191
-0.3960677851449873,-0.3960677851449873,0.999597484860723,0.0003939111574916473
-0.395392842470028,-0.395392842470028,1.0001339229975916,0.0003950129837971066
-0.39482901891315125,-0.39482901891315125,1.000162121725996,0.0003968124784574661
-0.39409051534239553,-0.39409051534239553,0.9999567994819578,0.0003976965113225139
-0.39344647241960046,-0.39344647241960046,0.9998894204300595,0.00039675617794849926
-0.3925874644322903,-0.3925874644322903,1.0002780774449582,0.0003983284980889904
-0.39168467216659336,-0.39168467216659336,0.9997793766609601,0.0004047688982232576
-0.3910553119669203,-0.3910553119669203,1.0000833471571715,0.00039599745256923516
-0.3904980196748511,-0.3904980196748511,0.9995936297794019,0.0004039694408628781
-0.3901914427246084,-0.3901914427246084,0.9998604863213195,0.00040171859938920333
-0.3898401684971759,-0.3898401684971759,1.0007094165216075,0.00039698730596389074
-0.3889376425162482,-0.3889376425162482,0.9992569695179231,0.00039638151948371306
-0.3881410845693608,-0.3881410845693608,0.9999986689318459,0.00040573207536785915
-0.387777699300932,-0.387777699300932,0.9998038518687217,0.0003947731258335395
-0.3872683394234627,-0.3872683394234627,1.0000139401951251,0.00040470350117295374
-0.38637498786629293,-0.38637498786629293,1.0000288297038415,0.0003963820917764307
-0.3852821950968064,-0.3852821950968064,1.0002978128780329,0.0004040669928702008
-0.38424070469191063,-0.38424070469191063,1.0003637935524976,0.0003934240532718139
-0.3835811934863159,-0.3835811934863159,1.0001739030157282,0.0003962130503763995
-0.3830849600119109,-0.3830849600119109,0.9989982720736503,0.0004003697717430115
-0.38210350558001666,-0.38210350558001666,0.9996078499073107,0.00039842778352830227
-0.3816295880445978,-0.3816295880445978,1.0005878814862315,0.0004022066340451805
-0.3809065328372526,-0.3809065328372526,0.9995076382015796,0.0003998890136442639
-0.3800535189162474,-0.3800535189162474,0.9996531605735838,0.0003991144111281697
-0.3795126678458473,-0.3795126678458473,1.0001002246482256,0.0004015174645540254
-0.37888858167352735,-0.37888858167352735,1.0001085522768336,0.000405527827300249
-0.37830728777335026,-0.37830728777335026,1.0000875325120797,0.00039466113736504353
-0.37764376547856954,-0.37764376547856954,1.0003684382370768,0.0003994017472581836
-0.3769824207578495,-0.3769824207578495,0.9997953872269771,0.0004056405036800863
-0.3764481975515082,-0.3764481975515082,1.0006633063990904,0.00040088351347698217
-0.3760891123798501,-0.3760891123798501,1.0001183577478359,0.0004051481155489545
-0.37531655495549787,-0.37531655495549787,1.0004076193537224,0.000396810530654927
-0.37437578946191935,-0.37437578946191935,0.9997869965533421,0.0004029289558673657
-0.3737460552401899,-0.3737460552401899,0.9998879685625546,0.00040428982762765744
-0.37287044164550026,-0.37287044164550026,0.9998549358290081,0.0003959620418575044
-0.37227673440793296,-0.37227673440793296,1.0007051261099649,0.0003915756053483492
-0.37157065202409284,-0.37157065202409284,1.0004302591840357,0.0004023146263435181
-0.3706117686328071,-0.3706117686328071,1.000122370196748,0.00039780784801587353
-0.370249748822971,-0.370249748822971,1.0002634400154058,0.0003963164195918506
-0.36963054950829244,-0.36963054950829244,0.999713224949641,0.0003976389647529778
-0.3686728759326797,-0.3686728759326797,1.0007082988181195,0.00040184548900379786
-0.3678342803454143,-0.3678342803454143,1.0005201881318198,0.0004060147116866378
-0.3672567788300512,-0.3672567788300512,1.0003929834213467,0.00039690380374061095
-0.3668824640335515,-0.3668824640335515,1.0002929375116936,0.000396148865789782
-0.3662292107277608,-0.3662292107277608,1.0001023676809697,0.00039894764765227114
-0.3656447215937078,-0.3656447215937078,0.999602437352964,0.0004019689922711989
-0.3651201305612631,-0.3651201305612631,0.9998438999525454,0.00040217778454570947
-0.36473296381809633,-0.36473296381809633,0.9997664929895717,0.0004006127682456082
-0.36437855069816577,-0.36437855069816577,1.0000321095876725,0.0004022784765389276
-0.3637673564888246,-0.3637673564888246,0.9999427242489162,0.0004030426301336474
-0.3631898617946717,-0.3631898617946717,1.0000726146905599,0.00040066499987105554
-0.3624435417092172,-0.3624435417092172,1.0003776084400395,0.0004018461537712041
-0.36178704321137045,-0.36178704321137045,0.9998936484627954,0.00040052812717087565
-0.36117475867358734,-0.36117475867358734,1.0001995398050851,0.0003980690145458654
-0.36040743108314927,-0.36040743108314927,1.0003766212494714,0.00039872113378435034
-0.35969131988822484,-0.35969131988822484,0.9997698754066796,0.0003985813663848326
-0.3588743967920891,-0.3588743967920891,0.9999464827221827,0.00039716701051505375
-0.3580773990950547,-0.3580773990950547,1.0003735848856519,0.0004002229461502883
-0.3568811612625723,-0.3568811612625723,1.0005144829512065,0.0003997186048384888
-0.35631355840014295,-0.35631355840014295,1.0000063275879083,0.00039986342561958946
-0.3557255780076957,-0.3557255780076957,0.9996110721457351,0.0004021435144334762
-0.3551239602151327,-0.3551239602151327,1.0001951775821905,0.0003914615935361247
-0.3542460190663405,-0.3542460190663405,1.000266429492123,0.00039878496707961497
-0.3535045751086727,-0.3535045751086727,1.0002260348524366,0.0004050779689253538
-0.35308205411492966,-0.35308205411492966,1.0001225038070822,0.00040088496882945845
-0.3526490837772144,-0.3526490837772144,0.9997384523991866,0.0004018834954962116
-0.3520421390043339,-0.3520421390043339,1.0001044809584414,0.00039859979084328444
-0.35143499751211493,-0.35143499751211493,1.000142674678555,0.0004066527778842347
-0.3506404199222743,-0.3506404199222743,1.0001301381014742,0.00040133144506835283
-0.34995690313662636,-0.34995690313662636,1.00039586070099,0.00039923864063372326
-0.349548812287685,-0.349548812287685,0.9994064278892422,0.00039787957469408243
-0.34897182618806255,-0.34897182618806255,1.000236109004051,0.0004026220271939322
-0.348691121005686,-0.348691121005686,1.0002696555829833,0.0003964876674185863
-0.3478722488885978,-0.3478722488885978,0.9997279837689848,0.00040303974163417725
-0.3472047955227026,-0.3472047955227026,1.000021851002214,0.00039775588148882845
-0.3459101117179671,-0.3459101117179671,1.0011526689434465,0.00040000788706644083
-0.345045399859373,-0.345045399859373,1.0001705317967138,0.00040001354061607015
-0.3443246018774516,-0.3443246018774516,1.0002830043069018,0.00040733709239618805
-0.34360233555489683,-0.34360233555489683,1.0001158517566706,0.000389586031868466
-0.34271073771378724,-0.34271073771378724,0.9998723472351086,0.00039332058588221146
-0.34188678876744233,-0.34188678876744233,1.00012313141413,0.0004033769931505363
-0.3414949693309609,-0.3414949693309609,1.0002153896100467,0.00039902087511142466
-0.3409836197191908,-0.3409836197191908,0.9998933777323685,0.0004011590281356518
-0.3403653524292167,-0.3403653524292167,0.999584071003637,0.0003989975675367374
-0.339654692732438,-0.339654692732438,0.9998899110132689,0.00040684062976218576
-0.3388973516870465,-0.3388973516870465,0.999691183870436,0.0004098351049516372
-0.33826310943695714,-0.33826310943695714,1.0002484399434428,0.00039911138862177133
-0.3379846781514061,-0.3379846781514061,0.999424870461343,0.00039708443195740596
-0.33737917981125065,-0.33737917981125065,1.0005002123376896,0.0003948246698517621
-0.3366021603513218,-0.3366021603513218,1.0001354903913433,0.00039509768544923103
-0.3359311635074846,-0.3359311635074846,1.0001666612429285,0.00039796429109047876
-0.3350428830941382,-0.3350428830941382,1.0003246707223077,0.0004016567355880424
-0.33370054436672947,-0.33370054436672947,1.000558248526629,0.0003919064245738612
-0.33258427368928095,-0.33258427368928095,0.9999292710298228,0.00040349613322262265
-0.3316180714617076,-0.3316180714617076,0.9999669878139354,0.00039439042077105916
