time,time,flux,flux_err
-0.4998864471632866,-0.4998864471632866,1.0016274870204043,0.002772111948456848
-0.4997857011154944,-0.4997857011154944,1.000011845696186,0.002979019319988136
-0.4996056268413061,-0.4996056268413061,0.997761655770137,0.003008442803046148
-0.4995086203343817,-0.4995086203343817,1.004189064459129,0.0027645498659595556
-0.49939354707385064,-0.49939354707385064,1.0006778589187406,0.002757483615620893
-0.4992541076204361,-0.4992541076204361,0.9981889369302003,0.0025546773054393093
-0.49917391660928845,-0.49917391660928845,1.001224405412629,0.002860345530245498
-0.4990315576942521,-0.4990315576942521,1.0015436745031094,0.0027235415454303735
-0.49892003963941534,-0.49892003963941534,1.0003864048492646,0.0025225548012672025
-0.4988062129021273,-0.4988062129021273,1.0021357921672898,0.0027412133767430193
-0.4986989988003188,-0.4986989988003188,0.9991916381009902,0.0021959600694605344
-0.4986282428726554,-0.4986282428726554,1.0060873859122001,0.002587497440560018
-0.49853151485003766,-0.49853151485003766,0.9983839896983598,0.0027494684433128835
-0.4984153332781716,-0.4984153332781716,1.0008212787078619,0.0025393447064878936
-0.49832258976894084,-0.49832258976894084,1.0036215356055416,0.0025857913680170344
-0.4981982578523457,-0.4981982578523457,1.0009485674525478,0.002529940161453409
-0.49812018009688475,-0.49812018009688475,0.9991292672176779,0.0031558959224300886
-0.4980390074935713,-0.4980390074935713,0.9995567108660339,0.0025877342585074723
-0.49793816731398693,-0.49793816731398693,0.9979377929062055,0.0027048097947273545
-0.49786740180607014,-0.49786740180607014,0.9984595819629899,0.0024046327195204917
-0.4977989001687092,-0.4977989001687092,1.0018683267333024,0.003214497322349668
-0.4976933011261281,-0.4976933011261281,0.9992231664581569,0.0026788455177892
-0.49759633374633266,-0.49759633374633266,0.9989409387933428,0.0025317501911909625
-0.4975200553537434,-0.4975200553537434,0.9996924812524819,0.0031234839734577443
-0.4974367956074275,-0.4974367956074275,0.9999198072955269,0.002815269829000903
-0.49730579758506793,-0.49730579758506793,0.998802888111965,0.002570694951363131
-0.49724194060472654,-0.49724194060472654,0.9991069751678626,0.002277912451846666
-0.497166353533612,-0.497166353533612,1.0004526515796437,0.0033038258349397595
-0.497054926569399,-0.497054926569399,0.9988098785052753,0.002635191506730825
-0.4969608715346112,-0.4969608715346112,1.000058208462941,0.0024420227081114907
-0.496862739961216,-0.496862739961216,0.9986359562773522,0.0027241458020704477
-0.49677608454258004,-0.49677608454258004,0.999882840749305,0.0025441534354706695
-0.49666222350060707,-0.49666222350060707,0.9991292462486442,0.0024388713099702908
-0.49657442441857713,-0.49657442441857713,0.9997018498292249,0.0026616370484684264
-0.4964732892338361,-0.4964732892338361,1.000095134545503,0.0026991147164800626
-0.49636572900235476,-0.49636572900235476,1.0016174214796087,0.0024341780311236123
-0.49626212580878926,-0.49626212580878926,0.9983760541136064,0.0027255266020418003
-0.49616532164000093,-0.49616532164000093,0.9996416976907255,0.002633631057801538
-0.4960692937082058,-0.4960692937082058,1.002492971194199,0.0024390652495237834
-0.4959708510468772,-0.4959708510468772,1.001830875420011,0.003251113069802364
-0.4958650052503799,-0.4958650052503799,0.9997923525442818,0.002789300187078085
-0.4957729238740285,-0.4957729238740285,0.999419731191821,0.0024458627591231437
-0.49566099238363676,-0.49566099238363676,1.0001859192471412,0.0032445263403108695
-0.49554609930492005,-0.49554609930492005,0.9986342706384654,0.002667787744481239
-0.49547332126494437,-0.49547332126494437,1.0014217110159642,0.00258033532976397
-0.4953528266079957,-0.4953528266079957,0.9997872054359715,0.0033871250429193464
-0.4952430796882254,-0.4952430796882254,1.0020528471050167,0.0024536617456439717
-0.4951639803752187,-0.4951639803752187,0.9999830235052037,0.0027540036181906277
-0.49504840871049965,-0.49504840871049965,0.9979550122693999,0.003370062382348522
-0.49494590836548014,-0.49494590836548014,0.9989279297371324,0.002541662971792181
-0.49487329591065643,-0.49487329591065643,1.0040135341253449,0.0024985894862775537
-0.49472602373753033,-0.49472602373753033,0.9991460264768767,0.002789095760407119
-0.4946298814404145,-0.4946298814404145,1.0020880211031429,0.002621004251065489
-0.494544154252435,-0.494544154252435,1.0013850183865682,0.0025967201367759272
-0.4943874307857186,-0.4943874307857186,0.9988801647310466,0.002820718866763533
-0.49428089876673764,-0.49428089876673764,0.9988276439796182,0.002706088635792964
-0.49415121496786013,-0.49415121496786013,1.0016477147733318,0.0028578132480647257
-0.4940086591977888,-0.4940086591977888,1.0000355516591133,0.0028379670728071
-0.49384475037622905,-0.49384475037622905,1.000289351141701,0.00269806247431065
-0.4936937171773025,-0.4936937171773025,1.0013314596954213,0.003207978475561539
-0.4935337409755448,-0.4935337409755448,1.0026178849477279,0.0026328456437149754
-0.4933878036408714,-0.4933878036408714,0.9999333081785743,0.0034647576696312486
-0.4932505292861606,-0.4932505292861606,1.0006916563560928,0.0028038462107571964
-0.4931037586669845,-0.4931037586669845,0.998183951295187,0.0037062568322522977
-0.4929542150857742,-0.4929542150857742,0.9999941631696077,0.0028105092152135554
-0.4928001675634732,-0.4928001675634732,1.0030655890552853,0.004689531829085979
-0.49267976422415816,-0.49267976422415816,0.9993696676427761,0.00280737163722086
-0.4925448797930585,-0.4925448797930585,1.0054444501321387,0.003964231873793694
-0.49241517742775615,-0.49241517742775615,1.00047964273601,0.0027461692336199117
-0.4923014410156611,-0.4923014410156611,1.0004151677422168,0.002943165190530383
-0.49207286446835496,-0.49207286446835496,0.999008864634207,0.002886298443864037
-0.4918862152910151,-0.4918862152910151,0.998853607832166,0.002722419284522011
-0.4917417827015015,-0.4917417827015015,1.0021083375748028,0.0036919088946571255
-0.4915812554736476,-0.4915812554736476,0.9999697702689325,0.004352358599560262
-0.4913731109780201,-0.4913731109780201,1.000929567062252,0.0028275055128429466
-0.491172467247452,-0.491172467247452,0.9983616989031768,0.0029804851744197913
-0.4910100050299661,-0.4910100050299661,1.0213651970692883,0.002700023059787611
-0.4908085408027546,-0.4908085408027546,1.0004536812013085,0.0035695915007544522
-0.4905772347898164,-0.4905772347898164,0.9989585165948617,0.0033923907034786823
-0.4903950127034477,-0.4903950127034477,0.9982809817347599,0.0028689203895214004
-0.4901576203585137,-0.4901576203585137,1.0003939048266592,0.002889780481906535
-0.4899076706336928,-0.4899076706336928,0.9968341206241409,0.002901816323948968
-0.4897199578670552,-0.4897199578670552,1.002191085767693,0.002752741701458196
-0.4895302523422288,-0.4895302523422288,1.0010406554922158,0.0025706733686933795
-0.4893510265272198,-0.4893510265272198,0.9989199006786184,0.002751515077507265
-0.48915030540447335,-0.48915030540447335,1.0029590475692665,0.002693084894433608
-0.48892464295313404,-0.48892464295313404,1.0014955002346073,0.0025733166965432163
-0.48870839100018204,-0.48870839100018204,1.0001217781884244,0.0028862669040954714
-0.48846177503510263,-0.48846177503510263,1.000003202385351,0.002860017929181194
-0.48826784612501795,-0.48826784612501795,1.0015257761751646,0.002692017227814136
-0.4881050702220818,-0.4881050702220818,1.0020129188133169,0.002925262943931927
-0.487914206512869,-0.487914206512869,0.9995552147120229,0.0029892596861428237
-0.48774010785673455,-0.48774010785673455,1.0003760458840578,0.00304106365047743
-0.4875921677899896,-0.4875921677899896,1.0025334390319087,0.0027538079515535643
-0.48747058768567514,-0.48747058768567514,1.0012447214523594,0.0030257285259628936
-0.48729239631611565,-0.48729239631611565,0.998552971404407,0.002770064016153669
-0.48716600553234457,-0.48716600553234457,0.9958235085069385,0.003035486043524819
-0.4869988788894261,-0.4869988788894261,0.9991952226066736,0.0029813718910172227
-0.48689739051624203,-0.48689739051624203,0.9998208686704627,0.0029899702050297894
-0.4867143487208523,-0.4867143487208523,1.0044092560626847,0.003099516810905337
-0.4866466482006217,-0.4866466482006217,0.998733639371767,0.0027743795658689407
-0.4865120273334469,-0.4865120273334469,1.0031471747948144,0.0030088489157123538
-0.4863899350973952,-0.4863899350973952,1.001955615121282,0.002902164396922734
-0.48627734611982304,-0.48627734611982304,0.9999037579691319,0.002902765983489648
-0.4861081113704131,-0.4861081113704131,1.0042011971812623,0.003049898946266648
-0.4860264912338607,-0.4860264912338607,0.9992073945672508,0.002890524952150632
-0.4858522173050005,-0.4858522173050005,0.9978202237050701,0.0027640476696131075
-0.48576800888004074,-0.48576800888004074,1.0003211874264637,0.002904363514183511
-0.48568081386038103,-0.48568081386038103,1.0004024246584389,0.002817058232610992
-0.4855451752922818,-0.4855451752922818,0.9964024040535431,0.003238714466192394
-0.4854617450222577,-0.4854617450222577,1.0002178598059672,0.003004884626955279
-0.48536076792406674,-0.48536076792406674,1.0009665049686078,0.0028049519630703075
-0.4852469674129679,-0.4852469674129679,0.9994171651400716,0.003586513065958008
-0.4851123616514087,-0.4851123616514087,0.9999120052702178,0.002951647190375891
-0.4849744982959237,-0.4849744982959237,1.0009545077294244,0.003496809345348726
-0.48481746799516257,-0.48481746799516257,0.9948404124908536,0.002889309040336549
-0.48469681146052607,-0.48469681146052607,0.9992252517852913,0.0034045563783914345
-0.48454917623566873,-0.48454917623566873,1.0019821266142743,0.003119428075628662
-0.48441250862415475,-0.48441250862415475,1.0009744921419779,0.0031728856597601973
-0.48427002167773026,-0.48427002167773026,0.9993970382845113,0.0028982513435498276
-0.48411081608574025,-0.48411081608574025,0.999857980974881,0.0033592439571875922
-0.48393050752601996,-0.48393050752601996,0.9979304676104753,0.0035584825204834714
-0.48377487717771145,-0.48377487717771145,0.998818687112097,0.003404211985395679
-0.48355098148931575,-0.48355098148931575,0.9969235442451003,0.003459185829503364
-0.48341141196797255,-0.48341141196797255,1.0004097052247918,0.003334876253343357
-0.48326805241558757,-0.48326805241558757,1.00107116041878,0.0033219027307873025
-0.4830881095433142,-0.4830881095433142,1.0001033315044632,0.003295955394236453
-0.48292977756864275,-0.48292977756864275,0.9998655489102415,0.0032085000713055465
-0.48275797944297666,-0.48275797944297666,0.9992921827032347,0.0032704260755208317
-0.48258974731325,-0.48258974731325,0.9969187467322683,0.0033958763861419994
-0.48239932349315495,-0.48239932349315495,0.9995875210917664,0.0033263813293183107
-0.48222232045154667,-0.48222232045154667,0.9993308513243949,0.003237732193171575
-0.4820970357497572,-0.4820970357497572,1.0018667362280584,0.003321802265857695
-0.481929513355135,-0.481929513355135,0.9986706465993302,0.0030968990604416428
-0.4817633358950843,-0.4817633358950843,0.9976706870108141,0.0032956988633283018
-0.4816225998725713,-0.4816225998725713,1.0012783626746196,0.0031977238926260677
-0.48150960761086026,-0.48150960761086026,0.9996842352194617,0.0035557735344631525
-0.4813728840632393,-0.4813728840632393,0.9988664726370915,0.0032277716402158672
-0.48121781512745654,-0.48121781512745654,1.0015369523731885,0.0036261743039497176
-0.48106694243797393,-0.48106694243797393,1.0014017189120206,0.0032934192774374477
-0.48087835342776086,-0.48087835342776086,0.9981109017339168,0.003692732859144252
-0.48075160345833867,-0.48075160345833867,0.9977268534474988,0.0028915759014350403
-0.48059091379618624,-0.48059091379618624,0.9978406131263942,0.003531964638481158
-0.48050209541434014,-0.48050209541434014,0.9987784057894482,0.003513531767428895
-0.480312059357675,-0.480312059357675,1.003426044064087,0.002980329567742762
-0.4802180551498168,-0.4802180551498168,1.0040168035330954,0.003663850924389968
-0.4801450457860483,-0.4801450457860483,0.9986551971138955,0.002894834723216629
-0.47997769713037997,-0.47997769713037997,1.0004137288304462,0.0029448710155239
-0.4798992000818544,-0.4798992000818544,0.9987903367341113,0.003780558443756175
-0.47982269980493586,-0.47982269980493586,1.001038607632871,0.0027683728416436917
-0.4796717357432499,-0.4796717357432499,1.0028944920635727,0.0029464810114487434
-0.47958686512647547,-0.47958686512647547,0.9982091887653679,0.003341891344963798
-0.4794919887328433,-0.4794919887328433,0.9999004537159875,0.0024525695347227513
-0.4793669583083101,-0.4793669583083101,1.0004287381950805,0.0029768595455088435
-0.479278097740098,-0.479278097740098,1.0029491829610144,0.0032879917898372747
-0.47914434877347956,-0.47914434877347956,1.0027251175667098,0.002286118525137006
-0.4790092803381413,-0.4790092803381413,1.0014166655223273,0.003696017776808299
-0.4789033761502651,-0.4789033761502651,1.0006892191835914,0.00250623837718852
-0.4787230138121231,-0.4787230138121231,1.0009048515802514,0.0033382273969066205
-0.47861997504587633,-0.47861997504587633,1.0029151739509414,0.003221939345864344
-0.47840776424236536,-0.47840776424236536,1.0016704366283846,0.003508952512335501
-0.4782978043236653,-0.4782978043236653,0.9975755096554586,0.0031844937454749526
-0.4780748985511309,-0.4780748985511309,1.0001199173663586,0.0031503614557532055
-0.47785728924136495,-0.47785728924136495,0.998406831623376,0.003855106448637977
-0.4776505988313147,-0.4776505988313147,0.9981381784759972,0.003397279009796003
-0.4774767852759396,-0.4774767852759396,1.000121703952313,0.003683112997943866
-0.4772725653816451,-0.4772725653816451,0.9993372882861549,0.0034850309668369903
-0.4770239379537088,-0.4770239379537088,0.9999771236284998,0.0032321329302383967
-0.47687081636431683,-0.47687081636431683,0.9991807854370733,0.003466720180180636
-0.4766667478230374,-0.4766667478230374,0.9991111257380497,0.0034606539962804966
-0.4764754098901903,-0.4764754098901903,0.9991675154835888,0.003745553631906453
-0.4762892943155748,-0.4762892943155748,1.0002777998092243,0.003446921309421986
-0.47605121909364245,-0.47605121909364245,1.0006074115681292,0.003207809427783768
-0.4758939256404119,-0.4758939256404119,1.0002152116032688,0.004891205213547717
-0.47566075680806535,-0.47566075680806535,0.9988432500712732,0.004458101851493086
-0.47549993674037977,-0.47549993674037977,1.0021185042914553,0.006038488217122655
-0.4753421032335609,-0.4753421032335609,0.9978706322452207,0.00405488254590301
-0.47517658246251815,-0.47517658246251815,0.9990522537801418,0.0037741974714440504
-0.47497433943899525,-0.47497433943899525,1.0008020370658648,0.003411121805446097
-0.47479238849664396,-0.47479238849664396,1.003360747706189,0.003391903143019172
-0.4745962870074436,-0.4745962870074436,1.004811866054561,0.003701220629073909
-0.47435620048563576,-0.47435620048563576,1.000364719729859,0.003573713318981543
-0.4741834311658749,-0.4741834311658749,1.001806566013272,0.003825615144932626
-0.4740253342097276,-0.4740253342097276,0.9996571996579565,0.0035455816310412474
-0.4738960094517097,-0.4738960094517097,0.9987634859862741,0.0033242279700839107
-0.4736874115449609,-0.4736874115449609,1.0026901978192118,0.003925674024084949
-0.4734583929195651,-0.4734583929195651,0.9969945342388055,0.0033593429797610644
-0.4733073725430586,-0.4733073725430586,0.9998765259755172,0.003379516131342806
-0.47310305731225527,-0.47310305731225527,1.0022701572746269,0.0028458369775686857
-0.4729649165965384,-0.4729649165965384,1.0016159085794083,0.003283652631205379
-0.47275818186681134,-0.47275818186681134,0.9986614923004415,0.003450219218554369
-0.4725927504070569,-0.4725927504070569,0.9992466598953816,0.0029146635449366987
-0.4725005703705392,-0.4725005703705392,1.0027483342472372,0.0029237555105158927
-0.4723857809742185,-0.4723857809742185,1.000016291753066,0.0033708061688929114
-0.47221124401767156,-0.47221124401767156,0.9997692019377489,0.0027281008744694637
-0.4720370771137823,-0.4720370771137823,1.0004253348878218,0.00257061005688533
-0.4718390729634848,-0.4718390729634848,0.9998586940284403,0.0031680543095391174
-0.4716339419956057,-0.4716339419956057,0.9989109255600459,0.0029812780693605845
-0.47145010868189274,-0.47145010868189274,0.9989039670476204,0.002521350585411441
-0.4712738899284886,-0.4712738899284886,0.9998503220553416,0.002928139839389763
-0.4711401019951154,-0.4711401019951154,1.009771243793772,0.0026521492252485623
-0.47090696098493934,-0.47090696098493934,0.9987752110917103,0.0027657557715188123
-0.47082302751405225,-0.47082302751405225,0.9976079301245001,0.0023622683420692894
-0.4706174456867302,-0.4706174456867302,0.996754617696993,0.0025785361045712876
-0.4704866665870213,-0.4704866665870213,1.003170582109714,0.0028516996088055755
-0.47029444947584126,-0.47029444947584126,1.0017257735263494,0.0024615521226847075
-0.47017054354328136,-0.47017054354328136,1.0011542011299792,0.002886816166437836
-0.4700107385695446,-0.4700107385695446,0.9974120701312532,0.0025710637117913045
-0.46987496123401795,-0.46987496123401795,1.0014833306680007,0.0026886185740374615
-0.46974345769922365,-0.46974345769922365,0.9993616487482161,0.0024491175108007955
-0.46966073293624505,-0.46966073293624505,1.0003685097731174,0.0027367830045392657
-0.46950921224124614,-0.46950921224124614,0.999417968203389,0.0029236680079155987
-0.4693879367692716,-0.4693879367692716,0.9985374727997405,0.0027312086868416744
-0.46923194247938227,-0.46923194247938227,0.9990168504224576,0.00256947234270605
-0.46908007345518854,-0.46908007345518854,1.0003626672774324,0.0028592340812147866
-0.46898975536532816,-0.46898975536532816,0.9988746282879649,0.002852961430237306
-0.46881705801824863,-0.46881705801824863,1.0031495732499207,0.002634325005183502
-0.4686803118798707,-0.4686803118798707,1.0005189881862777,0.0027568620669613554
-0.46855159059050494,-0.46855159059050494,1.0026682850810198,0.0025495038642861277
-0.46844582133635415,-0.46844582133635415,1.0000746285342992,0.0027206907025929296
-0.4683106590920943,-0.4683106590920943,1.0018396846638067,0.0026547297580603213
-0.46811019464803394,-0.46811019464803394,1.0020092979146984,0.0025609282619298438
-0.4679231220681686,-0.4679231220681686,0.999773500432543,0.0028735794891662104
-0.4677744140575669,-0.4677744140575669,1.0028270535921706,0.0027148328702023767
-0.46758801485375445,-0.46758801485375445,0.9982646813373062,0.0027325313912274444
-0.46741820776078385,-0.46741820776078385,1.0013437179982398,0.0027605973891754966
-0.4672549278548104,-0.4672549278548104,0.9977076739626052,0.0027393414429225283
-0.46701707592110325,-0.46701707592110325,0.9978001416604938,0.0026293982539846057
-0.4668382111241954,-0.4668382111241954,1.0022456641848039,0.0026200420897323617
-0.4666487793361739,-0.4666487793361739,0.9985446851827922,0.002723081485817665
-0.4664411369507434,-0.4664411369507434,1.0046076176147465,0.0025971454143074797
-0.46626040199407726,-0.46626040199407726,0.9949348162058044,0.002656228020726131
-0.4660630536855024,-0.4660630536855024,1.0000428493525213,0.0026924902144256652
-0.46591671311616667,-0.46591671311616667,1.0014101942190408,0.0026935692270293535
-0.46572193482388685,-0.46572193482388685,0.9976110099832113,0.002745730307707118
-0.4656284577871702,-0.4656284577871702,1.0011454861575604,0.0028058918895282315
-0.4654901042358688,-0.4654901042358688,0.9989295832353722,0.0024866690284493643
-0.46533076706691645,-0.46533076706691645,1.0016831225394538,0.002725986200302258
-0.46512394078381475,-0.46512394078381475,1.000117486354296,0.0027181511722225104
-0.46496556327183497,-0.46496556327183497,1.0009132683947601,0.0028955589575207757
-0.4647616190777626,-0.4647616190777626,0.9964352004238105,0.0028682712140556113
-0.46453399728598016,-0.46453399728598016,0.999721380935668,0.002680812492574722
-0.4644099157383607,-0.4644099157383607,0.9984872703746142,0.002603624860676436
-0.4642045930831955,-0.4642045930831955,1.0035700347658691,0.0026873268041544833
-0.464133898723594,-0.464133898723594,1.0013277590796812,0.002877359828101547
-0.4639386743936484,-0.4639386743936484,1.0011417149710735,0.0025697999198991328
