time,time,flux,flux_err
-0.499866873643623,-0.499866873643623,0.9999996469338441,6.498594878828783e-05
-0.4994804209803988,-0.4994804209803988,0.9999525233049372,6.553256870634781e-05
-0.49885801093041665,-0.49885801093041665,1.0000393932532412,6.520813307120342e-05
-0.49841182675518214,-0.49841182675518214,0.9999411938934033,6.631068089673652e-05
-0.4979770333142369,-0.4979770333142369,0.9999846532701404,6.555554341689448e-05
-0.4976354253129102,-0.4976354253129102,1.0000312287412565,6.508990961580503e-05
-0.497216207980091,-0.497216207980091,1.000027762599438,6.558728035972252e-05
-0.4967831540365296,-0.4967831540365296,0.9999408497953735,6.502426506751795e-05
-0.4964709540916374,-0.4964709540916374,1.0001589669751432,6.563306870574373e-05
-0.49611385399693975,-0.49611385399693975,1.0000401308743818,6.548307047996268e-05
-0.4956516178004676,-0.4956516178004676,0.999891625991264,6.547958409170124e-05
-0.49549312304807247,-0.49549312304807247,1.0000311487308635,6.530554096815673e-05
-0.49502891641823227,-0.49502891641823227,0.999973229860667,6.566163893445234e-05
-0.4946199222336872,-0.4946199222336872,1.0000000307913428,6.615004481765845e-05
-0.49418461609166114,-0.49418461609166114,0.9999736117515171,6.546200744303208e-05
-0.49360752822976794,-0.49360752822976794,0.999965266651426,6.509066546910261e-05
-0.49317974016594235,-0.49317974016594235,0.9999931170626952,6.551742505565096e-05
-0.49301163424170225,-0.49301163424170225,0.999960358249183,6.504716574474699e-05
-0.4925933970109327,-0.4925933970109327,1.0000373815895376,6.625932552126331e-05
-0.49185760241307436,-0.49185760241307436,1.0000483754130385,6.47134816644012e-05
-0.49138700822586545,-0.49138700822586545,1.0001578500106594,6.607990714499824e-05
-0.49090667442724223,-0.49090667442724223,0.9999653936299115,6.560717232581101e-05
-0.4905325972096762,-0.4905325972096762,1.0001226546045658,6.547553031463967e-05
-0.4902616962259344,-0.4902616962259344,1.0000660728889987,6.466083305622138e-05
-0.4898407938242599,-0.4898407938242599,1.0000036188572026,6.56923963284258e-05
-0.48935484931789686,-0.48935484931789686,0.999968778084211,6.595720593065487e-05
-0.4890417033166159,-0.4890417033166159,0.999948205123055,6.582384517205417e-05
-0.4886575460652239,-0.4886575460652239,1.0000136954870449,6.540691153561205e-05
-0.488333471675287,-0.488333471675287,1.0000312548901547,6.585553566329459e-05
-0.48766031527557063,-0.48766031527557063,1.0001033948229443,6.627510376775377e-05
-0.48723799861109,-0.48723799861109,1.000028826274281,6.549922822220056e-05
-0.48666928541715604,-0.48666928541715604,0.9998994405178221,6.518493291789495e-05
-0.4859216509554244,-0.4859216509554244,1.0000034230391082,6.60708869259647e-05
-0.485372896771878,-0.485372896771878,0.9999779243412006,6.569815101653221e-05
-0.4849663842163864,-0.4849663842163864,0.9999942880970224,6.524491079727545e-05
-0.48440285808828776,-0.48440285808828776,1.0000433995326925,6.541491186440981e-05
-0.48374557189599726,-0.48374557189599726,1.0001216754113091,6.528776630492412e-05
-0.4832748927648936,-0.4832748927648936,0.9999761433688409,6.565319156871411e-05
-0.48270708045820354,-0.48270708045820354,0.9999668642692245,6.455110141874882e-05
-0.4821883770491695,-0.4821883770491695,1.0000551955550108,6.569241539811503e-05
-0.4818839060368191,-0.4818839060368191,1.0000863901232873,6.503186128059836e-05
-0.4815979484017589,-0.4815979484017589,0.9999913137900774,6.564068704641786e-05
-0.4813659317565907,-0.4813659317565907,1.0000280462484077,6.503252361794684e-05
-0.48100559003432863,-0.48100559003432863,1.0000075067433356,6.562611889736279e-05
-0.4806888330553193,-0.4806888330553193,1.000009037384468,6.573906319052157e-05
-0.4802120229876891,-0.4802120229876891,0.9998962743280488,6.525016620175425e-05
-0.479934415849857,-0.479934415849857,1.0000036063104991,6.628838846899266e-05
-0.47962301727893647,-0.47962301727893647,1.000116151652574,6.556951445687373e-05
-0.47926035989876253,-0.47926035989876253,0.9999890254561172,6.522896576874847e-05
-0.47855063625902405,-0.47855063625902405,0.9999895400662284,6.616074761351881e-05
-0.4781647266463551,-0.4781647266463551,0.999953548447251,6.556495831221047e-05
-0.47777281877206407,-0.47777281877206407,1.0000652463238218,6.512632714579197e-05
-0.4768436942300468,-0.4768436942300468,1.000031818683147,6.516034219488696e-05
-0.47613492946329644,-0.47613492946329644,0.9999748106019577,6.552981723911156e-05
-0.47572877059865276,-0.47572877059865276,1.0000401760570714,6.543835262956043e-05
-0.4753897239752405,-0.4753897239752405,0.9999603863482452,6.461954810889529e-05
-0.47478426358647996,-0.47478426358647996,0.9999616425767867,6.632160050800516e-05
-0.47415387461223873,-0.47415387461223873,0.9998964880792199,6.513827756386637e-05
-0.47378112760852675,-0.47378112760852675,0.9998856143734594,6.545716103076757e-05
-0.4731485548742057,-0.4731485548742057,0.9999810168286978,6.614684176623969e-05
-0.47259504189059953,-0.47259504189059953,1.0000198877885778,6.604565813695824e-05
-0.4720901743959985,-0.4720901743959985,0.9999713195811852,6.569303178825742e-05
-0.4715725391135493,-0.4715725391135493,1.0000138336808724,6.511149218406818e-05
-0.47128904288692863,-0.47128904288692863,1.0000650537160047,6.517243163906929e-05
-0.470699986879481,-0.470699986879481,1.0000068129421091,6.618344071772046e-05
-0.4703700562407903,-0.4703700562407903,0.9999638534152684,6.556716835390218e-05
-0.46996503838017817,-0.46996503838017817,1.0000433606067287,6.525239643818202e-05
-0.46948719552965484,-0.46948719552965484,1.0000612950952437,6.548287210962977e-05
-0.46886394244647817,-0.46886394244647817,1.0000413424826253,6.51915603923739e-05
-0.46834678447339684,-0.46834678447339684,0.9998418301931107,6.552667055767283e-05
-0.4679303294644342,-0.4679303294644342,1.0000293102347277,6.56142603350417e-05
-0.46760859885907846,-0.46760859885907846,0.9999776154979388,6.513983620801654e-05
-0.46721077033944314,-0.46721077033944314,1.0000788684037487,6.61728448242442e-05
-0.46692535178153777,-0.46692535178153777,1.0001031506378082,6.430997248981437e-05
-0.46664486441586633,-0.46664486441586633,0.9999320444566177,6.55940483924304e-05
-0.46632585350671435,-0.46632585350671435,1.0000995929899823,6.54293461523145e-05
-0.46565660256237607,-0.46565660256237607,1.0000776663190067,6.59846811050802e-05
-0.4652025339259126,-0.4652025339259126,1.0001432364128569,6.58047257876942e-05
-0.46487648184629504,-0.46487648184629504,1.0000584004572204,6.569445000274625e-05
-0.4645766619309143,-0.4645766619309143,0.9998978822824032,6.636085846498387e-05
-0.4642045100910764,-0.4642045100910764,0.9999564877267575,6.622468726851381e-05
-0.4634550554168527,-0.4634550554168527,1.000023971280879,6.509226409021635e-05
-0.46318145342374917,-0.46318145342374917,1.000060751492024,6.599693044075776e-05
-0.4626328874968749,-0.4626328874968749,0.9999434041223252,6.555465376155539e-05
-0.4614855708270625,-0.4614855708270625,1.0001208391024148,6.630325663366586e-05
-0.4611058803020569,-0.4611058803020569,0.9999694748967034,6.494089703100102e-05
-0.4608528148295591,-0.4608528148295591,0.999996770191333,6.499740122479509e-05
-0.4605493306160497,-0.4605493306160497,1.000037824348852,6.517498145220137e-05
-0.4598591954665608,-0.4598591954665608,1.0001022747278765,6.564081815880457e-05
-0.4594641300085641,-0.4594641300085641,1.000050671155949,6.572950929925328e-05
-0.4590374611703737,-0.4590374611703737,1.0001281485268607,6.536533287688295e-05
-0.4587511138801347,-0.4587511138801347,1.0000048546225535,6.513248092172845e-05
-0.4583986913588888,-0.4583986913588888,0.9999957890939161,6.572255507059457e-05
-0.45780994094602645,-0.45780994094602645,1.0000357321440798,6.610923670735154e-05
-0.4573100804234855,-0.4573100804234855,0.9999280040374424,6.492884694128169e-05
-0.4567570198320027,-0.4567570198320027,0.9999329163749711,6.521933230401879e-05
-0.45645163767112534,-0.45645163767112534,1.0000791789261412,6.527813266935108e-05
-0.4558184807530779,-0.4558184807530779,1.000054648205809,6.618851365550444e-05
-0.4553830643075344,-0.4553830643075344,1.0000988700034426,6.563913144751785e-05
-0.4551414520079561,-0.4551414520079561,0.9998740812341941,6.481364408342432e-05
-0.4548635677696439,-0.4548635677696439,0.9999831014532086,6.530662547109302e-05
-0.45453886900359064,-0.45453886900359064,0.9999828941469942,6.57130032867249e-05
-0.4540848696771718,-0.4540848696771718,0.9997868659037238,6.456238215340274e-05
-0.45368876140346404,-0.45368876140346404,0.9999775397437937,6.583768204277565e-05
-0.45323836731913614,-0.45323836731913614,1.0001525646931697,6.538232329285557e-05
-0.4527624986490991,-0.4527624986490991,0.9999717471447351,6.457111566965223e-05
-0.4523570226985612,-0.4523570226985612,0.9999120621745776,6.607705362979818e-05
-0.45201218807924304,-0.45201218807924304,1.0000780283537822,6.551244139453607e-05
-0.4516626347343845,-0.4516626347343845,0.999900743799661,6.548717243349972e-05
-0.4512684166795225,-0.4512684166795225,1.0000158819893106,6.562543776468627e-05
-0.45055789719117456,-0.45055789719117456,1.0000234240373636,6.57030073552266e-05
-0.45026385426172055,-0.45026385426172055,1.0000090378153783,6.583381791164089e-05
-0.44994086119986604,-0.44994086119986604,0.9999895600809376,6.61073870997262e-05
-0.4496075336886861,-0.4496075336886861,0.9999930726683516,6.576118444102565e-05
-0.44933409541408764,-0.44933409541408764,0.9999847909264659,6.572372489792003e-05
-0.44862405854000825,-0.44862405854000825,0.9999890201614849,6.570404212971234e-05
-0.4483317089951015,-0.4483317089951015,0.9999174525813996,6.502401083918402e-05
-0.44775581323483493,-0.44775581323483493,1.0000509287491703,6.554512817628997e-05
-0.44679981747904096,-0.44679981747904096,0.9999175513409295,6.589714868749933e-05
-0.44619747671094956,-0.44619747671094956,1.0000726968496558,6.509592697229147e-05
-0.4459159939404344,-0.4459159939404344,0.9999879701078946,6.544598340074118e-05
-0.44550365108516415,-0.44550365108516415,0.9999676916391482,6.553093736160948e-05
-0.4448049398495641,-0.4448049398495641,0.9999469890932137,6.494117963022446e-05
-0.4445479900990904,-0.4445479900990904,0.9999693671445963,6.57187615863474e-05
-0.44400497150418233,-0.44400497150418233,0.9999637483707859,6.485911880829015e-05
-0.44311573618178957,-0.44311573618178957,0.9999707187967461,6.509891657935822e-05
-0.4427759476020583,-0.4427759476020583,1.0000202946757173,6.603680541555221e-05
-0.4423055777457193,-0.4423055777457193,1.0000527979057245,6.505587528222282e-05
-0.44185088512313087,-0.44185088512313087,1.0000401457266388,6.511955560165741e-05
-0.4413946533386479,-0.4413946533386479,1.0000112912587054,6.682095376326308e-05
-0.4408192628157849,-0.4408192628157849,0.9999443286129264,6.507666230951498e-05
-0.4404047269898001,-0.4404047269898001,1.0000485342021088,6.565717651802663e-05
-0.44001876914771854,-0.44001876914771854,1.0000270965939544,6.468312537722204e-05
-0.4394357427976502,-0.4394357427976502,1.0000811022272795,6.557422596561928e-05
-0.43910082071306533,-0.43910082071306533,1.0000179482262348,6.58945102464584e-05
-0.4387711694704194,-0.4387711694704194,1.0000214774728087,6.522579431731696e-05
-0.4382442169109709,-0.4382442169109709,0.9999397660870221,6.537487229288688e-05
-0.43771646728273483,-0.43771646728273483,0.9998496990654984,6.509595045771295e-05
-0.4373559926068992,-0.4373559926068992,0.9999538833607525,6.622116292712683e-05
-0.43703072663774944,-0.43703072663774944,0.9999926778694818,6.479939004185484e-05
-0.4366899574037234,-0.4366899574037234,1.0000211212072425,6.612175356482618e-05
-0.4360002158136922,-0.4360002158136922,1.0000746304163006,6.554332599795474e-05
-0.4354943360805919,-0.4354943360805919,0.9999730016449924,6.581573875353552e-05
-0.43506060899744625,-0.43506060899744625,0.9999586367915466,6.538595167818672e-05
-0.4346780769206816,-0.4346780769206816,0.9999591725980241,6.574393155065536e-05
-0.43422747983058796,-0.43422747983058796,0.9999403156836039,6.620554536121046e-05
-0.43363145287003135,-0.43363145287003135,1.0000342276140517,6.56565983713212e-05
-0.43337836669161334,-0.43337836669161334,0.9999145157570967,6.53348233991813e-05
-0.43275244265678336,-0.43275244265678336,1.0000295871497655,6.515499541885182e-05
-0.431729585013818,-0.431729585013818,0.9999084886040951,6.570486591488022e-05
-0.4312749828401138,-0.4312749828401138,0.9999883955748119,6.511230760152407e-05
-0.43094830256159183,-0.43094830256159183,1.0000212772854058,6.548913345831208e-05
-0.4302813418347796,-0.4302813418347796,0.999959383917146,6.508430592372082e-05
-0.4297013912015245,-0.4297013912015245,1.0000376715127697,6.57849786584065e-05
-0.42942417227313856,-0.42942417227313856,0.9999385768898845,6.609411211554316e-05
-0.4289301754019107,-0.4289301754019107,1.0000186447332962,6.445047282355133e-05
-0.4282343371603929,-0.4282343371603929,1.000009907303279,6.55811288677679e-05
-0.42783265893449424,-0.42783265893449424,1.0000370494579969,6.539380225142203e-05
-0.42731142819320667,-0.42731142819320667,0.9999820665320307,6.550522054652632e-05
-0.42688354482525026,-0.42688354482525026,0.999974700370152,6.56707710293887e-05
-0.426743069737131,-0.426743069737131,0.9999750002197562,6.524844539210924e-05
-0.4263052627131401,-0.4263052627131401,0.9999279275905671,6.574768492164377e-05
-0.4259087963277125,-0.4259087963277125,1.0000824095959318,6.500819023315257e-05
-0.4255283060054353,-0.4255283060054353,0.9999242302735413,6.567886256213395e-05
-0.4251590878207935,-0.4251590878207935,1.0000433261303776,6.536232912967896e-05
-0.42463105823189834,-0.42463105823189834,0.9999638285959677,6.551816557865364e-05
-0.42437516246864104,-0.42437516246864104,0.9999748126330841,6.57412250093466e-05
-0.4241529885439377,-0.4241529885439377,0.9999639861277954,6.526445985543288e-05
-0.42394257639170974,-0.42394257639170974,0.9998629709148552,6.521511671516807e-05
-0.42358742519281806,-0.42358742519281806,0.9999071260542923,6.498742491549497e-05
-0.42323633970445373,-0.42323633970445373,0.9999538802453121,6.509564631448363e-05
-0.4228172631716006,-0.4228172631716006,1.000090538740038,6.50976707157381e-05
-0.42239216673988267,-0.42239216673988267,1.0000088037923505,6.60860482405606e-05
-0.4220077767029579,-0.4220077767029579,0.9999516752625869,6.535013818094755e-05
-0.42146824597730304,-0.42146824597730304,1.0001006814820825,6.550745347182017e-05
-0.4207750374021998,-0.4207750374021998,1.0000071162662727,6.569983641284985e-05
-0.42043384636708653,-0.42043384636708653,0.9999274360487685,6.581690342873674e-05
-0.4199848951975582,-0.4199848951975582,1.0000435543323378,6.550452691821395e-05
-0.41977989273436833,-0.41977989273436833,0.9999124742881674,6.52694259776515e-05
-0.4193498285698297,-0.4193498285698297,1.0000174346485502,6.504553560439448e-05
-0.4186924866044137,-0.4186924866044137,1.0000616855057707,6.612497965528431e-05
-0.4183605997975974,-0.4183605997975974,1.0001161358454915,6.506281731092464e-05
-0.4177256400966144,-0.4177256400966144,0.9999574558878704,6.576053747146335e-05
-0.41687538847254474,-0.41687538847254474,1.0000340899548392,6.57940047851928e-05
-0.41643013089487796,-0.41643013089487796,0.999946777406935,6.530899834870022e-05
-0.41622065793199,-0.41622065793199,1.0000286780060985,6.488088398796712e-05
-0.4157095913127705,-0.4157095913127705,1.000064875247629,6.549834845071811e-05
-0.4149501685969881,-0.4149501685969881,1.000012160962335,6.562108116441777e-05
-0.4145947609926225,-0.4145947609926225,0.99991565427392,6.635142774526411e-05
-0.41420698542060563,-0.41420698542060563,0.9999228286637706,6.489067149155474e-05
-0.4137232421671797,-0.4137232421671797,1.0000438035472723,6.503910962937489e-05
-0.413326898876403,-0.413326898876403,1.0000131010132678,6.571804874858423e-05
-0.4131361725456372,-0.4131361725456372,1.0000420364502731,6.492571549953877e-05
-0.41283432044583607,-0.41283432044583607,0.9999516003641341,6.534220947706022e-05
-0.4124378405031166,-0.4124378405031166,0.9999978327933542,6.495255822478622e-05
-0.41199478512644416,-0.41199478512644416,0.9999326065765203,6.564568945371211e-05
-0.411755547257053,-0.411755547257053,0.9999495272027309,6.518814266258825e-05
-0.41126487287765484,-0.41126487287765484,0.9998831857956271,6.690887283699771e-05
-0.4108867784874747,-0.4108867784874747,1.0000992991282545,6.503499564538317e-05
-0.4104108815823565,-0.4104108815823565,0.9999382182188136,6.503608074393967e-05
-0.4097162567428313,-0.4097162567428313,0.9999033474693034,6.573868685040525e-05
-0.4094805739056028,-0.4094805739056028,1.0000157139579808,6.558893782927285e-05
-0.4091864109323069,-0.4091864109323069,1.000022799807436,6.567304237333469e-05
-0.4088047102006385,-0.4088047102006385,1.0000041310277248,6.523993883190865e-05
-0.4082907410680491,-0.4082907410680491,0.9999241154993042,6.455599397533868e-05
-0.4078400744314422,-0.4078400744314422,0.9999488594514337,6.554183717375896e-05
-0.40740025387858625,-0.40740025387858625,1.0000230104457786,6.546792901833565e-05
-0.4070794604776893,-0.4070794604776893,1.0000473355731605,6.55043784861687e-05
-0.4067424373228278,-0.4067424373228278,0.9999898575031928,6.520969078682059e-05
-0.40646640391641997,-0.40646640391641997,1.0002211878713327,6.521404644067508e-05
-0.40607546448445647,-0.40607546448445647,1.000027733762127,6.637379066850334e-05
-0.40569275649249903,-0.40569275649249903,1.0000350433181662,6.512776662966283e-05
-0.405430147836887,-0.405430147836887,0.9999438831865636,6.525962820917394e-05
-0.4050745550455758,-0.4050745550455758,0.9999140069234208,6.534695078784245e-05
-0.40477941815770463,-0.40477941815770463,1.0000361113067167,6.567296723275471e-05
-0.4041932565480238,-0.4041932565480238,0.99988113450093,6.617754654759252e-05
-0.4036862473709334,-0.4036862473709334,1.0000734105868507,6.603971808890424e-05
-0.4030121032614261,-0.4030121032614261,0.9999771845963178,6.574294590797698e-05
-0.4021393345319666,-0.4021393345319666,1.0000285699878195,6.569527386347773e-05
-0.4017674212271231,-0.4017674212271231,0.9999413059111466,6.576037635265911e-05
-0.40135715786309445,-0.40135715786309445,0.9999214264589025,6.498185876512965e-05
-0.40099075424150216,-0.40099075424150216,0.9999971821433226,6.507084717950631e-05
-0.4005480239065946,-0.4005480239065946,0.9999357173877594,6.559450413654781e-05
-0.4000525115290657,-0.4000525115290657,0.9999346332457743,6.626271597441529e-05
-0.3996982873009983,-0.3996982873009983,1.00004593188958,6.644085927731805e-05
-0.39921832285690473,-0.39921832285690473,0.9999157410067234,6.449673874279925e-05
-0.3987292090052506,-0.3987292090052506,1.0000083740478793,6.55258895583124e-05
-0.39831247930487734,-0.39831247930487734,1.0000943140153602,6.55859520282576e-05
-0.39803144239122046,-0.39803144239122046,0.9999520829814591,6.506482294944566e-05
-0.3976815478716162,-0.3976815478716162,0.999980021820629,6.591584121816106e-05
-0.3971409483507159,-0.3971409483507159,0.9999339995507223,6.548313826169297e-05
-0.39698241157093433,-0.39698241157093433,1.0000011054647882,6.53084796165437e-05
-0.3965178055419528,-0.3965178055419528,0.9999463957039953,6.565467230484056e-05
-0.39610897187594674,-0.39610897187594674,1.000043129178322,6.615525456792462e-05
-0.3957697795594868,-0.3957697795594868,0.9999571398823814,6.5430652401023e-05
-0.3953794318731525,-0.3953794318731525,1.0000545790581161,6.505616729019703e-05
-0.3947587649439811,-0.3947587649439811,1.0000599963999939,6.559397242460723e-05
-0.3945501779271581,-0.3945501779271581,1.0000475962872382,6.498618342510778e-05
-0.39417798167851287,-0.39417798167851287,0.9999837122550967,6.582442977370454e-05
-0.3936507791033364,-0.3936507791033364,1.0000647584738063,6.51430301725558e-05
-0.3929560282973398,-0.3929560282973398,1.0000115103901046,6.520223784799346e-05
-0.3925026651224471,-0.3925026651224471,1.00005690777355,6.601203576806766e-05
-0.392095935731777,-0.392095935731777,1.0001002871117113,6.55385033484828e-05
-0.3918000370147638,-0.3918000370147638,0.9999784259835355,6.460785319547185e-05
-0.3915332798169402,-0.3915332798169402,1.0000212221722777,6.527733578078854e-05
