time,time,flux,flux_err
-0.49855844791394094,-0.49855844791394094,1.0001227102794024,0.00016050962283606655
-0.496718862452326,-0.496718862452326,0.9999246217638404,0.00015461316541011486
-0.4947075675020945,-0.4947075675020945,0.9999369345011754,0.00015720363272449226
-0.49233832548573747,-0.49233832548573747,0.999937573559648,0.00015734026705546662
-0.49097565988704445,-0.49097565988704445,1.0001362995301506,0.00014086027825878104
-0.4893834924318071,-0.4893834924318071,0.9999727033632277,0.0001444764046773688
-0.487884438985202,-0.487884438985202,0.9997136407762589,0.00014189844049404584
-0.48538642511630314,-0.48538642511630314,1.0000885488806346,0.00014110175125124852
-0.48378953137653297,-0.48378953137653297,0.999915211266341,0.00014765047154009686
-0.48190787354978964,-0.48190787354978964,1.000004932325619,0.00014565736123182344
-0.47986496048397387,-0.47986496048397387,0.9999499721651338,0.0001430261404525628
-0.47879268580727513,-0.47879268580727513,1.0000089309777302,0.00014149399170742416
-0.4767066772132239,-0.4767066772132239,1.0000111032962398,0.00014258376120570036
-0.4751576732058311,-0.4751576732058311,0.9998235343886019,0.00014315614937057762
-0.4738719916858827,-0.4738719916858827,0.9999794482516592,0.00014395091710490184
-0.47261534943245354,-0.47261534943245354,1.0003058787003933,0.0001417871525953312
-0.47012076421888194,-0.47012076421888194,0.9999976273925333,0.00014102439072585655
-0.46848164817492943,-0.46848164817492943,0.999791415792607,0.00014955724476484422
-0.4665015440143179,-0.4665015440143179,1.0001259170088992,0.00014247235939411802
-0.4645789865913684,-0.4645789865913684,0.999996045508016,0.00014421753050258027
-0.46367984012395025,-0.46367984012395025,1.0001268776090544,0.0001409647151901217
-0.4618684143257269,-0.4618684143257269,0.9999299687724588,0.0001450767529716472
-0.46044202599514394,-0.46044202599514394,0.9999596143464246,0.0001408377747098322
-0.45939418212219607,-0.45939418212219607,0.9998331899723013,0.00014136022348092345
-0.4581186854993575,-0.4581186854993575,1.0000308704770817,0.00014498666471278706
-0.4571989230600593,-0.4571989230600593,1.0000272427063122,0.00014165746309126374
-0.4554010506653867,-0.4554010506653867,1.0000534300322566,0.00014238567974169923
-0.45413422281562815,-0.45413422281562815,1.0000261142745968,0.00014444356139887933
-0.4524209759729274,-0.4524209759729274,1.000057299842311,0.00014686798687118516
-0.45056535680851084,-0.45056535680851084,1.0000200526047347,0.000141092726427345
-0.4486213612035499,-0.4486213612035499,0.9998364577216858,0.00014085338664552276
-0.44647477454927864,-0.44647477454927864,0.9999510887891668,0.00014252176409319047
-0.44508441536236204,-0.44508441536236204,1.0001990165680898,0.00014084652873170086
-0.44368132015370065,-0.44368132015370065,1.000085408963702,0.0001413534178920091
-0.44249199465484707,-0.44249199465484707,0.999908516192767,0.0001447901594337951
-0.44116299417437405,-0.44116299417437405,1.0001489208899463,0.00014208338467835125
-0.4393819907701982,-0.4393819907701982,1.0000432984955354,0.00014090119636883035
-0.43788417977193606,-0.43788417977193606,1.0001917861887244,0.00014486049880803222
-0.4359580390431802,-0.4359580390431802,1.0000596649139422,0.00014243171712404148
-0.43396738016890596,-0.43396738016890596,0.9997026094598702,0.00014114498551883622
-0.43260817950067576,-0.43260817950067576,1.0000827701057695,0.00014742732234028825
-0.4307227275545301,-0.4307227275545301,1.0002875772695825,0.00014132608858342943
-0.42962261469874646,-0.42962261469874646,1.0000097688277991,0.0001409287469172232
-0.4281226294260705,-0.4281226294260705,1.0000943836220255,0.00014380813490508582
-0.4271021652588388,-0.4271021652588388,1.0001443201745193,0.000141976611841747
-0.42521672294678864,-0.42521672294678864,0.9999138970113499,0.0001417233911272107
-0.42353787478423327,-0.42353787478423327,1.0000558284711933,0.0001413784851441934
-0.42175085009585017,-0.42175085009585017,1.0001963672112317,0.00014584882256361205
-0.4202953625455848,-0.4202953625455848,1.0000432526329703,0.00014217277083335828
-0.41856970742883276,-0.41856970742883276,1.0000228360965306,0.00014275480288987243
-0.41762180231307866,-0.41762180231307866,0.9999708522290707,0.0001468356313502204
-0.4158910820558958,-0.4158910820558958,0.9999306265311771,0.00014449673202000742
-0.4144810741316178,-0.4144810741316178,0.9998416161596942,0.00014237322634499055
-0.413436734140123,-0.413436734140123,1.0000139989663477,0.00014124317163527556
-0.41208988986109035,-0.41208988986109035,1.000060892962154,0.00014329499186960481
-0.40985888937429993,-0.40985888937429993,1.0000658475120119,0.00014147404771552028
-0.40815520599644517,-0.40815520599644517,1.000203247735802,0.00014412565108157274
-0.4063132921888609,-0.4063132921888609,1.000160344080572,0.00014567975208416392
-0.40476919460925276,-0.40476919460925276,0.9999497631020178,0.00014100780578539502
-0.4031413723649166,-0.4031413723649166,0.999994362890164,0.0001414782105540436
-0.4026166165669565,-0.4026166165669565,1.0002185542336395,0.00014554788252319666
-0.40056067547775454,-0.40056067547775454,0.9999129726611669,0.00014224107729955007
-0.39893797795302816,-0.39893797795302816,1.0000527099769856,0.00014123984549221135
-0.3970105069252895,-0.3970105069252895,1.0000112050027785,0.00014309663011724262
-0.39510564382435404,-0.39510564382435404,1.0000926600362354,0.00014271210469971707
-0.3936954498400155,-0.3936954498400155,1.0000194660804373,0.00014093054254749103
-0.39252053868040093,-0.39252053868040093,1.0002147179789833,0.0001414118459067673
-0.39091135889975703,-0.39091135889975703,0.9999737254132066,0.0001442332211254033
-0.3892122567842307,-0.3892122567842307,1.0001411492662833,0.00014195210344777122
-0.3875628541354672,-0.3875628541354672,1.0000130909324192,0.0001408934383772877
-0.3867039415061299,-0.3867039415061299,0.9999069843788166,0.00014632328550519697
-0.38489868830292834,-0.38489868830292834,1.0001762649838017,0.0001464449383165157
-0.38331277077959386,-0.38331277077959386,1.0003788678094117,0.00014124247102284543
-0.38147249913599807,-0.38147249913599807,1.0001184809902912,0.0001442125406732538
-0.37927421390704696,-0.37927421390704696,1.000074648704389,0.00014272720823793256
-0.3781843330769334,-0.3781843330769334,0.999929544579375,0.00014294580717067536
-0.3765757353670779,-0.3765757353670779,1.000014630316971,0.00014445903446185638
-0.37507675846791244,-0.37507675846791244,0.9998726715971931,0.00014188222756084774
-0.3728157058671059,-0.3728157058671059,1.0000453758752168,0.0001411248216655093
-0.37150384352426047,-0.37150384352426047,0.9999924579648123,0.00014581009390880422
-0.3696228818698728,-0.3696228818698728,1.000024206457589,0.00014695745002836372
-0.36782492360944163,-0.36782492360944163,1.0002161881810767,0.00014121316084772086
-0.3663480221235659,-0.3663480221235659,0.9999858057690713,0.00014278462373720972
-0.36487067479465624,-0.36487067479465624,0.9998257830578112,0.00014429119980510899
-0.3629168081119133,-0.3629168081119133,0.9999515028883577,0.00014268244626849542
-0.3614985805419565,-0.3614985805419565,1.0001334188474613,0.00014134320285829217
-0.36050957136685613,-0.36050957136685613,1.0000601465515786,0.0001441167130296533
-0.35882913161913166,-0.35882913161913166,0.9997510208030462,0.00014171909532001805
-0.356832464641775,-0.356832464641775,1.0000317831512509,0.0001447109459107143
-0.3546886069874745,-0.3546886069874745,1.0001326081471493,0.0001459052610457715
-0.3529855610220693,-0.3529855610220693,1.0000682669802057,0.00014262171191425143
-0.35130192177457503,-0.35130192177457503,1.0000163951668293,0.00014143964331871263
-0.35021317628779797,-0.35021317628779797,0.9998305268271028,0.00014218958507769197
-0.3479295405762969,-0.3479295405762969,0.9998969898720199,0.00014120003637791047
-0.3466448179598956,-0.3466448179598956,1.0001711580469625,0.00014140417323165925
-0.34531034840547364,-0.34531034840547364,0.9999473473405034,0.00014493235568047917
-0.3441455234060413,-0.3441455234060413,0.9999526524890474,0.00014296271038612493
-0.3423287126359355,-0.3423287126359355,1.0003964252166058,0.00014103381904057038
-0.34083465653529854,-0.34083465653529854,1.0000676781150237,0.00014499076153830784
-0.33856521209236234,-0.33856521209236234,1.0000832772935833,0.0001445726505363441
-0.3365670214043348,-0.3365670214043348,1.0000885141912215,0.0001412656762031515
-0.33511379876363206,-0.33511379876363206,1.000077668275058,0.00014201194769461407
-0.332968057852122,-0.332968057852122,0.9998445556700293,0.00014135668640978468
-0.33173669347088436,-0.33173669347088436,0.9999910477577009,0.0001409211319750899
-0.3305237436397874,-0.3305237436397874,1.0002545753933716,0.00014373730306934372
-0.3296841843330185,-0.3296841843330185,1.000080317859141,0.00014475087672403196
-0.3284065239597112,-0.3284065239597112,1.0000396814988801,0.00014166184193208022
-0.32672654297275583,-0.32672654297275583,1.0000968791480775,0.00014133617536344473
-0.3254252158876625,-0.3254252158876625,1.000213043250412,0.00014313516323755446
-0.323506740272569,-0.323506740272569,1.0000353323582467,0.0001457100470763511
-0.3214758405527391,-0.3214758405527391,0.999979515355985,0.00014114318365533363
-0.3201335069388733,-0.3201335069388733,1.000112648522594,0.00014733788720080207
-0.3182229740130424,-0.3182229740130424,1.0001137349116098,0.00014127387602856298
-0.31707727095272276,-0.31707727095272276,0.9999416347820447,0.00014089315885030282
-0.31559996371579474,-0.31559996371579474,1.000053994842654,0.0001413851181515425
-0.31441393017739755,-0.31441393017739755,1.000023155171632,0.00014443449371893136
-0.31311226352408994,-0.31311226352408994,0.9999365237368607,0.00014168958568779304
-0.3114528396450623,-0.3114528396450623,0.9999591658078095,0.0001408914182188826
-0.3093134232345619,-0.3093134232345619,1.0002109364645169,0.00014639054398353225
-0.3074875797596178,-0.3074875797596178,0.9997988794997799,0.00014213986789447986
-0.30560792828982813,-0.30560792828982813,0.9998505162194828,0.00014111744047829754
-0.30471844600106124,-0.30471844600106124,0.9998990695555371,0.00015139562410781024
-0.30278369143707096,-0.30278369143707096,0.9999207054018525,0.00014125338375474877
-0.3014533364592353,-0.3014533364592353,0.9997961260404156,0.0001423179943582334
-0.3000698220814229,-0.3000698220814229,0.9998732732709638,0.00014349862299437
-0.2986558826160035,-0.2986558826160035,1.0000539980484353,0.0001411598195037868
-0.29634506139918815,-0.29634506139918815,1.0000509384431493,0.00014132956145448977
-0.2950726765448053,-0.2950726765448053,0.9998565520812808,0.00014413814297676035
-0.29304126668139363,-0.29304126668139363,1.000034922124517,0.00014410589224406843
-0.2915525316995627,-0.2915525316995627,1.0001991441347617,0.0001426820023091983
-0.290332715149998,-0.290332715149998,0.9998741023930237,0.00014145397792339148
-0.2898086483037332,-0.2898086483037332,1.000097189806836,0.00014552129687929943
-0.28816928792730323,-0.28816928792730323,1.0000041766361156,0.00014498313990584624
-0.286838220791833,-0.286838220791833,1.0000908406500433,0.00014112449076979092
-0.2848436838721682,-0.2848436838721682,1.0002011156911483,0.00014271060528817935
-0.28364901109380297,-0.28364901109380297,1.0001720198502062,0.0001441616153870818
-0.28129472333966987,-0.28129472333966987,0.9998540519407657,0.0001415929367758753
-0.2802885567114572,-0.2802885567114572,0.9999624423514677,0.0001407651642604865
-0.2787274590351444,-0.2787274590351444,0.9997221177596725,0.00014460804959949073
-0.2771891441414482,-0.2771891441414482,1.000029630824152,0.0001418766319440693
-0.27507218820101115,-0.27507218820101115,1.0001002976940208,0.00014108223238517198
-0.27421134451942636,-0.27421134451942636,0.9999954798195716,0.00014627499970366696
-0.27209105710571746,-0.27209105710571746,0.9999234516523424,0.0001463562244903091
-0.2700590544547595,-0.2700590544547595,0.9998897789718694,0.00014126953361454206
-0.26848805170302514,-0.26848805170302514,0.9998287856098658,0.0001441877363728417
-0.2665632832271513,-0.2665632832271513,0.9999021483986856,0.00014262956005021274
-0.26494344413877113,-0.26494344413877113,1.0000995363037328,0.00014122622819345325
-0.263323657969886,-0.263323657969886,0.9999564380631172,0.00014411352994329608
-0.26195885635534066,-0.26195885635534066,1.0000933618906405,0.00014178177919793006
-0.2597712604539993,-0.2597712604539993,0.999903171231199,0.00014107578459089654
-0.2581619941003737,-0.2581619941003737,1.0001647854871862,0.000150225807336806
-0.25589567293573057,-0.25589567293573057,1.0000433085315859,0.00014101994545111804
-0.25397032365508493,-0.25397032365508493,0.9997729182046061,0.0001429841800109319
-0.25313407981884667,-0.25313407981884667,0.9998707699642884,0.00014103537573096757
-0.2510911328179645,-0.2510911328179645,1.0001913849245594,0.00014260090779491278
-0.24937767416995485,-0.24937767416995485,0.9999612610807669,0.00014127171480471308
-0.24799176966043887,-0.24799176966043887,0.999876927612509,0.00014390765891767975
-0.24698751736796112,-0.24698751736796112,0.999712140488137,0.00014295633117628138
-0.24450673873507184,-0.24450673873507184,1.0002517716874604,0.00014102064468277608
-0.24323542769707274,-0.24323542769707274,0.9998427633858726,0.00014550880756727228
-0.2414961152760952,-0.2414961152760952,1.0001467857555975,0.00014507782043701544
-0.24018330363323911,-0.24018330363323911,1.0003239584437498,0.00014421322884236321
-0.23860452431690646,-0.23860452431690646,0.9999602472646506,0.00014123198610969826
-0.23740550726943183,-0.23740550726943183,1.000057182102966,0.00014222235877672768
-0.2351220785159967,-0.2351220785159967,1.0000576263347825,0.00014120913692638264
-0.2338367867640045,-0.2338367867640045,1.000330300529013,0.00014141566582151903
-0.23250201221380848,-0.23250201221380848,0.999969883258338,0.0001448915886180303
-0.23132979427246028,-0.23132979427246028,0.9999423561891273,0.00014173745661600175
-0.22946418218052714,-0.22946418218052714,1.0000393717997729,0.00014139833975904164
-0.22802665922718007,-0.22802665922718007,0.9999516228104026,0.00014495411827702997
-0.2257577209849842,-0.2257577209849842,0.9998474471213946,0.00014452977287568485
-0.22389172488474288,-0.22389172488474288,1.000006141409563,0.00014326227079551715
-0.22230633065191796,-0.22230633065191796,0.9999046381608665,0.00014198482044488434
-0.22016040970920586,-0.22016040970920586,1.0000321411384447,0.00014133762513171433
-0.21871537852275652,-0.21871537852275652,1.0003696281988066,0.00014135808753124417
-0.21722702373663197,-0.21722702373663197,1.0000001621055148,0.00014458040637118798
-0.2163022719178116,-0.2163022719178116,1.0002344010230377,0.0001415507384723223
-0.21442418995284243,-0.21442418995284243,0.999887179049197,0.0001415612081422261
-0.21315299570851493,-0.21315299570851493,0.9999725870356324,0.00014326284611878703
-0.21183584890386556,-0.21183584890386556,1.0001217967015834,0.00014626057077299451
-0.20994989560276736,-0.20994989560276736,1.0000227802544537,0.0001422221077083935
-0.20819848407700192,-0.20819848407700192,0.9997004532555669,0.00014115117224141637
-0.2069647616612201,-0.2069647616612201,1.0000321900279676,0.00014734602296773537
-0.20489160456781974,-0.20489160456781974,1.0000189137175803,0.00014129941739600044
-0.203597691377945,-0.203597691377945,0.9999219817969358,0.00014250154337706308
-0.20224319892804488,-0.20224319892804488,1.000138975535899,0.0001437266803806508
-0.20144750410981943,-0.20144750410981943,0.9997636828723987,0.00014187841895621983
-0.1995990430128586,-0.1995990430128586,1.0002329789402638,0.0001417177455153892
-0.19792396003758767,-0.19792396003758767,1.0001822264252478,0.00014136629532143997
-0.19572304078901653,-0.19572304078901653,0.999929559791728,0.00014574559296359172
-0.19389442006795435,-0.19389442006795435,1.0001726471006875,0.000142479925105463
-0.19236215052660555,-0.19236215052660555,1.0000569638539447,0.00014577344012437718
-0.1912018562135927,-0.1912018562135927,1.0001559548712438,0.00014206737952812042
-0.18938555654531228,-0.18938555654531228,1.000127691449276,0.00014285487608010143
-0.1885949024850561,-0.1885949024850561,0.9998851526619849,0.00015227910948770163
-0.18726161811791825,-0.18726161811791825,1.0000573584247725,0.000143464120299597
-0.18548682850523618,-0.18548682850523618,1.0001843977669844,0.000141699647274546
-0.18310458293635748,-0.18310458293635748,1.0002406892246225,0.00014351748838238435
-0.18177993115023128,-0.18177993115023128,1.0000900634104624,0.00014460070604414133
-0.1798773592832731,-0.1798773592832731,1.000017795596422,0.00014098855334589885
-0.1783527264102304,-0.1783527264102304,1.0000671643586245,0.00014109086090858638
-0.1774364110933675,-0.1774364110933675,1.000179434886693,0.00014149317640403843
-0.17673316776999853,-0.17673316776999853,1.000019100081794,0.00014643221589443422
-0.17484237015523832,-0.17484237015523832,0.999976562374196,0.00014128268361836863
-0.17332214188063516,-0.17332214188063516,1.0000298678295236,0.0001412280164656308
-0.1713939631401445,-0.1713939631401445,0.999818063377526,0.00014303709817462272
-0.16940067935429398,-0.16940067935429398,1.0001033335034086,0.00014270004412357407
-0.16796564304167988,-0.16796564304167988,0.9997242990633574,0.0001408719506994979
-0.1666599832897191,-0.1666599832897191,0.9998364516325481,0.0001443610132058847
-0.16529593008599477,-0.16529593008599477,0.9998780031951402,0.00014421664497608463
-0.16379876134087681,-0.16379876134087681,0.9999393237770622,0.0001419686375048772
-0.16194702472057543,-0.16194702472057543,0.9999407513720271,0.00014089935535983785
-0.16105751975846944,-0.16105751975846944,0.9998884995029073,0.0001462947215029779
-0.15912794253454193,-0.15912794253454193,0.9997765366309098,0.00014922659182807415
-0.1575519646547036,-0.1575519646547036,0.9999132390254909,0.00014264451632375525
-0.15597217463946436,-0.15597217463946436,0.9999729684397124,0.0001426678576909521
-0.15405408730584896,-0.15405408730584896,0.9997611302277611,0.00014407497667581358
-0.15213651581434534,-0.15213651581434534,0.9996390024031946,0.00014115859230765578
-0.15051586792760646,-0.15051586792760646,0.9999990820445321,0.0001441005223368617
-0.14906081601511686,-0.14906081601511686,1.0003271843028958,0.00014201071112909675
-0.1466417952433403,-0.1466417952433403,1.0001075983740477,0.00014084183288279865
-0.1450406841089716,-0.1450406841089716,1.0001348101665561,0.00015012997693350806
-0.14308785777247976,-0.14308785777247976,0.9999895959126601,0.00014102403735457455
-0.1411625411703426,-0.1411625411703426,0.9999992798226538,0.00014298323127621087
-0.14032560898849625,-0.14032560898849625,1.0000657455094957,0.0001410267071617466
-0.1385719565783802,-0.1385719565783802,0.9999142422985644,0.00014412562751592385
-0.13716694952963734,-0.13716694952963734,1.0000791697636189,0.00014089890043404854
-0.13570270926938974,-0.13570270926938974,0.9997957446775196,0.00014136485271304828
-0.13460923084858223,-0.13460923084858223,0.9997930712990953,0.00014526156114870779
-0.13265864921122555,-0.13265864921122555,0.9999294561090784,0.00014168795468390467
-0.13101806724080234,-0.13101806724080234,0.9997756391531617,0.00014465064855854074
-0.12963063984934706,-0.12963063984934706,1.0001149426602454,0.00014565123617548976
-0.12807758566923438,-0.12807758566923438,0.999801400098319,0.0001424486779458338
-0.12608104087921673,-0.12608104087921673,1.0000524790711365,0.00014123124827687773
-0.12462814119935502,-0.12462814119935502,0.9999684578783284,0.00014221469927589852
-0.12231461917981505,-0.12231461917981505,1.000004344601938,0.00014118132873343174
-0.12102875647178735,-0.12102875647178735,0.9997410149673953,0.0001413752258512
-0.1199194161563355,-0.1199194161563355,0.9999296543996413,0.00014374361456414854
-0.11890516213316005,-0.11890516213316005,1.0000789198088924,0.0001427481503804922
-0.11691259709768928,-0.11691259709768928,0.999934465391848,0.00014154360433131502
-0.11553811935882549,-0.11553811935882549,1.0001084762248793,0.00014494308703105258
