time,time,flux,flux_err
-0.4989620600026683,-0.4989620600026683,0.9999622705828953,6.246863391545703e-05
-0.4971143122432598,-0.4971143122432598,0.999978018685398,6.207367502226961e-05
-0.49522550190158654,-0.49522550190158654,0.999907731704349,6.251606833129547e-05
-0.4933263013056906,-0.4933263013056906,0.9999796060057148,6.242762982986515e-05
-0.4916475124424323,-0.4916475124424323,1.000045596890868,5.685795734418924e-05
-0.4898048125847708,-0.4898048125847708,1.0000117443813332,5.66890042919215e-05
-0.48795483749127017,-0.48795483749127017,0.9999531237903806,5.684367912900534e-05
-0.4859048331942176,-0.4859048331942176,0.999972776731646,5.6888169177664026e-05
-0.4841166474245256,-0.4841166474245256,0.999878698254092,5.668879009202342e-05
-0.48212166867451745,-0.48212166867451745,1.0001652072539184,5.692929198921382e-05
-0.480254849686753,-0.480254849686753,1.0000935074043469,5.666498839293127e-05
-0.4785603755502962,-0.4785603755502962,0.9999333201928311,5.699710944934382e-05
-0.4769659583340399,-0.4769659583340399,1.0000405227231979,5.702556201034693e-05
-0.4753382531227544,-0.4753382531227544,1.000140392568547,5.675450398155326e-05
-0.4737742721568793,-0.4737742721568793,0.9999501666746958,5.6749059980872694e-05
-0.4720635003846837,-0.4720635003846837,1.0000188379687425,5.7020192534055254e-05
-0.4708732021274045,-0.4708732021274045,1.0000520679291633,5.673765504655045e-05
-0.4695553120051045,-0.4695553120051045,1.0000916851769204,5.6784587488945665e-05
-0.467982373808627,-0.467982373808627,0.9999672484875883,5.670315127914376e-05
-0.46686949641443787,-0.46686949641443787,0.9999861133282515,5.66660806938095e-05
-0.4658515161048854,-0.4658515161048854,1.0000258722994935,5.678375778781627e-05
-0.46401593822229187,-0.46401593822229187,0.999902516371473,5.66607320392924e-05
-0.4627400761411991,-0.4627400761411991,1.000050143835351,5.6835358514818e-05
-0.46114946631423664,-0.46114946631423664,0.9999231452232411,5.664656953860075e-05
-0.45969799036101905,-0.45969799036101905,0.9999284981367291,5.6701597864806786e-05
-0.4578852301230654,-0.4578852301230654,0.9999879036465604,5.691402193673695e-05
-0.45647295796952675,-0.45647295796952675,1.0000430918248564,5.6658997727318114e-05
-0.45479058662604077,-0.45479058662604077,0.9999450988476859,5.664743850564795e-05
-0.45298785096092614,-0.45298785096092614,1.0000045653504763,5.6664027511536545e-05
-0.4516144332825206,-0.4516144332825206,0.9999568723715664,5.6752826402517206e-05
-0.45014309728285296,-0.45014309728285296,0.9999803776765729,5.667505536395159e-05
-0.44857314898981715,-0.44857314898981715,0.9999641683497,5.6759049914525905e-05
-0.4469366088393144,-0.4469366088393144,1.0001672875348906,5.663729631118149e-05
-0.44522359971888364,-0.44522359971888364,0.9999150090243756,5.6812309831068026e-05
-0.4437568680936238,-0.4437568680936238,1.0000172460842478,5.6684653094357486e-05
-0.44222599000204355,-0.44222599000204355,0.9999762862752146,5.693733560919057e-05
-0.4407302263367455,-0.4407302263367455,0.999981462438711,5.680973240195118e-05
-0.43911540718690956,-0.43911540718690956,1.0000229154030769,5.669286148283041e-05
-0.4375470218947157,-0.4375470218947157,0.9998664871532033,5.713724729278402e-05
-0.4362008566065924,-0.4362008566065924,0.9999585931068399,5.668511573580394e-05
-0.43474694145843384,-0.43474694145843384,1.0000100638594693,5.719136253131667e-05
-0.4331635666370858,-0.4331635666370858,0.9999297205851653,5.670147462105992e-05
-0.43131920518935657,-0.43131920518935657,0.9999521532504447,5.6836770317989364e-05
-0.4297319385543233,-0.4297319385543233,1.0001135303332078,5.670667517815759e-05
-0.4277338699699612,-0.4277338699699612,1.0000837018830615,5.689601062524553e-05
-0.4258991532959044,-0.4258991532959044,1.000027532660689,5.664683021081131e-05
-0.42389822601981,-0.42389822601981,1.0000374818302755,5.6950248563589906e-05
-0.42211068705655636,-0.42211068705655636,1.0000548275909695,5.664093641851021e-05
-0.4201346102316165,-0.4201346102316165,1.0000758087618435,5.699126428996606e-05
-0.4185086107579991,-0.4185086107579991,0.9999869869331992,5.695569802162654e-05
-0.4168723587441491,-0.4168723587441491,0.9999689979973928,5.682803836570641e-05
-0.41541721481771676,-0.41541721481771676,0.9999032711795571,5.709725657381716e-05
-0.4139126716268947,-0.4139126716268947,0.9999511609731492,5.6720900929641395e-05
-0.41257058415212666,-0.41257058415212666,0.9999784299638556,5.674224811810339e-05
-0.41111893056950066,-0.41111893056950066,0.999951983377624,5.675865626954975e-05
-0.4096230715076672,-0.4096230715076672,0.9998789289246229,5.671808949662935e-05
-0.4088228664273629,-0.4088228664273629,0.9999344104962237,5.669003296281122e-05
-0.40726736702490596,-0.40726736702490596,1.0000178016674492,5.674329160832251e-05
-0.40562470647273585,-0.40562470647273585,1.00011652991434,5.6716421238628414e-05
-0.404602207505377,-0.404602207505377,0.9999825418435562,5.676957814546086e-05
-0.40276037183066365,-0.40276037183066365,1.0000571622535088,5.6671236380191774e-05
-0.4012020205904264,-0.4012020205904264,0.9998685167494751,5.6877903564177084e-05
-0.39949510890000967,-0.39949510890000967,1.000182435273753,5.6681043067457276e-05
-0.39808758511499037,-0.39808758511499037,1.000052839801197,5.696706733146458e-05
-0.3961419940344058,-0.3961419940344058,0.9999678817518175,5.663926454062009e-05
-0.3948994667152874,-0.3948994667152874,1.0000463114700195,5.675319005882246e-05
-0.3934287496143952,-0.3934287496143952,0.9998412666085412,5.6749084285300075e-05
-0.3917351342388429,-0.3917351342388429,0.9999006490572782,5.6652084369855455e-05
-0.3906684250599938,-0.3906684250599938,0.9999909183335305,5.678587374252074e-05
-0.38913227237935644,-0.38913227237935644,0.9999760476279425,5.66252397881922e-05
-0.3879173324123258,-0.3879173324123258,0.9999877926201896,5.66948745903512e-05
-0.38636966175108683,-0.38636966175108683,0.9997884270913939,5.6789367549982835e-05
-0.38508268106379545,-0.38508268106379545,1.0000392226796737,5.668421583437129e-05
-0.38326363009400666,-0.38326363009400666,0.999892966726495,5.681656382786561e-05
-0.38195045005122663,-0.38195045005122663,0.9998862518811411,5.6667819418246755e-05
-0.38035050706530454,-0.38035050706530454,1.0000584908214085,5.709638174520878e-05
-0.3788316239049891,-0.3788316239049891,0.9999579815693231,5.666433159023218e-05
-0.37721476499864365,-0.37721476499864365,1.0000038074132935,5.717093888621057e-05
-0.37577369835344143,-0.37577369835344143,0.9999152052326415,5.672892245878098e-05
-0.3740549805224873,-0.3740549805224873,0.999991979336154,5.708817430343347e-05
-0.3725820671155816,-0.3725820671155816,0.9999439102962153,5.687130078240645e-05
-0.3707455057039624,-0.3707455057039624,0.999964201625677,5.668729300899631e-05
-0.36888621515536213,-0.36888621515536213,1.0000247352956273,5.6855522485596547e-05
-0.36685276674979833,-0.36685276674979833,0.9999403398339346,5.690762014434915e-05
-0.3650577279884601,-0.3650577279884601,1.0001185936557657,5.669909767918327e-05
-0.363063677639002,-0.363063677639002,0.9999226271506135,5.6934549750076083e-05
-0.3613245890592225,-0.3613245890592225,0.9999698806118686,5.698015963829064e-05
-0.35969983764225616,-0.35969983764225616,1.000069640381933,5.673506977941609e-05
-0.3581473110796651,-0.3581473110796651,0.9999388463766328,5.674020028772834e-05
-0.35668138235632796,-0.35668138235632796,1.0000092649541914,5.7105843726151265e-05
-0.35499026025354397,-0.35499026025354397,1.0000114372344686,5.676595419208163e-05
-0.3536311742529506,-0.3536311742529506,0.999957728139419,5.67314797033904e-05
-0.35234271055960564,-0.35234271055960564,0.9998900857410329,5.6710012404148676e-05
-0.35125287547707557,-0.35125287547707557,0.9999769034697694,5.6682169530272176e-05
-0.35021405793377197,-0.35021405793377197,1.000034431518428,5.6772877526271664e-05
-0.3484902386146132,-0.3484902386146132,1.0000945443326075,5.671382327631249e-05
-0.3475529409508454,-0.3475529409508454,1.0000635487360745,5.669040058932149e-05
-0.34601304801763033,-0.34601304801763033,0.9999613537380462,5.6758755984147496e-05
-0.34436594146827704,-0.34436594146827704,1.0000254167056322,5.669522906663904e-05
-0.34300008839345536,-0.34300008839345536,1.0000836467796173,5.684625298142219e-05
-0.3414840614743298,-0.3414840614743298,0.9999504827200237,5.669103268686423e-05
-0.34028553297393954,-0.34028553297393954,0.9999994182188457,5.6675051401903616e-05
-0.3388291032635607,-0.3388291032635607,0.9999664259968768,5.694477746691385e-05
-0.337537077019806,-0.337537077019806,1.0000648868424222,5.6721144322630034e-05
-0.33608229345700236,-0.33608229345700236,0.9999506086497181,5.673189270287441e-05
-0.33419079208106267,-0.33419079208106267,1.000019843023474,5.664374076910966e-05
-0.3331384464574512,-0.3331384464574512,0.9999735996344212,5.675565872785352e-05
-0.33175280287396164,-0.33175280287396164,0.9999735432887057,5.665647036189424e-05
-0.33043615408823823,-0.33043615408823823,1.0001234932260576,5.6657304774287035e-05
-0.3288147010403918,-0.3288147010403918,1.0000177858651524,5.6768045047823317e-05
-0.32726740825164596,-0.32726740825164596,0.9999173124268111,5.668566280053213e-05
-0.325453122871113,-0.325453122871113,0.9998994769483616,5.679944138293632e-05
-0.3241443606180837,-0.3241443606180837,0.9999382483861167,5.6675537312427e-05
-0.3225332694360986,-0.3225332694360986,0.9998979362904137,5.70688874943148e-05
-0.32103023263043723,-0.32103023263043723,1.0001223419611196,5.667143360190382e-05
-0.31940479548648,-0.31940479548648,1.0001376076945268,5.714889401872037e-05
-0.317959254575544,-0.317959254575544,1.000039510517771,5.673321775735055e-05
-0.316252376176999,-0.316252376176999,0.9999693905405987,5.705902775551503e-05
-0.31477165044052524,-0.31477165044052524,0.9999490804156341,5.686462929881389e-05
-0.31310001595993525,-0.31310001595993525,1.0001106368102994,5.666144136573469e-05
-0.3113310579006793,-0.3113310579006793,0.9999885493580669,5.691183185856628e-05
-0.30949346500856334,-0.30949346500856334,1.0000727786951775,5.6691642674345555e-05
-0.3076262256508926,-0.3076262256508926,1.0000468603480552,5.6870588050054346e-05
-0.30562102781550493,-0.30562102781550493,0.9999833479317861,5.691751887532643e-05
-0.30390378096781206,-0.30390378096781206,1.0000330237665396,5.6698906432992546e-05
-0.3022691395308357,-0.3022691395308357,1.0000631144676535,5.673852463196503e-05
-0.3007261361257406,-0.3007261361257406,0.9999644341167071,5.69286739629598e-05
-0.2991412040748401,-0.2991412040748401,1.0002168464659595,5.7080159611264495e-05
-0.29750471851730254,-0.29750471851730254,0.9999128414988082,5.675700918068699e-05
-0.2958128756668884,-0.2958128756668884,0.9998101118488183,5.67326462634551e-05
-0.29454308993008455,-0.29454308993008455,1.0000181327190503,5.6707708992281663e-05
-0.2934447261824971,-0.2934447261824971,0.9999183952067472,5.6679256457752635e-05
-0.29254043768160043,-0.29254043768160043,0.9999053983522215,5.6795991754340456e-05
-0.2911021602427354,-0.2911021602427354,1.0000264484192638,5.670341123028277e-05
-0.2899928704922786,-0.2899928704922786,1.0001084474124928,5.667396289685706e-05
-0.2889790470537264,-0.2889790470537264,1.000075352513512,5.679307984904313e-05
-0.2871399488678435,-0.2871399488678435,0.9998790586271603,5.666562735245626e-05
-0.2858680740057025,-0.2858680740057025,1.0000295149511522,5.683771539444073e-05
-0.2842706399445888,-0.2842706399445888,0.9999406121120625,5.6639868731466806e-05
-0.28282579065999014,-0.28282579065999014,0.9998971666307765,5.670010353788945e-05
-0.28101201996323655,-0.28101201996323655,0.9998794705601138,5.691928989048147e-05
-0.2797009480011184,-0.2797009480011184,0.9999678510173876,5.8269592011532645e-05
-0.2780104027799098,-0.2780104027799098,0.9999806994326231,5.667438758879919e-05
-0.27610736071655995,-0.27610736071655995,0.99996033251063,5.666517205365569e-05
-0.2747388755407883,-0.2747388755407883,1.000032541199578,5.675553597992276e-05
-0.2732658487686422,-0.2732658487686422,0.9999704382141946,5.668105832210804e-05
-0.2716959137265803,-0.2716959137265803,0.9999579011211097,5.6749552228717325e-05
-0.270058383376454,-0.270058383376454,0.9998897812475652,5.6628086163266884e-05
-0.2683501695661107,-0.2683501695661107,1.0000351065220183,5.6811643862715906e-05
-0.2670876521093305,-0.2670876521093305,1.000191232439788,5.830980853838864e-05
-0.2656906800199067,-0.2656906800199067,0.9999625257311955,5.6683897033622464e-05
-0.26410827196377795,-0.26410827196377795,1.0000329048016354,5.709270796954776e-05
-0.2625930651149247,-0.2625930651149247,0.9999037144816614,5.6676575048742264e-05
-0.26099049373005984,-0.26099049373005984,1.0000959564278815,5.7144225343271624e-05
-0.2594175146543421,-0.2594175146543421,0.9999603537481905,5.668042366339048e-05
-0.2576541799644474,-0.2576541799644474,1.0000083302980753,5.722715162428193e-05
-0.2559312404890079,-0.2559312404890079,1.0000272974074043,5.6653152433663986e-05
-0.2538999007228995,-0.2538999007228995,0.9999167022558109,5.6874672196389674e-05
-0.2520975774008548,-0.2520975774008548,0.9999775566816606,5.663751725759628e-05
-0.2500949707668042,-0.2500949707668042,1.0000810880736728,5.6935010754659935e-05
-0.248254381865263,-0.248254381865263,1.0000207189610406,5.6690567071234196e-05
-0.2463668344222242,-0.2463668344222242,0.9999921228505345,5.688652077455382e-05
-0.2443897425662726,-0.2443897425662726,0.9999662924079764,5.69438400417475e-05
-0.24257170643832068,-0.24257170643832068,1.0000430894750867,5.670590726634543e-05
-0.24103291706123856,-0.24103291706123856,0.999920420366211,5.704354077602872e-05
-0.23935646990430542,-0.23935646990430542,0.9999853032667974,5.6740157672246626e-05
-0.23764654115657322,-0.23764654115657322,1.0000951679079957,5.674413014498067e-05
-0.23619064679951407,-0.23619064679951407,1.000116556873706,5.6739100943716805e-05
-0.23486245803069322,-0.23486245803069322,1.0000584719386776,5.679311363597149e-05
-0.23330275154439734,-0.23330275154439734,0.9999914699106822,5.67027100454647e-05
-0.2321844672958832,-0.2321844672958832,1.0000350287889432,5.6663789525902124e-05
-0.23116024067567195,-0.23116024067567195,1.0000903184288734,5.6785000535472294e-05
-0.2293299890938215,-0.2293299890938215,0.9998350635753491,5.66689923054953e-05
-0.22804809860826936,-0.22804809860826936,1.0000024496409043,5.6819410332536245e-05
-0.22621195503743366,-0.22621195503743366,0.9999172456528566,5.661940022895815e-05
-0.2247091174853267,-0.2247091174853267,1.0001428919472581,5.6934934480837696e-05
-0.22286832376848906,-0.22286832376848906,1.0000467763953729,5.666178650582217e-05
-0.2214988545514643,-0.2214988545514643,0.9998727376514012,5.668278577487415e-05
-0.21965708105708473,-0.21965708105708473,0.9999757130555912,5.69206035761367e-05
-0.21825483748398256,-0.21825483748398256,0.9999074049552827,5.673916271995528e-05
-0.21692781960300636,-0.21692781960300636,1.0000546289697976,5.675121988431293e-05
-0.2154590020625619,-0.2154590020625619,1.000062094078425,5.667474317018912e-05
-0.21416876698494888,-0.21416876698494888,1.0000569925365586,5.673202107955664e-05
-0.2125109354761662,-0.2125109354761662,1.0000460668817426,5.668122298794545e-05
-0.21095408660767134,-0.21095408660767134,0.9999963552707178,5.675947586288308e-05
-0.20927710361138452,-0.20927710361138452,0.9999917819923917,5.6709642087972406e-05
-0.20788268967007753,-0.20788268967007753,0.9999544704472878,5.668443946544126e-05
-0.20629553158651107,-0.20629553158651107,1.000178904091749,5.7066725188994865e-05
-0.20507292226830032,-0.20507292226830032,1.0000248368563343,5.667411204599268e-05
-0.20347741801524535,-0.20347741801524535,0.9999464454164914,5.7093686951097145e-05
-0.20209630925382954,-0.20209630925382954,1.000099734046101,5.6703457125303426e-05
-0.2006118220917415,-0.2006118220917415,0.999844405111957,5.703163711323796e-05
-0.19915112724411302,-0.19915112724411302,1.0000311634171202,5.685398994115212e-05
-0.19755850389774424,-0.19755850389774424,0.9999647708663859,5.667931523144986e-05
-0.1959893670049496,-0.1959893670049496,0.9999646061439046,5.731248770701586e-05
-0.19430647552362643,-0.19430647552362643,0.9999665922275675,5.662218815372811e-05
-0.1922766059549758,-0.1922766059549758,0.9999599038494027,5.691949378933659e-05
-0.1904372589371633,-0.1904372589371633,0.9999937361337752,5.668924980437873e-05
-0.18855817290605045,-0.18855817290605045,0.999911890539283,5.689013882782301e-05
-0.18656938965141306,-0.18656938965141306,1.000000922225103,5.6938819029410674e-05
-0.1847560748719843,-0.1847560748719843,1.000089845668357,5.6704896864432666e-05
-0.18320879644888918,-0.18320879644888918,0.9999221388101109,5.702557152310777e-05
-0.18154744082130492,-0.18154744082130492,0.9999994383608142,5.674571872863911e-05
-0.18010027116106359,-0.18010027116106359,0.9999602324035776,5.712293971473792e-05
-0.178662237917888,-0.178662237917888,0.9999276832645642,5.67210088329235e-05
-0.17737736327690073,-0.17737736327690073,0.9999895115840612,5.669463166118623e-05
-0.1759192606958095,-0.1759192606958095,1.0000397849015832,5.67002344987874e-05
-0.17474464897823055,-0.17474464897823055,1.0000981610640052,5.677196084857537e-05
-0.17389143308682833,-0.17389143308682833,0.9998671766106655,5.665955567676572e-05
-0.1722186757484451,-0.1722186757484451,1.0000156369924014,5.6743375220796845e-05
-0.17078920219209975,-0.17078920219209975,1.0000054361120458,5.669232346220756e-05
-0.16960032540082465,-0.16960032540082465,0.9999596810310412,5.678755002563379e-05
-0.16773072964861058,-0.16773072964861058,1.0000320030157759,5.668317898574841e-05
-0.16617358316434547,-0.16617358316434547,0.9999584232205614,5.6838631837686006e-05
-0.1648085785913281,-0.1648085785913281,1.0000309879602636,5.668363485039779e-05
-0.16362586219620426,-0.16362586219620426,1.0000331233072584,5.6716461261314684e-05
-0.16195598141348455,-0.16195598141348455,1.00002861247361,5.693916149516736e-05
-0.16065726016822737,-0.16065726016822737,0.9999446462431056,5.672200801897846e-05
-0.15941653474292253,-0.15941653474292253,0.9998898947970707,5.675992720351864e-05
-0.15768173151591328,-0.15768173151591328,0.999969367890453,5.664305950495559e-05
-0.15645944494463038,-0.15645944494463038,0.9999105443028011,5.6664118676908034e-05
-0.15511411193874663,-0.15511411193874663,0.9999959079352617,5.674515897234492e-05
-0.15384847318928224,-0.15384847318928224,0.9999601115932508,5.66547066301224e-05
-0.1522759367740946,-0.1522759367740946,1.0001016765286306,5.67829248446432e-05
-0.15072686723433434,-0.15072686723433434,1.0000056437555356,5.6665075653837755e-05
-0.14892705306119752,-0.14892705306119752,0.9999855947245427,5.680546090283381e-05
-0.14752140438940842,-0.14752140438940842,1.000013207633017,5.663605716790107e-05
-0.14597518610826227,-0.14597518610826227,0.9999398811136,5.708892167242495e-05
-0.1445166705409065,-0.1445166705409065,1.0000300605345909,5.671667941930655e-05
-0.1428074128809385,-0.1428074128809385,0.9998978505692653,5.701008778102732e-05
-0.14134102184325456,-0.14134102184325456,0.9999837716094456,5.684604841188247e-05
-0.13975146512675565,-0.13975146512675565,1.0000518246869003,5.668499804206514e-05
-0.13817589584796225,-0.13817589584796225,1.0000723329559755,5.727145041293898e-05
-0.1365017714910209,-0.1365017714910209,0.9999360690293226,5.661657423026749e-05
-0.1344583437923575,-0.1344583437923575,1.0000389676865662,5.691153015124335e-05
-0.13262024197319988,-0.13262024197319988,0.9998860827768411,5.669603441116501e-05
-0.13079256853379775,-0.13079256853379775,0.9998132276931242,5.690082304236488e-05
-0.12919852020859252,-0.12919852020859252,0.9999481415905536,5.6703536127903495e-05
-0.12729913381917868,-0.12729913381917868,0.9998921278687387,5.689860687843487e-05
-0.12539849921886342,-0.12539849921886342,1.0000360494233826,5.673607508938036e-05
-0.12351377608720213,-0.12351377608720213,0.9999684861784219,5.6699254365122526e-05
-0.12198681241716258,-0.12198681241716258,0.9998736379158938,5.708117084983025e-05
-0.1203041427070275,-0.1203041427070275,1.0000887027040037,5.676294654522377e-05
