time,time,flux,flux_err
-0.4997287834509431,-0.4997287834509431,0.9999782379193367,0.00042435946104454664
-0.4994392498659484,-0.4994392498659484,0.9997628678625591,0.00042882205515102744
-0.4991007737211476,-0.4991007737211476,0.9998654140803366,0.0003990193863392244
-0.4986733039106184,-0.4986733039106184,1.0001582404086473,0.00037600097558406886
-0.4984308654682536,-0.4984308654682536,0.9994381700087545,0.00039739512941739687
-0.49784847109694963,-0.49784847109694963,1.0000065863833716,0.00039100455246441555
-0.4975562449391873,-0.4975562449391873,1.0000821604689514,0.00038375466891381695
-0.4971071342130017,-0.4971071342130017,1.000460967991066,0.0003983408723007371
-0.49680448172803154,-0.49680448172803154,1.0001585359587106,0.0003828018343646846
-0.49647588289371924,-0.49647588289371924,0.9999986891315142,0.00039578444015656207
-0.4958579940794152,-0.4958579940794152,1.0006205656870375,0.00037896832838911043
-0.4953868528107705,-0.4953868528107705,0.9988508486358798,0.00040232555270315357
-0.4948451597119856,-0.4948451597119856,0.9998606941609113,0.00038366511079559687
-0.4945150555220607,-0.4945150555220607,1.000018624476104,0.0003979981215905215
-0.49409652539907256,-0.49409652539907256,0.9996800452451147,0.0003898744312783178
-0.49361806343731585,-0.49361806343731585,1.000217481827777,0.00040011209658729013
-0.4930319362494629,-0.4930319362494629,1.0001199254542408,0.0003869579678849632
-0.4927191636183125,-0.4927191636183125,1.0000114544302108,0.0004079475544470024
-0.492030060406978,-0.492030060406978,1.0004416283271909,0.00040007776066242566
-0.49159724885685135,-0.49159724885685135,0.9995744897467447,0.0003977208897621537
-0.49113409598212454,-0.49113409598212454,1.000092936827237,0.00039416064646397334
-0.4904080984502798,-0.4904080984502798,0.9992576769224873,0.0003957465144172532
-0.490048352091253,-0.490048352091253,1.0000751462944586,0.0004038795671994981
-0.48928051685506946,-0.48928051685506946,0.9998232425952853,0.00039082035391870007
-0.4885701312392484,-0.4885701312392484,1.0003527487945587,0.00038889490589853455
-0.48773824827803763,-0.48773824827803763,1.0000378513431725,0.0003845069119267773
-0.4870759650984837,-0.4870759650984837,0.9997766480043531,0.0003793353179477707
-0.48641858606933963,-0.48641858606933963,1.0004490384657008,0.0003961195713016144
-0.4861420799890766,-0.4861420799890766,0.9997881507388824,0.0003772402226393065
-0.4857556743321766,-0.4857556743321766,0.9999941356391695,0.0003978852349558719
-0.4853043411465478,-0.4853043411465478,1.0000168631015467,0.0003913091877149888
-0.48511441771115643,-0.48511441771115643,1.0000523687635456,0.0003792567161505111
-0.48455291887003116,-0.48455291887003116,0.9989000081515751,0.0003915647687804478
-0.48419882606031023,-0.48419882606031023,0.9998710743878458,0.0003793610551804015
-0.48381393078889234,-0.48381393078889234,1.0001502224482728,0.0003999779752016746
-0.4833343149832217,-0.4833343149832217,0.9997416275453223,0.0003755364661505138
-0.4831384288620029,-0.4831384288620029,0.9999091726966809,0.00039805925041634383
-0.4826692833688867,-0.4826692833688867,1.00044560160579,0.0003961793833370928
-0.4823674224426213,-0.4823674224426213,1.0002506803562272,0.00037725635722997354
-0.4821657819549728,-0.4821657819549728,0.9996097943796649,0.0003973250597701489
-0.4815887552125787,-0.4815887552125787,1.0000434298535321,0.00038405419832431627
-0.4812466443006997,-0.4812466443006997,1.0005452297608495,0.00038999184483549644
-0.48072592224489197,-0.48072592224489197,0.9998234260894229,0.0003919871716828712
-0.4803848231844313,-0.4803848231844313,0.999911048625831,0.0003862852540709415
-0.47973550118185815,-0.47973550118185815,1.0000945620466575,0.0003850110929598052
-0.4792752931069117,-0.4792752931069117,0.9993356196883674,0.0003956424029818147
-0.4787862689925532,-0.4787862689925532,1.0004266501877372,0.0003831749018995314
-0.4783673034384265,-0.4783673034384265,1.0002393494026474,0.0003989128433541817
-0.47782362210855356,-0.47782362210855356,0.9997090586357512,0.0003863325746363991
-0.47714241846333605,-0.47714241846333605,1.0000549134860122,0.0004052050894635728
-0.47663517415057866,-0.47663517415057866,1.0003204332117897,0.00039599052065887537
-0.476172193880484,-0.476172193880484,1.0001967208867946,0.0003998348049033205
-0.47570504677350983,-0.47570504677350983,0.9999900738271108,0.0004000586514876182
-0.4751979967819352,-0.4751979967819352,0.9994558625729344,0.0003986035388545878
-0.47450683262868554,-0.47450683262868554,0.999038349243687,0.00039487418793954986
-0.47389504903840135,-0.47389504903840135,1.0000107939139227,0.0003981567302107886
-0.4733580269625236,-0.4733580269625236,1.0001507272858152,0.00039704431730081934
-0.4727919605953502,-0.4727919605953502,1.0004967308629225,0.00039062321360247234
-0.47202045168087353,-0.47202045168087353,0.9998701335889744,0.0003829602460405755
-0.4709846289653797,-0.4709846289653797,0.9998317280834723,0.0003850897621109029
-0.4705112425261177,-0.4705112425261177,0.9994359173674855,0.00039090504545134157
-0.4700352152278356,-0.4700352152278356,0.9997994121144822,0.0003904028955042661
-0.4697580211010063,-0.4697580211010063,0.9993897318890351,0.0003852725683544796
-0.469232617803209,-0.469232617803209,1.0001445676560983,0.00039006350308114733
-0.4689263286818459,-0.4689263286818459,1.0000992570392255,0.0003841443094957433
-0.46860081591294145,-0.46860081591294145,0.9980986293902184,0.0004014318449497959
-0.4681114744969818,-0.4681114744969818,1.00009319115313,0.00038109074452397106
-0.46793419650857687,-0.46793419650857687,0.999318821524892,0.0003880009961981944
-0.4674463225157524,-0.4674463225157524,0.9997950131715436,0.0003997149041878526
-0.46704267562599855,-0.46704267562599855,0.999870268143952,0.000370807622443526
-0.46676090414839566,-0.46676090414839566,0.9999422958075567,0.0004034387731735048
-0.46630746895680203,-0.46630746895680203,0.9996310052150473,0.00038834563360855837
-0.4660541317483876,-0.4660541317483876,0.9997186040633069,0.0003826085876767821
-0.465700335753354,-0.465700335753354,1.0005222438343857,0.00040019439410952305
-0.46519887616232153,-0.46519887616232153,1.00022369543461,0.0003762876512921129
-0.46497599613794593,-0.46497599613794593,1.0003771496445566,0.00039465750701574316
-0.4645380030895467,-0.4645380030895467,0.9994885429139885,0.00039810186398136946
-0.4642688875923341,-0.4642688875923341,0.9998382245664805,0.0003770562426783498
-0.46384299911005655,-0.46384299911005655,0.9999742033012857,0.0003972900680206377
-0.46337212240541703,-0.46337212240541703,1.0002854155961973,0.0003818248288235859
-0.46291781527688725,-0.46291781527688725,0.9999702734327938,0.00040021418197594904
-0.46236998958702313,-0.46236998958702313,0.9999596341947449,0.0003808968226011802
-0.46198357080211283,-0.46198357080211283,1.0002664484077337,0.000400591419302554
-0.4614625884722045,-0.4614625884722045,0.9997201291961346,0.000392731449671681
-0.46074486411525867,-0.46074486411525867,1.0001531798128531,0.000392673629563152
-0.46027451448899226,-0.46027451448899226,0.9991703543325521,0.0004001397513720919
-0.4598969755708822,-0.4598969755708822,1.0000473804960581,0.0003991085445418818
-0.45935443340058557,-0.45935443340058557,0.9999526154141354,0.00039996320207287436
-0.4588896457134979,-0.4588896457134979,0.9995372202765148,0.00039976635897764933
-0.45836096472121424,-0.45836096472121424,0.9996455749200642,0.00039424631090396377
-0.4578661407067557,-0.4578661407067557,0.9997561343863597,0.0003984008599135564
-0.45741030789431536,-0.45741030789431536,0.9997686303311898,0.00039751054560232727
-0.45697908728470793,-0.45697908728470793,0.9999783307804933,0.000396249660517182
-0.4565715669050405,-0.4565715669050405,1.000096627038476,0.0003877274067100051
-0.455803776391258,-0.455803776391258,1.000014290575032,0.00038942677089029464
-0.4551040936836216,-0.4551040936836216,1.0001088294733873,0.0003831578088301549
-0.45449736443988514,-0.45449736443988514,0.9998193665757507,0.00038583077011444084
-0.4538861842236656,-0.4538861842236656,0.9996935778083408,0.00039295023501849624
-0.4536041959989234,-0.4536041959989234,0.9994477657704228,0.0003849285838847137
-0.4529416551224131,-0.4529416551224131,0.9994756620611772,0.0003868953618601631
-0.45267124525271357,-0.45267124525271357,1.0000525771603528,0.00038689982371942954
-0.4522457997663878,-0.4522457997663878,0.9996290327760597,0.00039883448212461886
-0.4518162635649787,-0.4518162635649787,1.0007089200641224,0.0003844029122606244
-0.4515814759150089,-0.4515814759150089,1.0000580890899518,0.00038894303282551286
-0.4510686872396036,-0.4510686872396036,0.9994404950956538,0.00039038245768816866
-0.450771167739731,-0.450771167739731,1.0005508730387782,0.00037919566706716174
-0.45039494840384575,-0.45039494840384575,0.9999799592736854,0.0004001056066568479
-0.44990750589131495,-0.44990750589131495,1.0002645969976598,0.00037598629682620817
-0.44969946776618597,-0.44969946776618597,0.9994983017669508,0.00039669003973982547
-0.4490392338455422,-0.4490392338455422,0.9999103507030178,0.0003786910884720756
-0.4487583877496945,-0.4487583877496945,1.0003280360968385,0.00039508595842435045
-0.4482549477943394,-0.4482549477943394,0.9996384742105393,0.0003976538150460483
-0.44797793015022763,-0.44797793015022763,0.9996281004120606,0.0003759658294744755
-0.4476141190105409,-0.4476141190105409,0.9999594458131146,0.00039856561603334963
-0.4471353991917567,-0.4471353991917567,0.9996391497818312,0.00038186101695835204
-0.44668322746874767,-0.44668322746874767,0.9987698348529361,0.00040109134009751424
-0.446132388235128,-0.446132388235128,0.9998756772446565,0.0003800389778662755
-0.4457043623646314,-0.4457043623646314,1.0001058281192905,0.00040166779754435025
-0.44508730366287635,-0.44508730366287635,1.0001005359069306,0.0003944308009932349
-0.4445082425168948,-0.4445082425168948,0.9998643139730469,0.00039612940243458376
-0.44414850141693024,-0.44414850141693024,0.9996627622660015,0.0003945338098672301
-0.44361210630086134,-0.44361210630086134,1.0001872861677192,0.00039730005655087066
-0.44311249550519277,-0.44311249550519277,0.9997962486960674,0.0004038645194136277
-0.4424579662263568,-0.4424579662263568,0.9992726114331514,0.0003997077506811632
-0.44187540089260435,-0.44187540089260435,0.9998550586020126,0.00039888848628140806
-0.4413430627399066,-0.4413430627399066,0.9997677719768371,0.00039508863449668196
-0.44075944085270746,-0.44075944085270746,1.0002071980619938,0.00039618716841806996
-0.44004173623980025,-0.44004173623980025,0.9995574815077781,0.00038754253516069337
-0.43906913993050695,-0.43906913993050695,1.0002293602488577,0.00039065372317898737
-0.43836702401240474,-0.43836702401240474,0.999701839866748,0.00037666805832390325
-0.43759171800338664,-0.43759171800338664,0.999424892855366,0.000391072883555001
-0.43719521408929723,-0.43719521408929723,1.0003857187605902,0.00038356127258486216
-0.43654025271316643,-0.43654025271316643,0.9994375669231961,0.0003847435659707759
-0.43625563792302274,-0.43625563792302274,1.0003468608736752,0.00039268687703540367
-0.4356398757612624,-0.4356398757612624,1.0001929111032335,0.00039162683888870845
-0.43544902340872793,-0.43544902340872793,0.9999364514478302,0.00037955458707164856
-0.4349960838328116,-0.4349960838328116,0.9999441337735989,0.0003992648057430374
-0.4346234229262336,-0.4346234229262336,1.0003054760573067,0.0003762075519461508
-0.43446678910768244,-0.43446678910768244,0.9999544465434903,0.0003947225085478618
-0.43395426922288605,-0.43395426922288605,0.9997808479047032,0.00039555688714200757
-0.4336178612509684,-0.4336178612509684,1.0001767239021757,0.00037197518990526987
-0.43335580669954654,-0.43335580669954654,1.0001159174979755,0.0004011973139567434
-0.43287318234943084,-0.43287318234943084,1.0002044791258438,0.00039115537885467736
-0.4326253715560597,-0.4326253715560597,1.0000670534690148,0.00038052648403757365
-0.4322260220229509,-0.4322260220229509,1.0004318165882216,0.00039992401652840274
-0.43182058150487135,-0.43182058150487135,1.0001524425763302,0.0003832845448313644
-0.4315346713992767,-0.4315346713992767,1.000785351310505,0.00039247004311290063
-0.4309224682074273,-0.4309224682074273,1.0005931929779233,0.00038089768066248476
-0.43052481495615214,-0.43052481495615214,0.9990556130771082,0.00040365127009599065
-0.4299018845245882,-0.4299018845245882,0.9998039960836513,0.00037982458031436775
-0.4294234657434572,-0.4294234657434572,0.9997668376569152,0.00040315246686261865
-0.42895931367238516,-0.42895931367238516,1.0009119630749521,0.0003926501360258022
-0.4282806313727633,-0.4282806313727633,0.9998837162183409,0.00040057089380518145
-0.42785617028566775,-0.42785617028566775,0.9997833100925533,0.000393529205049624
-0.42737745606937094,-0.42737745606937094,1.000056405721947,0.0003971467663591205
-0.4269600535277277,-0.4269600535277277,0.9993659656063846,0.00040184696040278
-0.4265258607563737,-0.4265258607563737,1.0000288211377109,0.00039889371390863934
-0.4258904569302103,-0.4258904569302103,1.000258658893177,0.0004009621684173366
-0.4255686817879905,-0.4255686817879905,1.0005301949935146,0.0004004682717569554
-0.4251129379736085,-0.4251129379736085,0.9988989745360636,0.00039403031466720366
-0.4243598906163243,-0.4243598906163243,0.9992821416500931,0.00039566867135582933
-0.4235476273126551,-0.4235476273126551,1.0000237159590621,0.00038105378811624345
-0.4228770580797573,-0.4228770580797573,0.9998263403227249,0.00039880660998991343
-0.4222244333141134,-0.4222244333141134,1.000862624777374,0.00038415191943243037
-0.42181817946766387,-0.42181817946766387,0.9998536410843784,0.0003910775411039141
-0.42135589986137345,-0.42135589986137345,1.0005942808867028,0.00039087230109907656
-0.42087765866599514,-0.42087765866599514,1.0002495343804187,0.0003841790052082139
-0.42027270229446,-0.42027270229446,1.0001899924626634,0.0003844609073098024
-0.4200853461828956,-0.4200853461828956,0.9997988271304786,0.00039067119342422655
-0.4195625340878905,-0.4195625340878905,1.0000532860000992,0.00039092423052642647
-0.4192499410819437,-0.4192499410819437,0.9998430538519912,0.00037933861980722617
-0.4189134450003621,-0.4189134450003621,0.9996573435843688,0.0004004694686182894
-0.41838648473858486,-0.41838648473858486,1.0002161929776987,0.0003758657695761375
-0.4181973126331286,-0.4181973126331286,0.9996256865069153,0.00039594098345728014
-0.4176376524417719,-0.4176376524417719,0.999785700422969,0.00039088009479377523
-0.41734316986839987,-0.41734316986839987,0.9999495508558732,0.00038150435283724544
-0.4170169777928095,-0.4170169777928095,0.9998736586251635,0.00039719159882204964
-0.4166107593126071,-0.4166107593126071,0.9998437821959548,0.00038441200834617915
-0.41635544907694566,-0.41635544907694566,1.0000503770242068,0.0003898346399133211
-0.41599137063676606,-0.41599137063676606,1.0005795417936034,0.00039987305653690414
-0.41563301091373434,-0.41563301091373434,0.9997225607830555,0.0003822089503349775
-0.41525883922877255,-0.41525883922877255,1.0005930640380956,0.0003912449136604116
-0.41474992951843886,-0.41474992951843886,0.9997184537176024,0.00039096644972259925
-0.4144150178100972,-0.4144150178100972,1.000162932664699,0.00038913512016445747
-0.4137978177772311,-0.4137978177772311,0.9997839902918217,0.00038441092504587666
-0.4133933247736422,-0.4133933247736422,0.9997497342375798,0.00039732510122002744
-0.4129252184269717,-0.4129252184269717,1.000117603017188,0.0003916631087093569
-0.41254473906883504,-0.41254473906883504,1.000031148900648,0.0003894812700534709
-0.4121542971013696,-0.4121542971013696,0.9993439277478157,0.0003994165976027307
-0.41157941238197965,-0.41157941238197965,0.9999225401254165,0.0003934005568605167
-0.41104856618621854,-0.41104856618621854,0.9997290765851515,0.0003962692746866156
-0.41067665286027477,-0.41067665286027477,0.9999695196488538,0.000399051095248059
-0.41022144773887703,-0.41022144773887703,0.9996970153763897,0.0003993249436702076
-0.40974546118450234,-0.40974546118450234,1.0006012002872078,0.0003972812075332794
-0.4093519218360598,-0.4093519218360598,0.9997176531838556,0.0003985196810434414
-0.40893056968634484,-0.40893056968634484,0.9999274281976505,0.0003938589792110678
-0.4082332382997265,-0.4082332382997265,0.9994831718963896,0.0003949485988183966
-0.4071299761053524,-0.4071299761053524,0.9992295744959815,0.000385187286481902
-0.40594506262423236,-0.40594506262423236,0.9997025886104997,0.00037723091367754334
-0.40519617132813435,-0.40519617132813435,0.9999639062421168,0.00038942856606207345
-0.4048076069870149,-0.4048076069870149,1.0004123148555777,0.00038648233009622895
-0.40415432532608975,-0.40415432532608975,1.0003321360749289,0.00038785103171266064
-0.40394323306536534,-0.40394323306536534,0.999879000490681,0.0003873533709120853
-0.4032423293705506,-0.4032423293705506,1.0002689058791876,0.00038841653444568637
-0.4029931439785287,-0.4029931439785287,0.9995803188091843,0.0003816582705909683
-0.4025565987933078,-0.4025565987933078,1.0000025298937358,0.00039809294232147916
-0.4020928309466399,-0.4020928309466399,0.9999140119736399,0.00037964563971894347
-0.40180319657592917,-0.40180319657592917,1.0003487821912898,0.00039449231572004893
-0.40125216818705667,-0.40125216818705667,1.0001701982216213,0.00038142712057960906
-0.40105145555207855,-0.40105145555207855,0.9999392723856841,0.0003909235253322315
-0.40052792957794736,-0.40052792957794736,0.9998924946081296,0.0003962610604321488
-0.4001929299294716,-0.4001929299294716,1.0002132436280964,0.00037291992639594594
-0.39982852858302065,-0.39982852858302065,0.9997658864068354,0.00040290316630755575
-0.39939609556167854,-0.39939609556167854,1.000580739317971,0.00038213841932293506
-0.3991061249813356,-0.3991061249813356,1.00022333894298,0.0003907423869958602
-0.398672194647952,-0.398672194647952,0.9999721490037476,0.0003966860334445055
-0.3983146626211237,-0.3983146626211237,0.9997892716896573,0.00037686634097632737
-0.3978432579773653,-0.3978432579773653,0.9998791945584651,0.0004025387783266575
-0.3973044724167266,-0.3973044724167266,0.9992922879982709,0.00038200087542353343
-0.39677778650293477,-0.39677778650293477,1.0000245045132725,0.0003926473070695423
-0.39630280112687616,-0.39630280112687616,0.99949794158121,0.0003901822055490197
-0.39588167440597316,-0.39588167440597316,1.0001818165344627,0.00039989180308906724
-0.3954906666804163,-0.3954906666804163,1.0003629809748849,0.0003928469886669993
-0.3949918323727616,-0.3949918323727616,1.0001545702038979,0.00039724977446071774
-0.39450283552650944,-0.39450283552650944,1.0003032247515369,0.00039786331666794613
-0.39411119660944677,-0.39411119660944677,0.9996111309627917,0.00039841717522937645
-0.3934519269147131,-0.3934519269147131,1.0005175250821259,0.00039857980468528274
-0.3930380748999596,-0.3930380748999596,1.0001881005033968,0.0003989842334235514
-0.39233202014584095,-0.39233202014584095,0.998862127182303,0.00039310354752562966
-0.39168959224844,-0.39168959224844,1.0000848167600183,0.0003873228492672487
-0.390753032072098,-0.390753032072098,0.9997417421804544,0.00039192806192651225
-0.3900075111996557,-0.3900075111996557,1.0002877977108737,0.00038230305593088434
-0.3892112511464802,-0.3892112511464802,0.9999387292307439,0.00039021877776861157
-0.3886996523811831,-0.3886996523811831,0.9999536249394334,0.0003794138270303138
-0.3880421490088338,-0.3880421490088338,0.9998542837199087,0.00039607121450536866
-0.38776577483440633,-0.38776577483440633,0.9994229632773548,0.00037713831025301307
-0.38745377147133697,-0.38745377147133697,0.9995580583529708,0.0003984759086836812
-0.38692789841152264,-0.38692789841152264,1.0002343971550443,0.0003913845576322767
-0.38673811656044565,-0.38673811656044565,0.9998167016668005,0.00037923940986621727
-0.38617646569982755,-0.38617646569982755,1.0000898446794415,0.00039166404408784493
-0.38582254520006243,-0.38582254520006243,1.0004424523847153,0.0003795377217474245
-0.3854373943795508,-0.3854373943795508,1.000335797474523,0.0003999984763956422
-0.3850127092737239,-0.3850127092737239,1.000672127062814,0.00038253059952820666
