time,time,flux,flux_err
-0.4994886530178822,-0.4994886530178822,1.0000575779823062,0.00018929677107258915
-0.4984616308459711,-0.4984616308459711,0.999966619093191,0.00018917282104993538
-0.49751214039194264,-0.49751214039194264,0.9999759573786614,0.00019032241240298908
-0.4969866075378377,-0.4969866075378377,1.0000648899474618,0.00017586969668063708
-0.49639183164472345,-0.49639183164472345,0.9997871759298771,0.00017227508875716606
-0.4957479021388281,-0.4957479021388281,1.000167386837521,0.00017167721674830484
-0.4950474521574506,-0.4950474521574506,1.0000012527441071,0.00017001434395353489
-0.4941173714738397,-0.4941173714738397,0.9997073005306657,0.0001707163217118515
-0.49370062492089345,-0.49370062492089345,1.0000782568147255,0.00017233388816973203
-0.49250409184387534,-0.49250409184387534,0.9998275942656148,0.00017231498346004625
-0.49142521434187075,-0.49142521434187075,1.0001667219259214,0.00017429424115147978
-0.49048001506889705,-0.49048001506889705,1.0001812201486422,0.00017261815503145402
-0.489857704428141,-0.489857704428141,0.9999221921239905,0.0001732111843177682
-0.48892853173820183,-0.48892853173820183,1.000050364223574,0.00017228468322374107
-0.4884238248603651,-0.4884238248603651,0.9998587836973989,0.00017740478016811616
-0.4878559157521522,-0.4878559157521522,0.9999156195036969,0.00017341371984853798
-0.48717940069400356,-0.48717940069400356,1.000149595791032,0.00017094316605594163
-0.4864183058751223,-0.4864183058751223,1.0000580708115465,0.0001709882435022354
-0.4854461854971305,-0.4854461854971305,1.0000012586094513,0.00017165384562091977
-0.48480033501473374,-0.48480033501473374,0.9996666505345944,0.0001715227215177745
-0.4835350428445963,-0.4835350428445963,1.0000526425657088,0.00017228864631321333
-0.48296321568996065,-0.48296321568996065,1.0000316424946996,0.00017317542538658313
-0.48186950740928297,-0.48186950740928297,0.9999419670354122,0.0001727447291755938
-0.48092414523125626,-0.48092414523125626,1.00002474660751,0.00017346290385325584
-0.47993562998744893,-0.47993562998744893,0.9999363033909587,0.00017074514696401637
-0.4795511296200857,-0.4795511296200857,0.9999372453535947,0.00017365972878062512
-0.4789239008241566,-0.4789239008241566,1.000201987777509,0.00017347514562602505
-0.47835342593607494,-0.47835342593607494,0.9996703911557075,0.00017102612307358516
-0.4776309006701922,-0.4776309006701922,1.0002356967314916,0.00017118672309421117
-0.47685594799622777,-0.47685594799622777,1.0002247863679186,0.00017272404747643809
-0.47616043751841064,-0.47616043751841064,0.999991755858621,0.0001715435433174621
-0.4753897953691194,-0.4753897953691194,0.999875087562797,0.00017379084881899063
-0.4745803922545747,-0.4745803922545747,1.0001483686701689,0.0001741879144723334
-0.4740162568130472,-0.4740162568130472,1.0001459058305753,0.00017248419908686425
-0.47275480522293944,-0.47275480522293944,1.0000397342482072,0.0001716023898271785
-0.47127865988513806,-0.47127865988513806,1.000129883389961,0.00017229512332980038
-0.47055746904807166,-0.47055746904807166,0.9998114440880274,0.00017428373689003056
-0.47014605220756495,-0.47014605220756495,0.9998796919311713,0.00017441735899831112
-0.46988107056822626,-0.46988107056822626,0.9999382031540721,0.00017495023753006517
-0.4691672909830231,-0.4691672909830231,0.9999730743690234,0.00017159141490546702
-0.46841016569233035,-0.46841016569233035,1.0003950353782125,0.00017219169885205745
-0.46729512453312055,-0.46729512453312055,1.000158626575224,0.0001732296626192548
-0.46641188731518923,-0.46641188731518923,0.9999292373425241,0.00017308747752612334
-0.4656393608885992,-0.4656393608885992,1.0001240815291628,0.0001755692166420587
-0.4648822649833164,-0.4648822649833164,0.9998755332063863,0.000172052241751183
-0.4640455526248843,-0.4640455526248843,1.0003231270804274,0.00017435080037631295
-0.4633697411532921,-0.4633697411532921,1.000012782461423,0.0001716507320697695
-0.4625532163947355,-0.4625532163947355,1.0002148750457105,0.00017158019648776766
-0.46171872343256837,-0.46171872343256837,1.0001602275624757,0.00017376028471499135
-0.4611761705695244,-0.4611761705695244,0.999816043206829,0.00017274645386312876
-0.46084376355065615,-0.46084376355065615,0.9999208278436672,0.00017375979318445527
-0.46026751946410516,-0.46026751946410516,0.9999999152646495,0.00017258799989325883
-0.459410546941217,-0.459410546941217,0.9999090445843472,0.00017329738015784343
-0.45845098408826745,-0.45845098408826745,0.9998703828559463,0.0001732692977466478
-0.4576386812630517,-0.4576386812630517,1.00018186153542,0.00017309852764778238
-0.4568438112117292,-0.4568438112117292,1.0002145948684098,0.0001723136081015713
-0.45626757672653184,-0.45626757672653184,0.9999214868955499,0.00017229507177046985
-0.4555809902718465,-0.4555809902718465,0.9998972432562784,0.00017303246737269376
-0.45474924024456415,-0.45474924024456415,0.999970469102544,0.00017229112976119594
-0.45421323336704517,-0.45421323336704517,0.9999177047190375,0.00017090640505081382
-0.45339080849225866,-0.45339080849225866,1.0001888317173853,0.00017233297364746436
-0.45229794036131354,-0.45229794036131354,1.0001272606807325,0.00017225062695814852
-0.45183444002468603,-0.45183444002468603,1.000309994775981,0.00017402695031164367
-0.45113106047356266,-0.45113106047356266,0.9998034052875345,0.0001727036547232055
-0.4500867641327204,-0.4500867641327204,1.000305464744248,0.0001743318415433635
-0.4490097996524128,-0.4490097996524128,1.0000216470409016,0.00017308421911573621
-0.44824019776278873,-0.44824019776278873,0.9999969028841438,0.00017308547482467298
-0.44731469953039776,-0.44731469953039776,1.0002532702322338,0.00017305236262973417
-0.44657591874856734,-0.44657591874856734,0.9999419962724934,0.00017258643214818227
-0.44554183071595616,-0.44554183071595616,0.9998042581291744,0.00017075116018692223
-0.444836927713186,-0.444836927713186,1.00007269306411,0.00017246026896504721
-0.443585596462799,-0.443585596462799,0.9999188102593821,0.0001723068513511157
-0.4429930606042035,-0.4429930606042035,0.999965748682792,0.00017329083163923533
-0.4423945522088616,-0.4423945522088616,1.0001673618788725,0.00017264199758037672
-0.4416290482149634,-0.4416290482149634,0.9999289463803269,0.00017341822807116314
-0.4403277486540901,-0.4403277486540901,0.9999440869658818,0.00017323940024091596
-0.43966467664140507,-0.43966467664140507,1.000173952815374,0.0001723489730242804
-0.4390382927282189,-0.4390382927282189,1.0001414003052456,0.00017308484222266322
-0.4382335438283917,-0.4382335438283917,1.000096564992319,0.00017224725083524417
-0.43743163782128247,-0.43743163782128247,1.0001250753553144,0.00017292468944124173
-0.4365529229660751,-0.4365529229660751,0.9999213223513159,0.00016998593174536212
-0.4360642034938792,-0.4360642034938792,0.9999963693583421,0.00017240044813634378
-0.4353370952223486,-0.4353370952223486,1.000138613526246,0.0001731132559485461
-0.4345893457510101,-0.4345893457510101,1.00006382864283,0.0001759751220615781
-0.4341392166679725,-0.4341392166679725,0.9998141435444546,0.000173367160085313
-0.4335838597326074,-0.4335838597326074,1.0000118919919085,0.00017340832532741768
-0.43282491212157764,-0.43282491212157764,1.0000111137714405,0.00017309001253294317
-0.4314985181874363,-0.4314985181874363,1.000042907431697,0.00017327488559830298
-0.4306051977589959,-0.4306051977589959,1.000069614043332,0.00017383001682034382
-0.4300697928010777,-0.4300697928010777,1.0000288299625453,0.00017573214566559515
-0.4293714619743696,-0.4293714619743696,0.9998869424277983,0.00017300268067534672
-0.4284911801740236,-0.4284911801740236,0.9998528349365483,0.00017180758702722233
-0.4275117336801486,-0.4275117336801486,1.000074131379809,0.00017164795638591185
-0.4270001114615297,-0.4270001114615297,0.9997146736439377,0.00017318876739710144
-0.4255444132701086,-0.4255444132701086,0.9999531600671082,0.00017657923904204194
-0.42479295996454314,-0.42479295996454314,0.9998340261090923,0.00017265103916240467
-0.4244525196008908,-0.4244525196008908,0.9999202055983988,0.00017148869647898621
-0.42363586215869875,-0.42363586215869875,1.0000440124882835,0.00017229845158748562
-0.4228267235477688,-0.4228267235477688,1.0001957895162363,0.0001733524921479708
-0.4221916314898408,-0.4221916314898408,0.9999976569122218,0.0001757753659886107
-0.42169797051756175,-0.42169797051756175,0.9999885798322478,0.0001722997963132719
-0.421067675777158,-0.421067675777158,1.0002062847537811,0.00017368423317249839
-0.42051646044274094,-0.42051646044274094,1.0000961772234032,0.00017429698615762268
-0.4197544053837191,-0.4197544053837191,0.9998501183932623,0.0001717894368917395
-0.41846974427680833,-0.41846974427680833,0.9998930667720003,0.00017195950087000008
-0.4171359331237909,-0.4171359331237909,1.0002793476150185,0.00017381686330602796
-0.41628566407162,-0.41628566407162,0.9998531225449998,0.00017154902475971496
-0.41575827249980646,-0.41575827249980646,1.0000799924477062,0.00017269493019124533
-0.4152074478028226,-0.4152074478028226,0.9998565331079398,0.00017285751048975122
-0.41447738507486065,-0.41447738507486065,1.0001938063926237,0.00017193970710639123
-0.4137402336244122,-0.4137402336244122,0.999871912981936,0.00017336374279832242
-0.4126382120666676,-0.4126382120666676,1.000167474773408,0.00017232490709444143
-0.41195075003342935,-0.41195075003342935,1.0000424105130452,0.00017530000356003788
-0.4115370980769512,-0.4115370980769512,0.9999287377363265,0.00017302337121932726
-0.4111084531818051,-0.4111084531818051,1.0002286593809697,0.0001717938526599994
-0.41025786307727685,-0.41025786307727685,0.9996484522068366,0.0001711470557456122
-0.40927866692290993,-0.40927866692290993,1.0002392645063038,0.00017258255902135566
-0.40842566343344516,-0.40842566343344516,1.0000634454308313,0.00017157319573171613
-0.40767565600472155,-0.40767565600472155,1.0004214601017065,0.00017349802015471303
-0.40708328550099393,-0.40708328550099393,0.9998289057315493,0.00017190362302933526
-0.4066646615465288,-0.4066646615465288,0.9998071959874151,0.00017183360221449697
-0.4058534160329145,-0.4058534160329145,0.9998977833500066,0.00017275796351254227
-0.40513625430321554,-0.40513625430321554,0.9998871662253507,0.0001725545639425185
-0.4042411605871166,-0.4042411605871166,1.0001497104523924,0.00017311854199997826
-0.4035155868426955,-0.4035155868426955,1.0000873223643105,0.00017307440212844394
-0.4029592824073916,-0.4029592824073916,0.9996877328211136,0.00017548683583661908
-0.4024730896599067,-0.4024730896599067,1.0001357293894055,0.00017224877886241665
-0.401956696108391,-0.401956696108391,1.0002186373373756,0.00017110963981979382
-0.40130989679382767,-0.40130989679382767,0.9997090569838123,0.00017201042843135994
-0.3998304647197074,-0.3998304647197074,1.0001320883579852,0.00017229226609779828
-0.3986961638365756,-0.3986961638365756,0.9999433825825195,0.0001748528343710099
-0.3980824952152034,-0.3980824952152034,1.0000482503582406,0.0001715683597327449
-0.39747611627462903,-0.39747611627462903,1.0001781601626143,0.00017235289776071315
-0.3964242417881906,-0.3964242417881906,0.999996018322058,0.00017259331370610986
-0.3959157170189428,-0.3959157170189428,0.9999301364526765,0.0001724052593200774
-0.395177091522055,-0.395177091522055,0.9999863745828381,0.0001730980941367785
-0.3943134369663312,-0.3943134369663312,0.9998466161229581,0.0001737508144799847
-0.39371430222308845,-0.39371430222308845,1.0001027396558624,0.0001742366757120153
-0.39272024561651053,-0.39272024561651053,1.0000720309859847,0.00017080589923013862
-0.3916849255292618,-0.3916849255292618,0.9998977958127213,0.00017078518950243952
-0.39060544819731147,-0.39060544819731147,0.9999491670345627,0.00017078144267308995
-0.38932123030899674,-0.38932123030899674,1.000152642904817,0.00017156908510778258
-0.3885187866348133,-0.3885187866348133,1.0003650036889198,0.00017319958054268694
-0.3873091582347115,-0.3873091582347115,0.9999356949484165,0.000172577941543592
-0.3864815280889161,-0.3864815280889161,1.0000595718636889,0.0001731921583790129
-0.38564308617060306,-0.38564308617060306,1.0002067497943017,0.0001730748235809593
-0.3852079981188581,-0.3852079981188581,0.9997513200515051,0.0001758801124067604
-0.3844751967480988,-0.3844751967480988,1.0005392047249277,0.00017309409367516148
-0.3836706798108935,-0.3836706798108935,1.0002489812355866,0.0001708459866318264
-0.38284437703186996,-0.38284437703186996,1.000172525809631,0.0001700091678933637
-0.3819002840318717,-0.3819002840318717,1.0000657788218148,0.00017079963165593233
-0.3815278993140964,-0.3815278993140964,1.0000582275110577,0.00017304342297559973
-0.3803996880102204,-0.3803996880102204,1.000259990333986,0.00017234469976296895
-0.3793202982960793,-0.3793202982960793,0.9999740119827804,0.0001742767247683144
-0.37807873455822116,-0.37807873455822116,0.999632147382604,0.00017269506135841547
-0.37710613873496185,-0.37710613873496185,1.0001482589455608,0.00017230451547676438
-0.37644663036044224,-0.37644663036044224,0.999914781652976,0.0001736934358333758
-0.3758785761157924,-0.3758785761157924,0.9999633240062057,0.00017570848919961046
-0.3750769123689679,-0.3750769123689679,1.0001894229907307,0.00017096219228538242
-0.37413058850652303,-0.37413058850652303,1.000113118415722,0.00017103455642211908
-0.373205392107775,-0.373205392107775,1.0000674060831367,0.00017159434356465514
-0.37262777904907124,-0.37262777904907124,1.0002673340000563,0.00017235838627028605
-0.37160991132986965,-0.37160991132986965,1.000236858977623,0.00017439663610616815
-0.37115435832820365,-0.37115435832820365,0.9997213100727823,0.00017375275380503787
-0.3703666113731742,-0.3703666113731742,1.0001611831221129,0.00017328417028516233
-0.36953102412226146,-0.36953102412226146,0.9998611802132082,0.00017374962213262973
-0.3685779111059674,-0.3685779111059674,1.0002016270061247,0.00017242649226993138
-0.3676463598421833,-0.3676463598421833,1.0001851080084656,0.00017292938055575634
-0.3672475558407314,-0.3672475558407314,1.0001345034440918,0.00017231681600518592
-0.3666266231892223,-0.3666266231892223,1.0002419484465523,0.00017440968966709003
-0.366116577777575,-0.366116577777575,0.9999552577082387,0.00017011435121069645
-0.3654248487648147,-0.3654248487648147,0.999957899186857,0.0001711188519903667
-0.3645416309918801,-0.3645416309918801,0.9997819901212568,0.00017267942347177896
-0.36389769802626687,-0.36389769802626687,1.000123871234375,0.00017156343042149972
-0.3627708174775762,-0.3627708174775762,1.0001305365504098,0.00017369413063891617
-0.3621155596680182,-0.3621155596680182,1.0000315838813265,0.0001728013423994089
-0.3610098595418094,-0.3610098595418094,0.9999903647322668,0.00017247466735479197
-0.35965569635955036,-0.35965569635955036,0.9999638718782519,0.0001715717063083292
-0.35870467609347545,-0.35870467609347545,0.999992183800195,0.0001728223824753167
-0.3582694476208417,-0.3582694476208417,0.9999959101700668,0.0001729540209651851
-0.35785619216039777,-0.35785619216039777,1.0000939558092863,0.00017424091955130453
-0.3572421352699166,-0.3572421352699166,0.9998406641645865,0.0001725362658297245
-0.3565570957856835,-0.3565570957856835,0.9998359319358775,0.00017111808525043496
-0.35579210265932487,-0.35579210265932487,0.999691771542939,0.00017266679007831552
-0.3550283988195588,-0.3550283988195588,1.0001630300077766,0.00017236309986687042
-0.35408789197390433,-0.35408789197390433,1.0001341434921318,0.0001738299298084804
-0.353360656080622,-0.353360656080622,1.0002953270399824,0.00017336008814091436
-0.35276387603516923,-0.35276387603516923,0.9999633249202748,0.0001728648245647759
-0.35197642588973393,-0.35197642588973393,1.0000573553648069,0.00017358296579087352
-0.3513385500424192,-0.3513385500424192,1.0000753468317185,0.0001716746937842685
-0.3504497340101807,-0.3504497340101807,1.0001372845571896,0.00017155813523746948
-0.3496611547081557,-0.3496611547081557,0.9997535782288726,0.0001730423425220462
-0.3491408420581138,-0.3491408420581138,0.9998833544590537,0.00017346080198019504
-0.34886019318146283,-0.34886019318146283,1.0000469068861666,0.00017348294655832971
-0.34844808531415766,-0.34844808531415766,1.000007713206091,0.00017429272470095855
-0.3475910112443671,-0.3475910112443671,0.9999271986401983,0.00017228365079235877
-0.34662899119211943,-0.34662899119211943,1.0000955478316833,0.00017360157332006146
-0.34588924251438585,-0.34588924251438585,1.0001809665986057,0.00017309513035200275
-0.3450121128480532,-0.3450121128480532,1.0003971703240215,0.00017383402063148552
-0.3443982969234639,-0.3443982969234639,0.9998903562847732,0.0001730156045553046
-0.3438202823861502,-0.3438202823861502,1.000104558898156,0.0001737372580434857
-0.34293905803715463,-0.34293905803715463,0.9997771811857785,0.0001723285828634284
-0.34229193239225425,-0.34229193239225425,1.0000092638779614,0.00017079203420418756
-0.34175238688476384,-0.34175238688476384,0.9998053843747708,0.00017243258615222136
-0.34055040886596544,-0.34055040886596544,0.9999990644590249,0.00017225895279117238
-0.3398792577914719,-0.3398792577914719,1.0000958894915317,0.00017376115000458783
-0.33937752442070634,-0.33937752442070634,1.0000020161263903,0.00017258660949593223
-0.33841773128006025,-0.33841773128006025,0.9998620332246109,0.00017450413198341787
-0.33730722605105257,-0.33730722605105257,1.0001719568147633,0.00017325663625208102
-0.3364291031946777,-0.3364291031946777,1.0000521748422218,0.0001723289365870615
-0.33552082990208876,-0.33552082990208876,1.0001036290450958,0.00017305367510753026
-0.3349456822768843,-0.3349456822768843,0.9999183558673828,0.00017249753086973394
-0.3340393418337044,-0.3340393418337044,1.0001148802270141,0.00017237918866454282
-0.3331649306914187,-0.3331649306914187,0.9999927888535389,0.0001716629828602795
-0.3322643627274374,-0.3322643627274374,1.0000453337380055,0.00017235011507208637
-0.33108539831227973,-0.33108539831227973,0.9999183243141909,0.00017224263308085369
-0.3305541586581967,-0.3305541586581967,1.0001731943846006,0.00017440728510322137
-0.32987302964465925,-0.32987302964465925,0.9999848968149934,0.0001711480836738166
-0.3287441050786583,-0.3287441050786583,0.9996868254986906,0.00017475641108601942
-0.3277378222090192,-0.3277378222090192,0.9998414751515267,0.00017228923813549172
-0.3272142325840832,-0.3272142325840832,1.000093643704704,0.0001723583164834729
-0.326617311170412,-0.326617311170412,1.0000400681461346,0.0001750455365287389
-0.3259633474634029,-0.3259633474634029,0.9999062013999993,0.0001724979893596872
-0.3247333322215127,-0.3247333322215127,1.0000894027305054,0.0001707857604607358
-0.3240666450074059,-0.3240666450074059,1.000101362041335,0.00017238282579775651
-0.3234002194752975,-0.3234002194752975,1.000127759114147,0.00017233887786784722
-0.3225646367034642,-0.3225646367034642,1.0000951174620796,0.0001759644274908862
-0.3220350079755008,-0.3220350079755008,0.999975756568516,0.00017337334380174393
-0.32147909688210347,-0.32147909688210347,0.9999561501560867,0.00017341644270679139
-0.32053714290595964,-0.32053714290595964,1.0001749087698406,0.00017330071749821726
-0.31929166990303204,-0.31929166990303204,1.0000322186298498,0.00017310172516565595
-0.31847527089194044,-0.31847527089194044,0.9998544467377919,0.00017307944883562405
-0.31788690004395903,-0.31788690004395903,1.0002200357972926,0.00017641663862760657
-0.317111198171915,-0.317111198171915,1.0001138806805696,0.00017326261803592965
-0.3162590221414575,-0.3162590221414575,1.0004270185972648,0.0001716438212887657
-0.3153878059005365,-0.3153878059005365,0.9999817371574146,0.0001716064572961274
-0.3146628126662108,-0.3146628126662108,0.9997683979722494,0.00017308965823013286
-0.3132773298551911,-0.3132773298551911,1.0000786227117908,0.00017537071572187272
-0.312632216183556,-0.312632216183556,0.9997374763382924,0.0001732142731504316
-0.31225529049988837,-0.31225529049988837,1.0001130778026797,0.00017092164256939172
-0.3113688180237659,-0.3113688180237659,1.0000428784418887,0.00017304539068933113
-0.31059508081016246,-0.31059508081016246,1.0000160518621124,0.00017181446866617925
