time,time,flux,flux_err
-0.4994627208050133,-0.4994627208050133,1.0000670244708514,0.00020412619997626095
-0.49868452521241124,-0.49868452521241124,0.9997497881299786,0.00020854013152582523
-0.4978511441365754,-0.4978511441365754,0.9999891099758941,0.00020574898514607692
-0.4970552748788653,-0.4970552748788653,1.0000255817789598,0.00020479798484159925
-0.4958834973166176,-0.4958834973166176,1.0012427953920855,0.00019184395052751046
-0.49470990038407764,-0.49470990038407764,1.000909588318742,0.00020760979256707722
-0.4941966161718483,-0.4941966161718483,0.9997117117289894,0.00018811938598851125
-0.49340522904049067,-0.49340522904049067,0.9999416099512175,0.0001915269931708489
-0.49250834448744174,-0.49250834448744174,1.0003961220469724,0.00018574011485923933
-0.4913388713752738,-0.4913388713752738,0.9996975876990903,0.00018650162794657722
-0.4908040550937585,-0.4908040550937585,1.0000441150070505,0.00019020700855592522
-0.4900535598635997,-0.4900535598635997,0.9999831265850272,0.0001879867062519808
-0.48925385395282317,-0.48925385395282317,0.9999279973824455,0.00018604497572807403
-0.48852840189447305,-0.48852840189447305,1.0015764946415835,0.0001891338531163108
-0.4874765423406188,-0.4874765423406188,1.0001936738409054,0.00019034108091463237
-0.48641659323525344,-0.48641659323525344,1.0017836657923396,0.00020599283724611147
-0.48584806404765,-0.48584806404765,0.999866956352324,0.0001915478218823265
-0.4853021178284962,-0.4853021178284962,1.0001955047647484,0.00018851859932447266
-0.48411500764759696,-0.48411500764759696,0.9997332575576021,0.00018525594626632607
-0.4831348986670946,-0.4831348986670946,1.0000604275890415,0.00018864713003999018
-0.48271064826080873,-0.48271064826080873,0.9998448780885736,0.00018991354768051267
-0.4817459401039287,-0.4817459401039287,0.9999046897635481,0.00018769913606796798
-0.48097675066687773,-0.48097675066687773,0.9996645352949809,0.00018646376266117764
-0.4801192332492974,-0.4801192332492974,1.0019709630658222,0.00019205908357447298
-0.478922492654965,-0.478922492654965,1.0024496000436942,0.00020694574390783246
-0.47829951200596954,-0.47829951200596954,1.0002041855746424,0.00018808331731594476
-0.47758528072808987,-0.47758528072808987,1.000122788883742,0.00019154200632819204
-0.47697446934430443,-0.47697446934430443,1.0000561095384595,0.00018570145623253008
-0.4758390978505759,-0.4758390978505759,0.9999453639677693,0.0001865633892664074
-0.4751751481384872,-0.4751751481384872,1.000143998894393,0.0001920122290406463
-0.47447455684132367,-0.47447455684132367,1.000260329606833,0.00018813396492753156
-0.47355848887823415,-0.47355848887823415,1.0001920804981492,0.00018606328164383763
-0.4726836715869922,-0.4726836715869922,1.002043616362718,0.0001938657114201565
-0.47154006406758525,-0.47154006406758525,1.000003564276874,0.00018529826310494172
-0.47071238052831177,-0.47071238052831177,1.0033234076796311,0.0002062255598594712
-0.46997823870715366,-0.46997823870715366,1.0001269954684715,0.0001914992291772563
-0.46952985502362027,-0.46952985502362027,1.0001680373250024,0.0001885721945695044
-0.4684196949748184,-0.4684196949748184,1.0000751360008244,0.00018526198606488002
-0.46743952433121194,-0.46743952433121194,1.0000133659409693,0.0001886842981599543
-0.4670734630824427,-0.4670734630824427,0.9998509369644996,0.00018842321566177745
-0.4662686338273943,-0.4662686338273943,0.999623932428945,0.00018930349773755458
-0.4653417819249171,-0.4653417819249171,1.00018988925836,0.0001868082988509402
-0.464463932391709,-0.464463932391709,1.0022659025333929,0.00019186237358683882
-0.4632271849285644,-0.4632271849285644,1.0042608079685444,0.00020710593248568013
-0.462604074538649,-0.462604074538649,0.9999652836402031,0.0001880324456232289
-0.46188976225889744,-0.46188976225889744,1.0001058502251376,0.00019153773898323718
-0.4612791752419071,-0.4612791752419071,1.000135770031581,0.00018565984380308168
-0.46014377546343893,-0.46014377546343893,1.0000938074311674,0.0001866432403659836
-0.4594528439681653,-0.4594528439681653,1.0004155398832815,0.00019036838176867614
-0.45855987990398717,-0.45855987990398717,0.9997688178377293,0.0001883569154254029
-0.4579870833669702,-0.4579870833669702,1.0001202805481915,0.00018769344618044817
-0.4572009734624771,-0.4572009734624771,1.003014828368283,0.00018866796738170472
-0.45608583853490925,-0.45608583853490925,1.0000511949656385,0.00019034684251664484
-0.4551128755461832,-0.4551128755461832,1.0053852197346418,0.00020711469658411677
-0.4544542715380885,-0.4544542715380885,1.000247565123625,0.00018965681484405967
-0.45391130979855915,-0.45391130979855915,0.9998146264121226,0.00018846892540377554
-0.4529497511788122,-0.4529497511788122,1.0002194190147082,0.00018688539555636533
-0.45190875580678946,-0.45190875580678946,0.9999233987444374,0.00018716146551134627
-0.45125907707788426,-0.45125907707788426,0.999638948117789,0.0001885039405618267
-0.45037527738049904,-0.45037527738049904,1.0000864681354629,0.00018933741675266255
-0.4496464137353996,-0.4496464137353996,1.0001838093438926,0.00018677215487270595
-0.44892645432914835,-0.44892645432914835,1.0028054038354621,0.00018835636786967573
-0.44754879447550594,-0.44754879447550594,0.9999991224801968,0.00019183094542666316
-0.4470341001508132,-0.4470341001508132,1.0061996072829804,0.00020733450384948716
-0.44630858105761034,-0.44630858105761034,0.9999426876007613,0.00018988565808251344
-0.4454591033219003,-0.4454591033219003,0.9997976303236632,0.0001872353230190673
-0.44456453729771966,-0.44456453729771966,1.0001172840152281,0.00018673913966905803
-0.443827418010369,-0.443827418010369,0.9999117708486989,0.0001921247673136454
-0.442976461341641,-0.442976461341641,0.9995087517495852,0.0001865126797455015
-0.4420883316716754,-0.4420883316716754,1.0003303949801305,0.00018611288365569356
-0.44146451303081446,-0.44146451303081446,1.000045397103326,0.00018807228663616154
-0.4404561046078925,-0.4404561046078925,1.0030794837179189,0.00018887392332317887
-0.43941753909307407,-0.43941753909307407,1.0072429578385003,0.0002072455846703437
-0.43875880897512615,-0.43875880897512615,0.9999512558388339,0.0001895776081869707
-0.4380222482156569,-0.4380222482156569,1.000341399660325,0.00019244057796735453
-0.4370290701601789,-0.4370290701601789,1.0000355832935366,0.00018525197695055728
-0.4363375064102456,-0.4363375064102456,1.0000628335333697,0.0001901501120110542
-0.4357680653909483,-0.4357680653909483,0.9998781395593614,0.00018872983770781536
-0.4346911049814025,-0.4346911049814025,0.9998349454629221,0.00018786821497769396
-0.4339510457931738,-0.4339510457931738,0.9999884822496472,0.00018674682563696687
-0.43334995514687763,-0.43334995514687763,1.003168286565271,0.00019068336077906993
-0.4320650464301252,-0.4320650464301252,1.0000035973312036,0.00018577001779112906
-0.4313387154164957,-0.4313387154164957,1.0081314629646774,0.00020748914002249056
-0.4305629470794884,-0.4305629470794884,0.9997029501948864,0.000188449841166171
-0.42969699462587413,-0.42969699462587413,0.9998887876321788,0.0001926057776923652
-0.4289562706480865,-0.4289562706480865,0.9997792758274148,0.00018821202266178629
-0.42820108941750734,-0.42820108941750734,1.0002457739918913,0.00018887929315156493
-0.4275163929936753,-0.4275163929936753,0.9996214799869702,0.00018852736151100794
-0.4265335279879309,-0.4265335279879309,0.9999673293745165,0.0001877628919782609
-0.4259025181901507,-0.4259025181901507,0.9998878166989922,0.00018640038398593116
-0.42507588777966704,-0.42507588777966704,1.0025308604751622,0.0001892349242130994
-0.42379598722764056,-0.42379598722764056,1.0092726662075078,0.00020738771471366814
-0.4232257032916095,-0.4232257032916095,0.9998168170843872,0.00018952439018758528
-0.4223268467055732,-0.4223268467055732,0.9999095022992075,0.00019245892587497706
-0.4213585795789186,-0.4213585795789186,0.9999743172143519,0.0001868325530337618
-0.4207736726398707,-0.4207736726398707,1.0000382931480893,0.00018873305439476605
-0.42021430328318277,-0.42021430328318277,0.9998750029260781,0.00019037909962423067
-0.4191448228454192,-0.4191448228454192,1.000166990161815,0.00018626216299322528
-0.418369734478938,-0.418369734478938,0.9999727197263573,0.00018671639935500633
-0.41782746449302977,-0.41782746449302977,1.0024768587646387,0.0001925124795235158
-0.41660654624615745,-0.41660654624615745,0.9999801813390343,0.00018536815868912547
-0.415778750074378,-0.415778750074378,1.010647200114588,0.00020652857415751378
-0.41500430963005785,-0.41500430963005785,1.000479137156894,0.0001899716671788599
-0.4140770017155774,-0.4140770017155774,1.0002226309051465,0.00019123600844050959
-0.41329977131804296,-0.41329977131804296,0.999981810352665,0.00018822949702106237
-0.41265628370788365,-0.41265628370788365,0.9998191293635503,0.00018889143514795988
-0.4120107350605394,-0.4120107350605394,1.000002289460077,0.0001900658414199595
-0.4108381416013344,-0.4108381416013344,0.9998883945523094,0.00018780542038576267
-0.41020716197208457,-0.41020716197208457,0.9999088499478944,0.00018637204399372996
-0.4095696867900642,-0.4095696867900642,1.001972945138033,0.0001896154324005866
-0.40829360777547663,-0.40829360777547663,1.0117849278292024,0.0002076152887608791
-0.407670045068835,-0.407670045068835,0.9999098873935974,0.00018784701444639985
-0.40663144540599205,-0.40663144540599205,0.9998536944533469,0.0001925119902589408
-0.4057666749204145,-0.4057666749204145,1.0000227121934195,0.00018685492351574676
-0.40523093651650016,-0.40523093651650016,0.9996618547790066,0.00018846794495999884
-0.4045888335434483,-0.4045888335434483,0.9998410138476306,0.0001924562234274011
-0.40366887641621363,-0.40366887641621363,0.9998512273077473,0.00018599330122441398
-0.40267435363862203,-0.40267435363862203,0.999630589507189,0.00018667483390661063
-0.4021568332730567,-0.4021568332730567,1.000286501454605,0.0001879881640776273
-0.40121792677614393,-0.40121792677614393,1.0018473928917373,0.00018984056314947894
-0.4001791982315808,-0.4001791982315808,1.0130312793286318,0.00020760526736018833
-0.39940351628615645,-0.39940351628615645,1.000055644150399,0.00018787530025897467
-0.3983816448870584,-0.3983816448870584,1.0000517457178193,0.00019124062111210873
-0.3976817063319686,-0.3976817063319686,0.9997783441317012,0.00018818324553404933
-0.3970990021139187,-0.3970990021139187,1.00015231624174,0.00019045801779907375
-0.396529567587686,-0.396529567587686,1.0000068486431162,0.00018862606369144397
-0.395301881901014,-0.395301881901014,0.9998072095771551,0.0001878967374866598
-0.394616626321158,-0.394616626321158,1.0002145008188825,0.00018838467086605793
-0.3940444602388197,-0.3940444602388197,1.0012171725549743,0.00018999512549927936
-0.3928267717146355,-0.3928267717146355,0.9998368756302762,0.0001856371622047208
-0.39210025389193104,-0.39210025389193104,1.0145952766298838,0.00020787476653704386
-0.3911703592075355,-0.3911703592075355,0.9997447269261276,0.0001886254175889253
-0.3901494783468024,-0.3901494783468024,1.00012474733193,0.00019257063975186564
-0.3895529435455501,-0.3895529435455501,1.000229303071722,0.00018826397170465
-0.38896265575090183,-0.38896265575090183,1.0001066600201056,0.00018910836969794753
-0.38816746703882926,-0.38816746703882926,1.0000602136330436,0.00018800279915229473
-0.38702537062413284,-0.38702537062413284,1.0003995062206126,0.00018829411335280656
-0.38654198056301536,-0.38654198056301536,1.000248445122199,0.00018644445180284293
-0.3858377600447511,-0.3858377600447511,1.001178467579756,0.00019022529804679482
-0.38474919858426804,-0.38474919858426804,1.0186303443061417,0.00021108841332724936
-0.3841268904129265,-0.3841268904129265,1.0000705712935825,0.0001878233770206879
-0.383088343735335,-0.383088343735335,1.000163509984753,0.00019264179589913464
-0.38216088397944076,-0.38216088397944076,1.0000534896757898,0.00018688013775163437
-0.38153520413725345,-0.38153520413725345,1.0001192171065434,0.00018909155923632571
-0.3809757638665815,-0.3809757638665815,0.9999440641122586,0.00019030430114480676
-0.3799136369555981,-0.3799136369555981,1.0000366138172074,0.0001877650354564801
-0.37901725963947686,-0.37901725963947686,0.999835515342488,0.0001866820804996938
-0.3785346294044302,-0.3785346294044302,1.000166419742156,0.0001879764467372984
-0.37767502056103697,-0.37767502056103697,1.0005322691989988,0.0001904377410501061
-0.37663619390200437,-0.37663619390200437,1.0161162499044831,0.00020764213425909805
-0.3758604577764345,-0.3758604577764345,0.9997215460065163,0.00018784140163361412
-0.37483860988913875,-0.37483860988913875,0.999858780990532,0.0001912853089072704
-0.3741017888310125,-0.3741017888310125,1.0000783338658015,0.00018824311958162265
-0.3734178896609592,-0.3734178896609592,1.00018252758069,0.00018920094154582144
-0.3728473191189551,-0.3728473191189551,0.9998196722479523,0.00018994937977931267
-0.3715996765301952,-0.3715996765301952,1.000134460150089,0.0001879994191987119
-0.37096877251346994,-0.37096877251346994,1.0002358099956021,0.00018632625263703312
-0.37045147201783946,-0.37045147201783946,0.9995959401312555,0.00019255066382013178
-0.36926582992909973,-0.36926582992909973,1.0167942179801657,0.00020701121224468775
-0.3684314541980257,-0.3684314541980257,1.0000622254450138,0.00018780927623036605
-0.3674570533662063,-0.3674570533662063,0.9998341905222304,0.00018736002189754226
-0.3666063977572776,-0.3666063977572776,1.000016921427385,0.00019260110055673946
-0.3660095022294172,-0.3660095022294172,0.9999215603249667,0.00018671092316855216
-0.3653502503397249,-0.3653502503397249,0.9999553440459454,0.0001927600298555708
-0.3643097484545706,-0.3643097484545706,1.0001003285023766,0.00018599920182855748
-0.36332189266563547,-0.36332189266563547,0.9999880328234514,0.00018670375522208968
-0.36283917980722435,-0.36283917980722435,0.9999874824276619,0.00018797019539434857
-0.3619797499020024,-0.3619797499020024,1.0000168637759723,0.00019085754381486386
-0.36085420587523914,-0.36085420587523914,1.0174392393519296,0.00020677665506177407
-0.3601551427203503,-0.3601551427203503,1.0000328299256296,0.00019007997527277796
-0.3591432534503838,-0.3591432534503838,1.0000512223439872,0.00019136310631431193
-0.35840633568764135,-0.35840633568764135,0.9999417841903806,0.00018820749842818528
-0.35778713607551255,-0.35778713607551255,0.9998193600152625,0.00018794621195800457
-0.3570353508009248,-0.3570353508009248,1.0001054235892326,0.00018992064243785397
-0.3558644792544783,-0.3558644792544783,0.9997905766897661,0.00018800252135575964
-0.3552734170373242,-0.3552734170373242,0.9999754388391132,0.00018630684278967235
-0.3547561232141561,-0.3547561232141561,0.9994222084932467,0.00019295311795105853
-0.3535705366160983,-0.3535705366160983,1.0178706361858443,0.00020679493372257734
-0.35273601823041645,-0.35273601823041645,1.0006136980430353,0.0001878385711707451
-0.35169754200423997,-0.35169754200423997,1.0001498528065886,0.0001927592286966783
-0.35077020633762,-0.35077020633762,1.000115372885748,0.00018695351740550243
-0.35020515499427346,-0.35020515499427346,1.0000307340746692,0.0001870990483628955
-0.3495888273248511,-0.3495888273248511,1.000125948504575,0.00019114702311223588
-0.34836651410209923,-0.34836651410209923,0.9999407509162526,0.00018773831359630296
-0.34762652589133725,-0.34762652589133725,0.999592596263631,0.00018666676386936657
-0.3471437303797302,-0.3471437303797302,1.000053069472076,0.00018795062248150941
-0.3462844794112243,-0.3462844794112243,0.9991458529106432,0.0001911888521467985
-0.34515890772067903,-0.34515890772067903,1.0182726771931012,0.00020651133146975249
-0.34420705456586803,-0.34420705456586803,0.9999437867826358,0.00018885261615251796
-0.34306331755642533,-0.34306331755642533,0.9999012916597119,0.0001926361258267047
-0.34261853215352855,-0.34261853215352855,0.9999867100639726,0.00018817427140694083
-0.3419411710014174,-0.3419411710014174,1.0001762160416128,0.00018817966481841317
-0.3410815057245145,-0.3410815057245145,0.9995361562996689,0.00018796825830416807
-0.3400462163666361,-0.3400462163666361,1.0000942788589549,0.0001882632893659469
-0.3394558921119824,-0.3394558921119824,1.0000082462320659,0.00018638312098120247
-0.3385636630165664,-0.3385636630165664,0.9995357686658579,0.00019135306886330244
-0.33741909955483607,-0.33741909955483607,1.0183987426451082,0.0002093841656564923
-0.3366584106972823,-0.3366584106972823,0.9998743419397125,0.0001879166263485772
-0.3356002190891104,-0.3356002190891104,1.0001988763136553,0.00019147153951077912
-0.33486354533188206,-0.33486354533188206,1.0001844226018815,0.0001881453672813865
-0.33438204688727635,-0.33438204688727635,0.9999744122807822,0.00018991323993916527
-0.3337479738188449,-0.3337479738188449,0.9998005268799146,0.00018824464405098467
-0.33243919031974656,-0.33243919031974656,0.999845140844864,0.0001879493713515166
-0.3318060388136018,-0.3318060388136018,0.9999580358864554,0.00018634996858769018
-0.33104818752999565,-0.33104818752999565,0.999277736267514,0.0001916202833398796
-0.32973945590711085,-0.32973945590711085,0.9997341597432209,0.0001883169415574022
-0.3288107155834041,-0.3288107155834041,0.9998821030242887,0.00018794266291173128
-0.3279433443544349,-0.3279433443544349,0.999731174390797,0.00019284037253602991
-0.32710008415692754,-0.32710008415692754,0.9998482201700822,0.00018672128132145337
-0.326650350283353,-0.326650350283353,1.0000855143375813,0.0001888018312305479
-0.3260457762720762,-0.3260457762720762,0.9999587361034941,0.0001913207000013624
-0.3248234438994132,-0.3248234438994132,1.0002397990551404,0.00018776273811294263
-0.32408136147168987,-0.32408136147168987,0.9998912838517654,0.00018669176951849532
-0.3232971606840692,-0.3232971606840692,0.9997530151131724,0.00018985744688888916
-0.32204735729451384,-0.32204735729451384,1.0000637300269415,0.0001882805597490953
-0.32116446629038364,-0.32116446629038364,1.000113229124062,0.00018937979051852964
-0.3202678728248884,-0.3202678728248884,1.0001388747287339,0.0001928675591646798
-0.3193795295898781,-0.3193795295898781,0.9997639008484784,0.00018697971450457447
-0.31890361798737105,-0.31890361798737105,1.0000573199413911,0.00018859227938316413
-0.31829463938520347,-0.31829463938520347,1.0000089768434857,0.00019179641374377908
-0.3173372916891367,-0.3173372916891367,1.0001761358459968,0.00018471681111723303
-0.31650305696912256,-0.31650305696912256,0.9999594949380173,0.00018824036295002743
-0.31581927582169556,-0.31581927582169556,1.0004843111271546,0.00019192160066922346
-0.31467488857583703,-0.31467488857583703,0.9999889662550718,0.00018640116908586138
-0.313655084949869,-0.313655084949869,0.9998164333745146,0.00018781559706575486
-0.3127680102053091,-0.3127680102053091,1.000188165813192,0.0001889022087155571
-0.3117709985370311,-0.3117709985370311,1.0001579041587287,0.00019278012301112197
-0.3112429911772324,-0.3112429911772324,0.9999872055503417,0.00018810991000070334
-0.3107011563639389,-0.3107011563639389,1.0001925169083887,0.00018862995777126716
-0.3099831337607156,-0.3099831337607156,1.0002442514971555,0.00018859883625374686
-0.30889612872647376,-0.30889612872647376,0.9999556144648037,0.00018793367558570814
-0.30826297447342765,-0.30826297447342765,0.9999594486122458,0.00018635079345723576
-0.30737280716198256,-0.30737280716198256,1.0014339423534255,0.00019077990622720246
-0.30614042777906436,-0.30614042777906436,1.0001256903854134,0.00018994012555956626
-0.30513132912219587,-0.30513132912219587,0.9997500765055631,0.0001866378606554476
-0.3041125145215574,-0.3041125145215574,0.9998482382537146,0.0001889314076149874
-0.30347269376229635,-0.30347269376229635,0.9997906699481917,0.00018805104381165133
-0.3029913065139226,-0.3029913065139226,1.0001108258290448,0.0001904819949089099
-0.3024991375008085,-0.3024991375008085,1.000028983642634,0.00019393992798202555
-0.3013939194127033,-0.3013939194127033,0.9999868670813047,0.00018643939353208257
-0.3006543833354044,-0.3006543833354044,0.9999112490999119,0.00018665124525141022
-0.29995106659976045,-0.29995106659976045,1.0025991162244536,0.00019253430191718996
