time,time,flux,flux_err
-0.4999690988364212,-0.4999690988364212,0.9994614196752124,0.0014665627534593477
-0.4997874491151985,-0.4997874491151985,0.9991747300909425,0.0012711940488840852
-0.49960487168633944,-0.49960487168633944,0.9996812895787764,0.0012481249688862306
-0.4993927801836738,-0.4993927801836738,0.9994237254976079,0.0013392934398682795
-0.4992078296760155,-0.4992078296760155,0.9995029474363453,0.0010259752463435752
-0.4989513385677128,-0.4989513385677128,1.0004449566333498,0.0011780791112974518
-0.4987515482440358,-0.4987515482440358,1.0004654377556097,0.0011275485697282
-0.4984654630228761,-0.4984654630228761,0.9982072562586192,0.001211169891113568
-0.4983160980089451,-0.4983160980089451,1.0001234450711727,0.0010846279114011149
-0.49808929820210324,-0.49808929820210324,1.0011678196894331,0.0011499954395981751
-0.4979539684296469,-0.4979539684296469,1.0005369357057945,0.001216087423117354
-0.49768173763150114,-0.49768173763150114,0.9987936218892756,0.0011585454523489393
-0.4974992708790523,-0.4974992708790523,0.9992489634171531,0.0011810218689705036
-0.4973886148101883,-0.4973886148101883,1.0001083746441666,0.0012104560449732698
-0.4972194424182817,-0.4972194424182817,0.9984511169301402,0.0013346299968008506
-0.49709802543657133,-0.49709802543657133,0.99912508508949,0.001111701519354856
-0.4969660238333745,-0.4969660238333745,1.000442672879033,0.001079633760720683
-0.49677122643479377,-0.49677122643479377,0.9996511507746135,0.0012344121933889458
-0.49666119970715955,-0.49666119970715955,0.998767480294996,0.0013005857803027716
-0.49648082557250744,-0.49648082557250744,1.000566716140765,0.0011231701674502632
-0.4962846818496473,-0.4962846818496473,0.9999824337535157,0.0011062817217123958
-0.49605886499848567,-0.49605886499848567,1.000636035280432,0.0012648080260258868
-0.495892796501721,-0.495892796501721,1.0010580917967202,0.0010322406534944927
-0.49562699522575715,-0.49562699522575715,0.9997381499946792,0.0011720090139590435
-0.49543285664112774,-0.49543285664112774,1.0012115188502981,0.0011281463636691974
-0.49514972400065743,-0.49514972400065743,1.000687574458001,0.0011767381540213008
-0.4949045090266736,-0.4949045090266736,0.998811837451633,0.0011316657059060769
-0.4947485189899453,-0.4947485189899453,1.0013751301937546,0.0010993922269408644
-0.49457676773381537,-0.49457676773381537,1.0011302501603359,0.0012142008946726536
-0.49434202953270867,-0.49434202953270867,0.9994127623686788,0.0010486033001351187
-0.49422073689274837,-0.49422073689274837,1.0020295255423954,0.0011980294542869305
-0.4940762014506618,-0.4940762014506618,0.9989757667979976,0.001212225224872551
-0.49385818871378434,-0.49385818871378434,0.9995293198559215,0.0012209892689279838
-0.49369572577343207,-0.49369572577343207,1.0011352680040588,0.0011195026751042354
-0.4934533548250329,-0.4934533548250329,0.9997836918449682,0.001279641791358759
-0.49334399515137195,-0.49334399515137195,0.9996333456676509,0.0012981751326449817
-0.493133732577553,-0.493133732577553,0.9992800005950132,0.0011011079432725573
-0.4928029897011584,-0.4928029897011584,1.000538605986566,0.0012818707921938108
-0.4925618732631847,-0.4925618732631847,0.9992027890665142,0.0012230602548695389
-0.4923571477775113,-0.4923571477775113,0.9997692295339478,0.0011038535614382818
-0.4921826564837829,-0.4921826564837829,1.0002580437674298,0.0011071136051820515
-0.49202096193257605,-0.49202096193257605,0.9992400715958057,0.0012492019415730495
-0.491808314302034,-0.491808314302034,0.9994645863906604,0.0012451753213549028
-0.49165195773821324,-0.49165195773821324,1.0002414611973787,0.001047519006970334
-0.49148690381480264,-0.49148690381480264,0.999755283307793,0.0011594513574603384
-0.49132089844933946,-0.49132089844933946,0.999707455733738,0.0010759906305871066
-0.4911589229974197,-0.4911589229974197,0.9997131235444059,0.0011179054135956271
-0.49100430721155136,-0.49100430721155136,0.9986365063400788,0.0010703249822192169
-0.49086984812965967,-0.49086984812965967,0.9994423186046688,0.0011721005063318453
-0.4907114758854732,-0.4907114758854732,0.9986667235076725,0.0012172108283001084
-0.4904968846836709,-0.4904968846836709,1.0007587677396685,0.0011548364208652975
-0.4904066462018818,-0.4904066462018818,0.9998868315205096,0.0011302373684262581
-0.49017919391772014,-0.49017919391772014,0.9997406629146022,0.0011915346029172523
-0.4900805794437474,-0.4900805794437474,1.0004285382064269,0.0012522706122678616
-0.4899093371197523,-0.4899093371197523,1.0005700591073208,0.001148541946627809
-0.48956628016530884,-0.48956628016530884,0.9999403143300525,0.0014748272121604896
-0.48938746781714143,-0.48938746781714143,0.9995587049517753,0.001218026354913469
-0.48926433177475703,-0.48926433177475703,0.9994136852371358,0.0011450129927983337
-0.48911704509009724,-0.48911704509009724,1.00050869091559,0.0011123478019948421
-0.48889235401220504,-0.48889235401220504,0.9975209895546797,0.0014244072096979315
-0.48877220183130704,-0.48877220183130704,1.0008506289510088,0.0012362318073146296
-0.4886261018044024,-0.4886261018044024,1.000509490793491,0.0010896140652003274
-0.4884852468931058,-0.4884852468931058,0.9986224018361423,0.0012406356446277686
-0.48839550314296504,-0.48839550314296504,0.9996468136683561,0.0010528403282813825
-0.4882067196915159,-0.4882067196915159,0.9989269204520117,0.001126447210469143
-0.488060788842995,-0.488060788842995,0.9990692977496842,0.0011354423268140413
-0.4879322663262428,-0.4879322663262428,1.0003215845491575,0.0011897451797619146
-0.48780117284622976,-0.48780117284622976,1.0006770185604572,0.0010680729027050982
-0.48763293118900036,-0.48763293118900036,0.9991561202941257,0.0011542648713982829
-0.48754350101589805,-0.48754350101589805,0.9998464394779522,0.0012061418533823942
-0.48736116192812917,-0.48736116192812917,0.9980784748156101,0.0012895200860715043
-0.48719867899199015,-0.48719867899199015,0.9997946992016498,0.0011223369355288719
-0.48704137080276266,-0.48704137080276266,0.9998223321498377,0.0011406096268413391
-0.48681312494154555,-0.48681312494154555,1.0007285326978161,0.0012823739263794832
-0.48676160640025046,-0.48676160640025046,1.0009147772465117,0.0011974240566762853
-0.48660122996079735,-0.48660122996079735,1.0006538198577322,0.0011485638534142737
-0.4862746286067704,-0.4862746286067704,1.000603948805914,0.0012464100448444939
-0.48600024788247537,-0.48600024788247537,0.9998092556302518,0.0011290844224914774
-0.4858522754722799,-0.4858522754722799,1.0002091750696995,0.001186166659854319
-0.48558953342580935,-0.48558953342580935,1.0003072600772231,0.0011674215549853668
-0.48545057640731104,-0.48545057640731104,1.0006980264771055,0.0011941781382098923
-0.48529026358301053,-0.48529026358301053,0.9987002572941741,0.001138682256296411
-0.48510671586846,-0.48510671586846,1.001424719673447,0.0011362813951598528
-0.48483144912097487,-0.48483144912097487,1.0005785893293382,0.0011568270565021914
-0.48462839766580146,-0.48462839766580146,0.9978964295222825,0.0012058715661761006
-0.4844748728122795,-0.4844748728122795,0.9996532090084622,0.0010709835663135956
-0.48427367338736077,-0.48427367338736077,1.0010875049304266,0.0012294409850073372
-0.4840456357705989,-0.4840456357705989,0.9984891761520215,0.001219738093493122
-0.48387503502890467,-0.48387503502890467,1.0001319806453168,0.001134473131817638
-0.4837220965382585,-0.4837220965382585,0.9989809380502136,0.0012112468838411119
-0.48354548599672853,-0.48354548599672853,0.9997623533994302,0.001125022919737509
-0.48348656178350213,-0.48348656178350213,0.9995660658949322,0.0012741155388362893
-0.48323742772554396,-0.48323742772554396,1.0013009204603123,0.0011590669494618109
-0.48282382433390014,-0.48282382433390014,0.9987167233825776,0.0012346725046172306
-0.4826958348348853,-0.4826958348348853,0.9993476460416598,0.0011692614233482805
-0.48255272047608744,-0.48255272047608744,0.9998969368504127,0.0012203033464750442
-0.4823768851776549,-0.4823768851776549,0.9994676611364095,0.0011639706200784247
-0.482172227348201,-0.482172227348201,1.0005610855204945,0.0011489145459759047
-0.48204039803749765,-0.48204039803749765,1.0002301535113047,0.0011407083573348267
-0.4819067491909664,-0.4819067491909664,0.9992745770927067,0.0011534353507822157
-0.4817601404596644,-0.4817601404596644,0.9989058014768167,0.0010488469179154626
-0.4814974815846654,-0.4814974815846654,0.9999163100746735,0.0011554501915679442
-0.4813691898314573,-0.4813691898314573,0.9993618375508712,0.0011925372409669157
-0.4811897490690171,-0.4811897490690171,0.998505689497053,0.0010914063486924626
-0.4809986660708091,-0.4809986660708091,1.0002221716932698,0.0012093636925603912
-0.48077092123785403,-0.48077092123785403,1.0002258405071005,0.0012560353773530494
-0.4806015375965217,-0.4806015375965217,1.0020071681470615,0.001151011728092246
-0.4804124300055264,-0.4804124300055264,0.9993919193899229,0.0012210227733673413
-0.4802267313694756,-0.4802267313694756,0.9992411006850632,0.0012742504288810247
-0.4801701327312912,-0.4801701327312912,0.9987136393474207,0.001116223958737297
-0.47993156787415503,-0.47993156787415503,0.9999153992521096,0.00116636887263514
-0.47963756169192495,-0.47963756169192495,1.000333664672917,0.0011851608872316577
-0.479422925599647,-0.479422925599647,1.0013660583220667,0.0013935893008601237
-0.47926533788413506,-0.47926533788413506,1.0002347999899075,0.001166068832295285
-0.47903142836803453,-0.47903142836803453,1.001747866746513,0.0010807956143989164
-0.4788166366546648,-0.4788166366546648,0.9993179895443622,0.0011818895554594644
-0.47867550971204764,-0.47867550971204764,1.0004826911597693,0.0010669931748386752
-0.4785356741900614,-0.4785356741900614,0.9998002222519808,0.0011645909071560242
-0.478351108681818,-0.478351108681818,0.9999981658424183,0.001158958705958974
-0.4780983377168013,-0.4780983377168013,1.000318577286111,0.0011853369282303953
-0.4779121138708433,-0.4779121138708433,0.9993970588648518,0.0011576560425991585
-0.4776838574325666,-0.4776838574325666,0.9994066901549792,0.001205863536285931
-0.4774315780217876,-0.4774315780217876,1.0002407438600749,0.001197312374240037
-0.47715483248248347,-0.47715483248248347,0.9986345516537345,0.0013643993280341225
-0.4769624245745945,-0.4769624245745945,0.9984855888945825,0.0012437604339645613
-0.47688447191467276,-0.47688447191467276,1.0007974488355995,0.0012045754377721725
-0.47672627727442884,-0.47672627727442884,0.9983935750131121,0.001259745375257773
-0.4764648608303105,-0.4764648608303105,0.9988672399047148,0.0011339253329986103
-0.4762755406962242,-0.4762755406962242,0.9994716192106173,0.0012267185377808833
-0.47611084088421196,-0.47611084088421196,0.9997175295350725,0.0013861314582181916
-0.47596221044441334,-0.47596221044441334,1.0012244585965084,0.0012090833999990186
-0.47575641160437954,-0.47575641160437954,0.9980559033611612,0.0012014653471451124
-0.4755197297381528,-0.4755197297381528,0.9985625206500828,0.0012027990280948468
-0.47541974787745855,-0.47541974787745855,1.0002475612803379,0.0010657489070404693
-0.47530401718540816,-0.47530401718540816,1.0002170669044976,0.001099724904318112
-0.4751997905863391,-0.4751997905863391,1.0008225030528985,0.0011370794418066612
-0.4750346427790646,-0.4750346427790646,1.0002918023519032,0.0010530298736046977
-0.4748434265391552,-0.4748434265391552,0.9994890267015621,0.0012060136780618238
-0.4746429774473654,-0.4746429774473654,0.9992260840768804,0.0011327897264394981
-0.4744557761310716,-0.4744557761310716,1.0009054720119255,0.0011337752268539836
-0.47421533305678165,-0.47421533305678165,1.0012985594641244,0.001185571765494879
-0.47396297556624634,-0.47396297556624634,0.9992486938494813,0.00122973820477104
-0.47362855209503324,-0.47362855209503324,1.0003421601397475,0.0012157841029316395
-0.4734995383412752,-0.4734995383412752,0.9992375610176367,0.00115810266352045
-0.4731989776766568,-0.4731989776766568,0.9997688843587407,0.0012538004977922352
-0.4729905170141137,-0.4729905170141137,1.0004665091758893,0.001125725940087419
-0.4727776851927047,-0.4727776851927047,1.000333360048052,0.001095767031883912
-0.47262608915843884,-0.47262608915843884,0.9989916975444529,0.0011277006274545687
-0.472439029742236,-0.472439029742236,1.000976555682143,0.0010345609954869274
-0.47225104094250125,-0.47225104094250125,0.9988201473889866,0.0011944866019915107
-0.47216974097682396,-0.47216974097682396,0.9985871447540451,0.001146762065663549
-0.4720381666396861,-0.4720381666396861,1.000510664209038,0.0011363837716228617
-0.47195175318411203,-0.47195175318411203,0.999041504523926,0.0012055838657154168
-0.47169866982658276,-0.47169866982658276,1.0005557136644494,0.0011060682443584206
-0.47140594828670146,-0.47140594828670146,0.9994552304231213,0.0011159284660668765
-0.4711452534953423,-0.4711452534953423,0.9996760078166401,0.0011948304637612946
-0.47096430526289623,-0.47096430526289623,1.0009558952640742,0.0011274423701386515
-0.4707852193154395,-0.4707852193154395,1.0009955633398484,0.0011345138817884664
-0.47061362947206364,-0.47061362947206364,1.0002888455458756,0.0012368268175377197
-0.4704246506400523,-0.4704246506400523,0.9981240719841769,0.0012490715400814828
-0.47026608956584826,-0.47026608956584826,1.0011078741370565,0.0011157043459609694
-0.4700102826936927,-0.4700102826936927,1.0003265169349138,0.0012720479014068301
-0.4698412452460616,-0.4698412452460616,0.9985695694991428,0.0010808782718143895
-0.4696077374035667,-0.4696077374035667,0.9997585519525545,0.0010894065929192443
-0.4694597027875716,-0.4694597027875716,1.0007218353331386,0.0011372663422184557
-0.46930384282313753,-0.46930384282313753,0.9995155974563105,0.0010830189567856776
-0.4690889201410755,-0.4690889201410755,0.9994773556130561,0.0011555642347263982
-0.46891685100272296,-0.46891685100272296,1.0002867275957992,0.0011382335858167417
-0.4688489676875179,-0.4688489676875179,0.9992197476537603,0.0011613567952300043
-0.46870395882360755,-0.46870395882360755,0.9999441373935845,0.0011922033481330026
-0.46848402554314816,-0.46848402554314816,0.99967869194087,0.0010841388219077954
-0.4681606036974699,-0.4681606036974699,0.9986335891873928,0.0010895170515505092
-0.46791923895143556,-0.46791923895143556,0.9992649781136869,0.001173877752333462
-0.46778517121856567,-0.46778517121856567,0.99900256180064,0.0011521440135879397
-0.46763800465705574,-0.46763800465705574,1.000067985267909,0.0011918325737013207
-0.46743161596241406,-0.46743161596241406,1.0024095450704915,0.0011474981326245668
-0.4672518537612632,-0.4672518537612632,1.0001844011641956,0.0012210156811451516
-0.4670453343554982,-0.4670453343554982,1.000346358258806,0.0011439283463516143
-0.4669235158980882,-0.4669235158980882,0.9999666471929769,0.001151169061316503
-0.4665671308292076,-0.4665671308292076,1.0001654266333568,0.0011510519294329635
-0.46638848641741787,-0.46638848641741787,0.9999746404232142,0.001143144992262895
-0.4662115343642654,-0.4662115343642654,1.000573572885776,0.0010454250457730004
-0.46609696722225635,-0.46609696722225635,0.9992957081248957,0.0011658619703226662
-0.46594702315996983,-0.46594702315996983,1.0001872288630431,0.0010782942326324446
-0.465684376747231,-0.465684376747231,0.9995973526285626,0.001177602903632106
-0.4655783125796006,-0.4655783125796006,0.9993888170583949,0.0011370154506703705
-0.4654692782118218,-0.4654692782118218,1.0004558032160058,0.0011394473359277813
-0.46537365984913776,-0.46537365984913776,1.00094795606672,0.001051950028769921
-0.46525828646699663,-0.46525828646699663,1.0005079261929826,0.0011430806014849984
-0.4648928451933898,-0.4648928451933898,0.9993715794301995,0.001137868047159968
-0.4645709170130431,-0.4645709170130431,1.0011074420313208,0.0011379985793481323
-0.46442085357994073,-0.46442085357994073,0.9998249142304099,0.001210619585993707
-0.46418263658997605,-0.46418263658997605,1.000658239407875,0.0011297538678385433
-0.4640305201901356,-0.4640305201901356,0.9999523712434396,0.0012600458781746803
-0.46387405921777825,-0.46387405921777825,0.9993620238476246,0.0011780608162437352
-0.4637112224736484,-0.4637112224736484,0.998822678726808,0.0011992345141169315
-0.46358946811160423,-0.46358946811160423,1.0001479618031115,0.001142331736753406
-0.46327692457125524,-0.46327692457125524,1.000094920734582,0.0011349279303240324
-0.46295963504089743,-0.46295963504089743,1.0010668502143734,0.0010823612224120538
-0.46275402356259293,-0.46275402356259293,1.001733361089888,0.0012841305865406753
-0.46259896392002703,-0.46259896392002703,1.0006639363632583,0.0011563132529702094
-0.46245042746377296,-0.46245042746377296,1.0006189146252318,0.0011516925109063547
-0.462339052187599,-0.462339052187599,1.0002602195948198,0.0011168460077334477
-0.4621934978109493,-0.4621934978109493,0.9991179205384675,0.001190894132145843
-0.46207911154997416,-0.46207911154997416,0.9992379308908534,0.00120568043798778
-0.4618862733928836,-0.4618862733928836,0.9989504015723091,0.0013798792999230554
-0.4614835038439196,-0.4614835038439196,1.0009640113794847,0.0011218090086663312
-0.46126211019218316,-0.46126211019218316,0.9994462724748964,0.001119188801920274
-0.4611157417668437,-0.4611157417668437,0.9993622791395523,0.001150167468520939
-0.4608468991216796,-0.4608468991216796,0.9996114747968067,0.001173619510356758
-0.46067350029479714,-0.46067350029479714,1.0005986990662128,0.0010994336224376638
-0.4604290595067141,-0.4604290595067141,1.000918737790941,0.0011574249900269012
-0.46028883634135126,-0.46028883634135126,1.0002668599546758,0.0011695952579617338
-0.46005941345283646,-0.46005941345283646,1.0004646941957802,0.0010868301085719112
-0.4598065007892728,-0.4598065007892728,1.0008834735838357,0.001191980605294005
-0.45958465090516254,-0.45958465090516254,0.998510756353852,0.0011137657001657106
-0.4594381358438113,-0.4594381358438113,0.9996524308381913,0.0013241501272230713
-0.4592186316520383,-0.4592186316520383,0.9998315439580429,0.0014554790879533917
-0.4591094092793355,-0.4591094092793355,0.9986205655412019,0.0010945630417704556
-0.4589797052394715,-0.4589797052394715,0.9992762649182255,0.0012011386511404027
-0.4587969359192357,-0.4587969359192357,1.0007042781963187,0.0011810363294271805
-0.45868516069531323,-0.45868516069531323,0.999705699377443,0.0014105277153380075
-0.4582871862134198,-0.4582871862134198,0.9996940727963599,0.0010391510237684354
-0.45805852592820884,-0.45805852592820884,0.9995235175121608,0.001179840985808786
-0.4579427007069171,-0.4579427007069171,0.9996174781384983,0.001115077863081089
-0.45772408947741494,-0.45772408947741494,1.0003635288523849,0.0011537556472573551
-0.4574321130981843,-0.4574321130981843,1.0004513116514935,0.0011918252027036413
-0.4571501403777802,-0.4571501403777802,0.9997443983531333,0.0011325691201379139
-0.4569834933907259,-0.4569834933907259,0.9990149749256668,0.001108986966656234
-0.45675698256818575,-0.45675698256818575,1.0010993180006873,0.0011536023781911291
-0.45659068208333337,-0.45659068208333337,0.9996792721223594,0.0011900218615961346
-0.4563351166289067,-0.4563351166289067,0.9998184395323918,0.0010570417383719193
-0.45611672002341946,-0.45611672002341946,0.9982189583921167,0.0012888753806357103
-0.45592267034880934,-0.45592267034880934,0.9988407119894447,0.0014667235584566538
-0.4558386270720803,-0.4558386270720803,0.9995842533788964,0.0012174463993883326
-0.4557462161203148,-0.4557462161203148,1.0004357848650578,0.001089640059164372
-0.45563090476134677,-0.45563090476134677,1.0001500884543564,0.0011421128694477011
-0.45549130508079544,-0.45549130508079544,0.9986070663891967,0.00120509294386339
-0.45540736245093283,-0.45540736245093283,1.0013852159506427,0.0011226544886736045
-0.4552371406578459,-0.4552371406578459,1.0005744852584901,0.0014487875170278886
-0.45492071941553147,-0.45492071941553147,0.9993716636257746,0.0010829010177896888
-0.4546597354928963,-0.4546597354928963,1.0012253913777958,0.0011198581290405248
-0.45442666573944734,-0.45442666573944734,1.0001087173249874,0.001106571243836275
-0.45416667541576317,-0.45416667541576317,0.9999593905649435,0.001175063908046895
-0.4539167569273559,-0.4539167569273559,1.0003750458633789,0.0011621523332007839
