time,time,flux,flux_err
-0.4983504648546007,-0.4983504648546007,0.9964281920346804,0.0002624042312598014
-0.49622316381233605,-0.49622316381233605,0.9949677170575635,0.00026254704621074185
-0.49488199568313573,-0.49488199568313573,0.9916021394034645,0.00023974857917722137
-0.4935367137121375,-0.4935367137121375,0.9970127800112547,0.00023942420430385974
-0.4917813304523861,-0.4917813304523861,0.9993216319785333,0.0002400596759236057
-0.4899903146168981,-0.4899903146168981,0.9913061235403609,0.0002395331249236858
-0.4891402470984758,-0.4891402470984758,0.9944598194290372,0.0002392611093817634
-0.4874031407156053,-0.4874031407156053,0.9968852214828565,0.0002395126570560626
-0.4856355984722086,-0.4856355984722086,0.9962875432428115,0.0002398974430761629
-0.48418649033392286,-0.48418649033392286,0.9916538363141354,0.00023958699629713902
-0.48313272219120335,-0.48313272219120335,0.9971110556549085,0.00023931322459524524
-0.4813010432880219,-0.4813010432880219,0.9999327663133523,0.00023970989843040159
-0.47950723646117693,-0.47950723646117693,0.9930425505657245,0.00023959493939730824
-0.4786070142497465,-0.4786070142497465,0.9960781975995886,0.00023975369836729286
-0.47692237811252197,-0.47692237811252197,0.9969201497231346,0.00023948878205882788
-0.4752782524749364,-0.4752782524749364,0.9994474530272175,0.0002401332857912984
-0.4735129323809815,-0.4735129323809815,0.991787751923154,0.0002394608750756184
-0.4726662667183973,-0.4726662667183973,0.9974428444786365,0.0002393762891327061
-0.47089556922669545,-0.47089556922669545,1.000045627997101,0.00023967219258716339
-0.46902476561308504,-0.46902476561308504,0.998106888618301,0.00023983140073597468
-0.4678970906729319,-0.4678970906729319,0.9937935611108463,0.00023956258817360115
-0.4665519722423596,-0.4665519722423596,0.9965665203619876,0.00023940696004463212
-0.4647964949622292,-0.4647964949622292,0.9984841535834826,0.00023982572543811498
-0.46300544263312987,-0.46300544263312987,0.9968560601827455,0.00023971832198826947
-0.4621555160729258,-0.4621555160729258,0.9980556612485202,0.000239363244158674
-0.4604183163718062,-0.4604183163718062,0.9968506617060726,0.00023946199182650518
-0.45865070193021895,-0.45865070193021895,0.9985500580384393,0.00023975418935145147
-0.4572015978017589,-0.4572015978017589,0.9961746885487461,0.00023966772679446047
-0.4561480218329052,-0.4561480218329052,0.9967046677713883,0.0002392463526019795
-0.4543162673150164,-0.4543162673150164,1.0002123390419393,0.00023969684025805347
-0.4525223235759313,-0.4525223235759313,0.9958050139921577,0.00023945164022881425
-0.45162224656428407,-0.45162224656428407,1.0002400973775631,0.00023985517625711266
-0.4499375641480583,-0.4499375641480583,0.9969100319030865,0.0002394417779168928
-0.4482934055633905,-0.4482934055633905,0.9999013131181215,0.00023971658896480247
-0.44652803007766123,-0.44652803007766123,0.9972932511697504,0.00023967548866113061
-0.445681508188909,-0.445681508188909,0.9970911619856582,0.00023940870785622015
-0.4436504349278948,-0.4436504349278948,1.0000651761570163,0.0002396443751934001
-0.4419980811343521,-0.4419980811343521,0.9998941870790695,0.00023960361913707217
-0.4409121867628983,-0.4409121867628983,0.9988370777516475,0.00023971707367626493
-0.4395672321771144,-0.4395672321771144,0.996736239693154,0.00023934704178629252
-0.43749946726475175,-0.43749946726475175,1.0003730890281441,0.00023979003110856045
-0.43573406950099525,-0.43573406950099525,0.9999693709700221,0.00023985700566201622
-0.43488760516811453,-0.43488760516811453,0.9981332326740455,0.0002394545181080492
-0.43285653942002683,-0.43285653942002683,0.9996946961732665,0.0002396555895541849
-0.4310746149068564,-0.4310746149068564,0.9998443384854102,0.00023958450985780405
-0.43011822550574835,-0.43011822550574835,1.0001384409948624,0.0002398109751124495
-0.4287733365677468,-0.4287733365677468,1.0000791925677583,0.00023960141702128102
-0.42670552921235866,-0.42670552921235866,1.0003808151031355,0.00023960251242301483
-0.4251070658929166,-0.4251070658929166,1.0001286471161772,0.00023981959421217735
-0.4243768953516337,-0.4243768953516337,0.9999915535331457,0.00023949468485671348
-0.42252053222009633,-0.42252053222009633,1.0000926952660623,0.00023965857573991317
-0.42055912491077835,-0.42055912491077835,1.0004387615242796,0.00023965995042339285
-0.41942275023016007,-0.41942275023016007,0.9999265703730048,0.00023976447141246674
-0.41836944383694574,-0.41836944383694574,1.0003137123065802,0.0002394976249381261
-0.41627584788598143,-0.41627584788598143,0.9998913645662206,0.00023961347887275038
-0.4145734271719448,-0.4145734271719448,1.0001711490475758,0.00023961777897924257
-0.4138435741136618,-0.4138435741136618,0.9999827857767271,0.00023964248242665272
-0.412091950299282,-0.412091950299282,1.0000418944337526,0.00023971590450508356
-0.4101497422801458,-0.4101497422801458,1.0003928301706904,0.00023962575376055298
-0.4087491688698265,-0.4087491688698265,1.0001012502358158,0.00023967557838347676
-0.40790284867252924,-0.40790284867252924,1.0000264987763952,0.00023952744903796364
-0.4058718017574847,-0.4058718017574847,0.9998474707077472,0.00023967954367887372
-0.40408976819799136,-0.40408976819799136,0.9997717740891909,0.00023954681699516015
-0.40313332324612927,-0.40313332324612927,0.9998192697787884,0.00023973621749443777
-0.40178859856505367,-0.40178859856505367,1.000236298674968,0.00023957931054002668
-0.3997206852610361,-0.3997206852610361,0.9997207529627794,0.00023956853622043847
-0.39812220945627813,-0.39812220945627813,1.0004790242648205,0.00023970879442763196
-0.3973921681982574,-0.3973921681982574,1.0000399616964935,0.00023953341052127932
-0.39553572744048326,-0.39553572744048326,1.0001861433231778,0.00023969870861315144
-0.3935742159342226,-0.3935742159342226,1.00001756142329,0.0002395817143100682
-0.39243786057872965,-0.39243786057872965,0.9998136132683639,0.0002396785591535717
-0.3913847470687415,-0.3913847470687415,0.9997653475860441,0.00023940442969646062
-0.3892910224060415,-0.3892910224060415,1.0000058867389894,0.0002395902929726054
-0.3875885714301603,-0.3875885714301603,0.9996623143863144,0.00023960469114450944
-0.3868588097432621,-0.3868588097432621,1.000206212027609,0.00023965472843753174
-0.38510715470474677,-0.38510715470474677,0.9999811487042806,0.0002396862159192274
-0.3831648842005052,-0.3831648842005052,0.9998770791018655,0.00023953744535368905
-0.38176426949798953,-0.38176426949798953,0.9996703826612858,0.00023967438588319234
-0.38091809374041075,-0.38091809374041075,0.9999747797412649,0.0002395938351353741
-0.378887065716026,-0.378887065716026,1.000283683363728,0.0002395719714989569
-0.3771049230234894,-0.3771049230234894,0.9999565886765183,0.0002395652544065593
-0.37614842214443345,-0.37614842214443345,0.9999246202130825,0.00023974289744535293
-0.3749459139362443,-0.3749459139362443,1.000140091917158,0.00024021041355388873
-0.37310012790685504,-0.37310012790685504,0.9999385350544756,0.0002395789205990608
-0.37139765874226216,-0.37139765874226216,1.0000476435249233,0.00023957596596662826
-0.3706679518245437,-0.3706679518245437,1.0001113208967816,0.00023957835358716663
-0.3689162779312937,-0.3689162779312937,0.9999003999845245,0.00023971996513562607
-0.36697397017342154,-0.36697397017342154,0.9998518947160008,0.00023954274310812427
-0.36557333047858265,-0.36557333047858265,0.9997541697238004,0.0002396096644123651
-0.36472724150330577,-0.36472724150330577,0.9998795791706365,0.00023959904946112653
-0.362696224864294,-0.362696224864294,1.0004789780085424,0.00023955229614926426
-0.3609140166831821,-0.3609140166831821,1.0000435379701433,0.0002395188041938433
-0.35995748208997613,-0.35995748208997613,1.0000839286140413,0.0002396451899551861
-0.3586130208180293,-0.3586130208180293,0.9999055536321375,0.0002396042157743924
-0.35654493838583223,-0.35654493838583223,0.9997374763796685,0.00023955394428413742
-0.35494644194591274,-0.35494644194591274,1.0004480691405813,0.00023970289830180613
-0.35421660814081407,-0.35421660814081407,0.9999481356168033,0.00023951187674751736
-0.35236004294138185,-0.35236004294138185,0.9998860267627769,0.0002396577984550607
-0.35039836471719354,-0.35039836471719354,0.9998513905180119,0.00023952107807636165
-0.3492620397754308,-0.3492620397754308,1.000026347427505,0.00023972763664579987
-0.3482092353674943,-0.3482092353674943,0.9998256554583703,0.00023953642262657536
-0.3461153050613575,-0.3461153050613575,1.000440331158809,0.00023961969806988
-0.34441280556266063,-0.34441280556266063,1.000117987809086,0.00023952735967774794
-0.34368318980637014,-0.34368318980637014,0.9997716511057773,0.00023950483411525227
-0.34193148434123943,-0.34193148434123943,1.0001400852480429,0.00023976689109778804
-0.3399891149019368,-0.3399891149019368,0.9998451738065459,0.00023958188047989567
-0.3385884330826684,-0.3385884330826684,1.0001341571072726,0.00023961033139328802
-0.3377424890247312,-0.3377424890247312,1.0001872394910065,0.00023957637619934606
-0.3357114913997975,-0.3357114913997975,1.000073425344807,0.0002395644225760785
-0.3339291740708177,-0.3339291740708177,0.9996355492510972,0.0002395241098097872
-0.3329725829423751,-0.3329725829423751,0.9998781064776712,0.00023959367075256321
-0.33162828667304894,-0.33162828667304894,0.9996217752725739,0.00023961748267279943
-0.329560098712227,-0.329560098712227,0.9998857741163343,0.00023954828370240078
-0.327961589062852,-0.327961589062852,0.9998760619906705,0.00023959963564458044
-0.3272318852508306,-0.3272318852508306,1.000394197886265,0.00023949676178865496
-0.32537524212079916,-0.32537524212079916,1.0001261190370572,0.00023963404332019012
-0.32341345965623985,-0.32341345965623985,1.0000932362146515,0.00023952558887985596
-0.3222771534319236,-0.3222771534319236,0.9998472808279679,0.00023960894013587858
-0.3212245426162553,-0.3212245426162553,1.0001537893764014,0.00023947536968189922
-0.31913048382989473,-0.31913048382989473,0.9999804905855673,0.0002396806759052032
-0.31742795396085055,-0.31742795396085055,1.000295347374514,0.00023955002512211033
-0.31669842922847236,-0.31669842922847236,1.000039653966807,0.00023950133024436667
-0.3149466920254781,-0.3149466920254781,1.0000103653793124,0.0002396867343415115
-0.3130042614039212,-0.3130042614039212,1.0001931769783927,0.00023960320589674872
-0.31160353695327103,-0.31160353695327103,1.0000248880579574,0.00023960957337805007
-0.31075773808083795,-0.31075773808083795,0.9998696474950212,0.0002395451898988881
-0.3087267596143647,-0.3087267596143647,1.0001127658836395,0.00023953799741787432
-0.3069443330581635,-0.3069443330581635,1.0001352849355227,0.00023951820012052034
-0.30598768505433327,-0.30598768505433327,1.0002185652345172,0.00023964514136694688
-0.30464355408439586,-0.30464355408439586,0.9998724642251853,0.00023954129216672217
-0.3025752607467439,-0.3025752607467439,0.9996104661447612,0.00023954733417699955
-0.3009767375479896,-0.3009767375479896,1.0001217679342496,0.00023956011776728674
-0.3002471640038493,-0.3002471640038493,0.999616611343147,0.00023945921160150972
-0.29839044287105027,-0.29839044287105027,1.0003265946710238,0.0002395708037446862
-0.2961519447015689,-0.2961519447015689,1.000027791939297,0.00023955668716154488
-0.29519372623640266,-0.29519372623640266,0.9995379014661887,0.00023954177554498095
-0.2938496614642645,-0.2938496614642645,1.0001619238491635,0.0002396548222543656
-0.2916115525719306,-0.2916115525719306,1.0002266550517735,0.00023954786543652667
-0.2899301073813604,-0.2899301073813604,0.999875615008202,0.00023973173920515808
-0.2891002800546175,-0.2891002800546175,0.9997635976066513,0.0002395593892537301
-0.2871389753296626,-0.2871389753296626,0.9997847641458415,0.00023949845375602547
-0.28521883504026846,-0.28521883504026846,0.9997891775214629,0.0002395046596234837
-0.28431671855901186,-0.28431671855901186,1.0002688310536327,0.00023951104042092708
-0.28301738433078755,-0.28301738433078755,0.999677796945222,0.00023969688341919448
-0.28081763977252194,-0.28081763977252194,0.9997213437447711,0.0002395718689743473
-0.2791361168831372,-0.2791361168831372,1.0000383400023851,0.0002396930968019694
-0.27830636860157937,-0.27830636860157937,1.0002833866453211,0.00023963263893444462
-0.27671460334040604,-0.27671460334040604,1.000084134276575,0.00023954088274886744
-0.27453030316255533,-0.27453030316255533,1.0002249272228352,0.00023956028354258076
-0.27352281548742213,-0.27352281548742213,0.9997240292440104,0.00023951168867882748
-0.27206458294704133,-0.27206458294704133,0.9999600176658436,0.00023952746903651531
-0.27050756363455547,-0.27050756363455547,1.0001230588449246,0.00023958672916586055
-0.2685344750164404,-0.2685344750164404,0.9998059893937714,0.00023959049099293912
-0.2675821398793687,-0.2675821398793687,1.0001538202148148,0.00023959145685738107
-0.26620939577423997,-0.26620939577423997,1.0003989526012305,0.00023956920491077213
-0.26418977628936774,-0.26418977628936774,1.000226380092532,0.0002395925770121049
-0.2628118510274362,-0.2628118510274362,1.0003583995906618,0.00023961259292276785
-0.26158561635074873,-0.26158561635074873,1.0000795497783233,0.0002395911649693298
-0.26013505655591873,-0.26013505655591873,0.9997482572479326,0.00023954449970247995
-0.25802720294836945,-0.25802720294836945,1.0001954516799603,0.000239684381475198
-0.2570716133989208,-0.2570716133989208,1.000039543585667,0.0002394946222466677
-0.2556793246067173,-0.2556793246067173,1.0000936767772584,0.00023964266133433073
-0.25383285899360997,-0.25383285899360997,1.0003941783540107,0.00023958319446276918
-0.25215114159282165,-0.25215114159282165,1.000173741521221,0.00023972893175708515
-0.25110571055647596,-0.25110571055647596,1.000174576746667,0.0002395527132845998
-0.2497299384838243,-0.2497299384838243,0.9996870033368817,0.0002394898396376572
-0.24754539239070256,-0.24754539239070256,0.9996862879319387,0.00023955586169650193
-0.24653805891207412,-0.24653805891207412,0.999970625513679,0.00023949767487917904
-0.24507977853654667,-0.24507977853654667,1.0001226231158644,0.00023960607763517396
-0.2435227882480831,-0.2435227882480831,1.0000602538509973,0.00023959472213060763
-0.24154952428420984,-0.24154952428420984,0.9998288705658235,0.0002396027049652102
-0.24059739307531344,-0.24059739307531344,0.9996732262374334,0.0002395932954674446
-0.2392246600079943,-0.2392246600079943,0.9998659027927695,0.00023951375781499805
-0.2372049476607117,-0.2372049476607117,0.9999617610663325,0.00023952700899334845
-0.23582695644713567,-0.23582695644713567,1.00010251748995,0.0002396140656560217
-0.23460082886958844,-0.23460082886958844,0.9995915507154708,0.00023951541110093648
-0.23315035281739255,-0.23315035281739255,1.0000017233101537,0.0002395002052031074
-0.231042284157229,-0.231042284157229,1.0001446564075043,0.00023964394988551944
-0.23008689649454936,-0.23008689649454936,1.0000044269576482,0.00023955284549891329
-0.22869450127632263,-0.22869450127632263,1.00002621146646,0.0002396031514710757
-0.22684808000249176,-0.22684808000249176,1.0002634030957787,0.0002395093943234116
-0.22516616748962406,-0.22516616748962406,0.9995632411254716,0.00023959321770937735
-0.2241209346489086,-0.2241209346489086,0.9996969817669253,0.00023953957330831248
-0.22274527538602343,-0.22274527538602343,1.0002074921294806,0.00023947402895426934
-0.22056048316094348,-0.22056048316094348,0.9999415641564434,0.0002395456057848076
-0.21955330385685556,-0.21955330385685556,0.9997476684141567,0.000239546591832366
-0.21809497554477275,-0.21809497554477275,1.0001453902500896,0.00023965010355561935
-0.21653801451893742,-0.21653801451893742,0.9999368859499714,0.00023957908161282245
-0.21456457492013215,-0.21456457492013215,0.9999023149679468,0.00023963805478666587
-0.21361264789989037,-0.21361264789989037,0.9998403201374968,0.00023952374086755112
-0.21223992568930045,-0.21223992568930045,0.9997886101882788,0.00023952095246562542
-0.2102201208270799,-0.2102201208270799,1.000147890341961,0.0002394905495616969
-0.20884206314062795,-0.20884206314062795,1.0002332393070452,0.000239622621312017
-0.20761604301710576,-0.20761604301710576,0.9999429145475487,0.00023966356655612825
-0.20616565080144938,-0.20616565080144938,1.0002782353880695,0.00023950358924446224
-0.2040573667991339,-0.2040573667991339,1.0003462378065318,0.00023962064451013183
-0.20310218124786844,-0.20310218124786844,1.0002640286648554,0.00023951005104383711
-0.20170967934277542,-0.20170967934277542,1.0001717516889037,0.00023965101108528656
-0.19986330288597856,-0.19986330288597856,0.9996291807354603,0.00023946081606561253
-0.19818119466017378,-0.19818119466017378,1.0001851536807644,0.0002397052305883022
-0.19713616033368453,-0.19713616033368453,0.9998657038980834,0.0002395611225805787
-0.19576061405446127,-0.19576061405446127,1.0003042291273894,0.00023951692749263595
-0.19357557543653456,-0.19357557543653456,0.9998723252482502,0.000239545629086458
-0.19256855041553536,-0.19256855041553536,1.0000294703821986,0.0002395662365295438
-0.1911101739496644,-0.1911101739496644,0.9998642520202468,0.000239570741386873
-0.18955324249068325,-0.18955324249068325,1.0002434012537533,0.00023959570530553208
-0.1875796269168859,-0.1875796269168859,0.9998445393749498,0.00023953526022028158
-0.186627904367424,-0.186627904367424,1.0002810777460884,0.00023956076372839188
-0.18525519284721667,-0.18525519284721667,0.9998396081112266,0.0002395390196389934
-0.18323529587514714,-0.18323529587514714,0.9998656149726093,0.0002394799509334538
-0.1818571711804907,-0.1818571711804907,0.9997788454327832,0.00023954739152042196
-0.18063125870630756,-0.18063125870630756,1.0001496664941123,0.00023961345916205033
-0.1791809505733454,-0.1791809505733454,1.0001001867553696,0.00023950449180408476
-0.17707245086680815,-0.17707245086680815,1.000124455665108,0.00023958141066291938
-0.1761174676875271,-0.1761174676875271,0.9998020815547131,0.00023954339563088913
-0.17472485882799446,-0.17472485882799446,1.0001363823610443,0.00023964265022603472
-0.1728785275862265,-0.1728785275862265,1.0001633955522038,0.00023949522688316367
-0.17119622311188323,-0.17119622311188323,0.9995459306974969,0.0002395471236684349
-0.16993551234932056,-0.16993551234932056,0.9997484350155453,0.00023953478951998982
-0.16877595452506283,-0.16877595452506283,1.0000734546313825,0.00023954237758372796
-0.16659066925358273,-0.16659066925358273,1.0002174442362575,0.00023953518373159114
-0.16540598951210086,-0.16540598951210086,1.0002860122412676,0.00023957078028700234
-0.16408730753068995,-0.16408730753068995,0.9995490836147486,0.00023953402819054025
-0.16256847220683995,-0.16256847220683995,0.9999365476902635,0.0002395477538330711
-0.16059468029575327,-0.16059468029575327,1.0002309068062842,0.00023963153329376513
-0.1594272871658177,-0.1594272871658177,0.9998432227883913,0.00023960950607915913
-0.15827046146710017,-0.15827046146710017,1.000076617947774,0.0002395468412876901
-0.15625047276184886,-0.15625047276184886,0.999602924561553,0.0002394576224100604
-0.15487228046517884,-0.15487228046517884,1.000074375304116,0.0002396120007537363
-0.153430600704678,-0.153430600704678,1.0000445383238001,0.00023964260392959048
-0.15219625216923305,-0.15219625216923305,1.0002917978661234,0.0002395431920893016
-0.15008753638203415,-0.15008753638203415,1.0000802219095573,0.0002395630027803123
-0.14891688051602614,-0.14891688051602614,0.9998335542088815,0.00023955384913838603
-0.14762120658369896,-0.14762120658369896,1.0000170601746183,0.00023965424148257225
-0.14545654405351344,-0.14545654405351344,0.9998685963262368,0.00023949553431073628
-0.14407832457131917,-0.14407832457131917,0.9997768685580708,0.00023956231867904766
-0.14273302475085076,-0.14273302475085076,0.9998559774698803,0.00023963615268361938
-0.14147873911092573,-0.14147873911092573,1.000407026004628,0.00023954224628625181
-0.13929357099927983,-0.13929357099927983,0.9997331958415099,0.00023956127781014723
-0.13812299624846675,-0.13812299624846675,1.0002044856485344,0.00023956879537632812
-0.13682728331123145,-0.13682728331123145,1.0002723192987728,0.00023961021848550434
