time,time,flux,flux_err
-0.49917455819134676,-0.49917455819134676,0.9996684405981023,0.00017615632848273088
-0.4981106360222232,-0.4981106360222232,1.000085848252501,0.00017019888586100108
-0.4975220052074292,-0.4975220052074292,0.9998498946236756,0.0001550192455844098
-0.49694644745395633,-0.49694644745395633,0.9996876056861528,0.00015398412672333438
-0.4960076101750019,-0.4960076101750019,0.9998216389860207,0.00015724675790228804
-0.4951752841407142,-0.4951752841407142,1.0000467281160954,0.00015681195141485857
-0.4945561957247264,-0.4945561957247264,0.9995933254076521,0.00015537225677451607
-0.49399437689062325,-0.49399437689062325,0.9998896961306999,0.00015005329769348
-0.4930209375372215,-0.4930209375372215,1.000138158782232,0.00015651148239137106
-0.4921375151643588,-0.4921375151643588,1.0002810705000198,0.00015382426413282374
-0.4917047718030517,-0.4917047718030517,1.0002679218439858,0.00015790345240377328
-0.4913225940457778,-0.4913225940457778,0.9999334777712588,0.0001569358425147549
-0.4906866178920609,-0.4906866178920609,0.9996965694149733,0.00015637287727637448
-0.48983642185121423,-0.48983642185121423,0.9997976918114422,0.0001483675659768454
-0.4889302692150522,-0.4889302692150522,1.0000641211059755,0.00015331287302123518
-0.48854045424595827,-0.48854045424595827,1.0000495754257739,0.00015515962380748932
-0.4881769544830604,-0.4881769544830604,0.9998481968483871,0.00015247092107743555
-0.4875921408078284,-0.4875921408078284,1.0001857968615957,0.00016091393778096833
-0.486820073351555,-0.486820073351555,1.0000278222099637,0.00014801041849231807
-0.4860266036950634,-0.4860266036950634,0.9999891594880918,0.00014820646113062832
-0.48547381107418913,-0.48547381107418913,0.9997676485435036,0.00015510549062064193
-0.4850780515029328,-0.4850780515029328,1.0002578270867608,0.00015260636450655966
-0.48445309360031386,-0.48445309360031386,1.0001834984142135,0.00015532260330004504
-0.48321576707821806,-0.48321576707821806,0.9999037526115613,0.00014780186285551062
-0.4826478145136207,-0.4826478145136207,0.9996994688624532,0.00015071783990815935
-0.4821469021328085,-0.4821469021328085,1.0002107894420598,0.00015466386992160907
-0.48158380797613065,-0.48158380797613065,1.0000916565082645,0.00015728353816041416
-0.4804464902881591,-0.4804464902881591,1.000070289213649,0.0001479664002672412
-0.4797132382213022,-0.4797132382213022,0.9997390828982908,0.0001589474725567859
-0.47934175731061257,-0.47934175731061257,1.0000307898147127,0.00015277750581173222
-0.4789148810203187,-0.4789148810203187,1.000002808252511,0.00015009766516782563
-0.47807301582943185,-0.47807301582943185,0.999815938020431,0.00015786657247167125
-0.4770237317366991,-0.4770237317366991,1.0001419035070411,0.0001528477156190865
-0.47624946325304335,-0.47624946325304335,0.9997895160751546,0.00015503291379086
-0.4758143698803906,-0.4758143698803906,1.0000841272718621,0.00015005893731553438
-0.4751522103186289,-0.4751522103186289,0.9998421249760103,0.00016098957088846977
-0.4739491245476529,-0.4739491245476529,1.0001133188293774,0.00015079844539948227
-0.4731630448426586,-0.4731630448426586,0.9998484739136355,0.0001550557260524826
-0.4725773806225334,-0.4725773806225334,1.0002952712045519,0.00015655219440690704
-0.4719328088925977,-0.4719328088925977,1.000123885615037,0.00016060832302221238
-0.47117531768381016,-0.47117531768381016,1.0001495469487989,0.00015578495452195495
-0.470335476504988,-0.470335476504988,1.0000352889042152,0.00015262265557161814
-0.4700006663260865,-0.4700006663260865,1.0000213335396413,0.00015287379707076728
-0.469402299990179,-0.469402299990179,0.9999085297196849,0.0001588771085957981
-0.4685484126224765,-0.4685484126224765,1.0001296674683584,0.00015999251191663614
-0.4677685729766381,-0.4677685729766381,1.0000697561721554,0.0001544169298065585
-0.46729342595353957,-0.46729342595353957,1.0000962214890639,0.0001550834691936184
-0.46689463822112887,-0.46689463822112887,1.000078865433641,0.00015246360749303996
-0.4660891767241992,-0.4660891767241992,1.0002022875346543,0.00016096347223339434
-0.46569539243428154,-0.46569539243428154,1.0001751021952159,0.00016191443757315445
-0.4651861474972975,-0.4651861474972975,0.9998564501698175,0.00015073229274306288
-0.46476178244047334,-0.46476178244047334,1.0000080640744757,0.0001546183890819497
-0.4643948491946503,-0.4643948491946503,0.9998399094408921,0.00015085908126649265
-0.46418430112025816,-0.46418430112025816,0.9999962300842352,0.0001577282191781067
-0.4638776432206214,-0.4638776432206214,1.0000558983050871,0.0001586097083614598
-0.4632189518051746,-0.4632189518051746,1.0001182496700376,0.0001601405909157755
-0.4627444089303026,-0.4627444089303026,0.9999315953843373,0.00016048160849340312
-0.4620175398827996,-0.4620175398827996,0.9998886237583526,0.00015283333214545104
-0.4613497633697989,-0.4613497633697989,0.9997890667397064,0.00015354302925746713
-0.4610800378395652,-0.4610800378395652,0.9998862744614894,0.00015517256562105368
-0.4602957132163283,-0.4602957132163283,1.000128844249059,0.0001635520203227292
-0.45977925320912616,-0.45977925320912616,0.999883934561991,0.0001581611854734475
-0.45902509077859577,-0.45902509077859577,1.0000228605282773,0.0001527925091433406
-0.4583454046784027,-0.4583454046784027,1.0000712241818117,0.0001565541144284322
-0.4581547207213589,-0.4581547207213589,0.9999647534600562,0.00015505615113051206
-0.4578514744498534,-0.4578514744498534,1.0000109212310542,0.0001588743675738747
-0.4572088391854777,-0.4572088391854777,1.0001087641824364,0.00016152694108848578
-0.45685487041482703,-0.45685487041482703,0.9999355332999269,0.0001553056410338107
-0.45623535722552333,-0.45623535722552333,1.000098453423067,0.00015805847287402014
-0.45534181469920443,-0.45534181469920443,0.9999302017356915,0.00015349920094117573
-0.4551216715764895,-0.4551216715764895,1.0000947379962906,0.0001550079719287501
-0.45457163460887384,-0.45457163460887384,0.9998837458508245,0.00016228201025529412
-0.45399355717090656,-0.45399355717090656,1.0002337906686702,0.00016267297127569487
-0.4534961884637596,-0.4534961884637596,0.9999341669928473,0.00015609449570878108
-0.4526556115277344,-0.4526556115277344,0.9998496990149711,0.00015647141005724422
-0.45218746806131094,-0.45218746806131094,0.999707866922759,0.00015060054028759445
-0.4517902063620568,-0.4517902063620568,0.9997810064174534,0.00015291833260345193
-0.4510722710103437,-0.4510722710103437,1.0001587377694507,0.00015909191644177694
-0.45073428946707284,-0.45073428946707284,0.9997967366425942,0.00015519364047199386
-0.450068459292379,-0.450068459292379,0.9997478128808499,0.00015814902191277705
-0.44923659292180673,-0.44923659292180673,0.9999724820458799,0.0001529393467456104
-0.4485208704652905,-0.4485208704652905,0.9998795269404204,0.00015723883954294615
-0.44788228312390854,-0.44788228312390854,0.9998599313201098,0.0001649189518547348
-0.44707401300547644,-0.44707401300547644,1.0002019244484541,0.00016224740802295407
-0.4465703187954205,-0.4465703187954205,0.9998391905719093,0.0001524321445400539
-0.44610401905956676,-0.44610401905956676,1.0001673580476993,0.00015518417166699003
-0.4455622043657058,-0.4455622043657058,1.0002954987357051,0.0001519826279312337
-0.44482176787423666,-0.44482176787423666,1.0001152410027485,0.0001567684419764814
-0.4439650470376364,-0.4439650470376364,0.9998399289582747,0.00015991826263584953
-0.44330357259023,-0.44330357259023,1.0003116204392828,0.000156377600220314
-0.4426911701884819,-0.4426911701884819,1.0001409615482975,0.0001500798781683804
-0.4418988070225168,-0.4418988070225168,1.0000668051946955,0.00015745672394883306
-0.44124931216065305,-0.44124931216065305,1.0000068737233692,0.00016290402677929963
-0.44048027048338556,-0.44048027048338556,1.0000513359294145,0.000150302083770156
-0.43998430825813556,-0.43998430825813556,0.9999035234709945,0.00015842022608303605
-0.43920351348206166,-0.43920351348206166,1.0000387363288905,0.0001544610203779795
-0.4383623016939964,-0.4383623016939964,1.0002073399077882,0.00015822956363184272
-0.4372795653944195,-0.4372795653944195,1.000200434812308,0.00015399468357407006
-0.4369122405994858,-0.4369122405994858,0.9998803138527161,0.000156238291212334
-0.4361987812575535,-0.4361987812575535,0.9998263321270315,0.00015713369396727565
-0.4354422720512957,-0.4354422720512957,0.999882356267445,0.0001565801150223468
-0.4345935889679822,-0.4345935889679822,0.9996050837848502,0.00015545853582740586
-0.4341819368135475,-0.4341819368135475,0.9997846521388756,0.00015624037907459047
-0.4337179333793756,-0.4337179333793756,1.000179904233026,0.0001561199659822366
-0.4328344554931391,-0.4328344554931391,0.9999387990920707,0.0001578618734194646
-0.4319776105992787,-0.4319776105992787,1.0001377720986457,0.0001589983901487513
-0.43132712356673436,-0.43132712356673436,0.9997869264231461,0.00015458524634609229
-0.43094800064500305,-0.43094800064500305,1.0000444213650006,0.00015479259696095645
-0.4303670338464144,-0.4303670338464144,0.9999835930486256,0.00016376779682281906
-0.4298089086682012,-0.4298089086682012,0.9999568466490467,0.00015684385555020112
-0.42908767816988985,-0.42908767816988985,0.9997245418150085,0.0001624829533731922
-0.42830973188174537,-0.42830973188174537,1.000118970798735,0.00015527031690002756
-0.42778315570249104,-0.42778315570249104,1.0000931458676703,0.0001558463547930978
-0.4268568932726339,-0.4268568932726339,0.9998569752939819,0.00015569707596362566
-0.42645179598621324,-0.42645179598621324,1.0000996392505523,0.00016027495877988366
-0.42555446315454903,-0.42555446315454903,1.0001570328327034,0.00015640682298813982
-0.42483529634046135,-0.42483529634046135,0.9998393863079581,0.00015484213878393381
-0.42405187525000654,-0.42405187525000654,0.9999520831707184,0.00015866312358475324
-0.42352081337594427,-0.42352081337594427,1.0002171263489879,0.00015693895658071706
-0.42263891218753996,-0.42263891218753996,0.9997884904508639,0.0001588512036828426
-0.42207254120294235,-0.42207254120294235,1.0001590346647187,0.00015491816290473076
-0.4215794198833464,-0.4215794198833464,0.9999782795136788,0.00015248412555094105
-0.42108177900954613,-0.42108177900954613,1.0001384098760222,0.0001533008013416415
-0.42057620737250545,-0.42057620737250545,1.0000172133753011,0.0001600686420374392
-0.419912190856121,-0.419912190856121,0.9998637806899658,0.000156870631779825
-0.41927283077529864,-0.41927283077529864,1.000038575188769,0.00015583479411333942
-0.41871923632133984,-0.41871923632133984,0.9999916405398794,0.0001571048483261911
-0.417767921306222,-0.417767921306222,0.9999914651470346,0.00015847512209532505
-0.4169062336884963,-0.4169062336884963,1.0001702591929096,0.0001577989859813567
-0.41624296890950063,-0.41624296890950063,1.000046071991523,0.00015553593863633196
-0.41540501417548514,-0.41540501417548514,0.999938383703836,0.000159433085828975
-0.4141776800133812,-0.4141776800133812,0.9999985315292876,0.00015736249657634683
-0.41333258668382766,-0.41333258668382766,0.9998823927975119,0.00015629271637452878
-0.4129607928756741,-0.4129607928756741,0.9998593336895978,0.0001645905057816787
-0.41205863164141193,-0.41205863164141193,1.0001098681607252,0.00016396355208561848
-0.41064128861398785,-0.41064128861398785,0.9998960730025926,0.00015631071066065516
-0.4099388762238959,-0.4099388762238959,1.000014897789627,0.00015283853212418578
-0.4092283494588628,-0.4092283494588628,0.9999154614035648,0.00015890147363862423
-0.40791472385681116,-0.40791472385681116,0.9999146242925899,0.0001579382575846327
-0.40717174959281693,-0.40717174959281693,1.000058699161786,0.00015309329936833633
-0.4065240860290942,-0.4065240860290942,0.9999471867460157,0.0001614834886767227
-0.40549029195244657,-0.40549029195244657,1.0002113397586725,0.000164500257192653
-0.40468260217749047,-0.40468260217749047,0.999887555617614,0.00015616709481896504
-0.40396348893045797,-0.40396348893045797,1.000007473997001,0.00015577879964877398
-0.40332722586172165,-0.40332722586172165,0.9998948178840623,0.00015688577692949313
-0.4027145155603648,-0.4027145155603648,1.0000693404279186,0.00015999730284424002
-0.401747353621613,-0.401747353621613,1.0000834051437284,0.00015777520209423582
-0.401107231482456,-0.401107231482456,0.9999950907848205,0.0001538617985210869
-0.40071648421144346,-0.40071648421144346,0.9999845705196359,0.00015697612879444117
-0.39979607689383556,-0.39979607689383556,0.9999832795599992,0.00015943906491723878
-0.398798264702782,-0.398798264702782,0.9999366131716025,0.0001557213754532001
-0.3980443217806169,-0.3980443217806169,0.9998665573348433,0.00015547833429919568
-0.3976794495167269,-0.3976794495167269,1.000151261371521,0.00015474617411020375
-0.39699190268438544,-0.39699190268438544,1.0001043838638588,0.00015318975991709504
-0.39601429880931394,-0.39601429880931394,0.9999844353303479,0.0001583081306932865
-0.3953476103852154,-0.3953476103852154,0.9996991592605147,0.00015699119038045363
-0.39479351982590744,-0.39479351982590744,1.000112895383905,0.0001550499081967964
-0.3942982845946972,-0.3942982845946972,0.9998815711876654,0.00015005497387497372
-0.39332436600743675,-0.39332436600743675,0.9999058529711871,0.00015654913751955403
-0.3924481077330711,-0.3924481077330711,1.0000277741024577,0.00015405959835756357
-0.39203823446441677,-0.39203823446441677,1.0000506195951482,0.00015383844910229425
-0.39166631793486884,-0.39166631793486884,1.0001970404701122,0.00015694406572421725
-0.3911256844374293,-0.3911256844374293,0.999835446245374,0.00015122760052580693
-0.3903757150823367,-0.3903757150823367,1.000011782773664,0.00015304121976094048
-0.3894951049689553,-0.3894951049689553,1.0001561004434463,0.00015011961436864205
-0.3890118181028811,-0.3890118181028811,1.0001806746219182,0.00015389676412772138
-0.38870759742931116,-0.38870759742931116,1.000118122373816,0.00015513361412211292
-0.38830807716658455,-0.38830807716658455,1.0000024917343862,0.0001549692543143005
-0.3875023582542781,-0.3875023582542781,0.9998759515926242,0.00016005339392955736
-0.3865709298152069,-0.3865709298152069,1.000110071629021,0.00014773234910492712
-0.3859204738655535,-0.3859204738655535,1.0003554504642698,0.0001507884608322185
-0.3855647881893674,-0.3855647881893674,0.9999731219178198,0.00015696909443215819
-0.384922310004913,-0.384922310004913,0.9997373192760076,0.00015520104602148192
-0.38365641243799475,-0.38365641243799475,0.9999612645986918,0.0001480694577479638
-0.3829515019526298,-0.3829515019526298,1.0000436443836962,0.0001507449943497236
-0.382450257230812,-0.382450257230812,1.0002218499857392,0.00015464479634303
-0.3818112370914605,-0.3818112370914605,0.9999523870182294,0.00015715270040980077
-0.3806733425612038,-0.3806733425612038,1.0000998505000118,0.0001480456099181368
-0.37996004207088846,-0.37996004207088846,1.0003742046174735,0.00015510147090481088
-0.37949523416391456,-0.37949523416391456,0.9999101036648421,0.00015500927955477785
-0.3789583867706824,-0.3789583867706824,1.000001078508677,0.0001530556627386721
-0.37787004693527704,-0.37787004693527704,0.9999917451008743,0.00015276246584099853
-0.3769177975525963,-0.3769177975525963,1.0002453874816741,0.00015299180707442744
-0.37637526686448836,-0.37637526686448836,0.9999381354436169,0.00015270510515438647
-0.3759075850735826,-0.3759075850735826,1.0001185416737892,0.00015362012990238937
-0.3749740522071079,-0.3749740522071079,1.0001026730629432,0.00015779132926396902
-0.3738077180831169,-0.3738077180831169,1.0000534721921501,0.00015293371876832547
-0.3732721106345707,-0.3732721106345707,0.9999668187307718,0.00015260178324662287
-0.3726022094640939,-0.3726022094640939,1.000237249592455,0.00015919966717092113
-0.3719475846737623,-0.3719475846737623,0.9998977564078302,0.00016035067142213625
-0.37124623097406584,-0.37124623097406584,1.0000782561373893,0.00015587395289171
-0.3705447565407667,-0.3705447565407667,0.9998674413667572,0.0001530923510084316
-0.37007713362836514,-0.37007713362836514,1.0000757918116752,0.0001500210346918716
-0.36932482872434774,-0.36932482872434774,1.0002209138858769,0.0001682849834363496
-0.3683174838479317,-0.3683174838479317,0.999981232054622,0.00015634013892983154
-0.36775757207433346,-0.36775757207433346,0.9997614442247198,0.000150553591093231
-0.3673487742569705,-0.3673487742569705,1.0000203207046956,0.00015727755515293753
-0.3665506300254492,-0.3665506300254492,1.000210662138002,0.00015828538738387054
-0.3660306161364133,-0.3660306161364133,1.000034878068541,0.00016042203461545256
-0.36542446409948753,-0.36542446409948753,1.0000811749737273,0.0001543901498278207
-0.365051521971327,-0.365051521971327,1.0000036048536152,0.0001504759154788883
-0.3646392963470134,-0.3646392963470134,1.0002725847425287,0.00015079326950259453
-0.36441900568752317,-0.36441900568752317,1.0000150607304874,0.0001577040547021458
-0.36410075587482427,-0.36410075587482427,1.000005788932628,0.00015642049007599557
-0.36336616440748915,-0.36336616440748915,0.9998284705599841,0.00016276891940676745
-0.36281723305583,-0.36281723305583,0.9997882643362642,0.00015994500816042217
-0.3619988204685797,-0.3619988204685797,1.0001433162902373,0.00015293521798558386
-0.36153111304302,-0.36153111304302,1.000066721052233,0.00015309083722362247
-0.36115003431987136,-0.36115003431987136,0.9999794389451276,0.00015888344514211798
-0.36034269156007215,-0.36034269156007215,0.9999362689671003,0.00016258974165922466
-0.3597913523277384,-0.3597913523277384,0.9999739588840543,0.00015587390904641112
-0.3589050649716228,-0.3589050649716228,0.9999232176021445,0.00015253250497081422
-0.3585039255944139,-0.3585039255944139,0.9999410339795043,0.00015330036643714437
-0.35829811244111626,-0.35829811244111626,0.9998866826667203,0.0001606175577454555
-0.35761408910038883,-0.35761408910038883,1.0002259308009342,0.00016205963197545375
-0.35722132191222045,-0.35722132191222045,1.0001024651119426,0.00015548294140879478
-0.35653833197939094,-0.35653833197939094,0.9998868289598359,0.0001580376025589264
-0.3557123702215904,-0.3557123702215904,0.9997762736510326,0.00015093816455656486
-0.355443141048454,-0.355443141048454,0.9998910855339057,0.00015774671166920399
-0.3550435524521163,-0.3550435524521163,0.9998714628714798,0.0001582940089143086
-0.3544591244120966,-0.3544591244120966,1.000052013337094,0.00015974110417065035
-0.3541675518958073,-0.3541675518958073,1.0000940478078117,0.00015544577000707165
-0.3535239124132204,-0.3535239124132204,1.0001103250413341,0.00016003450954125208
-0.35272006493687513,-0.35272006493687513,0.9999593792972176,0.0001525373335391545
-0.3523919844403281,-0.3523919844403281,0.9997212607704649,0.00015498471862193994
-0.35169790022191594,-0.35169790022191594,1.000042126554089,0.0001549886120749448
-0.35120185286796185,-0.35120185286796185,0.9999775258522018,0.00015787275889163002
-0.35091674194482037,-0.35091674194482037,1.00017268584319,0.0001543119168048071
-0.3500202742572583,-0.3500202742572583,1.000050783847485,0.00015462759425365096
-0.34934260157388053,-0.34934260157388053,1.0001090535329655,0.0001528089190668115
-0.34855708258401136,-0.34855708258401136,0.9999513437595968,0.00015446590298737233
-0.34796259309805466,-0.34796259309805466,0.9998280257039655,0.00015905635251629627
-0.34750120961543873,-0.34750120961543873,1.0000513503576574,0.00015922541034273004
-0.3469907734179287,-0.3469907734179287,0.9999537648244464,0.00015557664307494712
-0.34640713668486567,-0.34640713668486567,0.9999991931589222,0.00015514746446585812
-0.3459193683316698,-0.3459193683316698,0.9996197027550389,0.00015422641930018744
-0.345125119882141,-0.345125119882141,0.9999056993576751,0.00015676518268598985
-0.3442676090133318,-0.3442676090133318,1.0000103767573534,0.00015997219663264653
-0.3435315000264382,-0.3435315000264382,1.0002315048795176,0.00015282639533661544
-0.34299509428456076,-0.34299509428456076,0.9999523987217256,0.00015005137008410532
-0.34220214532469984,-0.34220214532469984,0.9997788942557226,0.00015743444693947048
-0.34177514559050903,-0.34177514559050903,0.9997125418079266,0.000159022834463989
-0.34102239439962434,-0.34102239439962434,0.9999802968877599,0.00015954335121378215
