time,time,flux,flux_err
-0.49953906614124816,-0.49953906614124816,1.000061682577968,0.00029811151308317517
-0.4988121931425364,-0.4988121931425364,0.9998548498368756,0.000318421269114162
-0.4975557545846338,-0.4975557545846338,1.0000705467908402,0.00035786484281431443
-0.49650091158218856,-0.49650091158218856,0.9999982557824946,0.0003185743992744591
-0.49528117551017203,-0.49528117551017203,0.9997997876730326,0.00030202943131288866
-0.49460324159445007,-0.49460324159445007,0.9999874952737461,0.00030360175730701654
-0.4937617728654004,-0.4937617728654004,1.000034346331972,0.000301969797491868
-0.49298893473751376,-0.49298893473751376,1.0003336262345175,0.00028759747566412794
-0.49231730160317966,-0.49231730160317966,0.9997976017687215,0.0002820626586799427
-0.4915896549275203,-0.4915896549275203,1.0005651120758154,0.0003226518091642731
-0.4907278314669384,-0.4907278314669384,0.9998740101852501,0.00030275807604180683
-0.49015070207460665,-0.49015070207460665,1.0001533488910819,0.0002800587941845575
-0.489525406852772,-0.489525406852772,0.9999385426354381,0.0003021160793609509
-0.48900668721908,-0.48900668721908,1.0001629155370844,0.0002752166108721444
-0.48845500519964846,-0.48845500519964846,1.0001932849110835,0.00032236485219733744
-0.4877927525354607,-0.4877927525354607,0.9992130756677842,0.0003023865712760315
-0.4869853995856829,-0.4869853995856829,0.9995732600809941,0.0002757055983508592
-0.48645884800862405,-0.48645884800862405,0.9997954287557886,0.00027938780450058396
-0.4857685400049377,-0.4857685400049377,0.9997586809994073,0.00032267980650339584
-0.4845441308774753,-0.4845441308774753,0.9997922228614918,0.0003029494048557022
-0.48377082658698783,-0.48377082658698783,1.0000828781480584,0.00027946715223776627
-0.4827749696552928,-0.4827749696552928,1.000113438946484,0.00030196770604368477
-0.4819591410792782,-0.4819591410792782,1.0002508955308227,0.00028055270996469006
-0.4811520340583229,-0.4811520340583229,0.9998908108601479,0.0003226420520247659
-0.4803788057572092,-0.4803788057572092,1.0003152508542592,0.00028539985805684675
-0.4798262542812154,-0.4798262542812154,1.000069585512311,0.0002879068748647499
-0.4791329032406793,-0.4791329032406793,0.9999586691397038,0.0003227874345979551
-0.4784131158216042,-0.4784131158216042,1.0000375027749755,0.0003027804478692889
-0.47774832959185004,-0.47774832959185004,1.0002972309563618,0.0002801668195199716
-0.47703181342512835,-0.47703181342512835,0.9998192131437713,0.000302069056153147
-0.4765720384166343,-0.4765720384166343,1.0001072621664107,0.0003196428268252419
-0.4759697072724521,-0.4759697072724521,1.0002044645123862,0.00030177167908437494
-0.47512270734805495,-0.47512270734805495,0.9995447838662456,0.00030222847198897387
-0.4742166443997121,-0.4742166443997121,1.0001611496241902,0.00029802723014597115
-0.47375401498211434,-0.47375401498211434,0.9999258485011886,0.0003016897614485541
-0.472867901603604,-0.472867901603604,0.999814407049105,0.00030238776079756426
-0.4718840401976195,-0.4718840401976195,0.9998161563709704,0.0002798626893103344
-0.4710949830514437,-0.4710949830514437,0.9999930871859881,0.00027959109411294133
-0.47026758438223626,-0.47026758438223626,1.0000431247026185,0.00030192543947290385
-0.46959176737072994,-0.46959176737072994,1.0002470658759415,0.00028062443355123245
-0.46882656591114935,-0.46882656591114935,0.9996592924233173,0.00029360132478132184
-0.46827373969208563,-0.46827373969208563,0.9997580266905622,0.00032408238059845207
-0.4673743353021564,-0.4673743353021564,1.000199096261068,0.00028025884713959125
-0.4667009739248897,-0.4667009739248897,1.0001774486865571,0.0002798844249758797
-0.46626427547453203,-0.46626427547453203,0.9994773208529912,0.0003042462497814099
-0.4653822799962654,-0.4653822799962654,0.9996945522544933,0.00028189318377037616
-0.46467925245742664,-0.46467925245742664,0.9997874339473143,0.0003228221930243294
-0.4641096495470265,-0.4641096495470265,1.000591806504988,0.00033737054160010643
-0.46351258911963666,-0.46351258911963666,1.0000227371635582,0.0003017630823835967
-0.46291072698659264,-0.46291072698659264,0.9997188225015309,0.0003023641986654051
-0.4616982701321831,-0.4616982701321831,0.9996955762450248,0.0003027134714402703
-0.4610983553415281,-0.4610983553415281,0.9999647326189869,0.0003014672820042882
-0.4601633128884714,-0.4601633128884714,0.9996823438741627,0.00030196342014418586
-0.4593810783371737,-0.4593810783371737,0.9999398076287083,0.00027987711835375994
-0.4585995680856286,-0.4585995680856286,0.9997110494631982,0.00027959832160351676
-0.457796893199702,-0.457796893199702,1.0002903654476534,0.0003018027020289646
-0.45691749633915607,-0.45691749633915607,0.9999964545792377,0.0002801134138321339
-0.4561615224352863,-0.4561615224352863,0.9998722373378982,0.0003230226738017581
-0.4551813934231177,-0.4551813934231177,1.0000234974367763,0.0002805569692172427
-0.4545920041106001,-0.4545920041106001,1.0002044265347607,0.00030196084927707075
-0.4540616034923005,-0.4540616034923005,1.000141403868723,0.00028277642883250774
-0.45319153767341047,-0.45319153767341047,0.9995360092534515,0.00030214268813967137
-0.45264775409305,-0.45264775409305,1.0001490847979337,0.0002831950659231431
-0.45188370355026564,-0.45188370355026564,0.9998148348631076,0.0002803547664226828
-0.45126000200325506,-0.45126000200325506,0.9999434429790444,0.0002796952816994737
-0.4506876854131406,-0.4506876854131406,1.0000492255436442,0.0003222956038570865
-0.44934051057862234,-0.44934051057862234,0.9998188532272575,0.00032378988909347197
-0.44860796704888345,-0.44860796704888345,1.000077961621446,0.00027941088706947995
-0.4474361880187644,-0.4474361880187644,0.9999975740265858,0.00030202964906852743
-0.44648675753633144,-0.44648675753633144,0.9998287316055595,0.00028102374577612253
-0.445728647197393,-0.445728647197393,0.9995807423120103,0.000342457808443327
-0.44479030564179994,-0.44479030564179994,0.9998069999864132,0.0002404909456478276
-0.44419965046836296,-0.44419965046836296,0.999975454446379,0.00032567271274045487
-0.4436296590603888,-0.4436296590603888,0.9998183028654353,0.00030250916783662374
-0.44268651285383387,-0.44268651285383387,1.0000309546245145,0.0003025206270696009
-0.44212249320116825,-0.44212249320116825,0.9999735259102789,0.000302295850300658
-0.4415327223854547,-0.4415327223854547,0.999967962269162,0.00026141554009315903
-0.44098942243581407,-0.44098942243581407,0.9999808298617487,0.0003196808605391892
-0.44039002121498927,-0.44039002121498927,0.999941597582756,0.0003020721029783896
-0.4396227040619124,-0.4396227040619124,1.0001210026475107,0.0002803082553415489
-0.43908993269797064,-0.43908993269797064,1.0000120066403242,0.00027617976094190577
-0.4385201197124843,-0.4385201197124843,0.9997621771532597,0.0003014082063322485
-0.43768846372840925,-0.43768846372840925,0.9997054543871234,0.0003229770660763516
-0.43657354043243685,-0.43657354043243685,1.0000079316102064,0.00030255892658736453
-0.43573663854404004,-0.43573663854404004,1.0001455923738982,0.00030216883786214155
-0.4347336636208638,-0.4347336636208638,0.9997724147623052,0.00030265760212241216
-0.43379537576329313,-0.43379537576329313,1.0000875876023962,0.00030223895889357845
-0.4331274454249069,-0.4331274454249069,0.9998242404870663,0.00032587285649158593
-0.4322426675382303,-0.4322426675382303,0.9996824642805631,0.0002293910203225081
-0.43170390975428746,-0.43170390975428746,0.9996123530488299,0.00031229347848826664
-0.4312327957180969,-0.4312327957180969,0.9998182617470208,0.0003234765272464706
-0.43037799705780344,-0.43037799705780344,1.0002277611447057,0.0002803359583822757
-0.42991872363127187,-0.42991872363127187,0.9996498299997706,0.0002977765857939831
-0.4292081174593477,-0.4292081174593477,1.0002025400346422,0.00030224088283474027
-0.4287470786126505,-0.4287470786126505,1.0002802175665813,0.0003308058306228548
-0.42814408382837427,-0.42814408382837427,0.9999194320763305,0.000301884617106674
-0.42737061316147446,-0.42737061316147446,1.0003254905737713,0.00030238470657843926
-0.42657788628421256,-0.42657788628421256,1.0006770347405616,0.0002982758587790669
-0.42602972207969286,-0.42602972207969286,1.000229978166719,0.0003221950987015585
-0.4254080032835191,-0.4254080032835191,1.0002398655665599,0.0002795327133564123
-0.424365836805373,-0.424365836805373,1.00058480990864,0.0003026103584728445
-0.42363249897243804,-0.42363249897243804,0.9992355259484352,0.0002551915572238705
-0.42281476865609874,-0.42281476865609874,0.9998462357179984,0.00034193613786605043
-0.42202561198573674,-0.42202561198573674,0.9996921227346579,0.00022931840246381762
-0.42122536782044334,-0.42122536782044334,1.0002044379746928,0.0003165300515933259
-0.4206553003532463,-0.4206553003532463,0.9998795293614668,0.00032360964393563787
-0.41974669972260015,-0.41974669972260015,1.0002404553261326,0.0002565098215097296
-0.4191090430074837,-0.4191090430074837,0.9999229015937668,0.0003226768156900351
-0.41866754106085863,-0.41866754106085863,1.0004933828272038,0.00028407786431512114
-0.4178663496459194,-0.4178663496459194,1.0000216758682037,0.00030233941314287705
-0.4173080876644235,-0.4173080876644235,1.0000898470117283,0.00028182491638999646
-0.41656809064152184,-0.41656809064152184,0.9998814255437803,0.00028031955090795766
-0.41598970651757555,-0.41598970651757555,0.9997977121488042,0.0002797801426453237
-0.4155527362359862,-0.4155527362359862,1.0001754701124048,0.0003016175224844084
-0.41435921735028386,-0.41435921735028386,0.9996967663596263,0.0003235096577557298
-0.4136155151987623,-0.4136155151987623,1.0001447213874015,0.00027961900010999285
-0.4126721345797705,-0.4126721345797705,0.9998692721514744,0.0003018023423367481
-0.41179299002251357,-0.41179299002251357,0.999859938731254,0.00029293165047110213
-0.4110026255017146,-0.4110026255017146,0.9998814545300068,0.00027919908272562913
-0.4102442654817423,-0.4102442654817423,1.0006669233607144,0.0003226732895134231
-0.4094688103963563,-0.4094688103963563,1.0001676586190835,0.0002362018453469113
-0.4088504626444774,-0.4088504626444774,1.0001628507602305,0.0003237888429930203
-0.4081837263365742,-0.4081837263365742,0.999901816120899,0.000322872826687228
-0.4072461959418433,-0.4072461959418433,0.9996607210998552,0.0002809188130053615
-0.4067257495044032,-0.4067257495044032,1.0000436765833167,0.0003020928102090281
-0.4062289175337355,-0.4062289175337355,0.9997682803499635,0.00025928741551490924
-0.4054577773924393,-0.4054577773924393,1.0001510725887397,0.00028002514602495335
-0.40486818039426,-0.40486818039426,0.9992940918946118,0.00028001754430158755
-0.4042235223940224,-0.4042235223940224,1.0001082627448388,0.00030245291469621914
-0.4035327603203768,-0.4035327603203768,0.9998910680293962,0.00027982764806680857
-0.40307629148665003,-0.40307629148665003,1.0000407184188145,0.0003016332801750852
-0.4017214318868355,-0.4017214318868355,0.9998548773663039,0.000323683157536477
-0.4009831514347752,-0.4009831514347752,1.0001454164054286,0.00027957365807954797
-0.39982454720884564,-0.39982454720884564,1.0002127571129875,0.00032256479913161603
-0.3988678622976295,-0.3988678622976295,0.9997057422446624,0.0002807707105002635
-0.39799744816627936,-0.39799744816627936,0.9996947682461459,0.00032229433238948127
-0.39756584868155187,-0.39756584868155187,0.9998557244408712,0.0003088260605586178
-0.39692477464413967,-0.39692477464413967,1.0003697288545617,0.000242995783891925
-0.396385977560567,-0.396385977560567,0.9996407181538194,0.000327465237589816
-0.3958092297587427,-0.3958092297587427,0.9999871352333104,0.0003024572991052098
-0.3948630199309264,-0.3948630199309264,0.9998505375367859,0.0003025943257570254
-0.39441775825762304,-0.39441775825762304,0.9997679946361039,0.00028420120294781604
-0.3937839390870067,-0.3937839390870067,1.0002807399525766,0.00028683826943294956
-0.3933557159973134,-0.3933557159973134,1.0000403533224118,0.0003054435661109031
-0.3928172021267528,-0.3928172021267528,0.99975074954544,0.0003019518595600926
-0.39215491430513794,-0.39215491430513794,1.000349461047927,0.00030237850080030667
-0.39139222286976294,-0.39139222286976294,1.000025566866554,0.0002763186752532776
-0.39081198090061664,-0.39081198090061664,0.9995937036437482,0.00027942215420894334
-0.3901467937270354,-0.3901467937270354,1.0003252278512798,0.00032255151582690714
-0.3888011056456889,-0.3888011056456889,1.0000777663742257,0.00030212820109476533
-0.38784102166173395,-0.38784102166173395,1.0002947517232204,0.00030176533727820245
-0.38680073586219804,-0.38680073586219804,1.0002249015560154,0.00028039889702197683
-0.38597642160384565,-0.38597642160384565,0.9996330534742439,0.00030242700493911706
-0.38531098732491953,-0.38531098732491953,0.9996847209079839,0.00032484021389066144
-0.3844108564655471,-0.3844108564655471,1.0001360801474646,0.00022943503103300768
-0.38372981478460133,-0.38372981478460133,1.0001306716856635,0.00032284490148495583
-0.38295581868078443,-0.38295581868078443,1.000077782859088,0.0002809830561448862
-0.38219865949140513,-0.38219865949140513,1.0000160989318811,0.00028149992329795507
-0.3815171010232007,-0.3815171010232007,1.0003868663192588,0.00032271465664401075
-0.3810095157561591,-0.3810095157561591,1.0003916392556005,0.0003218227788109299
-0.3804366034193663,-0.3804366034193663,0.9999904305106625,0.0003223949051553474
-0.37974992177769307,-0.37974992177769307,1.0000726177120307,0.00030243969700116023
-0.3787479217069631,-0.3787479217069631,0.9994517190424508,0.0002972049246389849
-0.3782007821384468,-0.3782007821384468,0.9997951584631688,0.0003016266863753041
-0.3775445880346524,-0.3775445880346524,1.00025441206964,0.0002794938402422318
-0.3765449346225068,-0.3765449346225068,0.9998620781808804,0.0003025246484630837
-0.37580292558268413,-0.37580292558268413,1.0001656993954327,0.0002552157517152876
-0.3750080576603068,-0.3750080576603068,0.9999837282736255,0.0003417735320393397
-0.3740622205652471,-0.3740622205652471,0.9995504593516203,0.0002560783865945515
-0.37330070583266206,-0.37330070583266206,1.0003030771292694,0.00031809618603477485
-0.37283903284042025,-0.37283903284042025,1.0000353066459822,0.0003233032526683801
-0.3719187741437054,-0.3719187741437054,1.000012817917777,0.0002565679425530809
-0.371293416460685,-0.371293416460685,0.9999583841461563,0.0003228947873456997
-0.37080045778784554,-0.37080045778784554,1.0000613998625096,0.0002584393710774497
-0.36986720320928723,-0.36986720320928723,0.9996820665056434,0.00030457022915497114
-0.3694580903771566,-0.3694580903771566,0.9999844862279703,0.0003025287881852746
-0.36873500976726065,-0.36873500976726065,0.999816292457109,0.00028027360850612395
-0.36814003992403743,-0.36814003992403743,0.9998431571529048,0.000289624839331758
-0.36775231300271116,-0.36775231300271116,1.0005113489931023,0.0003018625870832502
-0.3666660928953206,-0.3666660928953206,1.0002065401138691,0.0003428793947151802
-0.3657867139809241,-0.3657867139809241,0.9999513552117503,0.0002796385168805919
-0.36501568932362716,-0.36501568932362716,1.0003292669508042,0.00032543021207044365
-0.3638907428503444,-0.3638907428503444,0.9998985131569796,0.00028036064696057464
-0.36296203783349484,-0.36296203783349484,1.0002347256608632,0.00030352269828356386
-0.3621789131364494,-0.3621789131364494,1.0001114145518364,0.0003092911681822413
-0.3614419262761658,-0.3614419262761658,0.9996070966154523,0.00025610574704647006
-0.3607500754398643,-0.3607500754398643,0.9999410559403273,0.000324045911411423
-0.35995585538694286,-0.35995585538694286,0.99979239332683,0.0003233608898718911
-0.35927570554631527,-0.35927570554631527,0.9999581189273989,0.0002561647299707828
-0.3586542454177106,-0.3586542454177106,1.0000659417142104,0.00030207649661669305
-0.358159518231696,-0.358159518231696,1.0002994473335534,0.0002984619614698347
-0.35749063994953756,-0.35749063994953756,0.9998024437325033,0.0003019123458344676
-0.3568153778651322,-0.3568153778651322,0.9999725060509952,0.0003024413157655094
-0.35600615892981297,-0.35600615892981297,0.9999876702645751,0.0002757570773692915
-0.355480015228386,-0.355480015228386,1.0002274614507811,0.0002793937677185023
-0.35479217183819856,-0.35479217183819856,1.0002534952400108,0.0003225731194401954
-0.3535664180708409,-0.3535664180708409,0.9998926463517692,0.00030295483446779236
-0.35277937988212216,-0.35277937988212216,1.000283963343885,0.0003014806014637
-0.3515764426643727,-0.3515764426643727,0.9998410787587959,0.00030253897216158917
-0.3506386161352566,-0.3506386161352566,1.0003665491595222,0.00027993203437549685
-0.3499653046506864,-0.3499653046506864,0.9994135012130154,0.00034656345216050325
-0.34909557485880216,-0.34909557485880216,0.9999815034102006,0.00022942096332863223
-0.3485828734614188,-0.3485828734614188,0.9997882893294896,0.0003098242844104473
-0.3480696084465308,-0.3480696084465308,0.9998320471467558,0.0003233818903846567
-0.3472784770790895,-0.3472784770790895,0.9999564572221773,0.00028041954050411636
-0.3467708969539672,-0.3467708969539672,0.9997568549408153,0.00028016300813367586
-0.3460538466184516,-0.3460538466184516,1.0000476411537016,0.00030222614310026016
-0.3455939191415382,-0.3455939191415382,0.9998133113671639,0.00032096156671441696
-0.3449914994642313,-0.3449914994642313,0.9998257737623991,0.00030179885845249516
-0.34414507867550126,-0.34414507867550126,0.9996918036544795,0.00030240649644684714
-0.34323848612766594,-0.34323848612766594,0.9992171514757768,0.0002979294662606848
-0.34277662555978167,-0.34277662555978167,0.9996629819273204,0.00030168889931741545
-0.34198612230902653,-0.34198612230902653,0.9998701615207647,0.00030174123902572137
-0.34105886741599534,-0.34105886741599534,0.9995610232007047,0.00028034893435683434
-0.340307867131196,-0.340307867131196,1.0002189136831536,0.0002791428371783797
-0.3394664597486553,-0.3394664597486553,0.9997757684371429,0.00032269487649912946
-0.3386937616596697,-0.3386937616596697,0.999966269263844,0.00025628237781636596
-0.3379904976784019,-0.3379904976784019,0.9999891689920778,0.00031536920702072415
-0.33749459158207173,-0.33749459158207173,0.9996617071839917,0.0003239796258490581
-0.33655660375588925,-0.33655660375588925,1.000221677005431,0.0002563159320674342
-0.33580660696097764,-0.33580660696097764,0.9993905392166816,0.00030182067870552007
-0.33542364679742603,-0.33542364679742603,0.9996307663743039,0.00028277803145892154
-0.3345320941712998,-0.3345320941712998,1.0001417471299023,0.0003036578365961755
-0.3338584117096616,-0.3338584117096616,1.0000232548949717,0.0003230562378411901
-0.33319939438661095,-0.33319939438661095,0.9999510896961983,0.0002560281344211505
-0.33253446035814704,-0.33253446035814704,1.0001229351866674,0.00030161420820438046
-0.3319337038017693,-0.3319337038017693,0.9998251417666275,0.0003023701284961481
-0.33072050339978887,-0.33072050339978887,0.999709042440645,0.00030269781421458095
-0.3301206725715019,-0.3301206725715019,1.0002064885453759,0.0003015347448791982
-0.32910361314425246,-0.32910361314425246,0.9998677558691537,0.00030202054889794534
-0.32826086821369244,-0.32826086821369244,1.0002031132626885,0.00027993043790459546
-0.3272906231453817,-0.3272906231453817,0.99980840869763,0.00032221006317105955
-0.3264467618180788,-0.3264467618180788,0.9999603071436806,0.00025581554311485805
-0.32557847573698384,-0.32557847573698384,1.0004414274973923,0.00030231779069210524
-0.3248289884519181,-0.3248289884519181,1.0000670481347327,0.0003230464735486438
-0.324033423664514,-0.324033423664514,0.9999195509412748,0.00028087940258037826
-0.3234355794571456,-0.3234355794571456,1.0002974469087103,0.0003018340798966459
-0.3229631302805501,-0.3229631302805501,0.9998127919249372,0.00025876299339801245
-0.3220460463213385,-0.3220460463213385,0.9996058804817455,0.00030531359897822567
-0.32154825220859495,-0.32154825220859495,1.0002319815956753,0.0003026409736914409
-0.32076756118694905,-0.32076756118694905,0.9998401004858218,0.0002559221428351574
-0.3201582488283748,-0.3201582488283748,1.000209974760717,0.0003017668326305568
-0.3194378264328407,-0.3194378264328407,0.9996768668207405,0.00032258792698398127
