time,time,flux,flux_err
-0.4999264749152985,-0.4999264749152985,0.9999271848443673,0.00010600552417976428
-0.4998280181618308,-0.4998280181618308,0.9999916912879767,0.00010316365388812876
-0.4996442219296114,-0.4996442219296114,1.0001650737598577,9.665455727851095e-05
-0.4995149231007872,-0.4995149231007872,1.0001787954117818,0.0001022427877974608
-0.49937461896788593,-0.49937461896788593,1.0000002016181546,9.848943359107984e-05
-0.4992413966627737,-0.4992413966627737,1.0000178912118651,9.111935441248598e-05
-0.4991611805146249,-0.4991611805146249,0.9998793516515686,9.452471890164979e-05
-0.4990326661896461,-0.4990326661896461,1.00002139062535,9.144791033066074e-05
-0.4989752088204341,-0.4989752088204341,1.000142558012101,9.554723598819708e-05
-0.49885070580480717,-0.49885070580480717,0.9999710114167876,9.949240990405832e-05
-0.49874616241484093,-0.49874616241484093,1.0000218548623494,9.420635750650903e-05
-0.49862826060239057,-0.49862826060239057,0.999990859142453,9.740055804798294e-05
-0.49852785953546574,-0.49852785953546574,1.0000491939638927,9.320457143578603e-05
-0.49838758346058964,-0.49838758346058964,1.0001619730675197,0.00010003498120828461
-0.49825442430676503,-0.49825442430676503,1.0002485889687305,9.153273742789367e-05
-0.4981384206488883,-0.4981384206488883,0.9997005718981219,9.882410205238899e-05
-0.497981238858938,-0.497981238858938,0.999848110885682,9.242275277095353e-05
-0.49783689990761104,-0.49783689990761104,0.9999559152213294,9.021190464837942e-05
-0.49770827711790844,-0.49770827711790844,1.0000700783834016,9.461737645966541e-05
-0.4975664058783423,-0.4975664058783423,0.9999351784952252,9.165498440383172e-05
-0.4974537248038587,-0.4974537248038587,0.9999592227331335,9.36225320560755e-05
-0.49731446957566733,-0.49731446957566733,0.999945355429378,9.482382098726616e-05
-0.4972234752281793,-0.4972234752281793,1.0000112036069437,9.182186690491294e-05
-0.4971477070244646,-0.4971477070244646,1.0000546613885866,9.401066584180379e-05
-0.49706923092810484,-0.49706923092810484,1.000094697523515,9.335560932354782e-05
-0.49698237409857027,-0.49698237409857027,1.000071443243972,9.379623518584134e-05
-0.496869487533786,-0.496869487533786,1.0001141801883704,9.483509216292671e-05
-0.4967620955640541,-0.4967620955640541,0.999708016149358,9.806625345450784e-05
-0.49664852005412286,-0.49664852005412286,1.0000921646193206,9.368581008065483e-05
-0.496510979674872,-0.496510979674872,0.9999793223638018,9.392393406814866e-05
-0.49640363796825115,-0.49640363796825115,0.999854494190519,9.361926434052531e-05
-0.49631573029157605,-0.49631573029157605,0.9999425747753105,9.758570645890575e-05
-0.4962043988528649,-0.4962043988528649,1.0000275105547636,9.378467805155781e-05
-0.49606327193873767,-0.49606327193873767,0.9999200608137032,9.484055736391135e-05
-0.4959156967439412,-0.4959156967439412,1.0001537629687967,9.87737241455088e-05
-0.4957974579708434,-0.4957974579708434,0.9999096890047919,9.941872805069452e-05
-0.49568901956083666,-0.49568901956083666,1.0000200205796081,9.848526173247832e-05
-0.49555575049612344,-0.49555575049612344,1.000103251612902,9.111337964309351e-05
-0.49547553912591413,-0.49547553912591413,0.9999951930958104,9.450257350595899e-05
-0.4953470372241327,-0.4953470372241327,0.9999787415356727,9.144329757205101e-05
-0.4952895682338294,-0.4952895682338294,0.9999659190675303,9.557902092397038e-05
-0.49516506606403254,-0.49516506606403254,0.9999349833277688,9.947795816177115e-05
-0.495060498955354,-0.495060498955354,0.9998662830254081,9.418594119449155e-05
-0.4949343503002638,-0.4949343503002638,1.0001123453599963,9.86134071174801e-05
-0.4948008869557725,-0.4948008869557725,0.999882144465781,9.710459977383144e-05
-0.49463607532923104,-0.49463607532923104,0.9998631637037192,9.505313425469986e-05
-0.4945608807235658,-0.4945608807235658,0.9998275481160249,9.615257653188068e-05
-0.49440859989831554,-0.49440859989831554,1.0000793037539748,9.510229563010518e-05
-0.49424644458720196,-0.49424644458720196,0.999880420367481,9.259582368248931e-05
-0.4941084710332916,-0.4941084710332916,1.0001884445286362,9.147164314603183e-05
-0.49393668211303066,-0.49393668211303066,0.9999526868480828,9.312896379472854e-05
-0.4938090195811583,-0.4938090195811583,1.0001567182000075,9.287526600743385e-05
-0.4936926314681614,-0.4936926314681614,1.0000605237148608,9.323018289580688e-05
-0.49358624881158447,-0.49358624881158447,1.0000890744540953,9.306719505351915e-05
-0.4935153875148899,-0.4935153875148899,1.000167382819214,9.404348114494043e-05
-0.49342444586534384,-0.49342444586534384,1.0000386905481378,9.272673477053153e-05
-0.4933542784114479,-0.4933542784114479,0.9999841539260345,9.640130834665287e-05
-0.4932672794966493,-0.4932672794966493,0.9999555637741832,9.087462651861413e-05
-0.49316962645241347,-0.49316962645241347,0.9999917065872935,9.856627746915741e-05
-0.4930501292941244,-0.4930501292941244,0.999990416742141,9.527256392545029e-05
-0.49293682431020897,-0.49293682431020897,0.9999740693506725,9.243419748727419e-05
-0.4928023653524406,-0.4928023653524406,1.0001064387717686,9.407424789318934e-05
-0.49269471184245506,-0.49269471184245506,1.0000900107903883,9.282119704550327e-05
-0.4926032388286103,-0.4926032388286103,1.0001406855371509,9.916824454488579e-05
-0.4924773828720845,-0.4924773828720845,1.0001171273733462,9.354421448636917e-05
-0.4923398961390831,-0.4923398961390831,0.999917741980585,9.480882086951073e-05
-0.492203933973974,-0.492203933973974,1.0000429877144619,9.979499442226797e-05
-0.49205521920441697,-0.49205521920441697,1.0000763274764832,9.828429320349554e-05
-0.49191126064417856,-0.49191126064417856,0.9999389866237601,9.682243679338066e-05
-0.4918236573828608,-0.4918236573828608,1.0000171295546116,9.454119629180626e-05
-0.49173862204452234,-0.49173862204452234,1.000051915881356,9.303734729956042e-05
-0.49164156102340256,-0.49164156102340256,1.0000551555580894,9.011708845987754e-05
-0.4915877207316953,-0.4915877207316953,0.9999956799186809,9.94926341716515e-05
-0.49145829333729124,-0.49145829333729124,1.0001847042652154,9.652345463913959e-05
-0.491345765929691,-0.491345765929691,0.9999268450544954,9.313973320704958e-05
-0.49122463356950447,-0.49122463356950447,1.0001131111400892,9.877289142162825e-05
-0.49108705405230924,-0.49108705405230924,1.000005579951638,9.629497205173755e-05
-0.49091532133845706,-0.49091532133845706,0.9999874684133994,9.560202244787927e-05
-0.49084750873269056,-0.49084750873269056,1.0001521524333505,0.0001002090113279438
-0.49064604286008945,-0.49064604286008945,1.000082597397818,9.194447223213351e-05
-0.4905259137093253,-0.4905259137093253,0.9999528730865913,9.101908713109347e-05
-0.49042279642933406,-0.49042279642933406,0.9998498946380794,9.145202284331734e-05
-0.4902510274116594,-0.4902510274116594,1.0000198649692646,9.312660535757403e-05
-0.49008830236850826,-0.49008830236850826,1.0000903101419425,9.273934571807198e-05
-0.4899628683543142,-0.4899628683543142,1.0000211507928363,9.27138112300763e-05
-0.48985510890502154,-0.48985510890502154,1.000068153331635,9.388167704097515e-05
-0.48975591890193754,-0.48975591890193754,0.9999394122838176,9.271135158412626e-05
-0.4896815884464559,-0.4896815884464559,1.0000111391604072,9.520157270766017e-05
-0.48960060638275993,-0.48960060638275993,1.0000012853670284,9.352074940806437e-05
-0.48951565810646114,-0.48951565810646114,0.9999989143554016,9.52579253423067e-05
-0.4894206079591868,-0.4894206079591868,0.9998519347549953,9.858084813506745e-05
-0.48933876944597615,-0.48933876944597615,0.9998481625008007,9.36196180999436e-05
-0.48926936009752353,-0.48926936009752353,1.0000544402091738,9.17726573257231e-05
-0.48913974177662567,-0.48913974177662567,1.0000991461589952,9.393817242936006e-05
-0.4890324010855466,-0.4890324010855466,1.0001148156309916,9.36232372763407e-05
-0.48894443311348823,-0.48894443311348823,0.999856897950376,9.758532948424533e-05
-0.4888102478332712,-0.4888102478332712,0.9999048034343664,9.451150531387552e-05
-0.48865427947075657,-0.48865427947075657,0.9999548439504133,9.482756568770513e-05
-0.4885183539613308,-0.4885183539613308,1.0000099852310156,9.978754093509703e-05
-0.4883696152685843,-0.4883696152685843,0.9999831851917778,9.820004189360436e-05
-0.4882256234222268,-0.4882256234222268,1.000043558792549,9.683296654368651e-05
-0.4881380567037013,-0.4881380567037013,0.9999515859177096,9.450545053055995e-05
-0.48805160280460314,-0.48805160280460314,0.9999521180791195,9.290724225398938e-05
-0.4879454979297179,-0.4879454979297179,1.0000727854607459,9.112499515770836e-05
-0.4878736555951946,-0.4878736555951946,0.9997976990413495,0.0001012161250507367
-0.48775726045657847,-0.48775726045657847,1.000048559943135,9.435507836131121e-05
-0.48763553203759785,-0.48763553203759785,0.9999572363138324,9.318423328909126e-05
-0.48751434935952603,-0.48751434935952603,1.000162461702424,9.966464920724127e-05
-0.487388285552197,-0.487388285552197,0.9998978649499632,9.485449857841836e-05
-0.487229701473143,-0.487229701473143,1.0001289299904301,9.559861161694252e-05
-0.4871618866109202,-0.4871618866109202,0.9997820016417162,0.00010020273177093078
-0.4869604212513877,-0.4869604212513877,1.0000770652893545,9.195068676648519e-05
-0.48681433980470956,-0.48681433980470956,1.0000603803584558,9.123088138728013e-05
-0.4867082350000146,-0.4867082350000146,0.9999049433920986,9.193010962283827e-05
-0.4865257789632551,-0.4865257789632551,1.0000471349089897,9.245216984934081e-05
-0.48636985026437285,-0.48636985026437285,1.000009226951701,9.261684625071701e-05
-0.486257637591757,-0.486257637591757,0.9999992691599445,9.481917341082063e-05
-0.48614733065205656,-0.48614733065205656,1.0001911324587565,9.263722728519987e-05
-0.4860531778622317,-0.4860531778622317,0.9999241379358293,9.274140213275034e-05
-0.4859831239870573,-0.4859831239870573,0.9998983017054099,9.640186559702121e-05
-0.4858979550099093,-0.4858979550099093,1.0001032836943384,9.263178135698007e-05
-0.4858126207156374,-0.4858126207156374,0.9999443504851631,9.481248106710206e-05
-0.4857276599637544,-0.4857276599637544,0.999769548913024,9.732061158543595e-05
-0.48563972165013636,-0.48563972165013636,1.0000413594074986,9.385430313496305e-05
-0.48554049201234195,-0.48554049201234195,0.9999972873216846,9.178717835230602e-05
-0.48541537064745627,-0.48541537064745627,0.9999479519250449,9.515380543394267e-05
-0.4853234652832725,-0.4853234652832725,0.9999684332576646,9.28201958766659e-05
-0.4852319660643616,-0.4852319660643616,0.9997303204644142,9.914416706937954e-05
-0.4851032184227961,-0.4851032184227961,0.999844963807296,9.48325534164835e-05
-0.48494211501540574,-0.48494211501540574,1.0001253269031234,9.352879621210501e-05
-0.48483277395816915,-0.48483277395816915,0.9998741606607353,9.979241090889125e-05
-0.48468401132970484,-0.48468401132970484,0.9999272591409764,9.81391535778497e-05
-0.48453998621564554,-0.48453998621564554,1.0000076872350285,9.682531322642571e-05
-0.48445245602015347,-0.48445245602015347,1.0000879499335473,9.447272179537762e-05
-0.4843659515115405,-0.4843659515115405,1.0000436193648528,9.29407895035109e-05
-0.4842598320579327,-0.4842598320579327,0.9999098752892219,9.109873961860416e-05
-0.4841880337941348,-0.4841880337941348,0.9997020205055451,0.00010121868974637745
-0.48407160978401864,-0.48407160978401864,0.9999379702694334,9.435922760662492e-05
-0.4839362163407486,-0.4839362163407486,0.9998044168055762,9.774893623792168e-05
-0.48381653531166646,-0.48381653531166646,1.0000908466879632,9.511631323862867e-05
-0.4837062886497961,-0.4837062886497961,0.9997948221393591,9.495906197130077e-05
-0.48357264462360944,-0.48357264462360944,1.0000632024416778,9.567821038756158e-05
-0.4834957923118054,-0.4834957923118054,1.0001162109511212,9.552987294021688e-05
-0.4833096293495373,-0.4833096293495373,0.9999709226058056,9.506469268708544e-05
-0.48315797731315796,-0.48315797731315796,1.000075091104748,9.266112078483729e-05
-0.4830514472215327,-0.4830514472215327,0.9999483439588597,9.145359866724834e-05
-0.4828649200495647,-0.4828649200495647,0.9999792911708736,9.213996766078319e-05
-0.48267963240546125,-0.48267963240546125,0.9999394003882112,9.338445523755687e-05
-0.48254600903319445,-0.48254600903319445,0.9999967180524673,9.39041432070436e-05
-0.4824480227692902,-0.4824480227692902,0.9999706566731635,9.359683510622095e-05
-0.48235054336030314,-0.48235054336030314,0.9999895613959471,9.27669495181023e-05
-0.4822841808932708,-0.4822841808932708,0.9999742877010919,9.620069103007494e-05
-0.4822039381268951,-0.4822039381268951,1.0001316934353313,9.280664534150278e-05
-0.4821128334052446,-0.4821128334052446,0.9998297594018786,9.854358415760237e-05
-0.48201930745642585,-0.48201930745642585,0.9999610000171717,9.342626274499973e-05
-0.48193729871270535,-0.48193729871270535,0.9999675305969484,9.29086877527243e-05
-0.4818251437113531,-0.4818251437113531,1.0000251025282354,9.390997176304766e-05
-0.481728003836497,-0.481728003836497,1.0000261003186761,9.430770307958777e-05
-0.481637842020632,-0.481637842020632,0.9998815841951474,9.281981287298483e-05
-0.4815463296901953,-0.4815463296901953,1.0001296163191509,9.916744571486751e-05
-0.48141762352047407,-0.48141762352047407,1.0002045266981063,9.483507086128996e-05
-0.48125647972831304,-0.48125647972831304,0.9998686361760661,9.351000838853926e-05
-0.4811471939569628,-0.4811471939569628,0.9998484638431002,9.977791581305816e-05
-0.4809984073877104,-0.4809984073877104,1.0001196115826476,9.8092033607167e-05
-0.4808543490217062,-0.4808543490217062,1.0001227442480194,9.682758035913346e-05
-0.4807668553463145,-0.4807668553463145,0.9999013646238335,9.440160648382726e-05
-0.4806803002176821,-0.4806803002176821,0.9999820887272854,9.291935425507023e-05
-0.4805698551802834,-0.4805698551802834,0.9999231242060308,9.296257773007104e-05
-0.4804753834652729,-0.4804753834652729,0.9998497484925991,9.952062482112467e-05
-0.4803859591210994,-0.4803859591210994,0.9999406636309219,9.434307574497095e-05
-0.480250593732535,-0.480250593732535,1.0001133967896207,9.778121749014592e-05
-0.48011122465884454,-0.48011122465884454,0.9998155117642835,9.516204880563969e-05
-0.47999529854257617,-0.47999529854257617,1.0000681201882222,9.936965228396065e-05
-0.4798332791089706,-0.4798332791089706,0.9999958971509461,9.071999530479321e-05
-0.4797530878532825,-0.4797530878532825,1.0002284271618564,0.0001003376779433422
-0.4795716681877821,-0.4795716681877821,1.0000034782148242,9.199529818860056e-05
-0.4794430559680677,-0.4794430559680677,1.0000622800771897,9.122161890037904e-05
-0.4793369444095106,-0.4793369444095106,1.000086784776872,9.193168374881042e-05
-0.4791458720871333,-0.4791458720871333,1.0000127949094209,9.343764792970789e-05
-0.4789643101981483,-0.4789643101981483,1.000039852265712,9.225437910150674e-05
-0.4788363608995724,-0.4788363608995724,0.9999535445602614,9.474155135932573e-05
-0.4787420804413841,-0.4787420804413841,1.0000900309572271,9.363214172851475e-05
-0.47864117829049063,-0.47864117829049063,0.9998745917072412,9.334543946194277e-05
-0.47856222766624795,-0.47856222766624795,1.0000416125670397,9.554436583633428e-05
-0.4784534757377287,-0.4784534757377287,1.0000788216863379,9.278432354814732e-05
-0.4783744414284456,-0.4783744414284456,0.9997271467948444,9.765081876307786e-05
-0.4782818476602415,-0.4782818476602415,1.0000082379489028,9.362503151195541e-05
-0.47819424906749647,-0.47819424906749647,1.0000152268185951,9.242220594443213e-05
-0.47806199595968335,-0.47806199595968335,1.0002101264505732,9.463561225979273e-05
-0.4779755457906276,-0.4779755457906276,1.00002349115127,9.36104080356186e-05
-0.477887487423709,-0.477887487423709,0.999865343762983,9.758760276284151e-05
-0.47776422733275015,-0.47776422733275015,0.9999367290970603,9.475579843451361e-05
-0.47763670828078375,-0.47763670828078375,1.000063960692728,9.490839585802875e-05
-0.4775007765861801,-0.4775007765861801,1.000116351728503,9.476684001466868e-05
-0.4773697862971858,-0.4773697862971858,1.0000009007762054,0.00010250046320346244
-0.47723047614604186,-0.47723047614604186,1.0000448698860107,9.771138786780833e-05
-0.477123808293868,-0.477123808293868,0.9999796711158717,9.124024820637124e-05
-0.4770492788072033,-0.4770492788072033,1.0001219678620583,9.423827003958835e-05
-0.4769337437823424,-0.4769337437823424,1.0001261650617284,9.286689793689207e-05
-0.4768452340384329,-0.4768452340384329,0.9999736759718015,9.959529799588772e-05
-0.4767335671339197,-0.4767335671339197,0.999863121496422,9.483420046233065e-05
-0.47662182843037043,-0.47662182843037043,1.0000955766134392,9.475218693758217e-05
-0.4764821917427525,-0.4764821917427525,1.0000302514071773,9.875443567337126e-05
-0.4763565822984674,-0.4763565822984674,1.00009161627185,9.651825066118582e-05
-0.4762014074691024,-0.4762014074691024,0.999826327152868,9.56784481650867e-05
-0.4761245134414594,-0.4761245134414594,0.999954422678665,9.554131730880519e-05
-0.4759587615606506,-0.4759587615606506,0.99999950722648,9.50803037028676e-05
-0.4758183846610791,-0.4758183846610791,0.9998825912584044,9.259361871026244e-05
-0.475698358443401,-0.475698358443401,1.0000837704264982,9.069914857028343e-05
-0.47554171865285755,-0.47554171865285755,0.9999887172500035,9.291988099165122e-05
-0.4753825170308801,-0.4753825170308801,1.000047630463815,9.278266031414916e-05
-0.4752203178129776,-0.4752203178129776,1.0002680160228876,9.271149082219045e-05
-0.47511255662013807,-0.47511255662013807,0.9998817941873772,9.397622345307e-05
-0.4750055220358945,-0.4750055220358945,0.9999309659176909,9.345238112784705e-05
-0.47492639242873336,-0.47492639242873336,1.000010647600264,9.640607610207885e-05
-0.4748183361149131,-0.4748183361149131,0.99994807729624,9.275227901509366e-05
-0.4747239704637195,-0.4747239704637195,0.9998483384173973,9.583295836127216e-05
-0.4746256181789704,-0.4746256181789704,1.0000095760742211,9.418219929871012e-05
-0.47454954544059547,-0.47454954544059547,0.9999672347747299,9.296503960884767e-05
-0.4744239545539813,-0.4744239545539813,0.9999633842859318,9.392084687979559e-05
-0.47433393418109515,-0.47433393418109515,1.0000190715051034,9.313124185077056e-05
-0.4742385241134116,-0.4742385241134116,1.000094666207013,9.436929384070946e-05
-0.47415123875125575,-0.47415123875125575,0.9999392629277211,9.928096379375017e-05
-0.4740420998859918,-0.4740420998859918,0.999993624924382,9.510554116122162e-05
-0.4738852091811395,-0.4738852091811395,1.0000539374669652,9.350718934137823e-05
-0.47377603396992074,-0.47377603396992074,1.0001862491644646,9.9798382346458e-05
-0.4736271994961953,-0.4736271994961953,1.000360065908925,9.803977279953594e-05
-0.47348307466747885,-0.47348307466747885,1.000132170230354,9.682724281851524e-05
-0.473395654025353,-0.473395654025353,1.0000273764672418,9.434516716825671e-05
-0.4733089578633553,-0.4733089578633553,1.0002963875091566,9.293448393149851e-05
-0.4731844052293809,-0.4731844052293809,1.0000366613437595,9.48985041698669e-05
-0.47307223173284,-0.47307223173284,0.999841636621967,9.756222684558314e-05
-0.4729512353201926,-0.4729512353201926,1.0000548597862378,9.415759705757749e-05
-0.47282064629230264,-0.47282064629230264,0.9999875719798046,9.858958494521897e-05
-0.4726738433054834,-0.4726738433054834,1.0001517519934855,9.570919753047874e-05
-0.4725501189603392,-0.4725501189603392,0.9999136707467164,9.761295905268431e-05
-0.47245485916428154,-0.47245485916428154,1.000100901629461,9.153611588341435e-05
-0.47238949355562454,-0.47238949355562454,1.0000868927299074,0.00010036337348462234
-0.4722179348941154,-0.4722179348941154,1.0001916182027808,9.19492833916478e-05
-0.47205844442337364,-0.47205844442337364,0.9999733224214861,9.08473092548406e-05
-0.47189213790315987,-0.47189213790315987,1.0001665840122138,9.359609049441287e-05
-0.4717042563430368,-0.4717042563430368,1.0000035904457185,9.340634256895444e-05
-0.47153468020899253,-0.47153468020899253,1.0000128027770698,9.269979263681126e-05
-0.4714309616100536,-0.4714309616100536,0.9999040972370764,9.287304404391519e-05
-0.47135069772189125,-0.47135069772189125,0.9999082131295159,9.388151876903685e-05
