time,time,flux,flux_err
-0.4996288741094759,-0.4996288741094759,1.0000139699743529,0.00014372045909725607
-0.49926744827462244,-0.49926744827462244,0.9999495819988029,0.0001461277632573744
-0.4987917682689537,-0.4987917682689537,0.9998970208601049,0.00014131930962789325
-0.4979393053043168,-0.4979393053043168,0.9999534498124245,0.00012993131989363669
-0.4972347247094149,-0.4972347247094149,1.000215987497248,0.00013555501326682634
-0.49661657396936787,-0.49661657396936787,1.0002055965839582,0.0001300856717570185
-0.4962649822002277,-0.4962649822002277,1.0000226283867086,0.000128111115870449
-0.4957863732022815,-0.4957863732022815,0.9998130023996674,0.0001323927841225937
-0.4953603579910123,-0.4953603579910123,0.9997637914163509,0.0001286322697233822
-0.4948740230232943,-0.4948740230232943,1.0002549161861807,0.00012788640500933275
-0.4942999065271579,-0.4942999065271579,1.000246817113276,0.00012745006907747639
-0.4936535426604678,-0.4936535426604678,0.9999833528487384,0.00013245274583747246
-0.4933612258580979,-0.4933612258580979,0.9998416944596464,0.00014182271526445956
-0.4930417846393539,-0.4930417846393539,0.9999755134767669,0.00012984532508329247
-0.49262617009517273,-0.49262617009517273,0.999985298640478,0.00013267080226768066
-0.49234451674856244,-0.49234451674856244,0.999938713491965,0.00013231748012616968
-0.49189797755534526,-0.49189797755534526,1.0001945211738839,0.00012982122322258456
-0.49134918111230946,-0.49134918111230946,0.9999019112699138,0.0001322863920863149
-0.49044453213282396,-0.49044453213282396,0.99997149741369,0.00013231931760086238
-0.49002500365313606,-0.49002500365313606,1.00019374321592,0.00012993112823332217
-0.48966782594070535,-0.48966782594070535,1.0002029784105555,0.0001298797717167741
-0.4890017568191979,-0.4890017568191979,0.9998881530401252,0.00012733372913741224
-0.48788379477337,-0.48788379477337,1.0000448010066234,0.00013246465174673655
-0.48710474258696196,-0.48710474258696196,0.9999821846773044,0.00012992940434898578
-0.48651008879533036,-0.48651008879533036,1.0000730938839812,0.00013476891518760726
-0.4862187927690684,-0.4862187927690684,0.9999991539955826,0.00012732945523336397
-0.4859554572234629,-0.4859554572234629,1.0000563195208714,0.0001252527130526421
-0.4855814896436641,-0.4855814896436641,1.0001165869462265,0.00013277954408232588
-0.48499219307559543,-0.48499219307559543,0.9999277547713227,0.00012992410224191753
-0.48422400316776476,-0.48422400316776476,1.0001782441582159,0.00013042245561055264
-0.4839226517593488,-0.4839226517593488,0.9999609310625445,0.00012986616136625341
-0.4835904781153658,-0.4835904781153658,0.9998706615651415,0.00012735252726428834
-0.48334114497847624,-0.48334114497847624,0.9998935817405847,0.00012986052246343466
-0.4827414724801201,-0.4827414724801201,1.0000680878498343,0.00012732447388591397
-0.4822687936539296,-0.4822687936539296,0.9997904903690328,0.00012735860123052112
-0.4815986982561299,-0.4815986982561299,0.999827264499304,0.00013475974534205202
-0.48097157365991733,-0.48097157365991733,0.9999756622890648,0.0001273954571429523
-0.48059360753395597,-0.48059360753395597,1.0000358394280007,0.00012994596316840803
-0.48025610472104746,-0.48025610472104746,0.9998485645561775,0.00013366231578941485
-0.4797050253371708,-0.4797050253371708,0.9999075893533004,0.000128632555615586
-0.47896266873867716,-0.47896266873867716,0.9999076802421054,0.00012993480607894058
-0.4779863916686736,-0.4779863916686736,0.9998468448410002,0.0001298718144439547
-0.47754548200318825,-0.47754548200318825,1.000028524618614,0.0001323355650265378
-0.47707966669258894,-0.47707966669258894,0.9998633367662185,0.00012979008062512755
-0.476878807801404,-0.476878807801404,1.0000807552293294,0.0001301345561860505
-0.47623087487882004,-0.47623087487882004,0.9999882666041959,0.00013004259823942553
-0.47562203945126386,-0.47562203945126386,0.9998987635926084,0.0001299173688437831
-0.4749711616837885,-0.4749711616837885,1.0000094220493405,0.00012997983304227704
-0.47465707067458424,-0.47465707067458424,0.999995257796986,0.0001373548520199136
-0.4743580726644723,-0.4743580726644723,1.000233481328214,0.00012732562777504095
-0.47364475023787234,-0.47364475023787234,1.0000240410239598,0.00013234343331114425
-0.47278048813022905,-0.47278048813022905,0.9999648393184088,0.00013237017342488346
-0.47217374007886975,-0.47217374007886975,0.9999477316368799,0.00012749575182986368
-0.4717275504837744,-0.4717275504837744,1.0000397134644126,0.0001282318237198384
-0.4712658591422951,-0.4712658591422951,1.0000597546507453,0.0001324119321327952
-0.47075945734541164,-0.47075945734541164,1.0000918326423363,0.00012865497042233577
-0.47027105314627987,-0.47027105314627987,0.9999155575079787,0.00012790437027656925
-0.46984910240134925,-0.46984910240134925,1.0000922233351615,0.00012735182254944608
-0.4691930086919456,-0.4691930086919456,0.9999868939131649,0.00013244816931078503
-0.46884054866677616,-0.46884054866677616,0.9999921622789177,0.0001306084023016445
-0.4685461950779427,-0.4685461950779427,1.0001465425517728,0.0001438111974615338
-0.4681826458167052,-0.4681826458167052,0.9999915686222017,0.00013230186697018952
-0.46784810802782884,-0.46784810802782884,1.0000659371094058,0.00013006877294359398
-0.4676110518543283,-0.4676110518543283,0.9998711835175887,0.0001298258835720668
-0.4670759914370137,-0.4670759914370137,1.0000605357883452,0.00012995139693037022
-0.46659325580258154,-0.46659325580258154,1.0000089539146002,0.0001323819768575261
-0.46583362314995613,-0.46583362314995613,1.000084525568265,0.00012993197290801745
-0.46544311497855234,-0.46544311497855234,1.0002197242663144,0.0001298775861935828
-0.4650760221411474,-0.4650760221411474,0.9998180041659144,0.00013229193788989488
-0.46451100791455247,-0.46451100791455247,0.9999418654759147,0.00012735749705031376
-0.46370324785530104,-0.46370324785530104,1.0000838039296376,0.0001299546399710655
-0.4625926060543861,-0.4625926060543861,1.0000425301554485,0.00013007774902447846
-0.46217398704320656,-0.46217398704320656,0.9999003404479628,0.00013230957711122643
-0.46162944633688313,-0.46162944633688313,0.9998589156417976,0.0001298754425174164
-0.46141789795656224,-0.46141789795656224,1.0001568282969555,0.00012470218058306784
-0.4610778176778695,-0.4610778176778695,1.000069038230272,0.00012782407077663657
-0.4604242880799575,-0.4604242880799575,0.9999978802111078,0.0001298862414188682
-0.4596431947182282,-0.4596431947182282,0.9999332021280424,0.00012979507611987637
-0.45930994367809036,-0.45930994367809036,0.9999048308415885,0.00013065076961686796
-0.4589487277509761,-0.4589487277509761,1.0000189081126423,0.00012731960192996088
-0.4587219071821892,-0.4587219071821892,1.000131773061826,0.0001273970807193746
-0.458166547914152,-0.458166547914152,0.9999506009481129,0.00012983268203665664
-0.45757103208306943,-0.45757103208306943,1.0000642122287275,0.00012987463272237873
-0.45659431637614034,-0.45659431637614034,1.0000312556349402,0.00013240352809423171
-0.45614551803737413,-0.45614551803737413,0.9997703171958371,0.00013256938384541053
-0.4557112703012535,-0.4557112703012535,1.0000349509682958,0.00013268171651886128
-0.455188402227941,-0.455188402227941,0.9999375662078739,0.00012611339386012533
-0.4546247904057964,-0.4546247904057964,0.9999778530978471,0.00012738721318076562
-0.4537251911839121,-0.4537251911839121,0.9999753110408477,0.00013241562021952766
-0.4531770079061971,-0.4531770079061971,0.9999644177621587,0.00012987958515588122
-0.4527997029290418,-0.4527997029290418,1.0000547045665085,0.00012805261268390684
-0.452456765473471,-0.452456765473471,0.9999132417840892,0.00013228422932022262
-0.4522138933651149,-0.4522138933651149,1.000117086979182,0.00012728664108616785
-0.4515415434318129,-0.4515415434318129,0.9999963487203706,0.00013016944089326674
-0.45092430207587314,-0.45092430207587314,1.0001572885944507,0.0001299211003843289
-0.4502780425362289,-0.4502780425362289,1.0001712704927632,0.00013003416858082693
-0.4499726434587501,-0.4499726434587501,0.9999858033208394,0.00013728386508024358
-0.44966028100461697,-0.44966028100461697,1.0002097983446987,0.0001273200712714671
-0.4489985594744212,-0.4489985594744212,0.9999667749456392,0.00013228333523605739
-0.4483581529770163,-0.4483581529770163,1.0001651163327043,0.00012743648762855999
-0.4476916545332642,-0.4476916545332642,1.0000945476785312,0.000129936053503391
-0.447169644877431,-0.447169644877431,0.999841304683657,0.0001309134850226749
-0.4467928539525019,-0.4467928539525019,0.9999497088389333,0.0001273781853329894
-0.4462427775273682,-0.4462427775273682,1.0000567933524593,0.00013365350227344085
-0.44573195838020185,-0.44573195838020185,0.9999522485928637,0.00012981372124426304
-0.4451485840298119,-0.4451485840298119,0.9998740055356181,0.00012530459073683832
-0.44447526912990726,-0.44447526912990726,1.000015665393489,0.00013248368840718534
-0.44410412657889536,-0.44410412657889536,0.9999941388131284,0.00013066647922596998
-0.4437860450620065,-0.4437860450620065,0.9999482844944001,0.00014789439883164165
-0.4434023783323937,-0.4434023783323937,1.000169868715035,0.00013233025892040554
-0.44310515715915244,-0.44310515715915244,0.9999409847010732,0.00013005153377705913
-0.44280286892317233,-0.44280286892317233,0.9998597999540818,0.00012979049066819581
-0.4421570319755119,-0.4421570319755119,1.0000916175969476,0.00013231456759456517
-0.441403092208202,-0.441403092208202,1.000089263617986,0.00012745260681051125
-0.4408571975582163,-0.4408571975582163,0.9998355390592298,0.0001298356602098411
-0.4406158857527771,-0.4406158857527771,1.0000687426767811,0.000131130507181911
-0.44016454154334494,-0.44016454154334494,1.0000902093973418,0.00012994687312416951
-0.4394549303498934,-0.4394549303498934,0.9997955290484286,0.00012731334985789566
-0.4386455481086159,-0.4386455481086159,1.0001433574617784,0.00013388965872152496
-0.43784930358378915,-0.43784930358378915,0.9999315029969489,0.00012758390866531187
-0.437359676748747,-0.437359676748747,1.00001377962931,0.00013229042686479817
-0.43684760487522,-0.43684760487522,0.999870413203878,0.00012733577758530188
-0.43654011098842604,-0.43654011098842604,0.9999681194751174,0.00012529600425324663
-0.4361556072282838,-0.4361556072282838,1.0001466247547104,0.00012988846999840222
-0.4354145455814432,-0.4354145455814432,1.0000695586156747,0.00013125254999583788
-0.4348522271451657,-0.4348522271451657,0.9999113265701169,0.0001306617008815612
-0.4344762924622046,-0.4344762924622046,1.0001440902128143,0.00012985522316308256
-0.4341290779702831,-0.4341290779702831,0.9997867180727524,0.00012988176178915187
-0.43386177854263225,-0.43386177854263225,1.000096577405873,0.0001273251222205683
-0.43321603807416975,-0.43321603807416975,1.0000174883494126,0.00012729817498862185
-0.43259676715970274,-0.43259676715970274,1.0001438119434107,0.0001323867126265618
-0.4317662078698049,-0.4317662078698049,1.0000337988082444,0.0001299751995579439
-0.4314596415308188,-0.4314596415308188,1.0000630636254448,0.00013280554002512659
-0.4309401359219919,-0.4309401359219919,1.0000006666314856,0.00013243144592465258
-0.43027426521584855,-0.43027426521584855,0.9999308404964603,0.00013329355209809357
-0.4294662763015367,-0.4294662763015367,1.0000579149385254,0.0001299285122702728
-0.42864745733968446,-0.42864745733968446,0.9999472787152254,0.00012739081789412608
-0.4282579319857177,-0.4282579319857177,1.0001648346260246,0.00013234155116769605
-0.4278300455509452,-0.4278300455509452,1.0000459763317875,0.00013052099912556255
-0.4275731583518791,-0.4275731583518791,1.0001719223035195,0.00012983607631472793
-0.4271397240983788,-0.4271397240983788,0.9999665198613898,0.00012984237162356338
-0.42680896725360074,-0.42680896725360074,1.000122591165681,0.0001303089708472524
-0.4260176255978877,-0.4260176255978877,0.9998483035852394,0.00012737756613459168
-0.42555259188375205,-0.42555259188375205,0.9999787858947539,0.00012991762567616407
-0.42528822309977843,-0.42528822309977843,0.9998009774515804,0.0001371710688083257
-0.42498283412423915,-0.42498283412423915,0.9999737558967976,0.000127353862385665
-0.4244726712422562,-0.4244726712422562,1.0000937713701528,0.00013230372307066138
-0.4237008346084622,-0.4237008346084622,0.999864567842556,0.0001273827777586014
-0.4228889333753614,-0.4228889333753614,0.9999638250406679,0.00012997902704586333
-0.4224072873839759,-0.4224072873839759,1.0001030228792132,0.00013101126335801188
-0.42200292749039364,-0.42200292749039364,0.9999711743125473,0.00012991536770256897
-0.42147438651882113,-0.42147438651882113,0.9999521200562654,0.00013119430378106568
-0.42104528087365906,-0.42104528087365906,0.9998242544653195,0.00012979459587134497
-0.4203750287735602,-0.4203750287735602,0.9998462751062209,0.00012788686316456352
-0.41970654478354846,-0.41970654478354846,0.9999619090294225,0.00013239365892628877
-0.4193027244196855,-0.4193027244196855,0.9999508350499514,0.00014749770475948172
-0.418897090718383,-0.418897090718383,1.0000433939566942,0.00013231030179540186
-0.4184999779507052,-0.4184999779507052,0.9997980367785445,0.0001324501359935851
-0.41823603229859146,-0.41823603229859146,1.0000959537197165,0.00012982177803709386
-0.4176060652171145,-0.4176060652171145,0.9999574129664979,0.00012730435072318513
-0.41691812520293753,-0.41691812520293753,0.9999487506466858,0.0001299284844641636
-0.4162577565235551,-0.4162577565235551,0.9999702585102167,0.00012989860783638608
-0.41596012705558677,-0.41596012705558677,1.0001685525820374,0.0001287058225395878
-0.41569646165153246,-0.41569646165153246,1.0000285759093335,0.0001322967189583507
-0.41491315129387657,-0.41491315129387657,0.9996955895078206,0.00012732898556212904
-0.4141016519686673,-0.4141016519686673,0.9999246516935048,0.0001315161814319319
-0.41304593213571933,-0.41304593213571933,0.9999151144278381,0.00012762031709489895
-0.41237914087832905,-0.41237914087832905,0.999994233994579,0.00013475796346019324
-0.4119762659189291,-0.4119762659189291,1.0000704422424358,0.0001247968789335525
-0.4114320962529746,-0.4114320962529746,1.0001717639410501,0.00013035936305168187
-0.4105579673079774,-0.4105579673079774,0.9999941253219735,0.00013393708059191226
-0.4101252229869715,-0.4101252229869715,1.0001620019944513,0.00013078452384117804
-0.4097015512204962,-0.4097015512204962,0.9998486581177699,0.00012982839884159578
-0.40937479668209564,-0.40937479668209564,1.000084554769113,0.00012735558754232943
-0.4092540897501749,-0.4092540897501749,0.9998747659961781,0.0001293206985910031
-0.4088696193677606,-0.4088696193677606,1.0000895428390608,0.00012989965848678463
-0.4083222771791043,-0.4083222771791043,0.9999737357303831,0.00012725025023033412
-0.40772367502067935,-0.40772367502067935,1.0001774828889964,0.00013242021968076057
-0.40698638172179924,-0.40698638172179924,1.0002147186128796,0.0001306803462379977
-0.4067053161270451,-0.4067053161270451,0.9999724581952141,0.00013232791518056526
-0.4061016138206469,-0.4061016138206469,1.0000056297805895,0.0001299288343425923
-0.405382230412215,-0.405382230412215,1.0000734500683188,0.00012731653224312548
-0.404569617449306,-0.404569617449306,0.9999652857890121,0.00013318757632752417
-0.40384507599665087,-0.40384507599665087,1.0001677899408405,0.00012738397480183204
-0.4034780087924446,-0.4034780087924446,1.0000010413903673,0.00013233730057140482
-0.403049656242365,-0.403049656242365,1.0001135375354415,0.00012985983834183878
-0.402830846447614,-0.402830846447614,0.9998082795201272,0.00012728699330655466
-0.40221102372888706,-0.40221102372888706,0.9997404581176983,0.000130433555143667
-0.4016772695351392,-0.4016772695351392,1.0001908770297763,0.0001299081374792411
-0.40085152547835606,-0.40085152547835606,0.9998333655312402,0.00013223660392833287
-0.40053618885867764,-0.40053618885867764,0.9998747281614901,0.00013454714665432554
-0.40020206215413057,-0.40020206215413057,1.000047885287146,0.00012771431108573724
-0.3996954464411829,-0.3996954464411829,1.0000537450972231,0.00013237208141087783
-0.39917493602697507,-0.39917493602697507,1.0001421742570415,0.00012484952026805152
-0.39859020617441276,-0.39859020617441276,1.000032153204011,0.00013380148695750282
-0.39786482822964897,-0.39786482822964897,0.9999682839071466,0.0001311283777899966
-0.39741410083515805,-0.39741410083515805,1.0000586763725443,0.00012740198845999007
-0.3969625104917213,-0.3969625104917213,1.0000891857612542,0.0001323592980086508
-0.3964661329810042,-0.3964661329810042,0.999995296026715,0.0001272599277483545
-0.39582301823975286,-0.39582301823975286,0.9998594846998348,0.00012789880458535943
-0.3951231946819462,-0.3951231946819462,1.0000266883656015,0.00013237460513461867
-0.3946828464715509,-0.3946828464715509,1.000255867495555,0.00015276416312934364
-0.39437916795141065,-0.39437916795141065,1.0002412571802017,0.00012987007178193248
-0.3939058494215715,-0.3939058494215715,1.0000155708733918,0.00013240954602530461
-0.3936030302880681,-0.3936030302880681,0.9999188541684528,0.00012982827976179074
-0.3930409866341506,-0.3930409866341506,1.0000687295732902,0.00012731728391352713
-0.3922169802026474,-0.3922169802026474,0.9999861016064753,0.00012990694103320806
-0.39156254891131537,-0.39156254891131537,1.0000516028193478,0.00012989235833126933
-0.3913153830115334,-0.3913153830115334,0.9998991052000858,0.00013388853516085414
-0.39106624055275463,-0.39106624055275463,1.0000920899996764,0.00012983193644884833
-0.3904776870607748,-0.3904776870607748,1.0001715755474534,0.000129797543422156
-0.3898558283603052,-0.3898558283603052,1.0000766616060566,0.000124852274081563
-0.3889319038906251,-0.3889319038906251,1.0001755499833498,0.00013201119492962487
-0.3882756824241369,-0.3882756824241369,0.9998696241752214,0.0001298894006107985
-0.3875635794713162,-0.3875635794713162,1.0001673750495121,0.00013237929915115409
-0.3871943243619171,-0.3871943243619171,0.9999831279561068,0.00012731205926285347
-0.38654169010551415,-0.38654169010551415,0.9999003162916915,0.0001278670799007505
-0.385900814809429,-0.385900814809429,1.000003891314039,0.00013172966001895756
-0.3854805711875088,-0.3854805711875088,1.0000020517449828,0.00013094826619969516
-0.38512809667008696,-0.38512809667008696,1.0000903670031165,0.00013634900748239414
-0.3847850270321942,-0.3847850270321942,1.0000165409398067,0.00012988546762464625
-0.3845748211693717,-0.3845748211693717,0.9998703782264965,0.00012892266584011735
-0.3842390339515987,-0.3842390339515987,1.0000206100971802,0.00012981273140030174
-0.3837941087957006,-0.3837941087957006,0.9999253227963673,0.00012579250464739858
-0.3833646253027837,-0.3833646253027837,0.9999412027871386,0.00012994491895540456
-0.38277631808887236,-0.38277631808887236,0.9998828957740562,0.0001299274387726503
-0.3822073376039043,-0.3822073376039043,1.0001250963593895,0.00012990303958837393
-0.38191551906929816,-0.38191551906929816,0.9998518981370955,0.0001299223492265765
-0.38127910777402574,-0.38127910777402574,1.0000432804161785,0.00012993371325266463
-0.38060629507526755,-0.38060629507526755,1.0000743526532614,0.00012980898029503143
-0.37947887484624515,-0.37947887484624515,0.9999216895718639,0.00012993084553144027
-0.3790456306625856,-0.3790456306625856,0.9999271646625514,0.00012987214699475123
-0.3785795800256892,-0.3785795800256892,0.9998738253322139,0.00012989845941845695
-0.37826326991344106,-0.37826326991344106,0.9999935372883593,0.00013229566867523326
-0.3778871945643914,-0.3778871945643914,1.0001031275951293,0.00012731392190998267
-0.37742745644936804,-0.37742745644936804,0.9999555544974141,0.00013067652630964775
-0.376535942517512,-0.376535942517512,1.0000770729997668,0.00012988723597732402
-0.37610510558006355,-0.37610510558006355,1.0001139758961208,0.0001322913607861162
-0.37569202735758156,-0.37569202735758156,1.0001171675412663,0.00012989312345223174
-0.37535021822550335,-0.37535021822550335,1.0001293232389705,0.00012729652184887696
-0.37462266650254605,-0.37462266650254605,0.9999432692021696,0.0001298654571779269
-0.3738985744610545,-0.3738985744610545,1.000034675998544,0.00013379891708174352
