time,time,flux,flux_err
-0.4993226643333969,-0.4993226643333969,0.9997270304580459,0.0001973680353606338
-0.4976840415831475,-0.4976840415831475,1.0001103206476132,0.00019758231747348678
-0.4960805045447387,-0.4960805045447387,1.000092084622405,0.00019794710763359748
-0.49428127069102173,-0.49428127069102173,1.0003826270269613,0.0001976144924881738
-0.49249134097942715,-0.49249134097942715,1.0000285631314623,0.00019699287400975753
-0.49096237859912434,-0.49096237859912434,0.9999812758991438,0.00019759266127827567
-0.4892480537083429,-0.4892480537083429,0.9999803511597459,0.00019757128884997192
-0.4873941406216886,-0.4873941406216886,0.9995931589748377,0.0001973662917335545
-0.4857550644122625,-0.4857550644122625,0.9999315999710884,0.00019761345329651932
-0.4841557874257433,-0.4841557874257433,1.0000046036358607,0.00019713561540831565
-0.4823681752021116,-0.4823681752021116,1.0001374325233794,0.0001983461530771492
-0.48056278553634685,-0.48056278553634685,0.9999102978761168,0.00019699519344643242
-0.47903379879043084,-0.47903379879043084,1.0000692746421338,0.00019760910855529313
-0.477414152831318,-0.477414152831318,1.0001180861416459,0.00019759450102656168
-0.475465615293092,-0.475465615293092,1.0002554695124886,0.00019742169398420843
-0.47417005072268237,-0.47417005072268237,0.9998396254325572,0.0001970165493994485
-0.47267807648265714,-0.47267807648265714,0.9998467339265853,0.0001979219471725139
-0.47059463665445944,-0.47059463665445944,1.0001417617007975,0.00019760923893441217
-0.46886144598399826,-0.46886144598399826,1.0001606084598902,0.00019701628384788763
-0.4672566984083346,-0.4672566984083346,1.0001186680625844,0.00019761731469040365
-0.46551666831850297,-0.46551666831850297,0.9998026148753894,0.00019835891134634319
-0.46369535054815286,-0.46369535054815286,0.9998388686838247,0.00019668521096018855
-0.46199873313421447,-0.46199873313421447,1.0000898356840375,0.00019794919584657515
-0.46049716357537135,-0.46049716357537135,0.9999911747821246,0.00019763638765409207
-0.458571448133398,-0.458571448133398,1.0000657207208596,0.00019763758907839196
-0.45678072860246177,-0.45678072860246177,1.0000590428498186,0.00019745998319918129
-0.4556309217754233,-0.4556309217754233,1.000075152218613,0.0001973316921477224
-0.4538379085019756,-0.4538379085019756,0.999947174863879,0.0001976514750171454
-0.4517582587709512,-0.4517582587709512,0.9997837868419989,0.00019763152189284256
-0.4498543672219967,-0.4498543672219967,0.9998239127813704,0.00019639374419836846
-0.44820883813898715,-0.44820883813898715,1.000130385423541,0.00019765142819296104
-0.4468693018119893,-0.4468693018119893,0.9995493625454177,0.00019779455695944267
-0.44495043528328326,-0.44495043528328326,1.000306977637878,0.00019646996525312993
-0.44366378548596686,-0.44366378548596686,1.0002564141782548,0.00019781837921546775
-0.44209872925707716,-0.44209872925707716,0.9999434365385069,0.0001976913323880127
-0.4405100495921488,-0.4405100495921488,1.000343583763895,0.00019691568512942973
-0.43931578220280015,-0.43931578220280015,0.9999389866128018,0.00019795176784086747
-0.4375055601971667,-0.4375055601971667,0.9998581794914211,0.0001969226316740023
-0.43614761641815675,-0.43614761641815675,1.0001131726090517,0.00019731256079432764
-0.43484314794671947,-0.43484314794671947,0.999667041137917,0.00019840253418704662
-0.432851652138902,-0.432851652138902,0.9999604505171401,0.00019675540827105367
-0.4311327760962854,-0.4311327760962854,0.9999789731064505,0.00019796236573646733
-0.4295207395819943,-0.4295207395819943,1.0000560816861583,0.00019763301068645425
-0.42774279616563715,-0.42774279616563715,1.000085684017496,0.0001984357404732164
-0.42592176265044374,-0.42592176265044374,1.0000060644629623,0.0001967929287411835
-0.42431943694589336,-0.42431943694589336,0.9996841836356971,0.0001979008694965885
-0.4229088489724745,-0.4229088489724745,0.9999803232537576,0.00019772040682190166
-0.42109356092660166,-0.42109356092660166,0.9997987069770611,0.00019679327570135303
-0.41988309734425683,-0.41988309734425683,1.0001602178078062,0.00019761903617334717
-0.4182241199637133,-0.4182241199637133,1.0002345181054706,0.00019725516647927377
-0.41667800238477637,-0.41667800238477637,0.9998652547713572,0.00019748240038348805
-0.415548258237277,-0.415548258237277,1.000113478790104,0.0001971006516541999
-0.41374331870492825,-0.41374331870492825,1.0002444909416766,0.00019699753779546772
-0.41283981084106924,-0.41283981084106924,0.9999815839777388,0.0001972254868730474
-0.411236054706842,-0.411236054706842,0.9997642532718398,0.0001977356717270394
-0.4100831113320396,-0.4100831113320396,1.0001057023549114,0.00019686608861305485
-0.408757027375691,-0.408757027375691,1.0003365048296236,0.0001972609527343357
-0.4073244068732606,-0.4073244068732606,0.9999600389594754,0.00019715421449643657
-0.40628571199633823,-0.40628571199633823,0.9998425523860304,0.0001975945235362791
-0.4045632071046839,-0.4045632071046839,0.9999046591378089,0.0001970012466657501
-0.4037143423262023,-0.4037143423262023,1.0000353198149565,0.00019708326056982935
-0.4019095333452697,-0.4019095333452697,0.9997261326583405,0.00019698057406990067
-0.40094881000113675,-0.40094881000113675,0.9999331258134886,0.0001976189336573694
-0.3992899351599476,-0.3992899351599476,1.0002057336685417,0.0001972122827936154
-0.39774376036222064,-0.39774376036222064,1.0000368836712399,0.00019753088369961935
-0.3966139931071666,-0.3966139931071666,0.999922051807512,0.00019706492097210622
-0.39490393199479285,-0.39490393199479285,0.9999655203110105,0.00019703053286213184
-0.3938484526824141,-0.3938484526824141,0.9995923500362176,0.00019758922409008296
-0.39218961618090586,-0.39218961618090586,1.0003974092772157,0.0001972184513628246
-0.39068122991876636,-0.39068122991876636,1.00002910080248,0.0001972086017611916
-0.3897182725382663,-0.3897182725382663,1.0001091260697603,0.00019755865582714473
-0.38786416572712595,-0.38786416572712595,0.9998538853834565,0.00019684992904446847
-0.387089192585438,-0.387089192585438,0.9997264822877859,0.00019721072086227877
-0.38520159079776023,-0.38520159079776023,0.999938576445998,0.00019770395749850906
-0.38433261379715306,-0.38433261379715306,1.0003411689807717,0.0001969369647484376
-0.3827225245518434,-0.3827225245518434,1.0000792475310276,0.0001971600361817761
-0.3811951871430779,-0.3811951871430779,1.0003765751866536,0.000197189488319499
-0.38025116476225096,-0.38025116476225096,0.9996709035020446,0.00019749728070860158
-0.3783971022902506,-0.3783971022902506,1.0000651813467867,0.00019685069641950858
-0.37728095318394705,-0.37728095318394705,0.999986282964777,0.00019755062914389668
-0.37562220609972885,-0.37562220609972885,1.000158978202578,0.00019713889103413143
-0.3741137896245846,-0.3741137896245846,0.9999977585947457,0.0001971485439324331
-0.3731508342190068,-0.3731508342190068,1.0001986880776408,0.00019755033277077898
-0.37124413404645795,-0.37124413404645795,0.9997705468749564,0.000197406199455479
-0.3705175717496445,-0.3705175717496445,0.9996370122273097,0.00019658492147801282
-0.3685528460768069,-0.3685528460768069,1.000261289932924,0.00019744948812414382
-0.3677518898115636,-0.3677518898115636,0.9999105400627716,0.00019715192291662096
-0.3660036413824628,-0.3660036413824628,1.0001548860370761,0.00019713654116276032
-0.3649628418165435,-0.3649628418165435,1.0001477935796097,0.00019693963042787186
-0.36353796984440123,-0.36353796984440123,0.9998141928545392,0.00019776816230490088
-0.3617212082070182,-0.3617212082070182,1.0002779558696815,0.00019694516374516298
-0.36063264663197286,-0.36063264663197286,0.9999530082507793,0.0001974659674434961
-0.3588809944915283,-0.3588809944915283,1.0001894460870244,0.00019734562277278015
-0.35738441525937786,-0.35738441525937786,0.9997907552667442,0.00019737892873392476
-0.3562410857064492,-0.3562410857064492,0.9999917425194533,0.00019695854755240246
-0.35422197611394496,-0.35422197611394496,0.9996828031660392,0.00019782766365299636
-0.3530673402535854,-0.3530673402535854,1.000163268124103,0.00019741729409944653
-0.3516185308759532,-0.3516185308759532,1.0000992495702588,0.00019699094570079347
-0.3498362047675414,-0.3498362047675414,1.0000896476526209,0.00019716411740095357
-0.34875522556254734,-0.34875522556254734,1.000083966933652,0.00019724871822750922
-0.3469704620369953,-0.3469704620369953,0.999736998796223,0.00019778765019976327
-0.34553248905823464,-0.34553248905823464,0.9998083288099984,0.00019691649982876567
-0.3443693319117983,-0.3443693319117983,0.9997998933586476,0.00019696041961458663
-0.3423880497158393,-0.3423880497158393,1.0002695259218997,0.00019790682487650472
-0.341233494871733,-0.341233494871733,1.0001229329225971,0.00019739948329878225
-0.33978466547132485,-0.33978466547132485,1.0000145476683806,0.00019700649918391816
-0.338002299065954,-0.338002299065954,0.9997548260621534,0.00019715883278643634
-0.33684564165070013,-0.33684564165070013,1.0001360175126428,0.0001972588773368704
-0.33517440689925027,-0.33517440689925027,1.0001810364125983,0.00019753777232686654
-0.33394384873541866,-0.33394384873541866,0.9998111792629583,0.00019738952559696178
-0.33259227008181824,-0.33259227008181824,0.999945066436766,0.00019697720491771066
-0.33080469327702533,-0.33080469327702533,1.000107449991678,0.00019725405421085795
-0.32959386158944426,-0.32959386158944426,1.0000023733321957,0.0001972580685349229
-0.32803616890168996,-0.32803616890168996,0.9999134614775824,0.00019782867202009047
-0.32631431350797585,-0.32631431350797585,0.9998707100398294,0.0001969808565925141
-0.32515110649189866,-0.32515110649189866,1.0000809030709754,0.00019697069873308184
-0.3234537687117836,-0.3234537687117836,1.000157993774983,0.0001979354133345048
-0.3219585327088225,-0.3219585327088225,1.0001461307969772,0.0001974229460416067
-0.32075835481822423,-0.32075835481822423,1.0000587897014863,0.0001970036941455004
-0.3187815002361276,-0.3187815002361276,1.000008977696733,0.0001972943780608986
-0.31763760611892167,-0.31763760611892167,0.9997276141468496,0.00020118684691465845
-0.3162789098862845,-0.3162789098862845,1.0000130395035929,0.0001974416404650167
-0.31482035821401266,-0.31482035821401266,1.0002351091891857,0.00019745170488600478
-0.31377920778521684,-0.31377920778521684,0.9998332020282735,0.00020096440021031246
-0.31201901969385515,-0.31201901969385515,1.0000181346146597,0.0001970627952861337
-0.31116880845513606,-0.31116880845513606,1.0001972079391568,0.00020090908938661688
-0.3093144174689087,-0.3093144174689087,0.9999063379222697,0.00019732904315159002
-0.3083598094412082,-0.3083598094412082,0.999983638049741,0.00020117976286991845
-0.3067445149278683,-0.3067445149278683,1.0000857205608198,0.00019705548652789806
-0.30550630651729305,-0.30550630651729305,0.9997334550760606,0.00019709645207617536
-0.30427363233637833,-0.30427363233637833,0.9998000579492048,0.0001978390628572265
-0.3027323647469643,-0.3027323647469643,0.9998722924745322,0.00019636028074068195
-0.30190599023439973,-0.30190599023439973,0.9998010395823455,0.00019791120147974686
-0.30032772398867563,-0.30032772398867563,1.00008579376216,0.00019636475424588486
-0.2993911008898408,-0.2993911008898408,0.9998723441967385,0.00019770286183477974
-0.2975995574866374,-0.2975995574866374,1.0002500312820284,0.00019726634908556322
-0.2967400233076091,-0.2967400233076091,1.0002492530837572,0.00019701980058525864
-0.2950419932909085,-0.2950419932909085,1.0001566250572083,0.0001972821124958799
-0.29427856899017113,-0.29427856899017113,0.9998697753575652,0.00019699852517655354
-0.2926183561261951,-0.2926183561261951,1.0000899954161473,0.00019750135691653123
-0.29158962859979737,-0.29158962859979737,0.9998227297635797,0.00019713530332612613
-0.2901761891656747,-0.2901761891656747,1.0000103527585118,0.00019715935222204203
-0.2891660463758967,-0.2891660463758967,1.0000645464588034,0.00019713627991404587
-0.28762339506663465,-0.28762339506663465,0.9999308573602759,0.00019695624835336218
-0.28634235515208956,-0.28634235515208956,1.0000967149768907,0.00019729755861098747
-0.2851421856038314,-0.2851421856038314,0.9999032273410462,0.00019700813120947366
-0.28397557894120384,-0.28397557894120384,1.0000316092831196,0.0001972947004354026
-0.2827288955009067,-0.2827288955009067,1.000168349358089,0.00019768907481479674
-0.28128291651055404,-0.28128291651055404,1.0002799420870554,0.00019673543083743847
-0.2801110172049107,-0.2801110172049107,0.9999232542140151,0.00019763125635074912
-0.2786648499487342,-0.2786648499487342,1.0000897809265914,0.00019716883176234857
-0.2774270866276652,-0.2774270866276652,1.0000378074988532,0.00019701629348939403
-0.27605092990389724,-0.27605092990389724,0.9997450696822681,0.00019749186046994134
-0.27473815672416324,-0.27473815672416324,1.000171070613605,0.00019715193497658212
-0.2734226993506013,-0.2734226993506013,1.0001032127961569,0.00019701198146964875
-0.27215983727188586,-0.27215983727188586,0.9998551134201781,0.0001972904799468711
-0.27105591677785695,-0.27105591677785695,1.0000135931427827,0.00019701669359457316
-0.2696802527090313,-0.2696802527090313,0.9996518291246774,0.00019727937561487093
-0.2685281534131036,-0.2685281534131036,0.9997331432573627,0.00019763255811360063
-0.2669876111804001,-0.2669876111804001,0.9999601003667197,0.00019678616495772249
-0.2659102407079331,-0.2659102407079331,0.9999914053218708,0.0001976352196243069
-0.2644870550116366,-0.2644870550116366,1.0001933777826304,0.0001967117995516618
-0.2635434447033617,-0.2635434447033617,0.9998813659231347,0.0001976696013382997
-0.26212029718980145,-0.26212029718980145,1.0002340321319845,0.00019673547180197874
-0.2611387798113697,-0.2611387798113697,1.0000006237561525,0.00019766744920346994
-0.2597535393678186,-0.2597535393678186,1.0001848081675087,0.00019673205176255103
-0.2587151805103304,-0.2587151805103304,0.999999751817402,0.00019764770459573263
-0.2573867815968015,-0.2573867815968015,0.9999619759364388,0.00019669039361888354
-0.25634838456927583,-0.25634838456927583,0.9997250178431731,0.00019764912646293102
-0.254921405584696,-0.254921405584696,0.9996241232008615,0.0001971607353466532
-0.25379619760670946,-0.25379619760670946,1.0001669960602733,0.00019718224574617475
-0.2525546348296871,-0.2525546348296871,1.000136534908385,0.0001972212014192903
-0.25129781487377156,-0.25129781487377156,1.000409602648603,0.00019711582487814562
-0.2500102407783061,-0.2500102407783061,0.9999070534274445,0.00019743454722180722
-0.24881322489979993,-0.24881322489979993,1.0002803185302338,0.00019667034191599421
-0.2475465056587723,-0.2475465056587723,0.9999462706381603,0.00019781320720244202
-0.24636455771131976,-0.24636455771131976,1.0001937533777716,0.00019660409359901462
-0.24506312783247494,-0.24506312783247494,0.9998271622066746,0.0001975574486192633
-0.2435375078678021,-0.2435375078678021,0.9999914624861385,0.00019744830036921404
-0.24240334830092253,-0.24240334830092253,0.9998694274335571,0.00019718884256017085
-0.24098028889010265,-0.24098028889010265,1.0004231415188372,0.00019728784664418492
-0.24003656032029994,-0.24003656032029994,1.0001477572101969,0.00019722524318205222
-0.23859532035357917,-0.23859532035357917,0.9999124702597395,0.00019729282730696724
-0.2373722125071822,-0.2373722125071822,0.9998227423329797,0.00019722762050259756
-0.23602904401528804,-0.23602904401528804,0.9997772285601509,0.00019775768191494526
-0.2346885419347359,-0.2346885419347359,0.9999826580240386,0.000196617815800876
-0.23349078208741503,-0.23349078208741503,0.9997905465333679,0.00019811451043567696
-0.2319428394694228,-0.2319428394694228,0.9996341633612085,0.00019670149769396224
-0.23078667573255415,-0.23078667573255415,1.000125139035616,0.00019762177199059627
-0.22924215599304035,-0.22924215599304035,1.0001288199957585,0.00019751311375761885
-0.22808800031098145,-0.22808800031098145,1.0000743738851658,0.00019703017772333686
-0.22687537602706698,-0.22687537602706698,1.0002034107924762,0.00019752221821494508
-0.22564648838297216,-0.22564648838297216,1.0000727540441734,0.00019733152461475588
-0.22430002910671193,-0.22430002910671193,0.9997109612244403,0.00019730317963228324
-0.22293913820833494,-0.22293913820833494,1.0000879096463846,0.00019719891496322323
-0.2217808353195892,-0.2217808353195892,1.000232927727375,0.0001974093458757033
-0.22057235618622145,-0.22057235618622145,1.000330396310955,0.00019724864200547978
-0.21941406425791002,-0.21941406425791002,1.000354926667518,0.00019740656086279754
-0.21820557420871864,-0.21820557420871864,1.0000727294223708,0.0001972397777379869
-0.217028202785923,-0.217028202785923,1.0000170239876043,0.00019767814879032936
-0.2155166811085337,-0.2155166811085337,0.9999093037125162,0.00019732548875818555
-0.21439978598447168,-0.21439978598447168,0.9999314490452627,0.00019714187116334436
-0.21284993852090112,-0.21284993852090112,1.0001911997530777,0.00019759821259232184
-0.21195124583958885,-0.21195124583958885,0.9998505996852451,0.00019703658888915073
-0.21043530807863817,-0.21043530807863817,1.000159950198571,0.00019820720514009192
-0.20924944298343462,-0.20924944298343462,0.9998144421641862,0.00019708056460787044
-0.20780831164828442,-0.20780831164828442,0.9999159294021807,0.00019769537584962685
-0.20656100149262785,-0.20656100149262785,0.9999399316174161,0.00019728763984084834
-0.20519433326818443,-0.20519433326818443,0.9998149572264918,0.00019767172612621386
-0.20406185303590973,-0.20406185303590973,0.9997940214210489,0.00019694875069784326
-0.20282755943321717,-0.20282755943321717,1.0002275011743258,0.00019771669961914372
-0.2015053354927204,-0.2015053354927204,0.9996441697075639,0.00019738879686412642
-0.20036651350367266,-0.20036651350367266,0.9998165406011802,0.0001972752055950157
-0.19913855511478004,-0.19913855511478004,1.0000760303748337,0.00019743956989975558
-0.19773562718286258,-0.19773562718286258,1.0002786662838181,0.0001972820239471062
-0.1964359591750963,-0.1964359591750963,1.0000924319364155,0.00019752667729527407
-0.19511675443001195,-0.19511675443001195,1.0002793536595145,0.00019721508236051618
-0.19406916870892701,-0.19406916870892701,1.000125874547979,0.00019751340052179896
-0.1927078322456623,-0.1927078322456623,0.9998903989536055,0.0001978856917987467
-0.19144223546107925,-0.19144223546107925,1.0002127364925342,0.00019701268740387573
-0.19009722602664852,-0.19009722602664852,1.000153914339906,0.00019760337318295708
-0.18880723617254488,-0.18880723617254488,0.9996272340999095,0.0001973624117299606
-0.18761703423771223,-0.18761703423771223,1.0000543363809082,0.00019734865735296326
-0.18644046029055517,-0.18644046029055517,1.0000173800577163,0.00019739188361387626
-0.18502379674998792,-0.18502379674998792,0.9998356943658993,0.00019765819788999389
-0.18380883164140868,-0.18380883164140868,1.0000868969474879,0.0001970724099287139
-0.18223521665092904,-0.18223521665092904,1.0001231919601679,0.0001975184333835711
-0.18093075996018798,-0.18093075996018798,1.000079852361282,0.00019792463406495138
-0.1796083261583476,-0.1796083261583476,0.9997101430614455,0.00019694200447930538
-0.17826332816383683,-0.17826332816383683,0.9997751185669566,0.0001976148741653032
-0.176973357187876,-0.176973357187876,1.0001236503105555,0.00019736844884515257
-0.17567023881067598,-0.17567023881067598,1.0000631980601942,0.00019768868673261398
-0.17434179148872317,-0.17434179148872317,1.0001225167487084,0.00019702520594346425
-0.17285062261632902,-0.17285062261632902,1.0005048267259937,0.00019831873492717837
-0.17169816002206062,-0.17169816002206062,0.9997910229328676,0.00019708702973658597
-0.17034158421108714,-0.17034158421108714,1.0000112575516313,0.00019762529025561102
-0.16910417742751632,-0.16910417742751632,0.9999860344263457,0.00019709515966160937
-0.1678801331692057,-0.1678801331692057,1.0000855419836374,0.0001976528323833044
-0.16673740651397112,-0.16673740651397112,0.9998163002200678,0.00019708614858156428
-0.16543820725163413,-0.16543820725163413,0.999785376745634,0.0001977906731707572
-0.16423020464807223,-0.16423020464807223,1.000187236212535,0.0001977866963596925
