time,time,flux,flux_err
-0.49993962253793145,-0.49993962253793145,0.9999867915315612,0.00010725697357051597
-0.49984568878717256,-0.49984568878717256,1.0000537088107575,0.00010617089059763063
-0.4996992557076737,-0.4996992557076737,0.9999150178935183,0.0001114410684798312
-0.49959986860048955,-0.49959986860048955,1.0000445613185174,0.00010821878878180791
-0.4994676508475095,-0.4994676508475095,0.9999311168910227,0.00010292929416990278
-0.4993564418749884,-0.4993564418749884,1.0001288684106269,0.00010669370953460151
-0.4992495315382257,-0.4992495315382257,0.9999625818003732,0.00010619281452557965
-0.4991169553832151,-0.4991169553832151,0.9998157945174949,0.00010726042838497554
-0.49902625170361714,-0.49902625170361714,0.9998739255291934,0.00010822496816989723
-0.4989847009681398,-0.4989847009681398,0.999900774244948,0.00010929908183412663
-0.49891590259212537,-0.49891590259212537,1.000159469230775,0.0001069396782069146
-0.4988015865266789,-0.4988015865266789,0.9998620071267028,0.00011461958309326827
-0.4986745265312493,-0.4986745265312493,1.0001137661686934,0.00011337291547066147
-0.4986105234012939,-0.4986105234012939,1.0001399442330225,0.00010959000653191311
-0.4984794226154918,-0.4984794226154918,0.9998623462926517,0.00010879405072793114
-0.49831106793717483,-0.49831106793717483,1.0000737443971013,0.00010509901299547554
-0.49817821371543686,-0.49817821371543686,0.9999703933834025,0.00010999646985812312
-0.4980371590558207,-0.4980371590558207,1.0000894811154073,0.00010545676840458954
-0.4979194026091136,-0.4979194026091136,0.9999195697192992,0.00010828429849672156
-0.49782844869187104,-0.49782844869187104,0.9999541309800011,0.00010431428824627179
-0.4976932274410501,-0.4976932274410501,1.0000749115472742,0.00010900453090105413
-0.4975831385730999,-0.4975831385730999,1.0001111734250632,0.00010706969041034272
-0.49747492676833643,-0.49747492676833643,0.99996596275512,0.00010649350599032588
-0.4973666444799164,-0.4973666444799164,0.9999382937371198,0.00010852383148898004
-0.49726731416303666,-0.49726731416303666,0.9999349489889113,0.00010574555114333129
-0.497158679907443,-0.497158679907443,0.999970092520819,0.00010903333587586003
-0.4969723137706751,-0.4969723137706751,1.0001564317035023,0.00011010238113255139
-0.4968462230608566,-0.4968462230608566,0.9999634313271469,0.00011079593064472219
-0.4967186045483686,-0.4967186045483686,1.000051880887153,0.0001093098312788672
-0.49658877511683386,-0.49658877511683386,0.9999961715526255,0.00010536484650794816
-0.4964376268384513,-0.4964376268384513,1.0000319493399943,0.00010986823197307564
-0.49632129360397814,-0.49632129360397814,1.000003191041756,0.0001055303906100019
-0.4962396772316424,-0.4962396772316424,0.9999626188608159,0.00010981965980544083
-0.49619576210388916,-0.49619576210388916,1.0001099833281057,0.0001072987171751012
-0.49612602979759685,-0.49612602979759685,1.0001147062380156,0.00011408978746224344
-0.49604950212233234,-0.49604950212233234,1.0000410423819983,0.00011115006080169342
-0.49588535516813864,-0.49588535516813864,1.0001184159411565,0.00010939515728862511
-0.49571355140942613,-0.49571355140942613,0.9999121583563945,0.00010704227451235292
-0.4956348780542612,-0.4956348780542612,1.0000482315804213,0.00010654331940483627
-0.49555033538490534,-0.49555033538490534,1.0001358376735625,0.00010490687704937283
-0.4954611891647801,-0.4954611891647801,0.9998451287690717,0.00010672445523159696
-0.4954018168937182,-0.4954018168937182,1.0001956485905719,0.00010606549664005362
-0.4952436401741579,-0.4952436401741579,0.9999943334476933,0.00010455669040218263
-0.4950783433188917,-0.4950783433188917,0.9999161332431893,0.00010670497997029179
-0.49495707054447846,-0.49495707054447846,1.0000395919356155,0.00011100011034998019
-0.49480104907124767,-0.49480104907124767,1.000078773126522,0.00010736563570933283
-0.4946580495190574,-0.4946580495190574,1.0000827050508083,0.00010604940006856472
-0.49457310675643384,-0.49457310675643384,0.9999743176540529,0.00010658787774149555
-0.49449157391209153,-0.49449157391209153,1.000025206931307,0.0001091603914667723
-0.4944215043098666,-0.4944215043098666,1.0000915364831315,0.00010817963264266335
-0.49432555770035835,-0.49432555770035835,1.0000150643258512,0.00010581186153565878
-0.49418557207100094,-0.49418557207100094,0.9999991825012181,0.00010450248647172802
-0.4940280844544759,-0.4940280844544759,1.0000102147237662,0.00010719959036382669
-0.4938902409106959,-0.4938902409106959,1.0000682790522308,0.00010956126068392181
-0.4938071166892769,-0.4938071166892769,0.9999949293527388,0.00010575429091250533
-0.49374086188909133,-0.49374086188909133,1.0000331363713193,0.00010939130100918097
-0.49359735203906896,-0.49359735203906896,0.999898923985169,0.00010980507415903591
-0.49347082060121467,-0.49347082060121467,0.9999483772392079,0.00010710159076872518
-0.49330608297605066,-0.49330608297605066,1.0000683465965552,0.00010458661937875345
-0.49322412857727616,-0.49322412857727616,0.9999908465009929,0.0001070032652489335
-0.49305585231340954,-0.49305585231340954,1.000315579615626,0.00010748277046909193
-0.4929526746622287,-0.4929526746622287,1.0000017794472098,0.00010509540507770305
-0.4928867531329161,-0.4928867531329161,0.9999110823743663,0.00010829831752333765
-0.49277456929266916,-0.49277456929266916,0.9999868168075473,0.00010704133155252649
-0.4927036977431271,-0.4927036977431271,1.0000157486163483,0.00010916987393259946
-0.49260830582061316,-0.49260830582061316,1.0000107274924752,0.00010758144788349674
-0.49247723349253647,-0.49247723349253647,1.0001633816763722,0.00010448566339947858
-0.4923437344637932,-0.4923437344637932,1.0000081905267262,0.00010880234985521662
-0.49218204578210134,-0.49218204578210134,0.9999655156723349,0.00010997215495036582
-0.49212115322297906,-0.49212115322297906,0.9998136143960406,0.00010919795795961814
-0.4920632025867235,-0.4920632025867235,0.9999137186469472,0.0001056102171283982
-0.4919988813169766,-0.4919988813169766,1.000001939288661,0.00010964578563287943
-0.4918130791193107,-0.4918130791193107,0.9999302492273852,0.00011134084198434169
-0.49168016370385886,-0.49168016370385886,0.9998882884635838,0.00011318298413305371
-0.4915155820723157,-0.4915155820723157,1.00009585977846,0.00010994251003561861
-0.4913993442140054,-0.4913993442140054,1.0001598268359935,0.00010769057910052079
-0.4913245534204179,-0.4913245534204179,1.0000981882269546,0.00010903897263828432
-0.49113248543580995,-0.49113248543580995,1.0001796502446016,0.00010995079542585218
-0.4909923293074826,-0.4909923293074826,1.0001042312057788,0.00010647403584652641
-0.49090355531079694,-0.49090355531079694,1.000073781487091,0.00011167101500402157
-0.49082712118397465,-0.49082712118397465,0.9999859849209607,0.00011059428633841221
-0.49070484915573614,-0.49070484915573614,0.9997534455278057,0.0001094191359467666
-0.4905638750467915,-0.4905638750467915,0.9999480081778046,0.00010674657955262743
-0.49037686284864324,-0.49037686284864324,0.9999825931616335,0.00010760555406070304
-0.4902491351647768,-0.4902491351647768,1.0000737422815182,0.00010645284605119402
-0.4901307328429539,-0.4901307328429539,0.9999746623708653,0.0001069963279364888
-0.49006365007953717,-0.49006365007953717,1.0002623298894278,0.00010698887839927854
-0.48992833322845397,-0.48992833322845397,1.0000791033832388,0.00011054445479775718
-0.48983374790113887,-0.48983374790113887,1.0000491468772321,0.00010566352434421752
-0.4896945704735117,-0.4896945704735117,0.9999848791636172,0.00010976285007922523
-0.4895597492490197,-0.4895597492490197,1.0001051569158697,0.00010846124007820791
-0.48944326050987,-0.48944326050987,1.0000273913088547,0.00010542821811118606
-0.4893554890877567,-0.4893554890877567,0.9999804560581902,0.00011326404499434755
-0.48924720351933504,-0.48924720351933504,0.9998895199920895,0.00011019715947731987
-0.48909323854604736,-0.48909323854604736,1.0001641325308672,0.00010859706082996649
-0.4889724483626196,-0.4889724483626196,0.9999894302644698,0.00010651739342564864
-0.48887185358908025,-0.48887185358908025,1.0001144366051022,0.00010943647343549351
-0.48874090369208717,-0.48874090369208717,0.9999797336178686,0.00010382993622005166
-0.4886531769356225,-0.4886531769356225,0.999996250855237,0.00010811358345469194
-0.48856902636762245,-0.48856902636762245,0.9999922001199636,0.00010708195400025745
-0.4884930310974596,-0.4884930310974596,1.000032364609161,0.00010571972053229835
-0.4884028047672473,-0.4884028047672473,1.0001138612505749,0.00011114500335022768
-0.4882260802871315,-0.4882260802871315,0.9999835493962472,0.0001074050530462124
-0.4880950902675977,-0.4880950902675977,1.0001924146068084,0.0001069557372003735
-0.48788336644647645,-0.48788336644647645,1.0000244249439103,0.00010514738544814207
-0.4877758671238553,-0.4877758671238553,1.0000907711848572,0.0001083493771343402
-0.48772386912314686,-0.48772386912314686,0.9999433507424312,0.00010740607251186703
-0.48766304924793075,-0.48766304924793075,1.0000400746795655,0.00010565579109085255
-0.48747275853238536,-0.48747275853238536,1.0001478770423646,0.00011160822171816862
-0.48735066009394357,-0.48735066009394357,0.9998884290545341,0.00010801226257159491
-0.48726819455623627,-0.48726819455623627,1.000237643423603,0.00010594809415865026
-0.48714925385138486,-0.48714925385138486,1.0001490114380611,0.0001080913711587932
-0.4870361340988893,-0.4870361340988893,1.0002543544059286,0.00010973010167102592
-0.48694768742425365,-0.48694768742425365,0.99995756600881,0.00011316016366988004
-0.48683593155292326,-0.48683593155292326,0.9999417620141976,0.00010924462830352948
-0.4866862565133488,-0.4866862565133488,1.0000223482176511,0.00010933865395219218
-0.4866270238504512,-0.4866270238504512,0.9999204387146865,0.00011279696803992252
-0.486535088805249,-0.486535088805249,0.9998989256945399,0.00010586494205062234
-0.4863963268668158,-0.4863963268668158,0.9998911565738918,0.0001094404337994161
-0.4862525943608489,-0.4862525943608489,1.0000423599799688,0.00010755514376263305
-0.48610711155633907,-0.48610711155633907,0.9999978514987786,0.00010849606302043772
-0.4860206533659948,-0.4860206533659948,1.0000651291878,0.00010803404831343465
-0.4858918121753959,-0.4858918121753959,1.0002199897858062,0.00010569756547127691
-0.4858061435370473,-0.4858061435370473,0.9999780076462208,0.00010786071540677457
-0.4857094322913326,-0.4857094322913326,1.000016318959108,0.00010781197560377599
-0.48562139451678377,-0.48562139451678377,0.9999620411999235,0.00010759964337829443
-0.48556794109463225,-0.48556794109463225,1.000130131384418,0.00010428912907350098
-0.4855003617936745,-0.4855003617936745,0.9999996759031496,0.00010480030183888695
-0.4854463593306718,-0.4854463593306718,1.0000228710805468,0.00011272452676952469
-0.4853621005982859,-0.4853621005982859,0.9999181475631052,0.00010806958852066163
-0.48519615540571975,-0.48519615540571975,0.9998780073318473,0.00010846817754979444
-0.48507512706564737,-0.48507512706564737,0.9999452847707806,0.00011094847144672757
-0.48497453283926006,-0.48497453283926006,0.9999536252574925,0.00010916853754238374
-0.4848698888119543,-0.4848698888119543,0.9997752805031173,0.00010763648220402845
-0.4847046977985883,-0.4847046977985883,1.000104213184998,0.0001085995278990701
-0.4845901261200197,-0.4845901261200197,1.000046193404889,0.00011274678798582811
-0.48446235778101254,-0.48446235778101254,1.0000654530865483,0.00010949769214406579
-0.4843530325248139,-0.4843530325248139,1.0003073126365838,0.00010766063369263234
-0.4842138237523613,-0.4842138237523613,0.9998069039767344,0.00011088079232662266
-0.4840881412557792,-0.4840881412557792,1.000168136659631,0.00011320185658878629
-0.4840105085342657,-0.4840105085342657,1.0000573298932283,0.00010681978024624212
-0.483881036969251,-0.483881036969251,0.9999892294449053,0.00010801201320760479
-0.48366673101263585,-0.48366673101263585,1.0001655891287053,0.00010725004710011124
-0.4835144206823315,-0.4835144206823315,0.999991948382385,0.00010808869840418106
-0.4833930035034427,-0.4833930035034427,0.9999479774498571,0.00010590766963525873
-0.48333104512421415,-0.48333104512421415,1.000078235875789,0.00010489477340916088
-0.4831436126114568,-0.4831436126114568,1.000022939317604,0.00010670867912298866
-0.48297236694488677,-0.48297236694488677,1.0000639344039648,0.00010729286452119064
-0.4828337828133954,-0.4828337828133954,1.0001265966804636,0.00010816804741614016
-0.48267696028924545,-0.48267696028924545,0.999928544182473,0.00010990702335972183
-0.4825548991007963,-0.4825548991007963,1.00003512015401,0.00010935171446922103
-0.48251651034806853,-0.48251651034806853,1.0001934431871637,0.00010764223057548085
-0.48242321140132843,-0.48242321140132843,0.9999594881148177,0.00010647449228686073
-0.4823425244336249,-0.4823425244336249,0.9998743672472573,0.00010448663883505329
-0.48215063972747885,-0.48215063972747885,1.0001003934085353,0.00010666155948203836
-0.4820784259965876,-0.4820784259965876,1.000014825938745,0.00010623571843157615
-0.4820034544740338,-0.4820034544740338,0.9999891311719391,0.00011141995818586381
-0.48189783436537253,-0.48189783436537253,1.0000654006393055,0.00010986331456436821
-0.4818074558104854,-0.4818074558104854,1.0001110353111438,0.00011005078381252082
-0.48168455066042953,-0.48168455066042953,1.0000089394701583,0.00011014162639006808
-0.4816085827013012,-0.4816085827013012,1.000053003357229,0.00012450838968261794
-0.4815630329947453,-0.4815630329947453,0.9998713535008447,0.00011333766388992454
-0.48147055102745073,-0.48147055102745073,0.9999396359488875,0.00010768640952767497
-0.48134784372523426,-0.48134784372523426,1.0000887799431202,0.00010670120908189047
-0.4811525627039373,-0.4811525627039373,1.0000249792159095,0.00010816150415255217
-0.4810118322900962,-0.4810118322900962,1.0001475629623464,0.00010586601841162953
-0.48091254619066603,-0.48091254619066603,1.000103181055582,0.00010415510317024635
-0.48080487513216214,-0.48080487513216214,1.0001693284053181,0.00010940858474676364
-0.48072208456869703,-0.48072208456869703,0.9998777651992743,0.00010697516327575201
-0.4806697940744925,-0.4806697940744925,1.0000401623148556,0.00010774404079144138
-0.48057834345090666,-0.48057834345090666,1.0001772570206557,0.00010647649706538316
-0.48050713642442133,-0.48050713642442133,0.9998480311912143,0.00010938578498085514
-0.48037874690198806,-0.48037874690198806,1.0001129690663706,0.00010587716806748186
-0.48026233878044877,-0.48026233878044877,0.9999372600346271,0.00010795293466572475
-0.48018677703803403,-0.48018677703803403,1.0002552033172152,0.00011095270650171224
-0.4800747468980262,-0.4800747468980262,1.000026209313511,0.00010622207242166011
-0.4799178461020347,-0.4799178461020347,1.0000843028047968,0.00011325406888293057
-0.479835902954801,-0.479835902954801,0.9999794057739644,0.0001086196556993655
-0.47967000738717613,-0.47967000738717613,1.0000359691808611,0.00011056844894884169
-0.4795173960417742,-0.4795173960417742,1.0000893690042056,0.00010883758211669976
-0.47936461149074605,-0.47936461149074605,1.0000538058755173,0.00010577626746056465
-0.47923757481912616,-0.47923757481912616,0.9999740218174924,0.00010992154039038227
-0.47913408569584137,-0.47913408569584137,1.0001062952904423,0.00010693476690456123
-0.4790528327168431,-0.4790528327168431,0.9999142389317331,0.00010928445089476645
-0.4789415375824319,-0.4789415375824319,1.0000828841679386,0.00010878307215559106
-0.47879785984114276,-0.47879785984114276,0.9999030612959696,0.0001074343814111712
-0.47865838920988607,-0.47865838920988607,1.0001010773529706,0.00010687777742674178
-0.4785345714510186,-0.4785345714510186,0.9999934053503935,0.00010612115949627664
-0.4784740487695672,-0.4784740487695672,0.9999003829170834,0.00010609832286253875
-0.47834065541101156,-0.47834065541101156,1.0000147785725817,0.00010461930418061255
-0.4782129618775798,-0.4782129618775798,0.9999228268723142,0.00010803432160099188
-0.47799559464911,-0.47799559464911,1.0001009144577526,0.00010858820639085402
-0.47787599728035274,-0.47787599728035274,0.9999051884258874,0.00010833577820102383
-0.4777614454651484,-0.4777614454651484,0.9999585359755372,0.00010520544410119693
-0.477580924044014,-0.477580924044014,0.9999247953464991,0.0001055429023930543
-0.477509931489476,-0.477509931489476,1.0000882260200854,0.00010918565098585079
-0.47742123644566165,-0.47742123644566165,0.9998828112340685,0.00011034843638678274
-0.477255973755382,-0.477255973755382,0.9998718426632042,0.00011354773205464557
-0.47716237128188366,-0.47716237128188366,1.0001898139929528,0.00010703392056539884
-0.4771070842514746,-0.4771070842514746,1.0000952463907113,0.00010788551117554165
-0.47694260414864403,-0.47694260414864403,0.9999120639212469,0.00011044240090322105
-0.47677123920584563,-0.47677123920584563,1.0000449469310948,0.0001067887992246278
-0.4766812388843391,-0.4766812388843391,0.9999907541857102,0.00010762803118946867
-0.47661124915175607,-0.47661124915175607,1.0001159969683544,0.00011112437929014178
-0.47646783184318336,-0.47646783184318336,0.9999826484726384,0.00011069918765699211
-0.47640954722592144,-0.47640954722592144,1.00007634564033,0.00010401622911804806
-0.4762743429047987,-0.4762743429047987,0.999887334328735,0.00010895166638276523
-0.4761887873930391,-0.4761887873930391,0.9999704662800365,0.000106563699024122
-0.47605810592067427,-0.47605810592067427,0.999881153037736,0.00011112694204236959
-0.4759856423479505,-0.4759856423479505,1.000146357472439,0.00010709818361256791
-0.4758903514128178,-0.4758903514128178,1.0000471254449192,0.00010652159914881618
-0.4757923919998575,-0.4757923919998575,0.9998177263349033,0.00010863607135652055
-0.4757141484791646,-0.4757141484791646,0.999974589101629,0.00010715589806935541
-0.4755941198440269,-0.4755941198440269,0.999902022672907,0.00010489123373759678
-0.47548371633456554,-0.47548371633456554,0.9997622142529433,0.00010924138327819193
-0.47529134385986255,-0.47529134385986255,0.9998882954920271,0.0001056475961934858
-0.47524759485095275,-0.47524759485095275,1.0000827230445184,0.00010586801122925183
-0.47514622660528405,-0.47514622660528405,1.000111076876936,0.0001088310291432894
-0.4750221750815399,-0.4750221750815399,0.9999514782482957,0.00010973574190559239
-0.47489233503001743,-0.47489233503001743,0.9999684793819643,0.00011191138114706991
-0.47475263141968754,-0.47475263141968754,0.9999858801453716,0.00010612229834000037
-0.47463886769255625,-0.47463886769255625,0.9999178306050611,0.00011570576440026264
-0.4745129222574178,-0.4745129222574178,0.9999211633513045,0.00010843454560534192
-0.47441543054301294,-0.47441543054301294,0.9999882589552698,0.00010794578597289899
-0.4742925480299164,-0.4742925480299164,1.0000601452599045,0.00010482854229008078
-0.4742023893049918,-0.4742023893049918,1.0000168737979647,0.00010672895575631023
-0.4740706885495456,-0.4740706885495456,0.9999957284990704,0.0001113679983978648
-0.473923622793518,-0.473923622793518,1.000064167144662,0.00010723380281872406
-0.47385832358850166,-0.47385832358850166,0.9998724139958626,0.00010783514999496494
-0.4737735819857335,-0.4737735819857335,0.9998113292253951,0.0001092945188061427
-0.473708524776157,-0.473708524776157,0.9998665493266511,0.00010747770072354757
-0.47356562201748603,-0.47356562201748603,0.9999687496133642,0.0001074693101746603
-0.47347032998804933,-0.47347032998804933,0.9999714069394638,0.00010784252790613984
-0.4733052787312772,-0.4733052787312772,1.0000050705520303,0.00010603139151024981
-0.4731944375263993,-0.4731944375263993,0.9999627997952437,0.00010525997358359443
-0.4731404665915761,-0.4731404665915761,1.0000006569112059,0.0001118157193668942
-0.47297655905422287,-0.47297655905422287,1.0001177512016095,0.00010990005853258771
-0.47287845964019654,-0.47287845964019654,1.0000372858477296,0.00011299403289907167
-0.4727044791303342,-0.4727044791303342,1.000013726536747,0.00010678193374176377
-0.47259564328414855,-0.47259564328414855,0.9999720469493752,0.00010816458264511994
-0.4725098570401315,-0.4725098570401315,0.9999312279036132,0.0001098180538937851
-0.47239477446710226,-0.47239477446710226,0.9998067526901115,0.00010468261511280722
