time,time,flux,flux_err
-0.4993499746148397,-0.4993499746148397,0.9996451353363963,0.0002767914878183791
-0.49858138675942126,-0.49858138675942126,0.9998579541151861,0.0002781020261412786
-0.49735166975794226,-0.49735166975794226,0.9999634149101616,0.00027940342712263176
-0.49633546802724593,-0.49633546802724593,0.9996093154896005,0.00025580763155927573
-0.4949266176990932,-0.4949266176990932,1.0001116890342767,0.00025340597310007475
-0.49319388596850333,-0.49319388596850333,1.0000328678779247,0.0002533317954522162
-0.4911193744337652,-0.4911193744337652,1.000277563548976,0.00025311053694395877
-0.4897227713750908,-0.4897227713750908,0.9999375597676806,0.0002538394779403253
-0.48887556629197204,-0.48887556629197204,1.0001000061518477,0.0002530616760419425
-0.4875234895487665,-0.4875234895487665,0.9998648269674237,0.00025493614378633287
-0.4856614674346929,-0.4856614674346929,1.0003163627052707,0.00025271392090303786
-0.4839132063789293,-0.4839132063789293,1.0003896778680472,0.00025380847724124783
-0.48226229745123417,-0.48226229745123417,0.9998763289379136,0.00025483784265964036
-0.4811975121599971,-0.4811975121599971,0.9998429383298484,0.00025409337128334873
-0.4802100206914474,-0.4802100206914474,0.9999365932457106,0.00025403203714395963
-0.4792647434878745,-0.4792647434878745,0.9998401151846983,0.00025632120403699824
-0.47808663826072006,-0.47808663826072006,1.0003039606351947,0.00025350949855488516
-0.47668912119115703,-0.47668912119115703,0.9997653567913091,0.00025352137672051474
-0.47483692965470253,-0.47483692965470253,0.9998345340930068,0.00025332279602900947
-0.47321053436462535,-0.47321053436462535,0.9999208632729518,0.0002541407414526682
-0.47123288308939665,-0.47123288308939665,1.0000553795324667,0.0002532326229272685
-0.4693347783992067,-0.4693347783992067,1.0000624684934611,0.0002531208816301885
-0.4679147836788616,-0.4679147836788616,1.000012845082916,0.00025296616286783096
-0.46628997475927464,-0.46628997475927464,1.0002266610128772,0.00025387934320085113
-0.4649139941458998,-0.4649139941458998,0.9997819945401683,0.00025293182313052746
-0.46418239653357884,-0.46418239653357884,1.0004091173136571,0.00025403512307281735
-0.463462568212708,-0.463462568212708,0.9996667713634665,0.0002554039487946655
-0.46252648116569617,-0.46252648116569617,1.0002375368951923,0.0002541661475503641
-0.4614173224785191,-0.4614173224785191,1.0000562712806005,0.00025348723494661153
-0.45972876312007427,-0.45972876312007427,1.0002385845918114,0.0002528192170614297
-0.45827786672889487,-0.45827786672889487,0.9999099278673544,0.0002543212034270833
-0.4566978249989916,-0.4566978249989916,1.0003681689442412,0.00025383346126905547
-0.45562750806566327,-0.45562750806566327,1.0001857875847158,0.00025322336366997414
-0.45448494877418855,-0.45448494877418855,1.0001430121134216,0.0002528528919791103
-0.45269503938761774,-0.45269503938761774,0.9997835698745436,0.0002557823914780573
-0.4512864453579823,-0.4512864453579823,1.000120162959734,0.00025276304995437406
-0.4497164319109288,-0.4497164319109288,1.0002151375453359,0.0002548127599501124
-0.44821044451527997,-0.44821044451527997,0.9999656763533356,0.0002537572356542294
-0.44745356205748976,-0.44745356205748976,1.0000094396605415,0.0002536485683626803
-0.4465182646556059,-0.4465182646556059,1.000152598693847,0.00025398155064629475
-0.4459514826361556,-0.4459514826361556,0.9997518190001186,0.00025430561377719793
-0.44497837795424855,-0.44497837795424855,1.0000813468194547,0.0002545964993626278
-0.44383184475518644,-0.44383184475518644,1.0000325250742557,0.0002530864488234142
-0.4424091596440121,-0.4424091596440121,0.999800460837791,0.00025275659986258607
-0.4408946343435673,-0.4408946343435673,1.0003176641935692,0.0002544062225455422
-0.4389253710454796,-0.4389253710454796,1.0003565281530808,0.00025307571780518287
-0.4378223266772693,-0.4378223266772693,1.0005313573538877,0.0002541298494460627
-0.43658331905899106,-0.43658331905899106,1.0006773694587978,0.0002532323035210254
-0.43487306618408184,-0.43487306618408184,1.0000344755204624,0.00025530858482396805
-0.43297795596299693,-0.43297795596299693,1.0002593206265087,0.0002538684306596066
-0.43110269925673494,-0.43110269925673494,0.9997987078049262,0.00025591608227004843
-0.4300116288010031,-0.4300116288010031,1.00002310353806,0.00025294983153824487
-0.4288702552403265,-0.4288702552403265,1.000004405528058,0.0002541216979353413
-0.42795819615203073,-0.42795819615203073,0.9995393396045797,0.0002526319597428881
-0.4269751147425268,-0.4269751147425268,1.0003364488512372,0.00025390175667882247
-0.4256609290998313,-0.4256609290998313,0.9998257964016549,0.00025286752454504866
-0.42434072995529276,-0.42434072995529276,0.9999911946663749,0.00025290205589167806
-0.4222831407154445,-0.4222831407154445,1.0001606480979166,0.0002546610897816113
-0.42030791755460084,-0.42030791755460084,0.9998300973627445,0.00025286588028456726
-0.41891253458306893,-0.41891253458306893,0.9998088101258584,0.0002530968846834323
-0.4174919460900128,-0.4174919460900128,0.9998744515340684,0.0002562860616796894
-0.41632780804793584,-0.41632780804793584,1.0006988472925922,0.0002545350561645887
-0.41517788821802243,-0.41517788821802243,0.9998320816543099,0.00025330655691384476
-0.41341238874665576,-0.41341238874665576,1.0002174603490466,0.0002526927498651371
-0.411871867467562,-0.411871867467562,1.0002049479218758,0.00025289961337996
-0.41114907223163755,-0.41114907223163755,1.0001801736017908,0.0002540710281552824
-0.4102506999974139,-0.4102506999974139,1.0000447574798024,0.00025554897563095024
-0.40830089841329026,-0.40830089841329026,1.0001463079266777,0.0002533464112999653
-0.40684826135548063,-0.40684826135548063,0.9997394606788234,0.00025350492016022595
-0.4043629949068418,-0.4043629949068418,0.9997726573937212,0.00025269545209600017
-0.4031793317342817,-0.4031793317342817,1.0002125611538557,0.00025413379620283806
-0.4020722028479213,-0.4020722028479213,1.0001358575675565,0.0002549089593045518
-0.40095186415783246,-0.40095186415783246,0.999897878974707,0.0002548909215930993
-0.3997074513383268,-0.3997074513383268,1.0001220219590132,0.00025630715619093486
-0.39837621612168733,-0.39837621612168733,0.9999042772008121,0.0002534262549560126
-0.3963324546974036,-0.3963324546974036,1.0004476076210918,0.00025275808725694186
-0.39444668921132686,-0.39444668921132686,0.9999001664037953,0.00025375445449555737
-0.39329250841692553,-0.39329250841692553,1.000438933157653,0.0002528367365993773
-0.3921178374643205,-0.3921178374643205,0.9998787097352249,0.0002551262484247702
-0.3907798434862343,-0.3907798434862343,1.000227038009868,0.0002553267677864794
-0.3894242618451244,-0.3894242618451244,1.0000220452524498,0.0002536508730628658
-0.3870674729936582,-0.3870674729936582,0.9998884527603542,0.00025400122291288553
-0.3860125232276914,-0.3860125232276914,1.0001451278441267,0.00025274620283394255
-0.3852611920025083,-0.3852611920025083,1.0001661497242744,0.00025405865366224514
-0.38401428614452016,-0.38401428614452016,1.0004040710109967,0.0002554292088326297
-0.38315234101028184,-0.38315234101028184,1.0000791955574875,0.00025608069593954287
-0.38187679433613086,-0.38187679433613086,0.9999296528029239,0.00025340563669111693
-0.3805170570820337,-0.3805170570820337,0.999870673853866,0.000254798566037568
-0.3786307423484686,-0.3786307423484686,0.9999800010311682,0.0002526215721399713
-0.37732239249380656,-0.37732239249380656,0.9999114245999188,0.00025307500799085663
-0.3762217647046782,-0.3762217647046782,0.9998840823613577,0.00025367087910561686
-0.3753708647345775,-0.3753708647345775,1.000199431342312,0.0002541546273220934
-0.37346916757087456,-0.37346916757087456,1.0000704973223846,0.0002539645163074924
-0.3714266742237669,-0.3714266742237669,0.9999405806364685,0.00025375000122335786
-0.3693500047993439,-0.3693500047993439,1.0000623254028371,0.00025480878026096275
-0.3683405338073499,-0.3683405338073499,1.0000160055814635,0.0002540166748629914
-0.36756296223611573,-0.36756296223611573,1.000231433534284,0.00025305578915033326
-0.36660822925259706,-0.36660822925259706,0.9999719458919791,0.0002544117461413868
-0.3655280557577498,-0.3655280557577498,1.0000726108710432,0.0002606782826280834
-0.3640653800823202,-0.3640653800823202,0.9999953810025648,0.0002527196638045354
-0.36324976442410845,-0.36324976442410845,1.000077552547855,0.0002548166487262636
-0.3615063942874258,-0.3615063942874258,0.9998509281021489,0.0002534233106962384
-0.3600828220762196,-0.3600828220762196,0.9999824276577132,0.0002530680770462117
-0.3582118283935415,-0.3582118283935415,1.0000184138668158,0.00025526980417869046
-0.35652753453832703,-0.35652753453832703,1.0001214047307259,0.0002538287886846647
-0.3552536464732839,-0.3552536464732839,0.9999899501171067,0.0002538065816024494
-0.35360581007334985,-0.35360581007334985,0.9999834553121716,0.000254006678412581
-0.3520391511759954,-0.3520391511759954,1.0000617930418723,0.00025295107065340404
-0.3510254607375828,-0.3510254607375828,0.9994948040182999,0.0002539611595521153
-0.35022927844402146,-0.35022927844402146,1.000257499183995,0.0002542411521970949
-0.34916232996984037,-0.34916232996984037,0.9998183345097837,0.00025453624753199363
-0.34763422325850113,-0.34763422325850113,1.0001352726195756,0.00025284393598015253
-0.3463986432499951,-0.3463986432499951,1.0002791444659997,0.0002536697284177135
-0.34489895926526515,-0.34489895926526515,1.0006268287810118,0.00025476048241686625
-0.3433513013376796,-0.3433513013376796,1.000208649620773,0.00025266695071862126
-0.3423178945624386,-0.3423178945624386,0.9995336757807405,0.00025307757174257363
-0.3407671344037226,-0.3407671344037226,0.9997555749296072,0.000255237434832544
-0.3389689488678414,-0.3389689488678414,0.9999849388418707,0.000253326421299445
-0.33752131249639206,-0.33752131249639206,1.0002753158850524,0.00025406948522316584
-0.3361175732577976,-0.3361175732577976,1.0002083289499955,0.0002560356158161841
-0.33478728584959755,-0.33478728584959755,1.0000514951842034,0.0002533813469645895
-0.3340439430627157,-0.3340439430627157,1.000059611786387,0.00025303539586353936
-0.33326120509009344,-0.33326120509009344,1.0000466035968516,0.00025547122753292827
-0.33272521436520036,-0.33272521436520036,1.0002735614986022,0.00025283341421674163
-0.33176535480088204,-0.33176535480088204,1.0001478680404814,0.00025457911786026035
-0.3307724460901227,-0.3307724460901227,0.9999911702209585,0.00025317578987356143
-0.3293585042527411,-0.3293585042527411,1.000299038061415,0.00025279419408245966
-0.3278455857129302,-0.3278455857129302,0.9998688783224997,0.00025439646396364723
-0.3257271133006725,-0.3257271133006725,1.000108732257896,0.00025298394227253867
-0.3245785807390348,-0.3245785807390348,0.9998511779676196,0.0002541462145917779
-0.32321913828345716,-0.32321913828345716,0.9996313159654197,0.0002530940775990819
-0.32182322584558276,-0.32182322584558276,1.000168556786641,0.0002552898045615797
-0.32034252747980646,-0.32034252747980646,0.9997728785813766,0.0002527080722205293
-0.31910444973545965,-0.31910444973545965,1.000172513461789,0.00025712239613758035
-0.31737520322931234,-0.31737520322931234,0.9999778166679084,0.00025296839600452936
-0.31622714854602235,-0.31622714854602235,0.9999473474144456,0.00025288011576928563
-0.3153358690586174,-0.3153358690586174,0.9999459829213194,0.0002539407265183972
-0.31413487977624754,-0.31413487977624754,1.0000942588237303,0.0002535259569219126
-0.3129147267783992,-0.3129147267783992,0.9998794215032036,0.00025311025593122843
-0.3116807931291987,-0.3116807931291987,1.0000983887215134,0.0002528074087211808
-0.309306535761425,-0.309306535761425,1.0000091988580382,0.00025361358574472873
-0.3072588680071931,-0.3072588680071931,1.0002786363400158,0.00025291732137519264
-0.3058635857349145,-0.3058635857349145,1.000311720294871,0.00025315581989288093
-0.3047658391755249,-0.3047658391755249,0.999822764504161,0.00025624909797314306
-0.3035452757096209,-0.3035452757096209,1.0004907845614335,0.00025447499908888197
-0.3027759094373323,-0.3027759094373323,0.9999148785019022,0.00025336024668582704
-0.3005452849560243,-0.3005452849560243,0.9998896510211346,0.0002526829265877378
-0.29882249438669534,-0.29882249438669534,0.9996961259730351,0.0002528405544838967
-0.2979893886629725,-0.2979893886629725,0.9997287747815593,0.00025406182587328554
-0.2965841728619125,-0.2965841728619125,1.0000959653120414,0.00025403273635622134
-0.2945450893632369,-0.2945450893632369,0.9999494169609513,0.00025265260803477923
-0.29275401381310073,-0.29275401381310073,1.0003245159208103,0.0002549636675169991
-0.2912530144472839,-0.2912530144472839,1.0001251794009822,0.00025268560476335826
-0.29018080552705217,-0.29018080552705217,1.0001824659281322,0.0002539839084596735
-0.289311556697794,-0.289311556697794,0.9995882567359814,0.0002540792673546382
-0.28815309635174347,-0.28815309635174347,0.9997287277582473,0.0002556627878576877
-0.28688592362814236,-0.28688592362814236,1.0001265028512614,0.00025452936626628155
-0.28553524278540865,-0.28553524278540865,0.9997750110607801,0.0002559273019499186
-0.28439129088874326,-0.28439129088874326,0.999847703914584,0.0002533493058273863
-0.2817525542937801,-0.2817525542937801,1.0002716601067143,0.0002528161777795658
-0.2804347301636881,-0.2804347301636881,1.000067880776887,0.00025377851448406074
-0.2793215478552156,-0.2793215478552156,0.9996794838744456,0.0002546927781720956
-0.27800573655113114,-0.27800573655113114,1.0001176852017974,0.00025572647617083704
-0.2767703254299704,-0.2767703254299704,1.0003099594103042,0.0002528072639394341
-0.27439682990298025,-0.27439682990298025,1.0002362315976823,0.0002551140372072737
-0.2733979222459311,-0.2733979222459311,1.000302451311168,0.00025267228748736335
-0.27243083029970877,-0.27243083029970877,0.9997225789796393,0.0002541048410117405
-0.2711005733188358,-0.2711005733188358,0.9999601352803165,0.0002554214828610695
-0.27031764442290296,-0.27031764442290296,1.0001864789278117,0.00025600864846799133
-0.2694912769351504,-0.2694912769351504,0.9996138644724774,0.0002532948127609311
-0.26787670447156414,-0.26787670447156414,1.0000612307829855,0.00025350016900308684
-0.26566461289621657,-0.26566461289621657,0.999899223978973,0.00025263057458276483
-0.26448044694770945,-0.26448044694770945,1.000444985164246,0.0002531444745533899
-0.2633266917808214,-0.2633266917808214,0.9997763773201704,0.00025355894521882273
-0.2623204804265697,-0.2623204804265697,0.999789845083187,0.0002541237080252845
-0.2604200840643898,-0.2604200840643898,1.000192503039122,0.0002539784670326878
-0.25868604301576853,-0.25868604301576853,0.9998135508998824,0.00025381305576639604
-0.2566752967373759,-0.2566752967373759,1.0002174043521284,0.0002569768146956326
-0.2556226197833894,-0.2556226197833894,0.9997146415925758,0.0002527779698232225
-0.2546992426730867,-0.2546992426730867,0.9994220613085668,0.0002542790559915738
-0.2537123014350072,-0.2537123014350072,0.999905313948393,0.00025443426932397593
-0.25243670561976617,-0.25243670561976617,0.9996648056112367,0.0002544791421577045
-0.2505833738185174,-0.2505833738185174,1.0000542850342655,0.0002536073339305512
-0.24952572632028022,-0.24952572632028022,0.9995559216443727,0.00025475021901574026
-0.24780078336480074,-0.24780078336480074,0.999569259936098,0.00025264141876683583
-0.24611708972224733,-0.24611708972224733,0.9997023153968728,0.0002531128276338899
-0.24404236382979433,-0.24404236382979433,0.9998356556337514,0.0002557428193767634
-0.24241066889080684,-0.24241066889080684,1.0001855250574785,0.0002527150776025661
-0.24002733122251813,-0.24002733122251813,0.9995364012038148,0.0002537694078518023
-0.23867749199052923,-0.23867749199052923,1.0001510605862332,0.0002529618468764567
-0.23758462728437735,-0.23758462728437735,1.0004193606259617,0.00025558828370894605
-0.23706397462374298,-0.23706397462374298,1.0001017598380952,0.00025262911220041664
-0.23611279163305882,-0.23611279163305882,1.000439231879414,0.00025455616879438306
-0.23458440141403117,-0.23458440141403117,1.0000181402243373,0.00025281705819409214
-0.23352196020787233,-0.23352196020787233,0.9999087310757705,0.00025283275437830985
-0.23250616330769844,-0.23250616330769844,1.0003414461509044,0.0002538575226363898
-0.23150506316378597,-0.23150506316378597,0.9997328718415893,0.00025354287903173005
-0.23001145190210082,-0.23001145190210082,1.0000877456547408,0.0002530464975758256
-0.22880065016288426,-0.22880065016288426,0.999984233953153,0.00025285052821124383
-0.2273456439645088,-0.2273456439645088,1.0001882895885437,0.0002563305665662345
-0.22585571747476935,-0.22585571747476935,0.9999892255475784,0.00025339673191964167
-0.2241416392964311,-0.2241416392964311,0.9998210069625294,0.0002537365130396469
-0.22274753637248068,-0.22274753637248068,1.0000389161097536,0.0002559394651115015
-0.22162020133037003,-0.22162020133037003,0.9996350704497248,0.00025459122960491524
-0.22099400963488733,-0.22099400963488733,1.000178554941611,0.00025305549562514273
-0.22013923710255767,-0.22013923710255767,1.0002372079395463,0.0002556470535589782
-0.219490720959584,-0.219490720959584,0.999582505662117,0.0002526378027135104
-0.2185037997624022,-0.2185037997624022,1.0003280453226036,0.0002547366886832006
-0.21739763313744334,-0.21739763313744334,1.0001942857763957,0.00025307678244105246
-0.2162553279871645,-0.2162553279871645,1.0001308927266035,0.0002532814198128956
-0.21539984683768126,-0.21539984683768126,1.0003987808268107,0.0002550423196040003
-0.21353372117664549,-0.21353372117664549,0.9999973077138062,0.0002533345406476497
-0.2118574947475281,-0.2118574947475281,1.000386983259464,0.000254509367511156
-0.21102266782327206,-0.21102266782327206,0.9998414022902609,0.000252666844841914
-0.2094938221729535,-0.2094938221729535,0.9999632498112119,0.00025573592889069265
-0.20780444305783022,-0.20780444305783022,0.999820577646026,0.000252753058412772
-0.20659155216126238,-0.20659155216126238,0.99984029445177,0.0002558799789761096
-0.20475956934096756,-0.20475956934096756,1.0001400884747196,0.0002538990763201375
-0.20367265883396612,-0.20367265883396612,1.0000554721199137,0.0002530645064627474
-0.202636119928502,-0.202636119928502,0.9997949298043993,0.0002540137468524224
-0.20157954593742033,-0.20157954593742033,1.0000380347410616,0.0002527816276342411
-0.20055314165219898,-0.20055314165219898,1.000143897128852,0.0002538822494518028
-0.19918034898946643,-0.19918034898946643,1.0003659916893917,0.00025282903300198227
-0.19707839251495898,-0.19707839251495898,1.0000505783447002,0.0002535269081561294
-0.19448314100009156,-0.19448314100009156,0.9997181502535206,0.00025273892584519724
-0.19305226230062544,-0.19305226230062544,0.9996030853458924,0.0002532411405687687
-0.19139276905625593,-0.19139276905625593,1.0000346687215835,0.00025626015548615766
-0.190276492240082,-0.190276492240082,0.9998896302454652,0.0002544908647284519
-0.18941493894744782,-0.18941493894744782,0.9997716679060321,0.00025327871238566794
-0.18719217876787297,-0.18719217876787297,0.9997157845838753,0.00025268423022729847
-0.18577312251873082,-0.18577312251873082,1.0002620161924294,0.00025289469986390303
-0.18493944674337398,-0.18493944674337398,1.0002781085270835,0.0002540956812037876
-0.18387671112213866,-0.18387671112213866,1.0000516408571498,0.0002533856765418584
-0.18225210001983214,-0.18225210001983214,1.0000931390197045,0.0002533195202073854
-0.18077772827164154,-0.18077772827164154,0.9999096753843961,0.000253556610392933
-0.17878284004400485,-0.17878284004400485,1.0000862510796942,0.00025418750670907066
-0.17806758763836114,-0.17806758763836114,1.000182990129955,0.0002526255914727086
-0.1769431378430454,-0.1769431378430454,0.9998125856346591,0.00025408515706389003
-0.17597410284724901,-0.17597410284724901,1.0001254276880238,0.0002548855885453698
-0.1748845462068857,-0.1748845462068857,0.9997522590914774,0.0002548790998115747
-0.17359190674615094,-0.17359190674615094,0.9998400837374796,0.00025352021256050227
-0.17197553475052701,-0.17197553475052701,1.0002129889229825,0.0002534454782727691
