time,time,flux,flux_err
-0.4995209940798304,-0.4995209940798304,0.9994095741750453,0.0008591312409806098
-0.49812816283883876,-0.49812816283883876,0.9999495300339623,0.0007467827625895825
-0.4965827605472441,-0.4965827605472441,0.999703439549573,0.0007550689208055048
-0.49521917633937845,-0.49521917633937845,0.9998654357433836,0.0007246910787740741
-0.4938667617920146,-0.4938667617920146,0.9996218809198801,0.0007626177423556009
-0.4927577989088604,-0.4927577989088604,0.9993521207951549,0.0007346533756260705
-0.4913871269789524,-0.4913871269789524,1.0003842933417046,0.0007915326768167122
-0.49011142551607917,-0.49011142551607917,1.0003798116413019,0.0007787182337783427
-0.48894346471279276,-0.48894346471279276,1.0014805768835982,0.0007632682576855467
-0.48776490944146644,-0.48776490944146644,0.9991704280567972,0.0007382951558958018
-0.48606819835331405,-0.48606819835331405,0.9987463201603756,0.0007633705121045765
-0.4846929659983289,-0.4846929659983289,1.0001050146366521,0.0007344654520320066
-0.48311684802611127,-0.48311684802611127,0.9997732096375836,0.0007601458799939606
-0.4816937734336534,-0.4816937734336534,1.000933077296862,0.0007688916319079058
-0.4803726570829895,-0.4803726570829895,1.0009571293570825,0.000743449974343613
-0.47936387079353154,-0.47936387079353154,1.0005844759430347,0.0007456029697522151
-0.47779349133015786,-0.47779349133015786,0.9998028075315745,0.0007366538489108099
-0.4764025146781933,-0.4764025146781933,1.000088964207439,0.00075064210031244
-0.4747004146047402,-0.4747004146047402,1.0007888325044385,0.0007734724082360627
-0.4738020939868875,-0.4738020939868875,0.9999182304650592,0.0007518111520240379
-0.47256358105842083,-0.47256358105842083,0.9999560990028812,0.000729763171008269
-0.47139786977168113,-0.47139786977168113,0.999385073305578,0.0007797745948737408
-0.4702579929256899,-0.4702579929256899,0.999903184185424,0.0007357228160774093
-0.46885883056311284,-0.46885883056311284,1.0009966948515845,0.0007540264463799123
-0.4676020905477344,-0.4676020905477344,1.0007404197995595,0.000735338711196451
-0.4661615800760046,-0.4661615800760046,1.000104814293421,0.0007900972071415834
-0.46509673313594246,-0.46509673313594246,0.9987416728591629,0.0007351140550492157
-0.46409047500274025,-0.46409047500274025,1.0000548277736274,0.000778493965546374
-0.46284596539371703,-0.46284596539371703,0.9994812871419281,0.0007457873099902884
-0.46207338026470096,-0.46207338026470096,1.0004589626131726,0.0007863007687096609
-0.460726422089283,-0.460726422089283,1.0004433670583206,0.0007152753231982158
-0.4599044620663335,-0.4599044620663335,0.9996345368732745,0.0007938768427799599
-0.45928054690775755,-0.45928054690775755,1.0006903723462046,0.0007600617188274084
-0.45818415869835005,-0.45818415869835005,0.9985253983646281,0.0007556039018146294
-0.4568364633199963,-0.4568364633199963,0.9997383646985678,0.0007537535533136446
-0.4556247805536259,-0.4556247805536259,0.9995302629378979,0.0007295438355185479
-0.45418091491919765,-0.45418091491919765,0.9992052852016553,0.0007611458089413004
-0.4535185384811484,-0.4535185384811484,1.0004633683343205,0.0007739592058575392
-0.4516644903327688,-0.4516644903327688,0.9994191365065962,0.0007426649450163858
-0.4501546033305203,-0.4501546033305203,0.9994087501146882,0.0007249102529992431
-0.44873360081692226,-0.44873360081692226,0.9998180173206841,0.0007701255926038584
-0.44740246142246176,-0.44740246142246176,1.0004991428974361,0.0007752801078842691
-0.44615933244240297,-0.44615933244240297,0.9993962205293843,0.0007565182878881914
-0.44509793175056983,-0.44509793175056983,1.0003820266205843,0.0007321366642022799
-0.44376059447640726,-0.44376059447640726,0.9997542598278344,0.0007432177625793986
-0.4424434269549238,-0.4424434269549238,0.9991694906549038,0.0007562438525945327
-0.4410318268852279,-0.4410318268852279,0.9998315875193097,0.00077706882134625
-0.43990487166011005,-0.43990487166011005,0.9990808305756322,0.0007440279524413742
-0.43918060465985037,-0.43918060465985037,0.9995941896746043,0.0007317673457060026
-0.43745157589219164,-0.43745157589219164,0.9998926939336187,0.0007769200838070804
-0.4363011108347564,-0.4363011108347564,1.0001134937352858,0.0007716069774937304
-0.43477355940012785,-0.43477355940012785,1.000227998735279,0.0007754897875940634
-0.43375256619401625,-0.43375256619401625,1.0010565651748362,0.0007381068049208078
-0.4321788274395658,-0.4321788274395658,0.9989295264413489,0.0007760235562446416
-0.43082633547455773,-0.43082633547455773,1.0003035714543325,0.0007343371840332395
-0.429263409946725,-0.429263409946725,1.0001995912742365,0.0007510298294857688
-0.42784468002937504,-0.42784468002937504,1.0006874784404407,0.0007301532117872793
-0.42608691791938325,-0.42608691791938325,0.9990383513503657,0.0007959220392553635
-0.4251224104005814,-0.4251224104005814,0.9996780627373509,0.0007418936882251433
-0.4242683294392918,-0.4242683294392918,0.9993724284725001,0.0007956873939320546
-0.4230051675418508,-0.4230051675418508,0.9997728912879416,0.0007422972886408612
-0.4214904401967942,-0.4214904401967942,1.000260657863702,0.000761507090326435
-0.4199498064012005,-0.4199498064012005,1.0003090887547237,0.0007386814640931913
-0.41846371335886945,-0.41846371335886945,1.0003537495870554,0.0007398206137715829
-0.41706478281812454,-0.41706478281812454,1.0002481485776435,0.000756437780860021
-0.415652443320505,-0.415652443320505,1.0012844700328043,0.0007680166857196571
-0.4145252356720448,-0.4145252356720448,0.9993836400237214,0.0007471887064075527
-0.41324023970082635,-0.41324023970082635,1.0008047993549773,0.0007260072454466325
-0.4114277604378003,-0.4114277604378003,0.9997662940943656,0.0007511857811859266
-0.40972572316604783,-0.40972572316604783,0.9998731328350632,0.0007730809554299398
-0.4086073813668918,-0.4086073813668918,0.9991326309036073,0.0007430977420911034
-0.4072724032070255,-0.4072724032070255,0.9996679207849999,0.0007705044051268249
-0.40610335843230133,-0.40610335843230133,1.0000684263063433,0.0007437223873269737
-0.40486420033448667,-0.40486420033448667,0.9991874794633013,0.0007261753317013785
-0.4035131223517965,-0.4035131223517965,0.9996696529321433,0.000764189114857814
-0.40230366642608717,-0.40230366642608717,0.9993157034959008,0.0007335555540026968
-0.4007601595207234,-0.4007601595207234,0.999430942903917,0.0007923409328840331
-0.3998419146180822,-0.3998419146180822,0.9991750607660906,0.0007563698354475705
-0.39839454786597345,-0.39839454786597345,1.0004724797364593,0.0007363091075133761
-0.3974294673145778,-0.3974294673145778,0.9993150306681858,0.0007865152497533717
-0.3966088355697138,-0.3966088355697138,0.9996433852027546,0.0007476522647912097
-0.3952667887464486,-0.3952667887464486,1.0011062010506682,0.0007702931302427513
-0.39468764709490645,-0.39468764709490645,1.0010227354184358,0.0007677349835242613
-0.3936682384712185,-0.3936682384712185,0.9997076055175255,0.0007210718786709446
-0.39236769668459603,-0.39236769668459603,1.0008064594784696,0.0007825105181839045
-0.3916506958925311,-0.3916506958925311,0.9994746444044535,0.0007435910029229394
-0.39027304912451655,-0.39027304912451655,0.9984574916852654,0.0007601229695763577
-0.3890341157468356,-0.3890341157468356,1.0000017739839213,0.0007888002878815748
-0.388044001153321,-0.388044001153321,1.0006902154443078,0.0007414264215116018
-0.38634814888173424,-0.38634814888173424,1.001356400275809,0.0007454550464534555
-0.38500681365003403,-0.38500681365003403,1.0007706773609004,0.0007201371660338462
-0.38349975396704394,-0.38349975396704394,0.9983070645057353,0.0007731104483125188
-0.3820540284006711,-0.3820540284006711,0.9999921624503406,0.0007433347692230536
-0.3806057569308905,-0.3806057569308905,1.0002177025976893,0.0007594206579036198
-0.37945744181670304,-0.37945744181670304,0.9999555690170505,0.0007291411397208183
-0.37818069124587056,-0.37818069124587056,0.9998371299663186,0.0007567354376730852
-0.37706690992054065,-0.37706690992054065,0.9993314936543705,0.000772958918562596
-0.37580275025684384,-0.37580275025684384,1.0000712621718164,0.0007439509207335256
-0.37474225803707667,-0.37474225803707667,1.0000919915240758,0.000735489951493442
-0.37375888035967364,-0.37375888035967364,0.9999273664617181,0.0007663136420903855
-0.3722261427592457,-0.3722261427592457,1.0000147607882943,0.0008083502042927242
-0.371035363388728,-0.371035363388728,1.0007950493304627,0.0007380646538911983
-0.3696392106186977,-0.3696392106186977,1.0001755060544109,0.0007842819270332514
-0.3685708861656167,-0.3685708861656167,0.9992210452202892,0.000734117680057205
-0.36682719552118215,-0.36682719552118215,1.0000591519473125,0.0007756818251132808
-0.3655777205123741,-0.3655777205123741,0.999047883207519,0.0007296554058681716
-0.3640037335611851,-0.3640037335611851,1.0006150287689417,0.0007523262525632701
-0.3625161104733706,-0.3625161104733706,0.999813434069605,0.0007404651072071373
-0.3611121935999108,-0.3611121935999108,1.0005546365556843,0.0007960586962120108
-0.36008014158942386,-0.36008014158942386,0.9996035829276059,0.0007752941212226321
-0.35899393021863946,-0.35899393021863946,0.9997451082802897,0.0007644568810698016
-0.3576144063470565,-0.3576144063470565,1.0006617940506919,0.0007438938381536549
-0.35571502129932925,-0.35571502129932925,1.000122641306679,0.0007648719979053546
-0.3547113188833464,-0.3547113188833464,0.9991149880083752,0.0007314317116312642
-0.3532575167933828,-0.3532575167933828,1.000277732283207,0.0007397716210146793
-0.3520900251980493,-0.3520900251980493,1.000034829157476,0.0007566503289246774
-0.3506777357291867,-0.3506777357291867,0.9999134333439462,0.0007686029849665198
-0.34955054501915583,-0.34955054501915583,1.0004589949301332,0.0007468782045876238
-0.348265530432036,-0.348265530432036,1.0004179061809844,0.0007256048087536163
-0.346453006226875,-0.346453006226875,0.9990142721807572,0.0007508530450777923
-0.3444197578719468,-0.3444197578719468,1.0003196650879747,0.0007772142461101365
-0.3433986951753468,-0.3433986951753468,1.0003373817516592,0.0007384952390520971
-0.3418248654863419,-0.3418248654863419,1.000108952926348,0.000780458137379712
-0.34071242160243853,-0.34071242160243853,0.9996600081572258,0.0007216144412115598
-0.3393140396296076,-0.3393140396296076,0.9997408939774276,0.000755178589152665
-0.3381560705252923,-0.3381560705252923,1.0009591344105653,0.0007431361007947874
-0.33667951792594975,-0.33667951792594975,0.9988793958102674,0.0007710772030596494
-0.33538265063143624,-0.33538265063143624,1.0000554555051806,0.0007478861334438727
-0.33474540311763124,-0.33474540311763124,1.0006249604860114,0.0007559187411628462
-0.3334197913769458,-0.3334197913769458,1.000858679221746,0.0007369034688446087
-0.3322853230372857,-0.3322853230372857,0.9992602509253213,0.0008002658611090134
-0.3313546130728355,-0.3313546130728355,0.9997163323188882,0.0007174876687908954
-0.33004267077776606,-0.33004267077776606,0.9998244403628274,0.0007817994984337868
-0.3293950225735898,-0.3293950225735898,0.9994390161438516,0.0007712998659730099
-0.3284668399606744,-0.3284668399606744,0.999888356877969,0.0007300502636050722
-0.32714752413921816,-0.32714752413921816,1.0001891860020364,0.000768229663408986
-0.32599864602125306,-0.32599864602125306,1.0010533965603916,0.0007600191192599479
-0.32442117480240995,-0.32442117480240995,1.0004184367638242,0.0007607247166600674
-0.3235691093792411,-0.3235691093792411,0.9990161312872434,0.0007746277493749264
-0.32178333071606174,-0.32178333071606174,1.0000998958591238,0.0007453207532839903
-0.32039158901170595,-0.32039158901170595,0.9995759063956691,0.000725513214902367
-0.31878403872688066,-0.31878403872688066,1.000356516276814,0.0007705940399972226
-0.3175482019370975,-0.3175482019370975,0.9991128535976068,0.0007330860751601064
-0.31599726322601784,-0.31599726322601784,1.0007188301112766,0.0007590480216421827
-0.314963336839719,-0.314963336839719,1.0007218976997048,0.0007400926038466665
-0.3140577766880597,-0.3140577766880597,1.0004926009815398,0.0007552409050818482
-0.31281799554744794,-0.31281799554744794,0.9998794996932956,0.0007404060877902696
-0.3118224320973241,-0.3118224320973241,1.0003357134509294,0.0007792658283915945
-0.31055320741397735,-0.31055320741397735,0.9997545308340399,0.0007341438028638265
-0.3096713247567095,-0.3096713247567095,1.0001814958592743,0.0007402385947604352
-0.308661737154398,-0.308661737154398,0.999541906513444,0.0007654371957675457
-0.30740965167424295,-0.30740965167424295,0.9995376848792704,0.000791188022901978
-0.30657561997031735,-0.30657561997031735,0.9993137951723774,0.0007614737064706842
-0.3048241046119074,-0.3048241046119074,1.0000470203454555,0.0007753833182443254
-0.30380312057968695,-0.30380312057968695,0.9996557910322421,0.0007378390216696268
-0.3022293952857581,-0.3022293952857581,1.0011865219765819,0.0007763969831983249
-0.3008769275940722,-0.3008769275940722,0.9999747177988635,0.0007345060447261287
-0.2993139847763814,-0.2993139847763814,0.9995719989022096,0.0007504841888054292
-0.29804516924596103,-0.29804516924596103,1.0001324684666622,0.000745416234513041
-0.29671235552414144,-0.29671235552414144,1.0003738062315377,0.0007862140147429982
-0.2953454940929078,-0.2953454940929078,0.9985498392732483,0.0007577538735539205
-0.29458708874190054,-0.29458708874190054,1.0005129524033856,0.0007977224351399075
-0.2931528326778789,-0.2931528326778789,1.0006844301563764,0.0007416541335978458
-0.2915410462104774,-0.2915410462104774,1.0001239012298169,0.0007608260756848273
-0.2900003240953083,-0.2900003240953083,1.0001418717640445,0.0007380801462137986
-0.2885143106374016,-0.2885143106374016,1.0001033120951959,0.0007389119734120427
-0.2871152676347265,-0.2871152676347265,0.9993505904450259,0.0007562906029573763
-0.2857030281480547,-0.2857030281480547,0.9989852229781453,0.0007690595001957374
-0.2845758541367104,-0.2845758541367104,0.9992761229676563,0.0007462900478952498
-0.2832908212196344,-0.2832908212196344,0.99893177973308,0.0007257060126938359
-0.2817159594793338,-0.2817159594793338,0.9985139838056029,0.0007468126315954838
-0.27998432705499,-0.27998432705499,0.9994022319020827,0.0007517543563824778
-0.27891709313407775,-0.27891709313407775,0.9999503294775586,0.0007713267981009799
-0.27750358801640684,-0.27750358801640684,0.9993700858511534,0.0007580695016885179
-0.27615392197621985,-0.27615392197621985,1.0004171033615943,0.0007437180165420433
-0.27491491621876774,-0.27491491621876774,0.9999582288228412,0.0007264090771215481
-0.27356364096813196,-0.27356364096813196,0.9995716230173185,0.0007636051915097038
-0.27235427259402056,-0.27235427259402056,1.0000902677943315,0.0007334586242801782
-0.2707981841012952,-0.2707981841012952,1.0000826206317701,0.0007931681149828736
-0.26977071215987963,-0.26977071215987963,1.0000098266050916,0.0007558724214154855
-0.26844503490247007,-0.26844503490247007,0.9997870165550401,0.0007373694145635687
-0.26747467842542394,-0.26747467842542394,1.0001458417383966,0.0007721334580109093
-0.2666594237110985,-0.2666594237110985,1.0008372205836629,0.0007480360928913665
-0.265228485337866,-0.265228485337866,0.9996248031249874,0.0007739592251219948
-0.2645875289639662,-0.2645875289639662,1.0006538673817837,0.0007761769623126838
-0.2637189033372124,-0.2637189033372124,0.9994806802700789,0.0007205581465892868
-0.2621727851790638,-0.2621727851790638,0.9998185247961061,0.0007674262390881066
-0.26102393078435854,-0.26102393078435854,1.00163347856297,0.0007609969726554546
-0.25966806293436095,-0.25966806293436095,0.9993866750769648,0.0007517756464298349
-0.258922968436309,-0.258922968436309,0.9998009653614132,0.0007864025141054006
-0.25706745198149294,-0.25706745198149294,1.0006249085479832,0.0007466961582889894
-0.25541694213352456,-0.25541694213352456,1.000596898744631,0.0007256303717898926
-0.25380925786266745,-0.25380925786266745,0.9989752994061163,0.0007704512486514153
-0.2524515545610484,-0.2524515545610484,1.0001565943983848,0.000733349254345832
-0.2507747096584353,-0.2507747096584353,1.0000280411586364,0.0007459114196702865
-0.24968693534210615,-0.24968693534210615,0.9987462313161407,0.0007362186132804857
-0.24861674005296663,-0.24861674005296663,0.9997203364374055,0.0007522104166303061
-0.2477492774010898,-0.2477492774010898,0.9995868089425695,0.0007467836103435478
-0.2466044876648084,-0.2466044876648084,1.000633144758783,0.0007739170935237454
-0.2452993889706704,-0.2452993889706704,1.000080907912364,0.0007516224025531269
-0.24457943551788047,-0.24457943551788047,1.0007130054993112,0.00073318247529784
-0.24334714770884602,-0.24334714770884602,1.0001861033969695,0.0007600782360828982
-0.2423137493115064,-0.2423137493115064,0.999428688728422,0.0007983107235227228
-0.24162103181006386,-0.24162103181006386,0.9993575921056873,0.000771155568386695
-0.23984937737404835,-0.23984937737404835,1.000266465725603,0.00077493138815972
-0.23882839792458982,-0.23882839792458982,0.9992685170526985,0.0007376320021191088
-0.23725467947260767,-0.23725467947260767,1.0006068469192553,0.0007762160513741024
-0.2359022230735718,-0.2359022230735718,0.9989844292923991,0.0007347793584421691
-0.23438270982405812,-0.23438270982405812,0.9993839856235527,0.0007343584190179888
-0.2332509099283925,-0.2332509099283925,0.999890472528849,0.0007512160131274699
-0.23173761306970847,-0.23173761306970847,1.0006232704711226,0.000785887960791818
-0.23037080822941788,-0.23037080822941788,1.0007693502840072,0.0007578823444000639
-0.22961236276387353,-0.22961236276387353,0.9974323253295168,0.0007976990847629022
-0.22822329864429775,-0.22822329864429775,0.9993818671763364,0.000753341533966561
-0.22692375151127636,-0.22692375151127636,1.000234002937343,0.000734854098705215
-0.22527754187685786,-0.22527754187685786,1.0001463169995035,0.0007639985457661445
-0.2238916441805486,-0.2238916441805486,1.000039517308361,0.0007418981299827953
-0.22238352095373556,-0.22238352095373556,1.0000779636621902,0.0007447813172101277
-0.2209985992492875,-0.2209985992492875,0.9991971062263969,0.0007622016551477519
-0.21971062655247806,-0.21971062655247806,1.0002500825517315,0.0007638894984507316
-0.21870524006262712,-0.21870524006262712,1.0001671811968884,0.0007272134621414064
-0.21701760207070037,-0.21701760207070037,0.9993844598573096,0.0007447323186205954
-0.2153501885892183,-0.2153501885892183,0.9999447230004954,0.0007193252199614224
-0.2141948215845332,-0.2141948215845332,1.0002035461429422,0.0008006212893298612
-0.21284980575364898,-0.21284980575364898,0.9993454549348547,0.0007489857466311327
-0.2113048119514133,-0.2113048119514133,0.9998944869484792,0.0007556741343476413
-0.2102456819575309,-0.2102456819575309,0.9980311157087417,0.0007249878006440641
-0.20881184293757543,-0.20881184293757543,0.9994729326160448,0.0007638159480989156
-0.20770326222227595,-0.20770326222227595,1.0009250296895267,0.0007349684037704603
-0.20610894696001197,-0.20610894696001197,1.0005404253934407,0.0007924551540860657
-0.2049480585494166,-0.2049480585494166,1.0001224134462248,0.0007186062956462444
-0.2037973571841576,-0.2037973571841576,0.9988058126792867,0.0007664616519567126
-0.20262478749937146,-0.20262478749937146,1.0004394543654058,0.0007653320860535251
-0.20168471789475007,-0.20168471789475007,1.0003894772863948,0.0007480192107325595
-0.20018173606258644,-0.20018173606258644,0.9989348186546338,0.000752445487613593
-0.1994455639109219,-0.1994455639109219,1.000818618532795,0.0007718466261561022
-0.19849281941424124,-0.19849281941424124,1.0007739151157538,0.0007449806704256696
-0.197192918359724,-0.197192918359724,1.0002564511936782,0.0007522323515995858
-0.1963223767492309,-0.1963223767492309,0.9997207156743176,0.0007655950734269822
-0.19491174720387788,-0.19491174720387788,1.00154401090222,0.0007579487323479446
-0.19404354079888436,-0.19404354079888436,0.9997500381270505,0.0007924861567386761
-0.19251309141836828,-0.19251309141836828,1.000616759076368,0.0007332787738129449
-0.19087103272759123,-0.19087103272759123,0.9989164443054065,0.0007439052293580532
-0.18901862950151554,-0.18901862950151554,0.9998087128008756,0.0007566007450269254
