time,time,flux,flux_err
-0.4994258973451622,-0.4994258973451622,0.9999210101530451,1.8564598532539022e-05
-0.4981638226971512,-0.4981638226971512,0.9998647758779585,1.856887659577612e-05
-0.4969305692603901,-0.4969305692603901,0.9999335228593879,1.8564955749496646e-05
-0.49580684329748126,-0.49580684329748126,0.9998950670907844,1.695271259794196e-05
-0.4948107322874421,-0.4948107322874421,0.9999201922541745,1.6948077169974286e-05
-0.4938256401202068,-0.4938256401202068,0.9999077688751816,1.694663809255961e-05
-0.4927783369692008,-0.4927783369692008,0.9999079649993368,1.6948681118923084e-05
-0.4918078977158757,-0.4918078977158757,0.9998518677298595,1.695227152078514e-05
-0.49081177405019505,-0.49081177405019505,0.9998949055639066,1.694759424794372e-05
-0.4898267129068813,-0.4898267129068813,0.9999174950201806,1.6946729411669726e-05
-0.4887794041032748,-0.4887794041032748,0.9999364165281804,1.6948886031243045e-05
-0.4878089522640437,-0.4878089522640437,0.9998635354120967,1.6952579001111507e-05
-0.48681281594378445,-0.48681281594378445,0.9998868274884988,1.6947270810025845e-05
-0.4858277858297356,-0.4858277858297356,0.9999110801508053,1.694669358218317e-05
-0.48478047136599683,-0.48478047136599683,0.9999308188238146,1.6948860116280853e-05
-0.48379721055681557,-0.48379721055681557,0.9998362876032003,1.69525230359903e-05
-0.48278186698923947,-0.48278186698923947,0.9999611315683957,1.6947892873661477e-05
-0.48176487692658726,-0.48176487692658726,0.9999101075599517,1.6946301522523563e-05
-0.48074954777636664,-0.48074954777636664,0.9999059567609236,1.6949109220527906e-05
-0.4797790707846161,-0.4797790707846161,0.9998355929648071,1.695253776118954e-05
-0.47878290914561034,-0.47878290914561034,0.9999293165179172,1.6947961072225108e-05
-0.4777702441733709,-0.4777702441733709,0.9999307737819866,1.695140311385763e-05
-0.476966164757971,-0.476966164757971,0.9999294832822082,1.6946884166551595e-05
-0.47594008173687713,-0.47594008173687713,0.9998594921049854,1.6952933306879558e-05
-0.4749271014034889,-0.4749271014034889,0.9999219604050783,1.6949576490578392e-05
-0.4739201774994001,-0.4739201774994001,0.999921853342667,1.6947574243541856e-05
-0.4729032556885329,-0.4729032556885329,0.999933766002161,1.694684438485209e-05
-0.4718771544010849,-0.4718771544010849,0.9998545500986372,1.695300760281949e-05
-0.47088096744327,-0.47088096744327,0.999945804084021,1.694796252578441e-05
-0.46990443918995195,-0.46990443918995195,0.9999003654614403,1.6949604362662322e-05
-0.46890432915199654,-0.46890432915199654,0.999955055891725,1.694690377095471e-05
-0.4677014880235049,-0.4677014880235049,0.9998718848866263,1.695450181019753e-05
-0.46649217640691065,-0.46649217640691065,0.9998956554007762,1.6946312290569926e-05
-0.46538286614928664,-0.46538286614928664,0.999872873144198,1.6952834970552375e-05
-0.46436991864175636,-0.46436991864175636,0.9999532254980323,1.6949908739217796e-05
-0.46336981663650934,-0.46336981663650934,0.9999348016740065,1.6947057758976735e-05
-0.4623711885495709,-0.4623711885495709,0.9998969870171205,1.6947889100878996e-05
-0.4613839215630435,-0.4613839215630435,0.9998921032788586,1.6953225809511093e-05
-0.4603709866638894,-0.4603709866638894,0.9999665856791108,1.6950101702391096e-05
-0.45937089040564844,-0.45937089040564844,0.9999293809085632,1.6947408992378612e-05
-0.45835943488281716,-0.45835943488281716,0.9999606757222959,1.6948625664750756e-05
-0.45735298590447543,-0.45735298590447543,0.9999490352688467,1.6953538493424105e-05
-0.4563080724170902,-0.4563080724170902,0.9999609981492373,1.694982497756562e-05
-0.4553399731078628,-0.4553399731078628,0.9999526431803469,1.694742245309126e-05
-0.4543412831082378,-0.4543412831082378,0.9999641263741559,1.6948792525383547e-05
-0.4533540415766879,-0.4533540415766879,0.999915381853404,1.6953063404161958e-05
-0.45227075153043755,-0.45227075153043755,0.9999159813603269,1.694908518435917e-05
-0.45121249749681736,-0.45121249749681736,0.999986475850576,1.6948426612079004e-05
-0.45021886791091675,-0.45021886791091675,0.999988565555409,1.6953701772975694e-05
-0.4490460130043118,-0.4490460130043118,0.9999708424989221,1.694970666804472e-05
-0.44784449003197435,-0.44784449003197435,0.9999909223696692,1.6954921439820946e-05
-0.4466082646765358,-0.4466082646765358,0.9999910224566646,1.694996157615205e-05
-0.4456145856462285,-0.4456145856462285,0.9999922579808258,1.6946832269415227e-05
-0.44462035115953424,-0.44462035115953424,0.9999748582641201,1.6952927014812572e-05
-0.44365607030250087,-0.44365607030250087,0.9999710556597519,1.694764925840086e-05
-0.44258373948534313,-0.44258373948534313,0.999989432023157,1.6949204558830524e-05
-0.4416156599817498,-0.4416156599817498,0.9999865705791416,1.6945867553887078e-05
-0.44062140723717674,-0.44062140723717674,1.0000012899368131,1.6952616115827688e-05
-0.43965711371381533,-0.43965711371381533,1.0000283852189997,1.6947631434579678e-05
-0.4385848081779102,-0.4385848081779102,0.9999325442009237,1.694830636200225e-05
-0.4376167344384669,-0.4376167344384669,0.9999716533578041,1.6945222846389756e-05
-0.43662246344361505,-0.43662246344361505,1.0000319581051542,1.695266364514874e-05
-0.4356581572559719,-0.4356581572559719,1.0000239545685676,1.6947472069638807e-05
-0.4345858769884103,-0.4345858769884103,1.0000189827364052,1.6948998382266326e-05
-0.4336178090238775,-0.4336178090238775,1.0000041993793094,1.694533280741039e-05
-0.43262351977763275,-0.43262351977763275,0.9999832697862019,1.695179049133309e-05
-0.43165920092044985,-0.43165920092044985,0.9999624718207004,1.6946833614886253e-05
-0.4305869459244434,-0.4305869459244434,0.9999560949331643,1.6948388446456846e-05
-0.42961888373908436,-0.42961888373908436,1.0000287487451645,1.694536409640504e-05
-0.4286245762382464,-0.4286245762382464,1.0000034884269633,1.695181115724749e-05
-0.4276602447168273,-0.4276602447168273,1.0000198075652595,1.6947235433221765e-05
-0.4265880149785005,-0.4265880149785005,0.9999923337688006,1.6948611967929854e-05
-0.42561995857974466,-0.42561995857974466,1.000012289208615,1.694495357830769e-05
-0.4246256328253935,-0.4246256328253935,1.000008943789722,1.6951561524043003e-05
-0.42366128863440056,-0.42366128863440056,0.9999852782548835,1.6946694991752828e-05
-0.4225890841526166,-0.4225890841526166,0.9999427389105598,1.6948207392221927e-05
-0.42162103354056624,-0.42162103354056624,1.0000346299244627,1.6945009634442093e-05
-0.4206266895412796,-0.4206266895412796,0.9999843294182919,1.6951173356682048e-05
-0.41966233268072983,-0.41966233268072983,0.9999848304865321,1.694667119366011e-05
-0.4185901534458537,-0.4185901534458537,1.0000471894733765,1.6949390736032783e-05
-0.41762210862800087,-0.41762210862800087,0.999996865721848,1.694458718262739e-05
-0.41662774637942446,-0.41662774637942446,1.000003300467887,1.695108492935459e-05
-0.41566337685356985,-0.41566337685356985,0.9999853807762676,1.694651836541675e-05
-0.4145912228527209,-0.4145912228527209,0.9999539199339083,1.6948797600525246e-05
-0.4136231838398089,-0.4136231838398089,1.000012039864114,1.6944424205164443e-05
-0.4126288033463027,-0.4126288033463027,1.000021711598828,1.6951015798488034e-05
-0.4116644211508458,-0.4116644211508458,1.0000284661686962,1.694695125836904e-05
-0.4105922923840296,-0.4105922923840296,0.999984401989716,1.6949275252298913e-05
-0.40962425917712153,-0.40962425917712153,1.0000042517898358,1.6943957266654498e-05
-0.4086298604397598,-0.4086298604397598,0.9999929091217808,1.695068102771118e-05
-0.4076654655715288,-0.4076654655715288,1.0000057507939784,1.694682652883502e-05
-0.4065933620279793,-0.4065933620279793,0.9999978279052822,1.6949497325033846e-05
-0.40562533463883027,-0.40562533463883027,1.0000084270908445,1.6944258837717474e-05
-0.404630917657596,-0.404630917657596,1.0000068946410758,1.6950759056600773e-05
-0.4036409167681313,-0.4036409167681313,0.9999794228435706,1.6946712278701844e-05
-0.4025624401029802,-0.4025624401029802,1.0000433666373605,1.695000258524987e-05
-0.40159441853592737,-0.40159441853592737,0.9999704349379502,1.6944097727353888e-05
-0.40059531258242487,-0.40059531258242487,1.000008842736037,1.6947072605129173e-05
-0.39960824214814467,-0.39960824214814467,0.9999585397379633,1.6950299382682594e-05
-0.3985635099797378,-0.3985635099797378,0.9999888578298897,1.6949444823219718e-05
-0.39759549424757096,-0.39759549424757096,1.0000273542814224,1.6944672683856747e-05
-0.39659635734737436,-0.39659635734737436,1.000002772171821,1.694704396458733e-05
-0.39560929964700337,-0.39560929964700337,0.9999994106674034,1.695040427704671e-05
-0.39456457996903394,-0.39456457996903394,1.0000444098004728,1.6950001072127086e-05
-0.3935965700793645,-0.3935965700793645,0.9999932515568931,1.6944314973253207e-05
-0.39259740223886863,-0.39259740223886863,0.9999543634152996,1.6946569287909338e-05
-0.3915847645085478,-0.3915847645085478,1.000011797183314,1.6950177214899563e-05
-0.39052086245044393,-0.39052086245044393,1.0000059135793236,1.694971072679784e-05
-0.389501672444311,-0.389501672444311,1.0000173204759686,1.6944649397697162e-05
-0.3885344646157364,-0.3885344646157364,1.0000269122045156,1.6947071674591987e-05
-0.3874898473617918,-0.3874898473617918,0.9999394940695117,1.6949711719235897e-05
-0.3864387543015937,-0.3864387543015937,1.0000048828570651,1.69500080890386e-05
-0.38541957045003417,-0.38541957045003417,1.0000265002671427,1.6944988692135092e-05
-0.3844395352037509,-0.3844395352037509,0.9999836471406722,1.6946904067430114e-05
-0.38335654067125235,-0.38335654067125235,1.00000415420663,1.6950095995256122e-05
-0.3823758422685444,-0.3823758422685444,0.9999933380952438,1.6950047995042306e-05
-0.3814078501787037,-0.3814078501787037,0.9999981021970413,1.6944903555143516e-05
-0.38044058046637586,-0.38044058046637586,1.0000049500081853,1.694712375990135e-05
-0.3793448021989832,-0.3793448021989832,0.9999731105557125,1.6949873617802753e-05
-0.3785145272508089,-0.3785145272508089,0.9999945270982726,1.6944983117235883e-05
-0.3777147400430749,-0.3777147400430749,1.0000335253962,1.6945510599220654e-05
-0.3769278108028402,-0.3769278108028402,1.0000067310377487,1.6942583847926848e-05
-0.37627512404288266,-0.37627512404288266,0.9999790326143472,1.694546817367279e-05
-0.3755411162468931,-0.3755411162468931,0.9999665980058845,1.6941760092291878e-05
-0.37487230783354447,-0.37487230783354447,1.0000051003882582,1.6945689486845996e-05
-0.37420570817157,-0.37420570817157,1.0000144540608344,1.694805539871252e-05
-0.37354799138998374,-0.37354799138998374,0.999986275355371,1.6947263152986864e-05
-0.3728968763369835,-0.3728968763369835,1.0000209466298409,1.6943687972756482e-05
-0.37218661282963694,-0.37218661282963694,1.0000022898877885,1.694662594768164e-05
-0.37154216060962997,-0.37154216060962997,1.0000122951178707,1.6942214231086536e-05
-0.3707902002488709,-0.3707902002488709,0.999990718613099,1.694612857943659e-05
-0.37010437493153747,-0.37010437493153747,1.000017176236401,1.6948503064535217e-05
-0.3694627029521257,-0.3694627029521257,0.9999723478512846,1.6942282663677385e-05
-0.3687812437135335,-0.3687812437135335,0.9999842454492919,1.6946884745016626e-05
-0.3681301357461223,-0.3681301357461223,0.9999967415410748,1.6943757766522006e-05
-0.36747106698130094,-0.36747106698130094,0.9999923121419807,1.6946511995686777e-05
-0.36674341402981553,-0.36674341402981553,1.0000271282865143,1.6942503980311397e-05
-0.36605546617368534,-0.36605546617368534,1.0000089183003582,1.6946093718690716e-05
-0.3653760019551783,-0.3653760019551783,1.000018923996365,1.6948206071877076e-05
-0.3646991177358757,-0.3646991177358757,1.0000273896711624,1.6946391340348626e-05
-0.36403521920325377,-0.36403521920325377,1.0000200304013256,1.6943600711030466e-05
-0.36338428991156774,-0.36338428991156774,0.9999491092332488,1.69415585526218e-05
-0.3627107336551262,-0.3627107336551262,1.0000087119561072,1.6946169353097386e-05
-0.36196056240224267,-0.36196056240224267,0.999981946303411,1.6945309654843733e-05
-0.3613130584262649,-0.3613130584262649,1.000024176154221,1.694790334053329e-05
-0.3606458066399341,-0.3606458066399341,0.9999900505708222,1.6941850409163884e-05
-0.3599835565160845,-0.3599835565160845,1.0000267638750258,1.694617572860544e-05
-0.35933246154967835,-0.35933246154967835,1.0000117428981479,1.6943068701437196e-05
-0.35867980722093196,-0.35867980722093196,0.9999981016923162,1.694533257673716e-05
-0.35794113220156876,-0.35794113220156876,1.0000199840367234,1.6947100472180725e-05
-0.3572738852580869,-0.3572738852580869,0.9999945077741451,1.6941583796621484e-05
-0.35661798879307866,-0.35661798879307866,0.9999315587736983,1.6944355957921015e-05
-0.35593982023233933,-0.35593982023233933,0.9999742527769815,1.6944962004094832e-05
-0.35526953646843823,-0.35526953646843823,1.0000112715812177,1.6942700332145894e-05
-0.354616889497737,-0.354616889497737,1.0000430732138548,1.6945667984728293e-05
-0.35391476653824727,-0.35391476653824727,1.000059452660637,1.6941814124159044e-05
-0.3532511491079447,-0.3532511491079447,0.9999968095108696,1.6946753077216916e-05
-0.35256147474562455,-0.35256147474562455,1.0000065780875236,1.6944582964233502e-05
-0.35188968584184865,-0.35188968584184865,0.9999835016434415,1.694512626359341e-05
-0.3512386027019545,-0.3512386027019545,0.9999947010581245,1.6942709311938464e-05
-0.35058596307428613,-0.35058596307428613,0.9999813344030439,1.6945015044871854e-05
-0.34991581166789276,-0.34991581166789276,1.0000456098656894,1.694148771350663e-05
-0.3492201971468603,-0.3492201971468603,0.9999935532038805,1.6946912071001806e-05
-0.3485561467129571,-0.3485561467129571,0.9999719214957924,1.6944123110931533e-05
-0.3478907374553387,-0.3478907374553387,0.9999711854132464,1.6945052519069566e-05
-0.34723966023618685,-0.34723966023618685,0.9999936489823262,1.694252406162607e-05
-0.3465870279504884,-0.3465870279504884,1.000005508714794,1.694534591362323e-05
-0.3459168569358894,-0.3459168569358894,0.9999286672618737,1.6940480102254082e-05
-0.34522123649301195,-0.34522123649301195,1.0000307251799876,1.6947154450263403e-05
-0.34455081880783495,-0.34455081880783495,1.0000652845792848,1.694485544402365e-05
-0.3438054088152853,-0.3438054088152853,1.000012983268753,1.6941277880583272e-05
-0.3431623803920331,-0.3431623803920331,0.9999947656366738,1.6945167021937874e-05
-0.3424729208573808,-0.3424729208573808,1.0000075054014297,1.694287436407696e-05
-0.3418202973713278,-0.3418202973713278,0.9999941130776611,1.6945328349862275e-05
-0.3411071077259521,-0.3411071077259521,0.9999957796350742,1.6946563623764044e-05
-0.34044628430771695,-0.34044628430771695,0.9999657532410499,1.694075435245873e-05
-0.33975850184464773,-0.33975850184464773,1.0000351510550303,1.6944499573715982e-05
-0.33909305168873516,-0.33909305168873516,0.9999810653097814,1.6944546253806822e-05
-0.3384419874877551,-0.3384419874877551,0.9999943580785129,1.6942930164920712e-05
-0.3377253892130113,-0.3377253892130113,0.9999965826498112,1.694533171072159e-05
-0.3370633596800758,-0.3370633596800758,1.000013015553376,1.6946613110928824e-05
-0.3364153389774856,-0.3364153389774856,1.000000017451067,1.6941036074104332e-05
-0.33569559033290375,-0.33569559033290375,0.9999752214336954,1.6943892359946062e-05
-0.33503012158556655,-0.33503012158556655,1.0000029944696212,1.6944894391368867e-05
-0.33437906330749456,-0.33437906330749456,1.0000161765261377,1.694273158905562e-05
-0.33372645446567617,-0.33372645446567617,1.0000015510753308,1.694508030382926e-05
-0.33306439940805604,-0.33306439940805604,0.9999563954674462,1.6945631279036004e-05
-0.3324163847260081,-0.3324163847260081,1.000030614240939,1.694095360893161e-05
-0.3316838644915606,-0.3316838644915606,0.9999991282640346,1.694339577699538e-05
-0.33101837734913603,-0.33101837734913603,0.9999760327058738,1.6944134610859313e-05
-0.3303161390017465,-0.3303161390017465,1.0000018260749892,1.6942550594298346e-05
-0.3296732800622578,-0.3296732800622578,1.0000091955660706,1.6946385898417273e-05
-0.3290237052395469,-0.3290237052395469,1.0000198128878892,1.6944807278335497e-05
-0.3283342536920827,-0.3283342536920827,1.0000019615095799,1.6940298067181665e-05
-0.32760807277761045,-0.32760807277761045,0.9999858380129624,1.694380688108238e-05
-0.32696192994964124,-0.32696192994964124,1.0000096314285893,1.6943297782035436e-05
-0.3262629678109136,-0.3262629678109136,0.999966514621972,1.694571751274203e-05
-0.3255829722558531,-0.3255829722558531,0.999989903846533,1.694014955611445e-05
-0.3248967699597188,-0.3248967699597188,0.9999849871553351,1.6942345704562428e-05
-0.324224983343521,-0.324224983343521,1.0000392093010961,1.694482354784115e-05
-0.3235068563092966,-0.3235068563092966,0.999994991460724,1.6943449071747294e-05
-0.3228590540717562,-0.3228590540717562,1.0000096266565566,1.6946343590364917e-05
-0.3222014961874834,-0.3222014961874834,1.00001541401291,1.6943928097310542e-05
-0.32153922984650196,-0.32153922984650196,1.0000255682770154,1.694030160042137e-05
-0.3208658361373864,-0.3208658361373864,1.0000296005234068,1.6942322096134362e-05
-0.32019405681386387,-0.32019405681386387,0.9999498972448336,1.6944042684364533e-05
-0.3195079274151965,-0.3195079274151965,1.000003585218097,1.6942888119426137e-05
-0.3188281020678062,-0.3188281020678062,0.9999860024993703,1.694543177525762e-05
-0.31817055653341414,-0.31817055653341414,0.9999889606008455,1.6943629341627924e-05
-0.31750828395314556,-0.31750828395314556,0.9999673971154556,1.693942420150295e-05
-0.31684769930843687,-0.31684769930843687,0.9999772788384694,1.6941898591341506e-05
-0.3161951225696328,-0.3161951225696328,1.0000044465251607,1.694432065011772e-05
-0.3155026003059504,-0.3155026003059504,1.0000381680054393,1.694345203552723e-05
-0.31479715069775693,-0.31479715069775693,1.0000038339404218,1.6945937682721472e-05
-0.3141396175079592,-0.3141396175079592,1.0000493560008905,1.694366519035127e-05
-0.31348859029351955,-0.31348859029351955,1.0000289971920275,1.6942223912585682e-05
-0.3128375063198291,-0.3128375063198291,0.9999835402937712,1.6939280704183644e-05
-0.312145002071469,-0.312145002071469,1.0000157990002,1.6944308481067736e-05
-0.31144608714558897,-0.31144608714558897,0.9999565393631039,1.6942435351460812e-05
-0.3107661999369441,-0.3107661999369441,0.9999986182684981,1.6945321173331682e-05
-0.3101182188337077,-0.3101182188337077,0.9999563120277817,1.693887769486332e-05
-0.30946884553475795,-0.30946884553475795,0.9999737144769035,1.694367420044555e-05
-0.3088114271478958,-0.3088114271478958,0.9999964753003112,1.694214536170804e-05
-0.30799397415423757,-0.30799397415423757,0.9999923717776976,1.693942827374986e-05
-0.30716219212864077,-0.30716219212864077,0.9999826796262816,1.6939283819807305e-05
-0.30629841859098406,-0.30629841859098406,1.000033384042676,1.693979835288337e-05
-0.30561867248937913,-0.30561867248937913,1.0000354743069277,1.6943020430583976e-05
-0.30497251443628104,-0.30497251443628104,1.0000361045537476,1.6945046110262894e-05
-0.30428000752374373,-0.30428000752374373,1.0000070222305033,1.6943442170331064e-05
-0.3036320555649354,-0.3036320555649354,0.9999866869292207,1.694554064129505e-05
-0.3029553624231312,-0.3029553624231312,0.9999805328291329,1.6943642657399312e-05
-0.30225956373827784,-0.30225956373827784,0.999967686423539,1.6942506214578225e-05
-0.30157645477021333,-0.30157645477021333,0.9999752210755674,1.6939434677090883e-05
-0.30093519062684776,-0.30093519062684776,0.9999995700127646,1.694498188305449e-05
-0.3002426892081246,-0.3002426892081246,0.9999817421585782,1.694312548825674e-05
-0.29954991799779124,-0.29954991799779124,0.9999994565496971,1.6945421562922748e-05
-0.298900453839542,-0.298900453839542,1.0000567319490787,1.6943225939289488e-05
-0.2982206097318567,-0.2982206097318567,1.0000033123142174,1.6943817807580794e-05
-0.2975135184416729,-0.2975135184416729,0.9999887504576538,1.693939336242182e-05
-0.2968274857604968,-0.2968274857604968,1.0000047437000414,1.694422370010423e-05
-0.296117191724511,-0.296117191724511,1.000014820992202,1.6942491570124295e-05
-0.29547417682559285,-0.29547417682559285,1.0000237323687216,1.694538192385882e-05
