time,time,flux,flux_err
-0.4998791998453574,-0.4998791998453574,0.9999715910527495,0.00046515479551678717
-0.4997981293745397,-0.4997981293745397,0.999725426028745,0.0004934068514410732
-0.49967384398551073,-0.49967384398551073,0.999978716801628,0.0004282701434176253
-0.499577078022412,-0.499577078022412,0.9999295773246606,0.00045024403534316354
-0.49949369024761836,-0.49949369024761836,1.000023395652265,0.0004105987913658905
-0.4993774934759131,-0.4993774934759131,0.9997053870324448,0.00041522098978999617
-0.4992273055227997,-0.4992273055227997,0.9998115191413746,0.00042178152444522085
-0.4990773170698958,-0.4990773170698958,0.9999723482770024,0.0004730157171773131
-0.4990058335264621,-0.4990058335264621,1.0000022691238053,0.0004477946164601167
-0.49892902945939566,-0.49892902945939566,1.0002369413344578,0.0004687084155939214
-0.49885555253422353,-0.49885555253422353,0.9999494528297177,0.00046296479572768086
-0.4987797384652367,-0.4987797384652367,1.000051270978706,0.0003567375541155052
-0.49867669326704345,-0.49867669326704345,0.9999775697066372,0.00044596116708842
-0.498582919810724,-0.498582919810724,1.0003134046428976,0.00040456094193508103
-0.49848369822939276,-0.49848369822939276,1.0002734421293682,0.0004059890350364034
-0.4983281276683556,-0.4983281276683556,0.99922437339319,0.00037192508744637783
-0.49821677131039904,-0.49821677131039904,0.9999899345492459,0.0004279046997787116
-0.4981571857832023,-0.4981571857832023,0.9997581072185298,0.000495404493743711
-0.49802042390729184,-0.49802042390729184,1.000268361748232,0.0004497476860041368
-0.49792381213774206,-0.49792381213774206,1.0004708831619216,0.0004438284699033259
-0.49782451142091305,-0.49782451142091305,0.9999794403391853,0.0004557853555511171
-0.49770362565832327,-0.49770362565832327,1.0000808786944195,0.0004018776342680973
-0.49760323038717613,-0.49760323038717613,0.9997303713327133,0.00038905363534449554
-0.49746485352370656,-0.49746485352370656,0.9999990472800484,0.00047289988950155096
-0.49730958871077746,-0.49730958871077746,1.000364965323758,0.000403069307720118
-0.4971691341226688,-0.4971691341226688,1.0002375804037509,0.0004098900115453876
-0.4970704446452146,-0.4970704446452146,1.000031616993697,0.0004468889082663633
-0.49698000447897356,-0.49698000447897356,1.0001913644329563,0.00048746601814117746
-0.4968968141176447,-0.4968968141176447,0.9995872826726607,0.0003797657555242711
-0.4967632211177261,-0.4967632211177261,1.0000385663616427,0.0004682257741313508
-0.4966499351328821,-0.4966499351328821,0.9999394420534795,0.00040252452865720685
-0.49650848075179965,-0.49650848075179965,1.0000075949633414,0.00041983852690024806
-0.4963932108570589,-0.4963932108570589,1.0000525091040053,0.00042807736018744754
-0.49629740340969875,-0.49629740340969875,1.0004825550286658,0.0004143840149038112
-0.49618162013575784,-0.49618162013575784,1.000147912621132,0.0004217091065041761
-0.49608906363573624,-0.49608906363573624,1.0000543136816353,0.00038481436708344186
-0.4959980290863314,-0.4959980290863314,1.0004942165523778,0.00045292355814431103
-0.4958646895887796,-0.4958646895887796,0.9995365476056101,0.0004142773085389796
-0.49580583314746035,-0.49580583314746035,1.0003283517769403,0.0003890356491711056
-0.495750567518553,-0.495750567518553,1.0002781464461707,0.00044712536125429
-0.49567243619239887,-0.49567243619239887,1.0005213477349266,0.00038600983501212475
-0.49554615904635285,-0.49554615904635285,1.0003606373672298,0.0004268289936112259
-0.49539658391440755,-0.49539658391440755,0.9996823422340446,0.0003783343575096521
-0.4953064777953841,-0.4953064777953841,1.0000991277593907,0.0004326939884824379
-0.4952304592537985,-0.4952304592537985,1.0001472275099712,0.0004594017064278426
-0.49514409409894145,-0.49514409409894145,1.000371740435762,0.0004614786670401345
-0.495056790716626,-0.495056790716626,1.000499063742986,0.00039147249793906083
-0.49501791137299733,-0.49501791137299733,1.0007043491862109,0.00039112869644435745
-0.494936199561198,-0.494936199561198,0.9996751563512744,0.0003972566662584183
-0.4948112012258207,-0.4948112012258207,1.0002308267965438,0.0003883856319263914
-0.49473024245889974,-0.49473024245889974,0.9994720656403471,0.0004480143392493035
-0.4945867149850528,-0.4945867149850528,0.9999939999815204,0.0003610137527817369
-0.49447527767333666,-0.49447527767333666,1.0000126798182907,0.0004438754522285695
-0.4943768647783145,-0.4943768647783145,0.9998900284274853,0.00047225496302542234
-0.4941986112462473,-0.4941986112462473,1.0003232014139987,0.0004376360423292014
-0.49411540924120345,-0.49411540924120345,1.0000855839768001,0.00035135531835947043
-0.4940595271429629,-0.4940595271429629,0.9997302303053498,0.00041322324446087147
-0.49395385732568686,-0.49395385732568686,1.0004047085320271,0.0004351032848569472
-0.4937842222847394,-0.4937842222847394,0.999408335331422,0.00039324259571836177
-0.4936624728317838,-0.4936624728317838,0.9996696942026773,0.00040921022036771943
-0.4935251296563365,-0.4935251296563365,1.000196492254401,0.0004625127504304996
-0.49340769721166,-0.49340769721166,0.9999329531807429,0.0003860762138355479
-0.49332016907210346,-0.49332016907210346,1.00011665490744,0.0003959304113287569
-0.4932039028244617,-0.4932039028244617,0.999370603156453,0.0004264591247997368
-0.4931174110395659,-0.4931174110395659,0.9997076137879086,0.0004360545798295941
-0.49303408249616043,-0.49303408249616043,1.0003002734511353,0.0004045552589732847
-0.4929175276614842,-0.4929175276614842,1.0003509058938194,0.00040640575453417053
-0.4928573829303787,-0.4928573829303787,1.0004805976906868,0.00041124559728060293
-0.4927596124689444,-0.4927596124689444,1.0002194678746406,0.00041006708644873425
-0.4926653495756909,-0.4926653495756909,1.000149114010312,0.00042233394374006656
-0.49253326632242533,-0.49253326632242533,0.9996717192998744,0.00040899088768462185
-0.49246749432204523,-0.49246749432204523,1.0003434127281512,0.00042192321276122877
-0.49240814625954954,-0.49240814625954954,1.0004106162465751,0.0004138524692176318
-0.4922925773877068,-0.4922925773877068,0.9999457823597924,0.00038883601833170924
-0.49221564847757693,-0.49221564847757693,1.0002012223432288,0.00037106085713756117
-0.49210128408813036,-0.49210128408813036,1.000206543327798,0.00036016663036665084
-0.49199268820084396,-0.49199268820084396,0.9998599359617156,0.00040822460360562035
-0.4918012698959501,-0.4918012698959501,1.0000548052745288,0.0004301521108053122
-0.49173386615802883,-0.49173386615802883,1.000439592794498,0.00045421707832653404
-0.4916823962405033,-0.4916823962405033,0.9999002591171328,0.0004194542641765142
-0.4916218457292416,-0.4916218457292416,1.000140175783351,0.0004061485016517882
-0.491511103445373,-0.491511103445373,1.000143224830397,0.00038201988601786654
-0.49146038497274275,-0.49146038497274275,0.9999505657642782,0.0003485108317790603
-0.49135139753489054,-0.49135139753489054,0.9996952842328378,0.0003567251447928948
-0.4911584363195288,-0.4911584363195288,0.9997571367564323,0.00040669454248130606
-0.49107429514479006,-0.49107429514479006,1.0001977983354935,0.0004428412115617986
-0.4909105042817828,-0.4909105042817828,0.9996659751141562,0.00041504609391994124
-0.4908406072157959,-0.4908406072157959,1.0001700067329986,0.00044442844496202086
-0.4907424002994958,-0.4907424002994958,1.0002282557087736,0.0003732253137252044
-0.49056347570658543,-0.49056347570658543,1.0004690365476825,0.00038514481661124794
-0.4903720052978315,-0.4903720052978315,0.9999740324178111,0.0004690366082787158
-0.49024364443466767,-0.49024364443466767,0.9999824584598702,0.00037347893116437147
-0.4901545744323812,-0.4901545744323812,0.9999202436033785,0.00041429116069570496
-0.49005488406110087,-0.49005488406110087,0.9997550473195529,0.00036234032255930723
-0.4899778737293673,-0.4899778737293673,0.9999537562084612,0.0004380686281409359
-0.4898958680256328,-0.4898958680256328,1.0002276183463077,0.0003818495683117764
-0.48975707407298613,-0.48975707407298613,1.000283094480099,0.000494209557771049
-0.4896153214031074,-0.4896153214031074,1.0001405836269381,0.0004606735378104492
-0.48946465159388025,-0.48946465159388025,0.999904760951547,0.0004169668810380943
-0.48926597127792776,-0.48926597127792776,0.9997057395182912,0.00041137683108655854
-0.48915343548651435,-0.48915343548651435,0.9995141643061485,0.0004455025728122003
-0.48899335608803085,-0.48899335608803085,0.9997930496824653,0.000494281620455201
-0.4887797368392057,-0.4887797368392057,0.9999432209513625,0.00041668619664427247
-0.48862710721004987,-0.48862710721004987,1.000609233544004,0.00037340944655201114
-0.48846357856382383,-0.48846357856382383,1.000533678336796,0.00039910914723957603
-0.48832062679939553,-0.48832062679939553,0.9996402052604847,0.000410310123362825
-0.48820827130766703,-0.48820827130766703,1.0004249238954983,0.00044573379448488773
-0.4879731274268124,-0.4879731274268124,0.9996223382695899,0.000405750583873619
-0.48773994947987376,-0.48773994947987376,1.0000048326243645,0.0004023374311596452
-0.487605783915933,-0.487605783915933,1.0003361727741695,0.00036338660827257813
-0.48746594643307617,-0.48746594643307617,0.9999044337497007,0.0004307000846587924
-0.4872700958760106,-0.4872700958760106,0.9998742142879496,0.0005380617235603453
-0.48710115572903306,-0.48710115572903306,1.000520041473637,0.00040231809159842116
-0.48696853962319436,-0.48696853962319436,0.9999241713971262,0.00036447943829262693
-0.4868724106781883,-0.4868724106781883,1.0002202769823296,0.00040766546825872165
-0.4866745170329523,-0.4866745170329523,0.9995976885813909,0.000476455736741364
-0.486526150971622,-0.486526150971622,1.0000962670184634,0.0003897246227473686
-0.4864532963059901,-0.4864532963059901,0.9998982281662286,0.00043009206640583713
-0.4863686047086958,-0.4863686047086958,1.0008195298580684,0.0006366123187054151
-0.4862508101039566,-0.4862508101039566,0.9999837269950987,0.00040134543251462335
-0.4861457637183776,-0.4861457637183776,1.0003085123488824,0.0004266888117433732
-0.4859425093352911,-0.4859425093352911,1.0000153079678744,0.00039886357981602766
-0.485731749182014,-0.485731749182014,1.0001160578736692,0.0004317201073333707
-0.4855999569212145,-0.4855999569212145,1.000004078594484,0.00042558478552796603
-0.4855490752881451,-0.4855490752881451,1.0003687378930968,0.00042682366211539626
-0.485463682156842,-0.485463682156842,1.000349178444052,0.0004470466768120185
-0.48529819379837136,-0.48529819379837136,1.000454913334649,0.00042283974872618586
-0.4851980641185946,-0.4851980641185946,1.0000784917144685,0.0003430247271301414
-0.48507819910737454,-0.48507819910737454,0.999264760772312,0.0003736291950714065
-0.48489037956896935,-0.48489037956896935,1.0002023001651903,0.0004321388198303898
-0.48482073534905795,-0.48482073534905795,0.9998265621705364,0.0004813666079799148
-0.4847249292877677,-0.4847249292877677,1.0001867875899229,0.00042657981441547674
-0.4846185838105157,-0.4846185838105157,1.0002465609611129,0.00041476889640228816
-0.484508209759224,-0.484508209759224,0.9998147930682764,0.00039487195039053497
-0.484416832664283,-0.484416832664283,0.9999906296313604,0.0003855484926912051
-0.4842814885138068,-0.4842814885138068,0.9998392180377988,0.000374452127288496
-0.48414016037713736,-0.48414016037713736,0.9996870336002402,0.00044366707381492945
-0.4840546771149093,-0.4840546771149093,1.0001396330558685,0.00041207367629850846
-0.48393805137602613,-0.48393805137602613,1.0005654942662001,0.00042789998285978843
-0.48385269898717526,-0.48385269898717526,1.0003131691189249,0.0004887156933278288
-0.4837700467222021,-0.4837700467222021,1.0003874450201446,0.0004117337571085555
-0.48365159117020085,-0.48365159117020085,0.9997191393238902,0.00039989455306887014
-0.4835178982233629,-0.4835178982233629,0.9996458986682033,0.00042396983706226743
-0.4833763880320475,-0.4833763880320475,1.0004574610023913,0.00048391345408085987
-0.4832919812070031,-0.4832919812070031,0.9996583673133923,0.0004418092069610797
-0.4832423111292883,-0.4832423111292883,0.9999645299312627,0.000366571380786146
-0.4831783535737486,-0.4831783535737486,0.999922524313851,0.0004850992559265195
-0.48310127309232487,-0.48310127309232487,1.0001823734264934,0.00044581694639516024
-0.48297760137866136,-0.48297760137866136,0.9995944716048383,0.0004324222387287489
-0.4828828708639776,-0.4828828708639776,1.0003738463095622,0.00041299065101660864
-0.48278153405772173,-0.48278153405772173,0.9997933439446834,0.0004229034173219801
-0.48263867814966943,-0.48263867814966943,0.9997326402177263,0.0003939760957546762
-0.4825129394790565,-0.4825129394790565,1.000408789363421,0.00040161187887419105
-0.4824602042892366,-0.4824602042892366,0.9995511141902756,0.0004940636674006264
-0.4823266244042316,-0.4823266244042316,1.0001295779108164,0.00044433563252852475
-0.4822025560766633,-0.4822025560766633,0.9998515795344751,0.00045187734766701247
-0.482105645671254,-0.482105645671254,0.9999202761992697,0.00046803730804867905
-0.4820079327044368,-0.4820079327044368,0.999631957994301,0.00041226609051104034
-0.4818881120918377,-0.4818881120918377,1.0002170825263315,0.0003655605555301738
-0.48176591018782344,-0.48176591018782344,1.0000962306149215,0.00047361408522521265
-0.48165752098793746,-0.48165752098793746,1.0006696883095887,0.00041367377514065797
-0.48154499989250327,-0.48154499989250327,0.999439877814116,0.00041823985076846766
-0.48143521226884334,-0.48143521226884334,1.000422775057581,0.0004098712420359791
-0.4813359901403601,-0.4813359901403601,1.0000519909947458,0.00041828547065623145
-0.4812922494929808,-0.4812922494929808,0.9996830553176081,0.0004376305319668878
-0.481234975127154,-0.481234975127154,1.0001973596534797,0.0004843516111218319
-0.48114276005799184,-0.48114276005799184,1.0002765378547918,0.00040072213731719993
-0.4809741435172327,-0.4809741435172327,1.0001818636483297,0.00038899063193168946
-0.4808851937748841,-0.4808851937748841,1.00015154989445,0.0004126290463660969
-0.4807132129593811,-0.4807132129593811,0.999438586704718,0.0004578157240635014
-0.48064953986322506,-0.48064953986322506,0.9998911998078395,0.00040034970132299397
-0.48051393469359027,-0.48051393469359027,0.999878026025193,0.0003732621092386043
-0.4803869144132477,-0.4803869144132477,0.999999985586418,0.00043815115171103443
-0.4803110882668989,-0.4803110882668989,1.0001454492816115,0.00044841019838977504
-0.4801909138186602,-0.4801909138186602,1.0001256722946736,0.00047018847854019154
-0.48008408712557865,-0.48008408712557865,0.9998805460540474,0.0003996926357782872
-0.4800451243914722,-0.4800451243914722,0.9999383791825031,0.0003653133380210375
-0.4799927916988963,-0.4799927916988963,1.0009132004821033,0.00040121622503075003
-0.47990620503842363,-0.47990620503842363,1.0000372584399546,0.00040174016310147974
-0.4797726504890306,-0.4797726504890306,0.9998193240971632,0.0003849121988575751
-0.47961252973909724,-0.47961252973909724,1.0001047536704366,0.0004266138343617808
-0.47952172619407063,-0.47952172619407063,0.9999813654415959,0.0004299218870655563
-0.4794205097445229,-0.4794205097445229,1.0004315885766737,0.0004216849097472278
-0.4793265857246297,-0.4793265857246297,1.000453810881926,0.0004146270430997359
-0.47927713020326335,-0.47927713020326335,0.9997321094910481,0.00040867548239743276
-0.47917580132052534,-0.47917580132052534,1.0002399434881917,0.00038585768950364345
-0.4790696110932913,-0.4790696110932913,1.000014233034771,0.00040558875803423
-0.4790059653969365,-0.4790059653969365,1.0006270859571398,0.0004420871688854152
-0.47889431076473554,-0.47889431076473554,0.9997516942823879,0.0004037820789052798
-0.4787622179443133,-0.4787622179443133,1.000014984738065,0.0004028458577461376
-0.47868777626863446,-0.47868777626863446,1.0002078057812347,0.00045916901093435227
-0.4785866641846951,-0.4785866641846951,1.000021468654975,0.0004089915720557922
-0.47843325379508317,-0.47843325379508317,1.000220650381039,0.00044127230526191605
-0.478372496269003,-0.478372496269003,0.9999830937777962,0.0003643180274303324
-0.4782943707992672,-0.4782943707992672,1.0002724960644762,0.00043953110710548995
-0.4782054979048553,-0.4782054979048553,1.0001871906532813,0.00045133104880967084
-0.4780681013231515,-0.4780681013231515,1.0002085791012365,0.00042773904104826484
-0.4779715259493969,-0.4779715259493969,0.9999162122125451,0.00035430464102838955
-0.4778599978773855,-0.4778599978773855,1.0004251111734397,0.00042303494024187863
-0.4777062521738117,-0.4777062521738117,1.0003054902171014,0.00044320462743876836
-0.4776123615563847,-0.4776123615563847,0.9999835874999011,0.0003679358535799504
-0.4774899085132347,-0.4774899085132347,0.9995196838938003,0.0004087474631380843
-0.4773882763016445,-0.4773882763016445,0.999934651307861,0.0004563507323541529
-0.4772880285876454,-0.4772880285876454,1.0002473102536829,0.00037839042361074966
-0.47717674086088663,-0.47717674086088663,1.0000495019159288,0.0003904069428705938
-0.477092214901495,-0.477092214901495,1.0004443649552868,0.0003921117520216755
-0.47695177235800656,-0.47695177235800656,0.9995848095281301,0.00042314316097315604
-0.4768089460339979,-0.4768089460339979,1.0000059649380597,0.00040196390992324133
-0.47675879693124446,-0.47675879693124446,0.9997355342041494,0.000407097403686494
-0.47667050807503986,-0.47667050807503986,0.9999844453317193,0.00040600718105969805
-0.4765378736752609,-0.4765378736752609,0.9996915041999644,0.0004117406739595049
-0.47645166639704256,-0.47645166639704256,0.999976660150631,0.0003548751615324078
-0.4763265222936752,-0.4763265222936752,1.0001956472978675,0.0004178555383505759
-0.4761730213467672,-0.4761730213467672,1.000472852946087,0.0004053693241480541
-0.47602664050355087,-0.47602664050355087,0.9999554080964824,0.00046016597217896354
-0.47599003910945614,-0.47599003910945614,1.0003612140438758,0.0004488149378441994
-0.47594910394909673,-0.47594910394909673,0.999762161210367,0.0003947161259818732
-0.4758919565734686,-0.4758919565734686,1.0002702668129932,0.0004245308776265995
-0.4757904486345069,-0.4757904486345069,0.9995471189904656,0.00037683706721457607
-0.4757053329849441,-0.4757053329849441,1.000179146738603,0.0003446523667521502
-0.4755920470044657,-0.4755920470044657,1.0004706949727262,0.000378083064425753
-0.4754439975484274,-0.4754439975484274,1.000148670355445,0.00036770990356279243
-0.4753893210479873,-0.4753893210479873,1.0000286234476796,0.000445913394948694
-0.47520649611833504,-0.47520649611833504,0.9996659385277766,0.0004305479355793159
-0.47513581184321085,-0.47513581184321085,0.9999027846006383,0.00045384975654040843
-0.4750443860211817,-0.4750443860211817,1.000255133968846,0.00038866002792781347
-0.47493847453879423,-0.47493847453879423,1.000171009666617,0.00035894258724748253
-0.47477023344981717,-0.47477023344981717,1.0001507686711497,0.00042083617957344965
-0.474608559133776,-0.474608559133776,1.0001182309892096,0.00037778986800577756
-0.4745011562976288,-0.4745011562976288,0.9999284491029355,0.0004112922877578291
-0.47436382380547004,-0.47436382380547004,0.9997285439653497,0.00042591712901945733
-0.474263977312512,-0.474263977312512,0.9996322545689708,0.00041222202525173024
-0.4741744002123596,-0.4741744002123596,0.9998326232275178,0.000389530982113135
-0.473996877240279,-0.473996877240279,0.9998873839483506,0.00044697915976865904
-0.47380742273599025,-0.47380742273599025,1.0002599009936977,0.0004010528818836765
-0.4735682483711571,-0.4735682483711571,1.0000759943040656,0.0003825984797956503
-0.4734576782953809,-0.4734576782953809,0.9997931622884006,0.0004156577514363294
-0.4732292543849326,-0.4732292543849326,0.9999039835873346,0.0004586724473276755
-0.4730022915857262,-0.4730022915857262,0.9999572260498221,0.00040555987690900325
-0.4728529556763533,-0.4728529556763533,0.9999195575314481,0.00038239560735102847
-0.47271805452764964,-0.47271805452764964,0.9998249474643831,0.0004457978103091503
-0.4724848945130361,-0.4724848945130361,0.9999564162399018,0.0004319646796228601
-0.47232346600067104,-0.47232346600067104,0.9998989926775913,0.00040324280358291587
-0.47199586216083844,-0.47199586216083844,1.0006930961263565,0.0004075834832495513
