time,time,flux,flux_err
-0.4999306029494619,-0.4999306029494619,0.9994625931950426,0.0003926019110591323
-0.4996711243475147,-0.4996711243475147,1.00009210200501,0.0004275271072492049
-0.4995983620149976,-0.4995983620149976,0.9989495107703429,0.0004854355360471103
-0.4994847076365356,-0.4994847076365356,1.0002178200947858,0.00040568211075872737
-0.49935620363830824,-0.49935620363830824,1.000056563658217,0.0003879665343743737
-0.4992096818270511,-0.4992096818270511,1.0002443073203842,0.00038601632172553026
-0.49910028836020504,-0.49910028836020504,0.9999795151461333,0.0003857424308734576
-0.4990082297794288,-0.4990082297794288,0.9999228797459484,0.0003490056717621195
-0.4989030506709241,-0.4989030506709241,0.9995505800147602,0.0004534649983049321
-0.49881822290772104,-0.49881822290772104,1.0003417922520064,0.00039196349424783905
-0.4986633005508338,-0.4986633005508338,1.0000898422767288,0.0003351621642112631
-0.4985577693412779,-0.4985577693412779,0.999933274157911,0.0003492897467899876
-0.4984713559024385,-0.4984713559024385,0.9997531066731107,0.00038762644644016236
-0.49837347338616383,-0.49837347338616383,1.0001694660480334,0.00036737891667404626
-0.49821992310317,-0.49821992310317,0.9998528800828309,0.0003716494648791978
-0.49810974086722126,-0.49810974086722126,1.0001026629595136,0.0004002792024652712
-0.49797821726388064,-0.49797821726388064,0.9998955567483895,0.00035243398542808053
-0.49793707848002666,-0.49793707848002666,1.0000012990640303,0.00039793976576450567
-0.49785555221460526,-0.49785555221460526,1.0005145426620887,0.0003804559841984225
-0.4977778178377775,-0.4977778178377775,1.0003619413155467,0.0003861214346792553
-0.4977112057182239,-0.4977112057182239,1.0003128997120323,0.00036330893567909867
-0.4976166436288622,-0.4976166436288622,1.0001226062611306,0.0003772702181792525
-0.4974854182117269,-0.4974854182117269,1.0005096582229194,0.0003697236185800711
-0.4973926355945878,-0.4973926355945878,0.9999075596184401,0.00037850832943815986
-0.497310743619164,-0.497310743619164,0.9997796482994616,0.0003772437916234346
-0.49726567959442036,-0.49726567959442036,0.9998129571918017,0.000360166550628293
-0.49717801069054984,-0.49717801069054984,0.9996546453343143,0.00037997387997248277
-0.49702659845206654,-0.49702659845206654,1.0005461104708013,0.00035596853121872744
-0.4968543425318785,-0.4968543425318785,1.0005600456865458,0.00040800852891644283
-0.49673471593123397,-0.49673471593123397,0.9998396160766869,0.00041777259153513843
-0.49668915789516177,-0.49668915789516177,1.0002744367521346,0.00036361715968967766
-0.4966156986920396,-0.4966156986920396,1.0003810560002706,0.00034909952592336666
-0.4965255249364418,-0.4965255249364418,1.000036800613679,0.0003911450992545685
-0.4963966300041648,-0.4963966300041648,1.0002878962355441,0.0003960685413764808
-0.49624898315087196,-0.49624898315087196,1.0000017122346376,0.000410077683549249
-0.4961178498735535,-0.4961178498735535,0.9999150373295727,0.00037397671280615984
-0.4960059666336747,-0.4960059666336747,0.9997678650015411,0.00039276636117955774
-0.4959395055368077,-0.4959395055368077,1.0004245452633544,0.00036369874766908693
-0.49585581455321515,-0.49585581455321515,1.0000777718156466,0.0003508419251793509
-0.495789698419685,-0.495789698419685,1.0004318826738117,0.00037797597447327867
-0.49566993032203754,-0.49566993032203754,0.9997905235159383,0.00034952464930340275
-0.4954475218866719,-0.4954475218866719,0.9997979758141398,0.000350241643768621
-0.4953047575138044,-0.4953047575138044,0.9995284854322918,0.00044005577891882187
-0.4952208688671817,-0.4952208688671817,1.0002147963386152,0.00033712417756810844
-0.4951040936241043,-0.4951040936241043,0.9998333413484618,0.0004009253164718847
-0.4949581674169167,-0.4949581674169167,0.9999043486072925,0.0003528422503151651
-0.49477570673334414,-0.49477570673334414,1.0001119061908477,0.0003818425122236665
-0.4946352481463691,-0.4946352481463691,0.9999787863862956,0.0004365748867064048
-0.4944558009519824,-0.4944558009519824,1.0002027878893565,0.0003425566424451211
-0.4942794009373756,-0.4942794009373756,0.9994333552918567,0.0003667263437249887
-0.49418315533548596,-0.49418315533548596,1.0000503425367797,0.00035839843035791636
-0.4940274913111352,-0.4940274913111352,0.9998719150134681,0.0003807212024870034
-0.49394919181359,-0.49394919181359,1.0000113163150712,0.0004248853301049382
-0.4938498261559289,-0.4938498261559289,1.000236971163782,0.00034977371821216205
-0.4937752082871157,-0.4937752082871157,0.9999973349884584,0.0003417841329003324
-0.493700980207359,-0.493700980207359,0.99998850912361,0.00039411372968565123
-0.49356859719846397,-0.49356859719846397,0.9999340555419648,0.000388674212584623
-0.4934909072253504,-0.4934909072253504,0.9998342069010671,0.0003937166259969451
-0.49333829797105866,-0.49333829797105866,0.9997099231206358,0.0003491396282386195
-0.49325747406110165,-0.49325747406110165,1.0010326599922574,0.0003851966909719002
-0.4931557452247944,-0.4931557452247944,1.0003071630307594,0.0003767396680545322
-0.49304159632883965,-0.49304159632883965,0.9997902170174979,0.00033975696850489985
-0.49279448784946,-0.49279448784946,0.9994260170067857,0.00042535478840391845
-0.4927538010349963,-0.4927538010349963,1.000560688961205,0.00041325948663629595
-0.4926058762386674,-0.4926058762386674,1.0001318391579086,0.0004023732239879478
-0.49251431704615245,-0.49251431704615245,0.9996972386203499,0.0004093709264834717
-0.4923591398517601,-0.4923591398517601,1.0000856440239663,0.00038504547888631465
-0.49223132935148894,-0.49223132935148894,1.000079316409056,0.00034264766161807073
-0.4921421105143963,-0.4921421105143963,1.000466086164351,0.00040418913538948765
-0.49205239469447404,-0.49205239469447404,0.9999373333358232,0.0003724977826832934
-0.49197667986591115,-0.49197667986591115,1.0001064418553962,0.00042987921926833643
-0.4918213134340476,-0.4918213134340476,1.000514698539638,0.00034445372754926084
-0.491719510119583,-0.491719510119583,0.9997116607891622,0.000349516049498551
-0.4916445003793342,-0.4916445003793342,0.9996756404802648,0.00037216127040314793
-0.49153108700411396,-0.49153108700411396,1.000552133986757,0.0003728460256913944
-0.49144049392198214,-0.49144049392198214,1.0003665182502108,0.00038029080006555654
-0.49126431667536963,-0.49126431667536963,1.0000800974977353,0.00039302641864229215
-0.4911329597351141,-0.4911329597351141,1.0003635291905688,0.00037139004901885753
-0.4910849253297783,-0.4910849253297783,1.0000415982042186,0.00039059548043643834
-0.49097804129851286,-0.49097804129851286,0.9998249677614444,0.00039607803443786197
-0.49088038654299454,-0.49088038654299454,0.99963679419443,0.0003693185722065867
-0.49081524412322325,-0.49081524412322325,0.999818172117348,0.0003679704382537062
-0.4906522713252343,-0.4906522713252343,1.0000053344021538,0.00039863615246351903
-0.4905425215663854,-0.4905425215663854,1.0005244336781955,0.0003698645028949957
-0.49041700653615405,-0.49041700653615405,0.999982720955938,0.00034082051569713217
-0.4903398316761013,-0.4903398316761013,0.9999687431783897,0.00037968671846403697
-0.4902360450127162,-0.4902360450127162,0.9997653488077548,0.00034593026318948446
-0.4900503555909381,-0.4900503555909381,1.0000203370645568,0.00036634674921812914
-0.4899084609351121,-0.4899084609351121,1.0006830036948418,0.0004265591963165333
-0.4897955006774282,-0.4897955006774282,0.9997664548965638,0.00036591560127789295
-0.4897042544165743,-0.4897042544165743,0.9992941053767257,0.0003958189881424919
-0.48958268464484717,-0.48958268464484717,1.0001584734893234,0.0003643421156107085
-0.48945581676234723,-0.48945581676234723,0.9997709569173635,0.00039210484683727755
-0.4893484758853447,-0.4893484758853447,1.000176069874509,0.0003667683294035271
-0.48923444707616,-0.48923444707616,0.9999571470506858,0.00040444971407615035
-0.4891256709001027,-0.4891256709001027,1.0003601030946512,0.00036332842412418516
-0.48905275480938143,-0.48905275480938143,0.9999578270102045,0.00036240183157569756
-0.4889941348461434,-0.4889941348461434,0.9999939534718862,0.00039067536280287666
-0.4888972222717712,-0.4888972222717712,1.000409312019799,0.00038687926844396743
-0.48872261412470835,-0.48872261412470835,1.0001867179709298,0.0003717067075754956
-0.48847794488974616,-0.48847794488974616,1.000093227242401,0.0004041003359893509
-0.48837090051965787,-0.48837090051965787,1.0004381623539278,0.00041223381036419184
-0.4882699387118919,-0.4882699387118919,1.0003116381180424,0.00038654192493412876
-0.488065468770219,-0.488065468770219,1.0003383380854738,0.0003658741234512983
-0.48791370948165425,-0.48791370948165425,0.9998879572767333,0.00041482649814127587
-0.487785454497498,-0.487785454497498,1.0000141720398539,0.00035832172335367626
-0.48764364728558574,-0.48764364728558574,1.0000272594704822,0.0003663086014077693
-0.48742434020823566,-0.48742434020823566,0.9999613779184809,0.00039723286516070086
-0.48735792638908604,-0.48735792638908604,1.0000618750875234,0.0003754829374702562
-0.4872232890731539,-0.4872232890731539,1.0003340448334814,0.00037676526664692583
-0.4871231582656037,-0.4871231582656037,1.0001279167769872,0.00041081495892711606
-0.48704338384559376,-0.48704338384559376,1.0004677396199106,0.00037489128759770387
-0.48694692432472947,-0.48694692432472947,0.9995462250931026,0.00035931933097576267
-0.4868805942707695,-0.4868805942707695,0.9998459178218001,0.0003630384289209343
-0.48679533922259,-0.48679533922259,1.0001845467893706,0.0003992272602676305
-0.48669288821402007,-0.48669288821402007,1.0002559255977674,0.0003918079492940847
-0.4865612702196813,-0.4865612702196813,0.9999787326003263,0.0003868434958604497
-0.4864201856777072,-0.4864201856777072,0.9995804414441147,0.000348003354822754
-0.48632327193481617,-0.48632327193481617,0.9995879671404522,0.00040222725579241363
-0.48623116224916885,-0.48623116224916885,1.0002326918811535,0.0003744111406938179
-0.4859933979838388,-0.4859933979838388,0.9994911549507218,0.00042614562977075525
-0.48585586672852515,-0.48585586672852515,0.9999950547886824,0.00037298073515193875
-0.4857571471933625,-0.4857571471933625,0.9989049287604385,0.00041258047001670563
-0.4856062702980125,-0.4856062702980125,1.0001484641723448,0.00039386187112618417
-0.48539023712364726,-0.48539023712364726,1.0000851061270586,0.00037303018852866956
-0.4853443310537841,-0.4853443310537841,0.9999215276218427,0.0003889635273605686
-0.48523875961545854,-0.48523875961545854,0.9998980167177821,0.00041384911753016007
-0.48515224416332786,-0.48515224416332786,1.000363207191454,0.0003766638214955323
-0.4850244582994492,-0.4850244582994492,1.000044968772343,0.0003798009007478558
-0.48489434270595666,-0.48489434270595666,0.9997459306854564,0.0003534788666240801
-0.4848333310641465,-0.4848333310641465,0.9998009832833393,0.00039886404237793023
-0.48470556019892685,-0.48470556019892685,0.9997927892804549,0.00036038443597376094
-0.4846015219707624,-0.4846015219707624,0.9995301520699262,0.00037563283034618627
-0.4844102646617102,-0.4844102646617102,0.9997254804639264,0.0003789473870572487
-0.48429991599405187,-0.48429991599405187,1.001033832576557,0.0004135184737055531
-0.48425534464622616,-0.48425534464622616,1.0002678477501497,0.0003778663959211225
-0.4841678638011217,-0.4841678638011217,1.0005486051080132,0.000378114823946328
-0.4840414558813791,-0.4840414558813791,0.9991295616360801,0.0003443974396541631
-0.4839681786761503,-0.4839681786761503,0.999838236911043,0.00037674717118119447
-0.4838387952564517,-0.4838387952564517,0.9999991359885361,0.00036359887661059214
-0.48375465622957564,-0.48375465622957564,1.000117903615007,0.0004083283988059785
-0.48364740741671997,-0.48364740741671997,1.0000061314722517,0.000390485009521871
-0.48353080739907456,-0.48353080739907456,1.0000705236662903,0.00038712497513003545
-0.48346410891244884,-0.48346410891244884,0.9998854061800264,0.0003485546404390895
-0.4834004420627025,-0.4834004420627025,0.9997972534979145,0.0003496438143539102
-0.4832356204249663,-0.4832356204249663,0.9999813566644711,0.00035748094808979116
-0.48309424539183965,-0.48309424539183965,1.000427493605007,0.0003610697702070332
-0.482970532469335,-0.482970532469335,0.9999328135754363,0.00043848367422149296
-0.48287153055134696,-0.48287153055134696,0.9999928195675618,0.00035851956529871643
-0.48277893344347833,-0.48277893344347833,1.000037108946385,0.0003561873104751055
-0.4826942452942603,-0.4826942452942603,0.9999741387328582,0.00034858789726939065
-0.48258020962093723,-0.48258020962093723,0.9998169731884514,0.0004077516008366186
-0.48244341850222555,-0.48244341850222555,0.9997977202208655,0.00038761943548989194
-0.48232448517519516,-0.48232448517519516,1.000019995118218,0.0004118954312814435
-0.48222615458653306,-0.48222615458653306,1.000235607450486,0.0003669497117283545
-0.4821639656831394,-0.4821639656831394,0.9997003473104813,0.00036146603740394833
-0.4820809794167872,-0.4820809794167872,0.9995164213139643,0.0003992496032333169
-0.48187054864683887,-0.48187054864683887,0.9999420393710972,0.00033607706353815743
-0.4816645842816797,-0.4816645842816797,0.9998109491984059,0.00044654991559785423
-0.4815175369032659,-0.4815175369032659,1.0001255670739042,0.00038967433174642955
-0.48140836698876227,-0.48140836698876227,0.999757424066477,0.0003790650390830874
-0.48121184047922727,-0.48121184047922727,0.9997700456800093,0.0003576216060471864
-0.48112131682864856,-0.48112131682864856,0.9997420492111502,0.00037961308146962765
-0.4809926302797976,-0.4809926302797976,0.9995678707125076,0.0004053644165341973
-0.48087317511526634,-0.48087317511526634,0.9998459661343325,0.0003679366559034034
-0.48066719376511174,-0.48066719376511174,1.0002324805901026,0.00036229438842507334
-0.4805700456461636,-0.4805700456461636,1.0000981770843995,0.0003800790048810603
-0.48051936997362643,-0.48051936997362643,0.9999030192476848,0.00038446657517388083
-0.4804005851372494,-0.4804005851372494,0.9993841607850292,0.00036450700919519265
-0.4802553265035385,-0.4802553265035385,0.9995857856966934,0.00042061773820197327
-0.4801781526359264,-0.4801781526359264,0.9997579710545443,0.00035807166188550464
-0.4801289386989083,-0.4801289386989083,1.000052444253018,0.00039299319032043986
-0.48004645752807845,-0.48004645752807845,0.9999563878708667,0.00037705143077850785
-0.47995874854241266,-0.47995874854241266,1.0002008935993894,0.00038863977429647197
-0.479882518510567,-0.479882518510567,0.9997753642903933,0.0004045460952354518
-0.479747646333999,-0.479747646333999,1.0003324461647516,0.00036813281674193994
-0.47956942443852313,-0.47956942443852313,1.0006360415156148,0.0003722857385059028
-0.4794898161009769,-0.4794898161009769,1.0000288511464015,0.0003567854208811039
-0.4794492561457446,-0.4794492561457446,1.0000217089550616,0.00043102169340265655
-0.4792803151591215,-0.4792803151591215,0.9998082257719026,0.0003257405817206435
-0.4791499815342831,-0.4791499815342831,0.9996339630705517,0.0004024899798939608
-0.4789809674024582,-0.4789809674024582,1.0000698213699435,0.00041220914344626634
-0.47887835866276873,-0.47887835866276873,0.9996580364047816,0.0003951045828840742
-0.478642048756592,-0.478642048756592,1.0005572354251273,0.00040616857437078676
-0.4784951989830006,-0.4784951989830006,0.9999035860492722,0.0003592291385409192
-0.47843346883455523,-0.47843346883455523,0.9999443828742558,0.0003767520684405926
-0.4783231277076993,-0.4783231277076993,0.9999839003711063,0.000378710736231142
-0.47821802474645664,-0.47821802474645664,1.00039201532717,0.0004000522663917702
-0.4781004248172394,-0.4781004248172394,0.9996541038462208,0.00036727682244123527
-0.4779902047856012,-0.4779902047856012,0.9997511120259146,0.0003990403947126277
-0.4778467031894252,-0.4778467031894252,1.0002204819021614,0.0003601912922812076
-0.4777724049941753,-0.4777724049941753,0.9997013095912797,0.000384593239899911
-0.47771655396500134,-0.47771655396500134,1.0000372309103305,0.000374151985572198
-0.47748806016606976,-0.47748806016606976,1.0004544121752625,0.000430943647991171
-0.47743195006187306,-0.47743195006187306,1.0005651943539653,0.00038088733958732007
-0.4773094836215023,-0.4773094836215023,0.9995789970648176,0.00037832188977821935
-0.4772025307029253,-0.4772025307029253,0.9999106981643958,0.0003449887790219419
-0.47712280808773355,-0.47712280808773355,1.0001012998719943,0.0003619230406204531
-0.4770381719557918,-0.4770381719557918,0.9997260111705722,0.0003614718975993848
-0.4769332795549417,-0.4769332795549417,1.0001961691389643,0.0004031105917539861
-0.4768483446969185,-0.4768483446969185,0.9997421800700075,0.0003673855985909133
-0.47670133251085645,-0.47670133251085645,1.0001367590006502,0.0003953663896500696
-0.4766198666606215,-0.4766198666606215,1.0002320913058884,0.0003731260913777449
-0.4765822923727683,-0.4765822923727683,1.0000808023658452,0.00031955890443846906
-0.47647392099461283,-0.47647392099461283,0.9993847006649302,0.000383408774206267
-0.47633932465978435,-0.47633932465978435,0.9993371802644239,0.0004025694869604899
-0.47624408214178404,-0.47624408214178404,1.0004067819455398,0.00038055329631758316
-0.47609925776487216,-0.47609925776487216,1.0000437264810864,0.000396306336262518
-0.47602906599786365,-0.47602906599786365,0.9997000542245049,0.0003687531355971105
-0.47594471922784576,-0.47594471922784576,1.0000361210836537,0.00035136565125594617
-0.47585524475871355,-0.47585524475871355,0.9998889016879918,0.0003314142473631138
-0.4757568692031782,-0.4757568692031782,0.9997526255766955,0.00040548957457311856
-0.47562979731883387,-0.47562979731883387,0.9998819380511751,0.0003930376647968927
-0.4754890424592304,-0.4754890424592304,0.9997839564961868,0.00039829600269365256
-0.4753948694371502,-0.4753948694371502,0.9994658969043684,0.00036945193602260916
-0.47531731822818984,-0.47531731822818984,1.0003501059342352,0.0003776795271088221
-0.4752347168512642,-0.4752347168512642,0.9995555920754194,0.0003827638800349243
-0.4751203030420584,-0.4751203030420584,0.9997262606695252,0.0003516129534478036
-0.47491290026518984,-0.47491290026518984,1.0000977462950695,0.00034179320200552414
-0.4747397681800066,-0.4747397681800066,1.0004421599946505,0.000426048414455993
-0.4746456493143342,-0.4746456493143342,0.9998419677723167,0.0003719368871224223
-0.47448712883051486,-0.47448712883051486,0.9998299197695258,0.00035921379122658766
-0.47430993823363676,-0.47430993823363676,1.000026856954905,0.0004137237175703733
-0.47419846016709927,-0.47419846016709927,0.999842212950977,0.000392803001805264
-0.47403635912633035,-0.47403635912633035,0.9997148760067892,0.0003548944950793534
-0.4737995133778895,-0.4737995133778895,1.0000011653972494,0.00038490041486784974
-0.4736960618116427,-0.4736960618116427,0.9995057771486187,0.0003939771923807163
-0.47364914172940187,-0.47364914172940187,0.9998651128431192,0.0003678686995701219
-0.47350578582845626,-0.47350578582845626,1.0004804510657352,0.0004129836807635455
-0.47339773011917713,-0.47339773011917713,1.0002112541306691,0.0003885136972929193
-0.47331825135624966,-0.47331825135624966,1.000175448114446,0.0003816267197280606
-0.47325192348653217,-0.47325192348653217,1.0001286822641613,0.0003829124348957685
-0.47316454740357583,-0.47316454740357583,0.9998592924221098,0.00036378421011310023
-0.4730705039750319,-0.4730705039750319,1.0002936889266123,0.0003952049453853146
-0.4730363827999099,-0.4730363827999099,1.00002795148307,0.00038388840710273714
-0.4728701299318345,-0.4728701299318345,0.9999748628978757,0.00035189400994333094
-0.4727045690873638,-0.4727045690873638,1.0001074418162295,0.0003863241152299084
-0.47262577706569575,-0.47262577706569575,0.999959039339495,0.0004302601930505293
-0.47259298536228017,-0.47259298536228017,1.000346079044443,0.00037822626868737276
-0.47237352236988955,-0.47237352236988955,0.9999837963113123,0.0003510336809717746
-0.4722498307368369,-0.4722498307368369,1.0002017727875478,0.00039993868352918916
-0.47210036346514245,-0.47210036346514245,1.0000880284083813,0.00043113125282727633
-0.4719933101470815,-0.4719933101470815,0.9998886769289624,0.00038039156824722244
