time,time,flux,flux_err
-0.49991663109418977,-0.49991663109418977,1.000134871907255,0.00015795483905551376
-0.4997079043781317,-0.4997079043781317,1.0001120092368396,0.00016942627379771229
-0.4995388112940418,-0.4995388112940418,0.9998843449044648,0.00013997762162132265
-0.4993285462136555,-0.4993285462136555,0.9999658497930156,0.00015059921639098772
-0.4991494140595023,-0.4991494140595023,1.0001838177848548,0.00014662582327329144
-0.4989528136793524,-0.4989528136793524,1.0000885692022274,0.00014213450830064745
-0.49877173767090427,-0.49877173767090427,1.0000688591950122,0.00014676962106773358
-0.49864224327757256,-0.49864224327757256,1.0001298165661985,0.0001422122899564279
-0.49849918797262943,-0.49849918797262943,1.0001797051871804,0.00014678622373555223
-0.49826221563416767,-0.49826221563416767,1.000091861908948,0.00014340810748999055
-0.4980685212809476,-0.4980685212809476,0.9999110846056387,0.00014781222167532972
-0.49789853240945375,-0.49789853240945375,0.999783037336265,0.00014446710818714887
-0.4975988803445944,-0.4975988803445944,0.9997613935768209,0.00014427125021266974
-0.4974870119353,-0.4974870119353,1.00015782381525,0.000143656291405668
-0.49728756706317656,-0.49728756706317656,0.9999563588684574,0.00014493025044485573
-0.49708583659594296,-0.49708583659594296,1.0002616003447204,0.00014809845295564797
-0.49689141064809517,-0.49689141064809517,1.0001724532454432,0.0001491894490675534
-0.4967409894481534,-0.4967409894481534,0.9999267429916265,0.00014574040124915787
-0.4965226615713618,-0.4965226615713618,0.9999151897872416,0.0001511183850689373
-0.4963297121714277,-0.4963297121714277,0.9998614240055776,0.0001395059276266958
-0.4961201080113824,-0.4961201080113824,0.9998715430092417,0.0001512864178554157
-0.4960224407193891,-0.4960224407193891,0.9998136526068622,0.0001432550198907408
-0.4957631250857958,-0.4957631250857958,1.0001744779309298,0.00014289707844038387
-0.4956361723743612,-0.4956361723743612,1.0001424884657242,0.00014211812030229422
-0.495483787451667,-0.495483787451667,0.9999502856458712,0.00014642407720048727
-0.4953164819511585,-0.4953164819511585,0.9998210499209982,0.00014419140588240858
-0.4952162593253888,-0.4952162593253888,0.999767677085786,0.00014675084472699605
-0.4949753049877472,-0.4949753049877472,0.9996430723804037,0.0001502266635968299
-0.4947719718249573,-0.4947719718249573,1.0000023343867355,0.00014283152022131232
-0.49462930761728785,-0.49462930761728785,1.000003476539992,0.00015068209290652733
-0.4943012781259313,-0.4943012781259313,1.0001917013273105,0.0001423477361996112
-0.4940450848582259,-0.4940450848582259,0.9996696472804569,0.00014512016590077233
-0.4938113685238932,-0.4938113685238932,0.9998351952387153,0.00014754740421705335
-0.4936973090530955,-0.4936973090530955,0.9998809466892601,0.00015457559989256447
-0.4935754555364838,-0.4935754555364838,0.9999993858766661,0.00014124097391027886
-0.49336970086733345,-0.49336970086733345,1.0001971821999207,0.00014426117999867145
-0.4931929714271973,-0.4931929714271973,1.000067099255375,0.00014488168986680753
-0.4929570064123254,-0.4929570064123254,0.9999656902514324,0.00013963119990899428
-0.49285348442645044,-0.49285348442645044,1.0001464636520667,0.0001508642048425411
-0.49273095959069907,-0.49273095959069907,0.999839206623147,0.0001427619796839587
-0.4924783766604378,-0.4924783766604378,0.9998923082628514,0.00014160479509009937
-0.4923705480083299,-0.4923705480083299,0.9998188064957138,0.00014438017767946996
-0.4922636842027714,-0.4922636842027714,1.0000119626429733,0.0001407611020314357
-0.4921406329878664,-0.4921406329878664,1.0000449645120066,0.0001482313002635886
-0.4919273221450567,-0.4919273221450567,1.0000449071264241,0.00014720896439514652
-0.491768875985872,-0.491768875985872,1.000231588246188,0.00014563098767358447
-0.4915980029552884,-0.4915980029552884,0.999989379862253,0.00014034794262581
-0.49146820848473,-0.49146820848473,0.9999686108729545,0.00015259818420257804
-0.49135282726565493,-0.49135282726565493,1.0002499465017356,0.00014383152874367758
-0.4912469197886821,-0.4912469197886821,0.9999643090357301,0.00013967481099443738
-0.49095757226532444,-0.49095757226532444,0.9997455234304082,0.0001443615066634814
-0.49067568576501797,-0.49067568576501797,0.9997139817679376,0.00015264573890529513
-0.49046638155996336,-0.49046638155996336,1.0000261669306867,0.00015148206918386267
-0.4903546319634188,-0.4903546319634188,1.0002112875667712,0.00014124423908529578
-0.49020106858370127,-0.49020106858370127,1.0001175162815568,0.00014474262289471045
-0.4900253242863982,-0.4900253242863982,1.0000143789661107,0.0001440591089013782
-0.4897176001119078,-0.4897176001119078,0.9997387288963726,0.00015065189396115333
-0.4895825213039643,-0.4895825213039643,0.9999011342495127,0.00013998106336489698
-0.48934933954878945,-0.48934933954878945,0.999706483565568,0.0001440202258758184
-0.4890927705397189,-0.4890927705397189,0.999949453941119,0.00014566311825975087
-0.48897176334721737,-0.48897176334721737,0.9999424009937959,0.00014414755912476042
-0.4888069570064545,-0.4888069570064545,0.9997826540595863,0.00014485050657224793
-0.48865065368881916,-0.48865065368881916,1.0001172467742045,0.00015074073269133516
-0.4885277368426614,-0.4885277368426614,1.0001639727985847,0.00014783879509099222
-0.4883568294251745,-0.4883568294251745,0.9997453404746681,0.00015056096287209634
-0.4882422162758303,-0.4882422162758303,1.0001754575734028,0.0001390204188713889
-0.48810841686135975,-0.48810841686135975,1.0000700431300489,0.00014654608426068025
-0.487918931319291,-0.487918931319291,0.999992342995682,0.000141856273269541
-0.48763972460074,-0.48763972460074,0.9999715619614788,0.00014373589701171922
-0.48744810905482155,-0.48744810905482155,1.000289284975204,0.00015049535602837372
-0.48727130114639294,-0.48727130114639294,1.00023887767695,0.00015086395912392614
-0.48712397873023294,-0.48712397873023294,0.9999131386618971,0.00014506187885895516
-0.48702969945879887,-0.48702969945879887,0.9999290206812225,0.00013921575428076633
-0.4869187878008233,-0.4869187878008233,1.0001075647813393,0.0001434082511193325
-0.4867175404149748,-0.4867175404149748,1.0000371406979887,0.0001461450555466915
-0.4865244402739336,-0.4865244402739336,1.00029826314288,0.00014837184985522987
-0.48633962308085754,-0.48633962308085754,1.000046057406458,0.00014330795247770233
-0.4860541072812339,-0.4860541072812339,0.9999913807073447,0.0001459886688412003
-0.48588826166887883,-0.48588826166887883,0.9999943154772882,0.0001484040359767655
-0.48572883649540016,-0.48572883649540016,0.999932242310798,0.0001429418405588249
-0.4856063898965658,-0.4856063898965658,1.00037486032979,0.00014589949639307186
-0.4854924659775861,-0.4854924659775861,0.9998392222216536,0.0001466635574783873
-0.485373854147474,-0.485373854147474,1.0001400330132801,0.0001501515795496006
-0.48517358620811135,-0.48517358620811135,0.9999270872996406,0.00014698684747726365
-0.4850493995625584,-0.4850493995625584,0.9998139639787169,0.00014004049346372178
-0.4849056784165441,-0.4849056784165441,1.0000499492137471,0.00014842384284684783
-0.48466351759852844,-0.48466351759852844,1.0000969675510754,0.0001451887603177154
-0.4845026773873542,-0.4845026773873542,0.9999923436572467,0.00015079999497558187
-0.4843589171898202,-0.4843589171898202,1.0001056891364348,0.0001439371458402602
-0.48417891261851764,-0.48417891261851764,1.0002337303726374,0.00014895161308150484
-0.4840228962108085,-0.4840228962108085,0.999883857524636,0.00014818009473202472
-0.4838893370921141,-0.4838893370921141,0.9999798209643282,0.00013968564160387313
-0.4837983435405476,-0.4837983435405476,0.9999467319968645,0.00014494923568471188
-0.48352427376812557,-0.48352427376812557,1.0002054591289313,0.00014382780220395695
-0.48336016326575193,-0.48336016326575193,0.9998857718003805,0.00014953023508892357
-0.4832336063082039,-0.4832336063082039,1.000035375444588,0.00014227232151532
-0.483058912101842,-0.483058912101842,0.999881437190027,0.00014315581531383303
-0.4828264083014801,-0.4828264083014801,0.9998789406066889,0.00014646043828984612
-0.48255852530710397,-0.48255852530710397,0.9999320459360664,0.00014240614562606942
-0.4824037549326022,-0.4824037549326022,0.9997629644969654,0.00014719725205375277
-0.48233914019656365,-0.48233914019656365,0.9999411531080838,0.00014702328028206967
-0.48222521993957346,-0.48222521993957346,1.0002957345970143,0.0001443684414510349
-0.48207591591854,-0.48207591591854,1.0001716075335074,0.00014873206333792526
-0.48194068165976206,-0.48194068165976206,0.9998492224238612,0.00014661203334195416
-0.48174190260397154,-0.48174190260397154,1.0001900548815652,0.00014270487380653625
-0.48152279009591437,-0.48152279009591437,1.00013934314557,0.00016451003547907254
-0.4813233483459044,-0.4813233483459044,0.9999802225553053,0.00015051724656283446
-0.48113876466377403,-0.48113876466377403,1.0001300202400838,0.0001541041998693676
-0.48083893029979663,-0.48083893029979663,1.0000688802552649,0.00014818812946432988
-0.4806688114826102,-0.4806688114826102,1.000014271519865,0.00014298661618509912
-0.48057689571505763,-0.48057689571505763,1.000089271210173,0.00014907391288925564
-0.48042937356367477,-0.48042937356367477,0.999992254781532,0.00013944250063022246
-0.4801715081841394,-0.4801715081841394,0.9999664771002406,0.00014857300049034224
-0.48006921535125,-0.48006921535125,0.9999050674919004,0.00014545088770198588
-0.47989820268485345,-0.47989820268485345,0.9997508585851179,0.00014344197705825446
-0.4797235086298315,-0.4797235086298315,1.0001045979533683,0.000143636222633153
-0.4794886494521052,-0.4794886494521052,0.9999459310337372,0.00014283685509467904
-0.47924664826205116,-0.47924664826205116,1.0000490722289717,0.00014828924721008591
-0.4791088529818808,-0.4791088529818808,1.0002543058690798,0.0001458758999193199
-0.47903662012395215,-0.47903662012395215,0.9997661390408498,0.00014922054440112518
-0.478927666493837,-0.478927666493837,1.0000629764299134,0.0001493297917935855
-0.4787009679930634,-0.4787009679930634,1.0000837926161594,0.00014544446310297573
-0.47842281902121614,-0.47842281902121614,1.0000959703061227,0.00013803323596208483
-0.47818256635364376,-0.47818256635364376,1.0000143808852813,0.00015047787093565656
-0.47801990812440637,-0.47801990812440637,0.9998991768388323,0.00014795411763864432
-0.47782853237367817,-0.47782853237367817,1.000141298843928,0.0001556735230275045
-0.4776522686574026,-0.4776522686574026,0.9998955256934551,0.000141971842329787
-0.47746236105740536,-0.47746236105740536,1.0001227411360327,0.00014530343289097863
-0.47735577344210467,-0.47735577344210467,0.9996953690506448,0.00014309660686444883
-0.47719761289845336,-0.47719761289845336,1.000003063986746,0.00014116853598019984
-0.4769024572444323,-0.4769024572444323,0.9999540244305493,0.00014745931179015865
-0.4767780640038836,-0.4767780640038836,0.9997598689635959,0.00014616029971183304
-0.47656124813001954,-0.47656124813001954,0.9997759390924503,0.00014449317530476947
-0.4763583836975158,-0.4763583836975158,1.0001336519566366,0.00014590394105818503
-0.4761089328647358,-0.4761089328647358,0.9999403278217095,0.00014411211370437627
-0.4759044002312294,-0.4759044002312294,1.0002789198070634,0.00014695331572139078
-0.4757048282917822,-0.4757048282917822,0.9999717403685837,0.00014568092802244914
-0.475584553644876,-0.475584553644876,1.0000536004883014,0.00014412638327366542
-0.47541855631789076,-0.47541855631789076,0.9999954667064893,0.00014386463337432898
-0.47533281076175626,-0.47533281076175626,0.9998289300673731,0.00013972858216539026
-0.47520045635028507,-0.47520045635028507,0.9998977702650915,0.00014670313929072856
-0.47505043791243223,-0.47505043791243223,1.0001553910388217,0.00014604377289958572
-0.4748836659869994,-0.4748836659869994,0.9999321998499818,0.00014782467036838413
-0.47472736983327196,-0.47472736983327196,0.9999211751087758,0.00014423827523554492
-0.47455758383657665,-0.47455758383657665,0.9999600547880527,0.00015052741620140707
-0.47443558036466127,-0.47443558036466127,1.0000346037751222,0.00013749166510826355
-0.474258259270573,-0.474258259270573,1.0001347510665561,0.00014750676142440724
-0.47411241240843083,-0.47411241240843083,1.0001128606925975,0.00014931673102038345
-0.47395319743081926,-0.47395319743081926,1.0000245297890955,0.0001412732513597202
-0.47377502741510397,-0.47377502741510397,1.0000259162610599,0.00014595625310310432
-0.4736002574834856,-0.4736002574834856,1.000136380407704,0.00014443113124596008
-0.47346218514212524,-0.47346218514212524,1.000094957706717,0.00014426773790677074
-0.47332996262339294,-0.47332996262339294,0.9999970006106784,0.00014107904337942547
-0.4731058877376199,-0.4731058877376199,0.9998996684380284,0.000143396222579598
-0.4729538076266181,-0.4729538076266181,1.0002655916785748,0.00014296884217343184
-0.4728312324878061,-0.4728312324878061,1.0003375580573224,0.0001476762331040802
-0.4726279828239058,-0.4726279828239058,0.9999901571326639,0.00014564121464921904
-0.4723787036098656,-0.4723787036098656,0.9997715591898254,0.0001419307641604826
-0.4721771940872713,-0.4721771940872713,1.0001729530466732,0.00014385422331580715
-0.47196170224560774,-0.47196170224560774,1.0000478581989178,0.00014744994183140759
-0.471834713138378,-0.471834713138378,1.0001094467439295,0.00014381321032858472
-0.47170006295418715,-0.47170006295418715,1.0001392309068424,0.0001509982080670326
-0.47157670193337253,-0.47157670193337253,1.0000327076041473,0.00014429426251310113
-0.4714061392849544,-0.4714061392849544,0.9999079037809295,0.00015114778652098842
-0.47123200860296494,-0.47123200860296494,1.0000279568196695,0.00013933373466563806
-0.4709917556545406,-0.4709917556545406,0.9998659011667914,0.00014788014191936374
-0.4708590860289405,-0.4708590860289405,0.9999791944134799,0.00014468348938890635
-0.47061275078012843,-0.47061275078012843,0.9998721844026924,0.00014323582327274798
-0.4705048628813529,-0.4705048628813529,0.9998914926758882,0.00013814303769978987
-0.470382786130358,-0.470382786130358,1.0000509604140924,0.00014620477825480152
-0.4702200819243444,-0.4702200819243444,0.9999636277153569,0.00015380185815504357
-0.4700914824687061,-0.4700914824687061,1.000218047676227,0.00014459727623528746
-0.46988903965684586,-0.46988903965684586,0.9999561507797516,0.00014672662815506195
-0.46971456594546906,-0.46971456594546906,1.0001166822455012,0.00014455377352445446
-0.4695749776015873,-0.4695749776015873,0.9998395821454359,0.0001529829371456724
-0.4694128045906837,-0.4694128045906837,1.00003817941937,0.0001376480465362989
-0.4691600172773178,-0.4691600172773178,1.000125580565816,0.00014205875043078956
-0.46892316331577605,-0.46892316331577605,0.9998121873498373,0.0001504157272737744
-0.4686694663563685,-0.4686694663563685,1.000019303211416,0.00016132529345988265
-0.4685543364059413,-0.4685543364059413,0.999920157724269,0.00014862982469833252
-0.46843524371433887,-0.46843524371433887,1.0000092484317988,0.00014146307846952857
-0.468252783594653,-0.468252783594653,0.9998713235962093,0.00013946519276657345
-0.4681535544761573,-0.4681535544761573,0.9999851876495421,0.00014561945413481405
-0.46803340128608395,-0.46803340128608395,0.9999846738195872,0.00014024572574698556
-0.46782032065675594,-0.46782032065675594,1.0000500303142263,0.00015054480249901552
-0.4676671325796633,-0.4676671325796633,1.000094076525285,0.00014358342376671502
-0.4674600278878643,-0.4674600278878643,0.9997978086702288,0.00014111315234790087
-0.4672446795491851,-0.4672446795491851,1.0000369541006051,0.00014470110166692
-0.46716204753611235,-0.46716204753611235,0.9996644288675032,0.00013961901301026946
-0.46704261945342296,-0.46704261945342296,0.9998955040064162,0.00014581590921747901
-0.46680914474854945,-0.46680914474854945,1.0000045560856086,0.00014960385954962478
-0.46668095157219797,-0.46668095157219797,1.0002043224886754,0.00014821764405126473
-0.4665511720049835,-0.4665511720049835,1.0000314577316773,0.00014478094545378726
-0.4664118198059441,-0.4664118198059441,0.9998196754973916,0.00015035393892485775
-0.4663160202209838,-0.4663160202209838,1.0002046144280767,0.00014165032515909588
-0.46616459731012583,-0.46616459731012583,0.9999422074632122,0.0001440135540244313
-0.46596506735077126,-0.46596506735077126,0.9999973509827994,0.00013965852147171257
-0.46574141229648375,-0.46574141229648375,0.9998910474983035,0.00014166268697490396
-0.4654863418531022,-0.4654863418531022,1.000117256187004,0.00015594528073731995
-0.4653179641005408,-0.4653179641005408,0.9998702668724011,0.00014709239414819724
-0.46516065985124444,-0.46516065985124444,0.9999466597936445,0.00014069576203335662
-0.4649488319562806,-0.4649488319562806,1.0000902657784412,0.00014778741976419934
-0.46472346822411054,-0.46472346822411054,0.9999322999622173,0.00014331133259484313
-0.46460115964873694,-0.46460115964873694,1.0000858383930717,0.00015049583150955248
-0.464457325416879,-0.464457325416879,1.000156142012904,0.0001420874124236431
-0.46418772531687863,-0.46418772531687863,0.9999172349339831,0.00014328689700385207
-0.46399704473587916,-0.46399704473587916,1.0002172130278002,0.00014498558905901124
-0.46385892246980803,-0.46385892246980803,0.9998593383399437,0.00014473276538444252
-0.4637214680282341,-0.4637214680282341,1.0001760345985813,0.00014282352648714304
-0.46357356106673253,-0.46357356106673253,1.0000594801290645,0.00014917815913593875
-0.4634339103075035,-0.4634339103075035,1.0001200642951935,0.0001456987207622403
-0.46328047634742686,-0.46328047634742686,0.9998941290401653,0.00015084318818382045
-0.4631308275187621,-0.4631308275187621,0.999994756950344,0.00014529795306635597
-0.46293741691624746,-0.46293741691624746,0.9999365719346125,0.00014612155055123566
-0.46268926172997454,-0.46268926172997454,1.000031726108563,0.00014163424690386846
-0.46250740323666834,-0.46250740323666834,0.9998893356382634,0.00013992819553701913
-0.46228244883095615,-0.46228244883095615,0.9999357174581954,0.0001554563398835402
-0.4621818284613255,-0.4621818284613255,1.0000297209801092,0.00014508089040023977
-0.4620511068882479,-0.4620511068882479,1.0000629269697625,0.00014093706694476836
-0.46189611798836266,-0.46189611798836266,1.0001431099810023,0.00014497194639777192
-0.4617920572432922,-0.4617920572432922,1.0000283700761934,0.00014177477719790605
-0.4615280179546971,-0.4615280179546971,0.9998814803714516,0.00014591038108895295
-0.4614077660422481,-0.4614077660422481,1.0000440763341927,0.00014943612352133161
-0.46129034723126094,-0.46129034723126094,0.9999940643701833,0.0001431140702610213
-0.4610445924256055,-0.4610445924256055,0.9998361063398932,0.00014407412474209022
-0.46083989695689526,-0.46083989695689526,1.0001205147075989,0.00014719050234786107
-0.4606718692521099,-0.4606718692521099,1.000125638371593,0.0001423881634407347
-0.46054306309015375,-0.46054306309015375,0.99995124910947,0.0001411319257404321
-0.46041887085084454,-0.46041887085084454,1.0002232437394083,0.0001463915933236311
-0.4603043234128563,-0.4603043234128563,1.000171821595368,0.00014706776672692297
-0.46023106779757655,-0.46023106779757655,1.0000769319567253,0.000141467516768131
-0.46009612753332474,-0.46009612753332474,0.9996669309586448,0.00014971873310584048
-0.4599573812869494,-0.4599573812869494,1.0001232434172824,0.00014396978865672438
-0.4597630165044393,-0.4597630165044393,0.9997950678791335,0.00014653180217513354
-0.4595314753816638,-0.4595314753816638,0.999977072605148,0.00014353602224835208
-0.4593561681300343,-0.4593561681300343,1.0001143601407119,0.0001508102936799426
-0.4592146279959707,-0.4592146279959707,0.9999607919093891,0.0001393351344172515
-0.4590112407553534,-0.4590112407553534,1.000264401365973,0.00015097946046794376
-0.45877813367114867,-0.45877813367114867,0.9999169910981921,0.00014299743771797676
-0.45870565753648407,-0.45870565753648407,0.9999412657644522,0.00014359271540481224
-0.4585645155253587,-0.4585645155253587,1.0000239820834012,0.00014362328725859723
-0.4583069873006025,-0.4583069873006025,1.0000889902457724,0.00014114939458982384
-0.45824191706051354,-0.45824191706051354,1.0001342116587328,0.00015181798715018419
