time,time,flux,flux_err
-0.4999486878696189,-0.4999486878696189,1.0001288773275074,0.0003237040480115791
-0.49967354014916054,-0.49967354014916054,0.9998005653262508,0.000340346886018945
-0.4993873473467829,-0.4993873473467829,1.0002714806179984,0.00031440825498044953
-0.49928551349876216,-0.49928551349876216,0.9996972907395005,0.00030113310604661526
-0.4991638056912052,-0.4991638056912052,1.0002169366636844,0.0003154707642013488
-0.49900581630427043,-0.49900581630427043,0.999971592308231,0.000311681700591317
-0.4987228379031876,-0.4987228379031876,1.0000484646938665,0.00031510038799038105
-0.4985271072517207,-0.4985271072517207,0.9998478100501696,0.00033688646880937256
-0.49842332118423655,-0.49842332118423655,1.0002784057454583,0.00031503253765226735
-0.4983012307129684,-0.4983012307129684,0.9996012310966973,0.0002951491012655406
-0.49823319010538397,-0.49823319010538397,1.0003622658374451,0.00030234473653648097
-0.4981408751635172,-0.4981408751635172,0.9994172706313339,0.0003109928211192501
-0.4980059199187963,-0.4980059199187963,1.0001986436704613,0.0003235874977907866
-0.49790166862730983,-0.49790166862730983,0.999759221098506,0.000303282095487515
-0.49767018701750204,-0.49767018701750204,1.0006468738264414,0.00030864867079944823
-0.49755184666792046,-0.49755184666792046,0.999708218345843,0.0003060270569158265
-0.4974734956289467,-0.4974734956289467,1.000121221324656,0.0003249218951588939
-0.49733869505216716,-0.49733869505216716,1.0003347364691961,0.00034311916320170044
-0.497195301282045,-0.497195301282045,0.9998251315186119,0.00030127422633998666
-0.4971052647990291,-0.4971052647990291,1.0002615382312727,0.0003256008896563601
-0.49699684122169857,-0.49699684122169857,0.9999647975865187,0.00030810767449642373
-0.4969131731289963,-0.4969131731289963,0.9997059428575025,0.0003119398093080381
-0.49683127413445616,-0.49683127413445616,0.9999152056065845,0.000316565249183196
-0.4966864383153734,-0.4966864383153734,0.9999550345219509,0.0003269316626129409
-0.49649217603728174,-0.49649217603728174,1.0001234031768815,0.0002962185363545343
-0.4964028141759627,-0.4964028141759627,0.9997491707698748,0.00033051058502191655
-0.49624501508587854,-0.49624501508587854,0.9999167224207811,0.00033510739053807607
-0.49616118233898304,-0.49616118233898304,1.0000717981702958,0.00032242559060801816
-0.49606602448548076,-0.49606602448548076,0.9996684924121311,0.00030472549290510144
-0.4959483979866491,-0.4959483979866491,0.9999950312669472,0.00032126323519072347
-0.4958605934029038,-0.4958605934029038,0.9996554474463922,0.00031237415695784063
-0.4957022211223375,-0.4957022211223375,0.9999836763920932,0.00032172505788591137
-0.4955415874886967,-0.4955415874886967,0.9995629214816459,0.00032098880011494335
-0.4954196368496923,-0.4954196368496923,1.0000120897417466,0.00030341927023250936
-0.4952757325358107,-0.4952757325358107,1.0001144904565948,0.0003139206645067087
-0.49515839986124777,-0.49515839986124777,0.9999008598191624,0.0003255608894757219
-0.4950206378271105,-0.4950206378271105,1.00018190983518,0.0003231381305359396
-0.4948973598809971,-0.4948973598809971,1.0000206628226835,0.0003073451971109307
-0.49478403289831474,-0.49478403289831474,0.9999903993949122,0.0003233998521656412
-0.4946590323590499,-0.4946590323590499,1.0000151711218623,0.0003188252363834704
-0.4945420901800389,-0.4945420901800389,1.000026682522993,0.0003098125724046272
-0.4943293059281132,-0.4943293059281132,1.0001460178998336,0.00029097020206355907
-0.49416694765168356,-0.49416694765168356,1.0004818399389515,0.00032382241680075247
-0.4940392450793297,-0.4940392450793297,0.9996149979662381,0.0003385354712701556
-0.49393596163790787,-0.49393596163790787,0.9999379009794408,0.00030721278065608097
-0.4938586958058295,-0.4938586958058295,0.9996524487127004,0.00031660815276015984
-0.49369767210882853,-0.49369767210882853,1.0006935190305513,0.0003213665389054665
-0.493586257147399,-0.493586257147399,1.0004462765704325,0.0003043842898831253
-0.49346288097731306,-0.49346288097731306,0.9999916121811936,0.0003047905162725686
-0.4932330902498506,-0.4932330902498506,0.9998323541133771,0.0002951935656069952
-0.49309321027321856,-0.49309321027321856,1.0002071485937016,0.0003012597768017323
-0.4929358681984013,-0.4929358681984013,1.0003050294331606,0.00031670483669995976
-0.4928170163424511,-0.4928170163424511,1.0004548810817315,0.0003032457172553058
-0.4927265297905251,-0.4927265297905251,1.000112750508349,0.00032285611025171786
-0.4925733320807922,-0.4925733320807922,1.0000579571110313,0.000314154140962807
-0.49241936919497675,-0.49241936919497675,1.0002142128371245,0.00030738886298258873
-0.4922720291222504,-0.4922720291222504,1.0000781814592425,0.00030807401242774994
-0.4919735195180692,-0.4919735195180692,0.9996303610684206,0.0003085534856640896
-0.4918935194291407,-0.4918935194291407,1.0003914084820746,0.0003175944878409191
-0.4918088188591355,-0.4918088188591355,0.99995133589108,0.000308725296391258
-0.4916787060916249,-0.4916787060916249,0.9994013151418439,0.0003068784118449479
-0.4915651250063092,-0.4915651250063092,0.9995136120972725,0.0003173976265061787
-0.4914416167499439,-0.4914416167499439,0.999930921024378,0.00031109282554841116
-0.4912851237328141,-0.4912851237328141,1.0001777283930289,0.00029746281885328815
-0.49109564538375705,-0.49109564538375705,1.0001676949911125,0.00031952723228519423
-0.49083134572938436,-0.49083134572938436,1.0000503332316388,0.00031449665886133283
-0.49072907080044387,-0.49072907080044387,1.000025704562987,0.0003009426982817807
-0.49058779096012584,-0.49058779096012584,1.0000207232855756,0.00031807289947292916
-0.4904167087697715,-0.4904167087697715,0.9996684075557203,0.0003106642799683894
-0.4902240263836575,-0.4902240263836575,1.0003893252961409,0.00031344385689938153
-0.4900279759334808,-0.4900279759334808,1.0002086532242451,0.00032751161847124015
-0.4899153486963769,-0.4899153486963769,0.9998873443098502,0.0003302567270297475
-0.48976562403768187,-0.48976562403768187,0.9999419451784771,0.0002986504654448901
-0.48968593904719454,-0.48968593904719454,1.0002007375183732,0.0003049538290192791
-0.4895861079443421,-0.4895861079443421,1.0002819949344581,0.00031688119108949826
-0.4894647641282063,-0.4894647641282063,0.999998882117086,0.00030792120715579134
-0.48937960572584416,-0.48937960572584416,0.9997964186273881,0.000309605681214012
-0.4891802389167424,-0.4891802389167424,1.000147535383032,0.0003358962057882711
-0.48906356145598695,-0.48906356145598695,1.000491239332218,0.00030006089056925804
-0.4889758585966774,-0.4889758585966774,0.9997728054971213,0.0003027146840887641
-0.48889414255318114,-0.48889414255318114,1.000127153567356,0.0003386763502724522
-0.48875830439938,-0.48875830439938,1.00012045736761,0.0003312565877552969
-0.4886218877378269,-0.4886218877378269,0.9997303406078875,0.00029856853150593386
-0.4885296203232429,-0.4885296203232429,0.9999148370903905,0.0003278529178914074
-0.4884172209269309,-0.4884172209269309,0.9990544290644875,0.000329203547094454
-0.4883277642955363,-0.4883277642955363,1.0005103999722205,0.00031230271560144256
-0.48821048460449673,-0.48821048460449673,1.0001501738213563,0.0003181113027149721
-0.4879925988010655,-0.4879925988010655,1.000336732857929,0.00031616881841068755
-0.48786604283377527,-0.48786604283377527,0.9995653807069939,0.00031566547142835015
-0.4877121020777849,-0.4877121020777849,1.0000571777489955,0.0003230745856948316
-0.4876282766737859,-0.4876282766737859,0.9997337830375566,0.00033450533843615825
-0.4875623362328042,-0.4875623362328042,0.9999401946835033,0.00031688616116801166
-0.4874379587723524,-0.4874379587723524,0.9999356455584032,0.00031415288936712324
-0.4873212208862242,-0.4873212208862242,0.9999688599560603,0.00031098069655629917
-0.48718119476761784,-0.48718119476761784,0.9999726504147546,0.00033115221412570754
-0.48704335300208185,-0.48704335300208185,0.9998044888828621,0.00031070760343591475
-0.4869039769815572,-0.4869039769815572,0.999747889887854,0.0003120439138827731
-0.48675710510724457,-0.48675710510724457,0.9999621697932748,0.0002986860823243656
-0.4866425711486954,-0.4866425711486954,0.9999226658101797,0.0003316995906390872
-0.4865022507001413,-0.4865022507001413,1.0002014244459871,0.0003284140151258421
-0.48639432344789385,-0.48639432344789385,0.9996938428142744,0.0003005202836701241
-0.4862850309371424,-0.4862850309371424,0.9997387050001834,0.0003219219229564021
-0.4861579044962127,-0.4861579044962127,0.9999200978364617,0.00031325921462041164
-0.4860752343061904,-0.4860752343061904,0.9998894472918369,0.00030486276868682115
-0.48595473317764115,-0.48595473317764115,0.9998412517636929,0.00030894792594863895
-0.4857524714359897,-0.4857524714359897,0.9998232952007424,0.0003002758269276246
-0.4856232797181292,-0.4856232797181292,0.99980176232861,0.00032379518292698144
-0.4854777443142666,-0.4854777443142666,0.9998733128222052,0.00033856897365796125
-0.4853799634882307,-0.4853799634882307,1.0002618493624844,0.0003010956034037573
-0.4853000381292077,-0.4853000381292077,1.0006724691149784,0.00033214667121927093
-0.4851403218592168,-0.4851403218592168,1.00008757192161,0.00032126334487838634
-0.4850061709796137,-0.4850061709796137,0.9999723467803241,0.00030642010939295017
-0.4848069613413827,-0.4848069613413827,0.9999510521958601,0.0002969065997855703
-0.4845717325915757,-0.4845717325915757,1.0001116190046853,0.00030228372924808654
-0.4844400817179121,-0.4844400817179121,0.9996700045492892,0.00031231255555735926
-0.4843202039999596,-0.4843202039999596,0.9997914689686767,0.00030417369107654964
-0.4842270997374726,-0.4842270997374726,1.0001276195450095,0.00032363814872004545
-0.48414925166289324,-0.48414925166289324,0.9999234504920274,0.00031549843487476586
-0.4839830776960298,-0.4839830776960298,1.0001434492251096,0.00031206973772535373
-0.4838637727705645,-0.4838637727705645,1.0000415195160937,0.0003078967738409332
-0.48367359996409504,-0.48367359996409504,1.000032618994679,0.00030807043060457524
-0.4834750773414271,-0.4834750773414271,1.000580725729979,0.0003086284328386295
-0.48334198199008827,-0.48334198199008827,1.0002330725498705,0.0003149370712818442
-0.48325381569666204,-0.48325381569666204,0.9997439780366595,0.00030886831186293664
-0.4831194887534366,-0.4831194887534366,0.9995428801943789,0.0003072629998485784
-0.48296861275230185,-0.48296861275230185,1.0000787112928644,0.000317034996398117
-0.4827508866372227,-0.4827508866372227,0.9998486850956951,0.0002982300032037883
-0.4824419726828637,-0.4824419726828637,0.9999506037258137,0.00031454773637522857
-0.482256147822045,-0.482256147822045,0.9999082701766433,0.00032464743315720586
-0.48214870037700164,-0.48214870037700164,0.9995422516385044,0.00030162173607605933
-0.48204054551606534,-0.48204054551606534,0.9998710990017159,0.00031001609454455804
-0.4818956498085754,-0.4818956498085754,0.9999141982539019,0.00030912980778496316
-0.4817668118957954,-0.4817668118957954,0.9999786797571965,0.000290647746961762
-0.4816159663758299,-0.4816159663758299,1.0001375752896826,0.0003114992316314334
-0.4814459360597539,-0.4814459360597539,0.9998241968042578,0.0003246436036695228
-0.48135857065208254,-0.48135857065208254,0.999819935286191,0.0003339299270685511
-0.4812013364731683,-0.4812013364731683,1.0000597604653634,0.00030065312423423305
-0.48110473826600353,-0.48110473826600353,1.0001460963356652,0.00032839497881704047
-0.4809983727747749,-0.4809983727747749,1.0001275147071738,0.0003061041009406596
-0.48087208506840395,-0.48087208506840395,1.000545300536557,0.0003215327536680395
-0.48069583705000696,-0.48069583705000696,1.00020028958876,0.0003244678078291925
-0.48052131680960886,-0.48052131680960886,1.0001664136652901,0.00029855024523626225
-0.4803904878346657,-0.4803904878346657,1.0004318089904154,0.0003256588391200693
-0.4802888850426825,-0.4802888850426825,0.9995503070014766,0.0003227350465248848
-0.48016710527444956,-0.48016710527444956,1.0000547380753368,0.0003312789344258087
-0.4800183295563329,-0.4800183295563329,0.9999957590340823,0.00031641427962368504
-0.47990552143892273,-0.47990552143892273,0.9997039995186056,0.0003219749170654747
-0.4798115469726326,-0.4798115469726326,0.9997717142854627,0.00032703928814202396
-0.47971903800498694,-0.47971903800498694,1.0002209211621689,0.00031424439911710924
-0.47957107852053016,-0.47957107852053016,0.9998254185680926,0.0003278732776523997
-0.47939989128135496,-0.47939989128135496,1.000425388579702,0.00030412508630989313
-0.47930660242782325,-0.47930660242782325,0.9995582646994017,0.00031378366661122167
-0.47915175524467485,-0.47915175524467485,1.0005237476673967,0.0003351702355397618
-0.4790690215479117,-0.4790690215479117,0.9998789109890465,0.0003339027857268438
-0.4790063739979814,-0.4790063739979814,0.9997469266288046,0.00030588164230249166
-0.4789213910298713,-0.4789213910298713,0.9999540850870009,0.0003176433408146145
-0.47877442806420734,-0.47877442806420734,0.9996779257713581,0.00031224547517556887
-0.4786374413582962,-0.4786374413582962,0.9999574082369065,0.0003154307533260996
-0.4785114734149829,-0.4785114734149829,1.000035900943034,0.0003134910236645821
-0.47837130258121763,-0.47837130258121763,1.000203361476522,0.00032087450619794827
-0.47827873212881966,-0.47827873212881966,1.0002637515275214,0.0003047507997216333
-0.4781262911092199,-0.4781262911092199,0.9994524206928664,0.00032981674754648665
-0.4779595886669995,-0.4779595886669995,1.0002198728684968,0.00032720212783997755
-0.4777954916491581,-0.4777954916491581,0.9999338503244539,0.0003107000624907803
-0.4776584981555061,-0.4776584981555061,0.9999071799495137,0.0003107123916917335
-0.47757404989824864,-0.47757404989824864,0.9999940849102366,0.00031181896772257444
-0.47750427020073405,-0.47750427020073405,0.9994943221591093,0.00029815360887948644
-0.4773993437374884,-0.4773993437374884,0.9998599753209767,0.00030930479074462315
-0.4771455231173604,-0.4771455231173604,0.9997171114209561,0.00029509398037514816
-0.47703232668354756,-0.47703232668354756,0.9994975503445944,0.00032623186013643486
-0.4768920434638858,-0.4768920434638858,1.0002583192801064,0.0003325663598496471
-0.47681280705219253,-0.47681280705219253,1.0000854564524064,0.0002997574850273822
-0.4767412923509255,-0.4767412923509255,0.9995349590415221,0.0003313528547975856
-0.4765847974238568,-0.4765847974238568,1.000103644437154,0.0003148391660289591
-0.4764857313268294,-0.4764857313268294,0.9996064506950997,0.00029604255821895717
-0.47635947580929494,-0.47635947580929494,1.0003482360174347,0.00030041064993862633
-0.47612134721057375,-0.47612134721057375,1.0002594186528944,0.00028580005847684984
-0.47588538128111396,-0.47588538128111396,1.0002366371656248,0.00031432239886878974
-0.47577863112819613,-0.47577863112819613,1.0000742129300737,0.00030413619196686736
-0.47567673767043744,-0.47567673767043744,0.9996980482287524,0.00030555019196946016
-0.47560134619780003,-0.47560134619780003,1.0001445489715353,0.0003302503036025043
-0.4755020577300456,-0.4755020577300456,0.9996640003508388,0.00031833086889410854
-0.4753733155288501,-0.4753733155288501,1.0000646764468186,0.0002928090247023823
-0.47530765111223444,-0.47530765111223444,1.000040662012072,0.000312046114862492
-0.4751525855230284,-0.4751525855230284,0.9997710823937009,0.0003081707955475588
-0.4748544768022839,-0.4748544768022839,1.0002563934744886,0.0003194302515580085
-0.47475483215166603,-0.47475483215166603,1.0002962121677539,0.0003084218133139036
-0.4746571459938423,-0.4746571459938423,1.0000599141951765,0.00030214551656257725
-0.4745015076776326,-0.4745015076776326,0.9993545721804935,0.000327093796802748
-0.4742872971626639,-0.4742872971626639,1.0002483208457444,0.0003010598549363257
-0.47403547387148137,-0.47403547387148137,0.9998055448853345,0.00030831127491966345
-0.47374974491031024,-0.47374974491031024,0.9998769080920475,0.00031247252364979816
-0.47363596563664034,-0.47363596563664034,0.9998017562940875,0.0003146209810703944
-0.4734686125695589,-0.4734686125695589,0.9996603506391644,0.00031079328965603035
-0.4732992296128941,-0.4732992296128941,1.0003089540101748,0.00031038021197047434
-0.47312438270819257,-0.47312438270819257,0.9998194985119266,0.00030841606419846625
-0.47296369891773793,-0.47296369891773793,1.000203819102456,0.0003121733161064529
-0.4728483213482832,-0.4728483213482832,0.9998029873828467,0.00031531030044840673
-0.4727476105807,-0.4727476105807,1.0005794200437148,0.0003324337176179145
-0.4725953634726466,-0.4725953634726466,1.0003787858545212,0.00032035074842920637
-0.47250901743682333,-0.47250901743682333,0.9997940737398456,0.0003041270613490351
-0.4723971090657869,-0.4723971090657869,0.9999748159801729,0.00031123352776959583
-0.4722924779736786,-0.4722924779736786,0.99976279932546,0.0003190632460893742
-0.47212560139159904,-0.47212560139159904,0.9998552636063678,0.00031194903952843527
-0.47197947267777635,-0.47197947267777635,1.0006141050890922,0.0003038325781655432
-0.47189795231752213,-0.47189795231752213,1.0000538982942984,0.00029202466565821496
-0.47180109849432483,-0.47180109849432483,0.9998658954698365,0.00033904515504350235
-0.4716714672933449,-0.4716714672933449,1.0001618356392226,0.000330016828752017
-0.47155099986557614,-0.47155099986557614,0.9999898650316382,0.00030934994026853507
-0.4714420239361061,-0.4714420239361061,0.999793273016305,0.00032743644267221406
-0.47130341699157724,-0.47130341699157724,1.0001591239023289,0.00032244256870664177
-0.47121958643911055,-0.47121958643911055,1.000349082364761,0.000318952992068671
-0.47109553106711244,-0.47109553106711244,0.9998560282873299,0.0003188913716366642
-0.4708775547471305,-0.4708775547471305,0.9998968729232975,0.0003119658212437101
-0.4707900717832672,-0.4707900717832672,0.9999486543054077,0.0003166382363042473
-0.47064444638745045,-0.47064444638745045,1.0002551854566317,0.00032693041135526096
-0.47052197099037585,-0.47052197099037585,1.0002394999101658,0.0003381951995103593
-0.47047113696025916,-0.47047113696025916,0.9999935992699012,0.0003124936936521605
-0.470368384453468,-0.470368384453468,0.9999721560113068,0.0003221304909711284
-0.4702263560182473,-0.4702263560182473,0.9996332301387081,0.0003125773233364264
-0.47010854522523005,-0.47010854522523005,0.9999429021573937,0.00030924267613426814
-0.46995218408774236,-0.46995218408774236,1.0000423253041064,0.00031141396204535616
-0.4698061797200353,-0.4698061797200353,1.0003767283296499,0.00032167909502503304
-0.4696838582378405,-0.4696838582378405,0.9997784765226936,0.00029953864955378046
-0.46954127065400825,-0.46954127065400825,0.9999366851671775,0.0003295722631054787
-0.4693896087141184,-0.4693896087141184,0.9997186885445831,0.0003411288373679102
-0.4692469153596903,-0.4692469153596903,0.9997732567185494,0.0003067669829256377
-0.46908718091872287,-0.46908718091872287,1.0003611127543777,0.0003076718945180698
-0.4689893251779722,-0.4689893251779722,0.9998882298905419,0.00030956134548963037
-0.46892619208665565,-0.46892619208665565,0.9998228457088644,0.00030759056559664596
-0.46878230561633244,-0.46878230561633244,0.9999105017227871,0.0003030395088975947
-0.46856643886494564,-0.46856643886494564,0.9999799101375733,0.00029892943989143515
-0.468427875454654,-0.468427875454654,1.0003697772891589,0.0003412018985969945
-0.4682923383137677,-0.4682923383137677,1.0001864641995033,0.0003144013085521917
-0.46819906638629616,-0.46819906638629616,0.9999331720549979,0.0003249021693829737
-0.46808635332927223,-0.46808635332927223,1.0000405406484238,0.000310450023321033
-0.4679526137304492,-0.4679526137304492,1.0003644012587287,0.00031019418063364174
-0.4677607217898185,-0.4677607217898185,1.0002219626271127,0.000293643114809279
-0.46743182703503405,-0.46743182703503405,1.000012604988514,0.00031337064324578735
-0.467274248242029,-0.467274248242029,1.0005000178716656,0.0003096513725323414
-0.46717169815383386,-0.46717169815383386,1.0000726483884599,0.0003019475795271159
-0.4670736652020423,-0.4670736652020423,0.9995188991836919,0.0003203528603002607
-0.4669840734532045,-0.4669840734532045,1.0003693113226686,0.0003137749808417834
