time,time,flux,flux_err
-0.4998875673645671,-0.4998875673645671,1.0000070551302687,6.976102496941924e-05
-0.49973781168228015,-0.49973781168228015,0.9999534709584957,6.959475613599605e-05
-0.499473114665913,-0.499473114665913,1.0000290871538944,7.026262285188136e-05
-0.4993817850467167,-0.4993817850467167,1.000010164036357,6.366438701278151e-05
-0.49930385884144923,-0.49930385884144923,0.999935487735466,6.322478483244566e-05
-0.49921782965247985,-0.49921782965247985,1.000020355584439,6.33710103059514e-05
-0.4990283143852139,-0.4990283143852139,1.0000595436668733,6.423754866637598e-05
-0.4987907151145919,-0.4987907151145919,0.9999227180179056,6.330464559762336e-05
-0.4986187656868424,-0.4986187656868424,0.9999956947211442,6.376995450868439e-05
-0.49848303580802167,-0.49848303580802167,0.999930027804289,6.247247433392143e-05
-0.4983697027731978,-0.4983697027731978,1.0001094218711344,6.318682550547488e-05
-0.49818909772948244,-0.49818909772948244,1.0000542138655704,6.341086439967627e-05
-0.4979900356825965,-0.4979900356825965,1.0001325160505168,6.324459476091443e-05
-0.4978275727662549,-0.4978275727662549,0.9999607045456564,6.355609359565733e-05
-0.49771940375430856,-0.49771940375430856,1.0001746509908633,6.247914919832897e-05
-0.4975676378402568,-0.4975676378402568,0.9999931819340381,6.429688475859322e-05
-0.49742807900693153,-0.49742807900693153,1.0000840755285145,6.359863191417184e-05
-0.4972059203711979,-0.4972059203711979,1.000010422755863,6.413587352284356e-05
-0.4971104509975703,-0.4971104509975703,1.0001445868888088,6.377114365281825e-05
-0.49702563379105413,-0.49702563379105413,0.999988098438487,6.395735864005606e-05
-0.49694714567958725,-0.49694714567958725,0.9998623576917135,6.324614863124284e-05
-0.4968241261522053,-0.4968241261522053,1.0000948062287018,6.384728420513242e-05
-0.4966136091003136,-0.4966136091003136,1.0000040112999666,6.306615751148879e-05
-0.4964641252794536,-0.4964641252794536,1.0000865119476767,6.332050132707151e-05
-0.49625947350796196,-0.49625947350796196,1.0000100428446892,6.355574250903846e-05
-0.49613757045881357,-0.49613757045881357,1.000003273071321,6.324687653781657e-05
-0.4959700190782314,-0.4959700190782314,1.0000850194286788,6.34940741267997e-05
-0.4958050440749503,-0.4958050440749503,1.0000640450451028,6.325155398257468e-05
-0.49558126410483966,-0.49558126410483966,0.9999676321916106,6.341467266093304e-05
-0.4954799761682807,-0.4954799761682807,1.0000179817391148,6.304645881148328e-05
-0.49537289910949767,-0.49537289910949767,0.9999962457138032,6.339547489754498e-05
-0.4952569990469783,-0.4952569990469783,0.999948695152592,6.415682041185499e-05
-0.4950605519021337,-0.4950605519021337,0.9999619163504772,6.343055510924321e-05
-0.4948531345486117,-0.4948531345486117,0.9999982821770402,6.411133815003445e-05
-0.4947620347025804,-0.4947620347025804,0.9999833554712211,6.385770369638402e-05
-0.49466347901834523,-0.49466347901834523,1.0000500829446322,6.34709298696592e-05
-0.49457691869029075,-0.49457691869029075,1.0000531294924713,6.337186498851216e-05
-0.4944180657301331,-0.4944180657301331,0.999942777433634,6.472671194491923e-05
-0.49418231625822956,-0.49418231625822956,1.0000223267555088,6.355664452528479e-05
-0.493953074766614,-0.493953074766614,1.000024246287835,6.310490785864117e-05
-0.4938127329631243,-0.4938127329631243,1.0000975410991157,6.34526847068206e-05
-0.49359233995419344,-0.49359233995419344,0.9999562456237806,6.323707388906334e-05
-0.4933231655086274,-0.4933231655086274,1.000171699996337,6.342348925109413e-05
-0.49318641881473013,-0.49318641881473013,0.9999556773466189,6.356921650161953e-05
-0.493077956126217,-0.493077956126217,0.9999853117984809,6.336027911659558e-05
-0.49296498113908455,-0.49296498113908455,0.9999679341106325,6.415016243286086e-05
-0.49280937290459403,-0.49280937290459403,1.0000497044727903,6.306310033251952e-05
-0.4925898307628813,-0.4925898307628813,0.999931387166755,6.388518213806867e-05
-0.4924931978333916,-0.4924931978333916,0.9999457647309635,6.367462949607248e-05
-0.49238278995399015,-0.49238278995399015,1.000009782489528,6.357910663889178e-05
-0.4922805191032239,-0.4922805191032239,0.9999857346011076,6.339547115210737e-05
-0.4920992663988727,-0.4920992663988727,0.9999747391514765,6.434176354238067e-05
-0.4918739466855186,-0.4918739466855186,1.0000882932156105,6.362278314643416e-05
-0.4916960438669776,-0.4916960438669776,1.000120589989409,6.316056426015002e-05
-0.4915259485882416,-0.4915259485882416,0.9999937268132146,6.418278570059449e-05
-0.49131367639711243,-0.49131367639711243,0.9999376843580144,6.353693681560297e-05
-0.491080360567139,-0.491080360567139,0.9999821267338316,6.343670755144248e-05
-0.4908842937249574,-0.4908842937249574,0.9999812130651049,6.374895484686991e-05
-0.49078303819551367,-0.49078303819551367,0.9999957699999797,6.33350441599725e-05
-0.49067297856963704,-0.49067297856963704,0.9999400657563928,6.415315653628023e-05
-0.49051197211883846,-0.49051197211883846,1.0000146677434423,6.331095803908848e-05
-0.4902858508583449,-0.4902858508583449,1.0001582778996372,6.429162086383366e-05
-0.49019609405659137,-0.49019609405659137,1.000013998724715,6.326060827437782e-05
-0.49010857860776014,-0.49010857860776014,0.9999983269988807,6.38521083987265e-05
-0.49003130123601296,-0.49003130123601296,1.0000726609738104,6.337702235304692e-05
-0.48988245975633615,-0.48988245975633615,0.9999317530567662,6.390672278726971e-05
-0.48969408931952785,-0.48969408931952785,0.9999054490577347,6.411044884218116e-05
-0.4894642295941594,-0.4894642295941594,1.000081470973513,6.417122731145797e-05
-0.4893217666176497,-0.4893217666176497,1.0000724628916209,6.295118808796071e-05
-0.4892046483917511,-0.4892046483917511,1.0000314954832905,6.38239289444109e-05
-0.48898129403896745,-0.48898129403896745,1.0000065402501255,6.374631574793746e-05
-0.48875638872559646,-0.48875638872559646,1.0000285265810693,6.348365459094348e-05
-0.4885925098475127,-0.4885925098475127,1.0000780973400811,6.318682164184129e-05
-0.4884871151247353,-0.4884871151247353,0.9999669553168777,6.336331289181186e-05
-0.4883605616822024,-0.4883605616822024,1.0000858103081274,6.395839970486839e-05
-0.48815939252308455,-0.48815939252308455,1.0000034285025523,6.342775389540415e-05
-0.48797557885336573,-0.48797557885336573,1.0000084388193309,6.417547877048886e-05
-0.4878480316438072,-0.4878480316438072,1.0000467958265085,6.411650065122052e-05
-0.4877707587671466,-0.4877707587671466,1.0000018845928362,6.311775185717088e-05
-0.48767871988748085,-0.48767871988748085,1.000069488526869,6.314495287095701e-05
-0.48752510455014997,-0.48752510455014997,1.0001080150756938,6.410605286186331e-05
-0.48735806200347725,-0.48735806200347725,1.0000515021017666,6.392266721504301e-05
-0.48712201944508704,-0.48712201944508704,1.0000285512754332,6.337411495225786e-05
-0.4869889334600884,-0.4869889334600884,0.9999380262358819,6.413160586942416e-05
-0.4868684086279245,-0.4868684086279245,0.9999206159074803,6.289657507239768e-05
-0.48670979543458087,-0.48670979543458087,0.9999752352291118,6.357541795034381e-05
-0.48654555393877674,-0.48654555393877674,0.9999225463782484,6.32880204775352e-05
-0.4862778885850275,-0.4862778885850275,1.0000182484727742,6.340031790056354e-05
-0.48612982350969103,-0.48612982350969103,0.999961932517101,6.373515233502292e-05
-0.4860073938667483,-0.4860073938667483,1.0000221126670656,6.319671510984947e-05
-0.48581820538965986,-0.48581820538965986,1.0001329429883214,6.388132980054384e-05
-0.4856647999738925,-0.4856647999738925,1.000067678480761,6.399614660691606e-05
-0.4855482539278455,-0.4855482539278455,0.9999944799614614,6.388138865808185e-05
-0.48548042527909274,-0.48548042527909274,1.0000637253292752,6.335948608399562e-05
-0.48541432221391007,-0.48541432221391007,1.0000839257377914,6.291844007910813e-05
-0.48530584341133365,-0.48530584341133365,1.000104054848835,6.344053195047158e-05
-0.4851415513578104,-0.4851415513578104,1.0000040944599933,6.402790485016615e-05
-0.4850172684571589,-0.4850172684571589,1.0000928063757015,6.373133660095272e-05
-0.4848170341414516,-0.4848170341414516,1.0001024368717473,6.382883935690578e-05
-0.4846686377823062,-0.4846686377823062,0.9999697044273743,6.363891812702892e-05
-0.4845552863611374,-0.4845552863611374,0.9999211454806455,6.294686337503457e-05
-0.48434947111600196,-0.48434947111600196,0.9999640809483971,6.355362708255155e-05
-0.4841237364060362,-0.4841237364060362,0.9998916050322292,6.348950068012205e-05
-0.4839127254897903,-0.4839127254897903,0.9998982680120031,6.339419017544846e-05
-0.4838220479206939,-0.4838220479206939,0.9998532931035781,6.370564409364119e-05
-0.48367215915131967,-0.48367215915131967,0.9999467129985005,6.372965371871669e-05
-0.4834399156476138,-0.4834399156476138,0.9999700993145504,6.428156695360828e-05
-0.48334213169364376,-0.48334213169364376,0.9999366977245362,6.403531544105443e-05
-0.48323495942313455,-0.48323495942313455,1.0000747206100464,6.38564891839515e-05
-0.4831805109919515,-0.4831805109919515,1.0001177490035034,6.339099011493969e-05
-0.483102457417408,-0.483102457417408,1.000007285422017,6.288707486990404e-05
-0.48300004778211586,-0.48300004778211586,1.00001645269112,6.374495283551868e-05
-0.48284691709195615,-0.48284691709195615,0.9999067834688973,6.413514457083802e-05
-0.4827148394695541,-0.4827148394695541,0.9998709488971473,6.313088664570935e-05
-0.48252735260539337,-0.48252735260539337,0.9999805561429614,6.367439566195196e-05
-0.48236569778819105,-0.48236569778819105,1.000042360910404,6.32026512934317e-05
-0.48218293632671705,-0.48218293632671705,1.00007807761795,6.2638175632563e-05
-0.48198260983554064,-0.48198260983554064,0.9999711556442232,6.330470083363113e-05
-0.4817623561044456,-0.4817623561044456,0.9999598806375,6.429578976250422e-05
-0.48153602487072933,-0.48153602487072933,0.9998724751825184,6.346311675163286e-05
-0.4814121372401132,-0.4814121372401132,1.0000331110837426,6.386622717638162e-05
-0.48128240211226514,-0.48128240211226514,0.99996656496126,6.354153502933393e-05
-0.48112970234360547,-0.48112970234360547,1.000102094353111,6.368210389891777e-05
-0.4810344728524797,-0.4810344728524797,1.0000207349702148,6.409315500932749e-05
-0.48093844309987616,-0.48093844309987616,0.9999195375086654,6.363205812528844e-05
-0.48086558955692454,-0.48086558955692454,0.9999998457485333,6.354104819888845e-05
-0.48077164792048277,-0.48077164792048277,1.000004490183187,6.363941862805764e-05
-0.4806237823497213,-0.4806237823497213,1.000013007192579,6.461228388504812e-05
-0.4804336340028385,-0.4804336340028385,1.000068027630698,6.330312684653039e-05
-0.4802304292890767,-0.4802304292890767,1.0000011051493671,6.368125580102742e-05
-0.48006599645668757,-0.48006599645668757,0.9998922564645817,6.320009279679888e-05
-0.4797720582195325,-0.4797720582195325,0.9998817088414222,6.262760027038087e-05
-0.479550632541941,-0.479550632541941,1.0000427079468792,6.389134398733986e-05
-0.47929142417851833,-0.47929142417851833,0.9999052435519156,6.388535004244913e-05
-0.479071756243502,-0.479071756243502,1.0000111831266525,6.3749098879403e-05
-0.4788298760315229,-0.4788298760315229,1.0000314421475298,6.387331607079721e-05
-0.47873220091642,-0.47873220091642,1.0000791562078526,6.409830827136389e-05
-0.4786346912071167,-0.4786346912071167,1.000003491810648,6.386249424509996e-05
-0.47852376496011856,-0.47852376496011856,1.0000547839489582,6.333593186479937e-05
-0.4783840884636447,-0.4783840884636447,1.0000008090781112,6.416607073010287e-05
-0.4782338692763005,-0.4782338692763005,1.0001310480104715,6.316545089594093e-05
-0.47801751878578214,-0.47801751878578214,0.9999982372534693,6.350554406640197e-05
-0.4778564083142555,-0.4778564083142555,0.9999235002889412,6.362764410324618e-05
-0.4777015327512345,-0.4777015327512345,0.9999502775749075,6.292221377435731e-05
-0.4774139366643794,-0.4774139366643794,0.9999705176236668,6.306167035413575e-05
-0.4771274550927046,-0.4771274550927046,0.9999020816938595,6.392473577267606e-05
-0.4769638684170786,-0.4769638684170786,0.9999240465505252,6.344808727724205e-05
-0.47671401509287537,-0.47671401509287537,1.0001970663614297,6.352423480518945e-05
-0.47651023523139885,-0.47651023523139885,0.9999776892473975,6.407809169427293e-05
-0.47641610295395365,-0.47641610295395365,1.0000492096160545,6.366271517523376e-05
-0.47633696640332346,-0.47633696640332346,1.0000519715065637,6.38627089701526e-05
-0.47622327090211913,-0.47622327090211913,0.9999829916379136,6.332962555376866e-05
-0.47607976592335033,-0.47607976592335033,1.0000677162183902,6.43041412585945e-05
-0.475878104900039,-0.475878104900039,1.0000577197483644,6.311085825881035e-05
-0.4757236682518851,-0.4757236682518851,1.0001179393393955,6.350218809158888e-05
-0.47554183719767024,-0.47554183719767024,1.0000034759150405,6.391643812444025e-05
-0.47532621939026287,-0.47532621939026287,1.0001152813720358,6.284424519032054e-05
-0.47511446653443273,-0.47511446653443273,1.0000243026240692,6.275221408195728e-05
-0.47483039520302556,-0.47483039520302556,1.0000377273654837,6.39334335641369e-05
-0.4746369253844023,-0.4746369253844023,0.9999035663966133,6.366560360496651e-05
-0.4743785246886546,-0.4743785246886546,0.999892267204104,6.353190942671434e-05
-0.474213477835292,-0.474213477835292,1.000067078044514,6.407627502778522e-05
-0.47411320879982666,-0.47411320879982666,0.9999564477550456,6.389703610892554e-05
-0.47401613671827364,-0.47401613671827364,0.9999553209499726,6.407977130982911e-05
-0.47390194644758593,-0.47390194644758593,1.0000474185197037,6.310674641261179e-05
-0.47377771143146674,-0.47377771143146674,0.9998459886446274,6.412320411125282e-05
-0.47358298701001333,-0.47358298701001333,1.0000313789354416,6.390649793037577e-05
-0.47340876609887345,-0.47340876609887345,1.0000571582753799,6.325513538060579e-05
-0.47324258937005653,-0.47324258937005653,1.0000289457748994,6.39212300124569e-05
-0.47302815668299447,-0.47302815668299447,0.9999342952056856,6.285099103903069e-05
-0.47276985014177625,-0.47276985014177625,0.9999562325659659,6.354101196647705e-05
-0.47255216249104703,-0.47255216249104703,0.9999668194954777,6.265609872979137e-05
-0.4724293186067371,-0.4724293186067371,1.000118095714072,6.399414381586853e-05
-0.47226264263954365,-0.47226264263954365,1.0001065771867756,6.373574525082791e-05
-0.4720488088321872,-0.4720488088321872,0.9999259823297637,6.294542557143987e-05
-0.4719352050597081,-0.4719352050597081,1.000054492661652,6.36237536305346e-05
-0.4718255200663407,-0.4718255200663407,1.0000088939756202,6.409869754323173e-05
-0.4717446865535749,-0.4717446865535749,1.0000288891329452,6.383715949336823e-05
-0.4716223795454425,-0.4716223795454425,1.0000209101405577,6.333358914882322e-05
-0.4715439455954765,-0.4715439455954765,1.0000970623060694,6.34876207289497e-05
-0.47142059508842066,-0.47142059508842066,0.9998425969461463,6.369529303652978e-05
-0.47128283537458626,-0.47128283537458626,1.0000569564423125,6.373831883217724e-05
-0.4711054055551358,-0.4711054055551358,1.0000164254271757,6.321402095869407e-05
-0.47094334167777563,-0.47094334167777563,1.000147534048328,6.392451025587052e-05
-0.47073011435350054,-0.47073011435350054,0.9999765414304607,6.285895069162135e-05
-0.47047200689630697,-0.47047200689630697,0.9998771212541404,6.353344758781524e-05
-0.47024904734062145,-0.47024904734062145,0.9999012602774382,6.304288018795087e-05
-0.47013644032122104,-0.47013644032122104,1.0000671853397394,6.398526247859144e-05
-0.46995615537816776,-0.46995615537816776,1.0000620967058764,6.364631581306989e-05
-0.46974055581813445,-0.46974055581813445,1.000049877951073,6.328719120742405e-05
-0.46959352892445166,-0.46959352892445166,1.0001048823012675,6.379770602280542e-05
-0.46949918737154805,-0.46949918737154805,0.9999536379902116,6.40418580919482e-05
-0.46942295267072043,-0.46942295267072043,0.999974333156614,6.340855178787705e-05
-0.4693294323813461,-0.4693294323813461,1.0001110104164053,6.378139061943894e-05
-0.4692696062877076,-0.4692696062877076,1.0001137894442251,6.334228975789421e-05
-0.46915245213385787,-0.46915245213385787,1.0000073695897302,6.324472936336203e-05
-0.46901574057919787,-0.46901574057919787,0.9999760966034927,6.377658564250124e-05
-0.4688695904085762,-0.4688695904085762,1.0000552341656195,6.378540997883628e-05
-0.4686621977998584,-0.4686621977998584,1.000097303535604,6.303968878496207e-05
-0.46853683806257324,-0.46853683806257324,0.9999659525166958,6.312465809531852e-05
-0.4682820544745482,-0.4682820544745482,1.0001547131485082,6.326003415694514e-05
-0.46802503843427984,-0.46802503843427984,0.9999715094356857,6.386302610037872e-05
-0.4678587355381751,-0.4678587355381751,1.0000672679154148,6.372002340009976e-05
-0.4677814693954133,-0.4677814693954133,0.9999205979619326,6.380587208306459e-05
-0.4675729141461488,-0.4675729141461488,1.0000138787698933,6.315022463304679e-05
-0.4674009710885002,-0.4674009710885002,1.000032141043671,6.35076137693177e-05
-0.4672469794881181,-0.4672469794881181,1.0000764255798684,6.3637015146129e-05
-0.46719606894475874,-0.46719606894475874,0.9999765071289366,6.362281496427718e-05
-0.4670942245844344,-0.4670942245844344,1.0000338954349637,6.429549301794737e-05
-0.46698374608895393,-0.46698374608895393,0.9999916438952365,6.28504529616448e-05
-0.46688868825294777,-0.46688868825294777,1.0000199403320043,6.365932212770658e-05
-0.46669918555344336,-0.46669918555344336,1.0000275678171189,6.34719756100213e-05
-0.4665517853536585,-0.4665517853536585,1.0000330961456307,6.361919974529638e-05
-0.4663433054971392,-0.4663433054971392,0.9999942636606273,6.346611210972707e-05
-0.46619589751644525,-0.46619589751644525,1.0000149204506683,6.307371850994921e-05
-0.4660153025884938,-0.4660153025884938,1.0000006768746077,6.381385393272327e-05
-0.4658030049977242,-0.4658030049977242,0.9999464055836672,6.35327138274383e-05
-0.4656069158882019,-0.4656069158882019,1.0000081679536967,6.38489524675966e-05
-0.46553052153685714,-0.46553052153685714,0.9999858806931619,6.376306581779561e-05
-0.46540802332092424,-0.46540802332092424,1.0000997675779486,6.383050577291779e-05
-0.4651835543387278,-0.4651835543387278,1.0000006937314327,6.354250120913593e-05
-0.4650043460933375,-0.4650043460933375,0.9999759476245023,6.33388318445802e-05
-0.4649163828078599,-0.4649163828078599,1.0000755447035101,6.36259904488215e-05
-0.464872767815541,-0.464872767815541,1.0000959948870272,6.38388110780739e-05
-0.4647473390592495,-0.4647473390592495,1.0000284723462987,6.361779031959178e-05
-0.4646905654582952,-0.4646905654582952,1.0000134367975826,6.273626537938999e-05
-0.46461585060678773,-0.46461585060678773,0.9998951201328934,6.366475438904324e-05
-0.46443713374173967,-0.46443713374173967,1.000092903210094,6.363191326337695e-05
-0.4642629799847782,-0.4642629799847782,0.9999922191840248,6.37917049661213e-05
-0.46404493362642824,-0.46404493362642824,1.0000163765192114,6.303159898965547e-05
-0.4639588520149118,-0.4639588520149118,1.0000138812936674,6.350381097739395e-05
-0.4637478741598898,-0.4637478741598898,1.0000304437703913,6.380786468600951e-05
-0.4634306849759014,-0.4634306849759014,0.999971265976917,6.383685815299561e-05
-0.46325497135112526,-0.46325497135112526,0.9999615352398822,6.400905455289234e-05
-0.4631270997953834,-0.4631270997953834,0.9999552148745504,6.35356392938742e-05
-0.4629115013944102,-0.4629115013944102,0.999920855227845,6.345131390872532e-05
-0.4627277424748172,-0.4627277424748172,1.0000190116774257,6.396405542955846e-05
-0.46259902682577375,-0.46259902682577375,1.0000848398669915,6.362716452608186e-05
-0.46249532029105467,-0.46249532029105467,1.0001100181220963,6.380813202788908e-05
-0.4624055366679386,-0.4624055366679386,0.9998814551014448,6.284071939579062e-05
-0.4623352604008687,-0.4623352604008687,1.0000286138725165,6.401216903868478e-05
-0.46210809981785134,-0.46210809981785134,1.0000767581961871,6.347038615769774e-05
-0.4619503567861102,-0.4619503567861102,0.9998919899905683,6.35173915129293e-05
-0.4617212393372029,-0.4617212393372029,1.000055738801296,6.38918104005222e-05
-0.46157719195834945,-0.46157719195834945,1.0000221137964052,6.299365620744904e-05
