time,time,flux,flux_err
-0.4996953865273099,-0.4996953865273099,1.0001608877814159,0.0003595907391815573
-0.4990638541348744,-0.4990638541348744,1.0000648471020894,0.0003467146365554046
-0.4984827528394817,-0.4984827528394817,0.99959270311412,0.0003696735004139513
-0.4981019609171199,-0.4981019609171199,0.999780712734615,0.000335124889235211
-0.4975516565529688,-0.4975516565529688,1.000002121214903,0.00035912453987800065
-0.49705640404572476,-0.49705640404572476,0.9998216885465663,0.0003581712169027481
-0.49657095752918395,-0.49657095752918395,1.000209378986777,0.0003595680197929955
-0.49571244104299694,-0.49571244104299694,1.0003183840627912,0.0003584107890296291
-0.4949652075687482,-0.4949652075687482,1.0003803504527318,0.0003385432041075389
-0.4943239691798226,-0.4943239691798226,1.0001055708942013,0.0003406968155842627
-0.4935774867044529,-0.4935774867044529,1.0000875057545915,0.0003798236784082501
-0.49293053400106146,-0.49293053400106146,1.0003444942122877,0.00033839403791533255
-0.4921022729227843,-0.4921022729227843,1.0000666679413952,0.00030778651468714164
-0.49129741679062133,-0.49129741679062133,0.999766431946288,0.0003607744132940397
-0.49098205174304893,-0.49098205174304893,0.9996915797605537,0.0003823064474370912
-0.4904129114562238,-0.4904129114562238,0.9999221281211659,0.00035824737476085236
-0.4900281862501288,-0.4900281862501288,1.0000838183104461,0.0003600238384270656
-0.4894214185194869,-0.4894214185194869,1.0002318386413707,0.00038884968829906616
-0.4888417394409771,-0.4888417394409771,1.0005950863048194,0.0003345705941467594
-0.48819914003106535,-0.48819914003106535,1.0002032250986808,0.0003585297337026992
-0.4874215431162156,-0.4874215431162156,0.9998811078865547,0.00031023015510474224
-0.4868640001761378,-0.4868640001761378,1.0001789288601493,0.0003396713247526877
-0.486195386495092,-0.486195386495092,0.9996660824145144,0.0003599246872290206
-0.48549282257008597,-0.48549282257008597,1.000073773317098,0.00035915788570380834
-0.4849475157498091,-0.4849475157498091,1.000018326948036,0.0003341462728261844
-0.48425620263878955,-0.48425620263878955,0.9999266439287983,0.000357502556392411
-0.48342289282081763,-0.48342289282081763,0.9995003830109711,0.00033517670645475176
-0.4824837400810793,-0.4824837400810793,1.000220195384778,0.0003584862401079493
-0.48180715646522004,-0.48180715646522004,0.999664914635118,0.0003664893776476461
-0.4811447905543901,-0.4811447905543901,0.9998444589373949,0.00035753378772985324
-0.480578368010174,-0.480578368010174,0.9999030792489847,0.0003604937829504363
-0.48005839079924045,-0.48005839079924045,1.000236585553665,0.0003388393762076597
-0.47941705366538373,-0.47941705366538373,0.9996543789549639,0.0003147115260461935
-0.4788432655346696,-0.4788432655346696,1.0001725390616643,0.00033676438018874304
-0.4784184600248409,-0.4784184600248409,0.9997483887174905,0.0003607132900486142
-0.47809141864418053,-0.47809141864418053,0.9996124394510424,0.000358908049254461
-0.47762915817365864,-0.47762915817365864,1.0002271356163832,0.00033420742567253183
-0.47678277159502613,-0.47678277159502613,1.0000316323828156,0.0003808998273800983
-0.4760246090794681,-0.4760246090794681,0.9998284864756124,0.0003594691331328995
-0.4751834356749896,-0.4751834356749896,1.0001256497505504,0.00035787271102546975
-0.4742070331332798,-0.4742070331332798,1.0002945183922956,0.00036002593596186333
-0.4736061930889264,-0.4736061930889264,1.0001463089333429,0.0003392590916548093
-0.4731576819773181,-0.4731576819773181,1.0000146864220603,0.00035879306735990877
-0.4726299231202574,-0.4726299231202574,1.0003896971631754,0.00033543913455452853
-0.4721051296241058,-0.4721051296241058,0.9999774679309507,0.0003347524055895186
-0.47162019323805,-0.47162019323805,0.999910746817795,0.0003344670630178315
-0.4711649307057087,-0.4711649307057087,1.0002111287001687,0.00035745495915736334
-0.47034185451775556,-0.47034185451775556,1.0002357771210744,0.00035910257060689944
-0.4696958513450227,-0.4696958513450227,0.9998951572865952,0.0003351126605079267
-0.4690190575704037,-0.4690190575704037,0.9998696809144063,0.0003661243160448008
-0.46838410042619216,-0.46838410042619216,0.9992771789354435,0.0003565130013291334
-0.4676640578218212,-0.4676640578218212,0.9998340472444044,0.0003373198184959369
-0.46677485162217636,-0.46677485162217636,1.0000563830938396,0.0003352162840715608
-0.4662534262664849,-0.4662534262664849,1.0001491932611728,0.00035987194984789733
-0.4656534236011794,-0.4656534236011794,0.999910097263091,0.00036478898188572404
-0.46517105434832046,-0.46517105434832046,0.9999627638974845,0.00038117502456910444
-0.46473619253520154,-0.46473619253520154,1.0002855325210256,0.00031012257914106537
-0.4641326222954376,-0.4641326222954376,1.0002483491951315,0.0003341768610998468
-0.4637145111431892,-0.4637145111431892,1.0003679784820565,0.0003592248040578568
-0.46302617992914746,-0.46302617992914746,0.9999365259291018,0.00036270769039784277
-0.46228310666483596,-0.46228310666483596,1.0003714683106675,0.0003609405837900857
-0.46162138161307664,-0.46162138161307664,0.9998174735817287,0.00033580654918912226
-0.4608783557996503,-0.4608783557996503,1.0006092585322257,0.0003399602232376692
-0.46002952336202724,-0.46002952336202724,0.9999727896945068,0.00035917082141354863
-0.45960548576767907,-0.45960548576767907,1.0001005477519207,0.0003087244493779783
-0.45904421870945955,-0.45904421870945955,0.9995422197659549,0.0003348745861184114
-0.4585712980850076,-0.4585712980850076,0.999948369975378,0.0003324222076377934
-0.45815391840369557,-0.45815391840369557,0.999774501006214,0.0003351703947103851
-0.4572710588661721,-0.4572710588661721,0.999830129207381,0.00035950906296776175
-0.4564830330593395,-0.4564830330593395,1.0000500427786423,0.00034356431817652384
-0.45555041960178644,-0.45555041960178644,0.999891035399016,0.0003586571952607468
-0.45502407664680505,-0.45502407664680505,0.9999171149026355,0.0003363578709227877
-0.4540751314118097,-0.4540751314118097,1.0003601667028805,0.0003087898504198718
-0.4534921675134683,-0.4534921675134683,0.9997868581527358,0.0003379500522847678
-0.4528704454198305,-0.4528704454198305,1.0001908809439812,0.0003614783280884514
-0.4523162065197539,-0.4523162065197539,0.9999929019584647,0.0003582246934888863
-0.4518430001808156,-0.4518430001808156,1.000066725765673,0.0003358690466873874
-0.45118667282076785,-0.45118667282076785,1.0002397201175135,0.0003433304674170585
-0.45040341429485126,-0.45040341429485126,0.9998963846940612,0.00036179335444125576
-0.44949550802630256,-0.44949550802630256,1.0001768287680215,0.0003368036272252286
-0.4489617635816103,-0.4489617635816103,1.0002944475169495,0.00033604219172567813
-0.44815529527986653,-0.44815529527986653,0.9998483523829222,0.00033786765642419836
-0.44729791367062716,-0.44729791367062716,0.999940228073114,0.0003595682787414913
-0.4467856725990714,-0.4467856725990714,1.0002436856425072,0.0003093693272316251
-0.44623729605955303,-0.44623729605955303,1.0000736325241606,0.00035879131267710585
-0.44581237714737654,-0.44581237714737654,0.9997888187237812,0.0003325886290235165
-0.44517913030649653,-0.44517913030649653,0.9998833464708188,0.00038024088959326895
-0.4443756160479097,-0.4443756160479097,1.0001438776541118,0.00033579649080232047
-0.44355572603453763,-0.44355572603453763,0.9998209074751874,0.0003715794514370271
-0.4429391421486798,-0.4429391421486798,1.000033976343746,0.0003579335042002258
-0.44219449792217347,-0.44219449792217347,0.9997874147107039,0.0003376128311414645
-0.44117776764105654,-0.44117776764105654,0.9998994577007979,0.0003098997277635396
-0.4403602183738258,-0.4403602183738258,1.0001549240091028,0.00036188356728387647
-0.43971207942158796,-0.43971207942158796,1.0001136655041936,0.00035910605118224555
-0.43937086049554636,-0.43937086049554636,0.9998590890988452,0.0003354457906380693
-0.43851587427125194,-0.43851587427125194,0.9997844920602927,0.0003805740551708028
-0.4378637577996415,-0.4378637577996415,0.9998306241249442,0.000338476472800501
-0.4369783797279524,-0.4369783797279524,1.0000572097449256,0.0003617643526356117
-0.4362576662148058,-0.4362576662148058,1.0002578151106523,0.00035993659929808825
-0.43557298286250445,-0.43557298286250445,1.0002316662750181,0.0003392727887478171
-0.4348104154618341,-0.4348104154618341,1.0000709191970842,0.00036043934000155474
-0.43426000608014875,-0.43426000608014875,1.000057525657916,0.00033897010909042535
-0.43373745344870257,-0.43373745344870257,1.000232331994614,0.000358600614144902
-0.4333053395639581,-0.4333053395639581,1.000418409512744,0.0003337528412939533
-0.43280769036573474,-0.43280769036573474,0.9997273571902875,0.0003091778825206679
-0.432120658052736,-0.432120658052736,1.0004467167072926,0.0003811556143288593
-0.4313647058574134,-0.4313647058574134,0.9998390515726809,0.0003587452199324632
-0.4306507956905989,-0.4306507956905989,1.0003149010344103,0.00036640239679507037
-0.4300555928159156,-0.4300555928159156,1.000516037513871,0.00035820368779282484
-0.42927309912338385,-0.42927309912338385,1.0000497850499894,0.00036745093101202606
-0.42855863671866246,-0.42855863671866246,1.000400842760013,0.000335340997270832
-0.427864976478304,-0.427864976478304,1.0000693020829208,0.0003395704924280645
-0.42726286312608863,-0.42726286312608863,1.0004547782387943,0.0003664194495172541
-0.4267081040488847,-0.4267081040488847,1.0001475162514923,0.0003349757910353356
-0.4260433422161441,-0.4260433422161441,0.9998463286960007,0.0003624565959890023
-0.4255156871775398,-0.4255156871775398,1.000234833997285,0.0003339132067877666
-0.42479085076847695,-0.42479085076847695,1.0001123035870987,0.0003396385018482101
-0.42378522496728693,-0.42378522496728693,1.0002107960097462,0.0003611596390107505
-0.4230385460941761,-0.4230385460941761,0.999625428778986,0.00034666448050460773
-0.42222990849477354,-0.42222990849477354,0.9995058567305563,0.0003345908171691479
-0.42164940485090485,-0.42164940485090485,1.0001823817036393,0.0003359967477623849
-0.4209276600071462,-0.4209276600071462,1.0003884333713313,0.0003359765503046652
-0.42050930428449645,-0.42050930428449645,1.0000140429412374,0.0003609060149324272
-0.4198510107897164,-0.4198510107897164,0.9998078576508498,0.0003572407538408772
-0.4192709315844695,-0.4192709315844695,0.9999925737034605,0.0003609113009861508
-0.41880214244229136,-0.41880214244229136,1.0000957018835441,0.00035942382323800217
-0.41798169469693675,-0.41798169469693675,0.9999320634523402,0.00036583444784203385
-0.41725477918516846,-0.41725477918516846,1.0002631683454524,0.00035805484564022593
-0.41654154326970455,-0.41654154326970455,1.0002090082202262,0.00034088571801810415
-0.4157303164618497,-0.4157303164618497,1.000463200902796,0.000359859762159729
-0.4151361579366494,-0.4151361579366494,0.9999573019285461,0.00033966780167877386
-0.41432031500226,-0.41432031500226,1.0004667768817566,0.00038087820266118576
-0.4138829273448209,-0.4138829273448209,1.0001282997788523,0.00035950748962556005
-0.4131269117940974,-0.4131269117940974,1.0002646161915068,0.0003624419073423683
-0.4125471995954285,-0.4125471995954285,1.0002096244950758,0.000357317738059202
-0.4116471626752173,-0.4116471626752173,1.0003798663132737,0.00033631131842714105
-0.4109495879652968,-0.4109495879652968,1.0003847076894123,0.0003345005756286188
-0.41036838394138614,-0.41036838394138614,0.99995783134069,0.00036727115340202845
-0.4096397075227287,-0.4096397075227287,1.0000602582042588,0.0003387159150192609
-0.40907448423822645,-0.40907448423822645,1.000085399801276,0.0003360798715840186
-0.40841604544548316,-0.40841604544548316,0.9999435301379718,0.00033462461164553766
-0.40784149578976214,-0.40784149578976214,0.9998807720691497,0.00033375721480508107
-0.4070731550556957,-0.4070731550556957,1.000146217060426,0.0003583269971349232
-0.406401053557056,-0.406401053557056,1.0000548129648617,0.0003809981648735178
-0.40589239751716377,-0.40589239751716377,1.0002429885276605,0.0003351148646022236
-0.40516469329377286,-0.40516469329377286,1.0002669621445042,0.0003754650718929809
-0.40462264503585177,-0.40462264503585177,1.0001945352801647,0.00030712703801194464
-0.40419472243229393,-0.40419472243229393,0.9998926667973478,0.0003829633702918158
-0.40333307117180084,-0.40333307117180084,1.0002047109043553,0.0003184936795415962
-0.40256961222476095,-0.40256961222476095,1.0001687832042214,0.0003630917493557296
-0.40191800656102716,-0.40191800656102716,1.0000402751629187,0.00034550942597225994
-0.401300935420295,-0.401300935420295,1.0000225349406633,0.0003798209670796863
-0.4010303637827747,-0.4010303637827747,0.9994183893100843,0.00033705181307398194
-0.40055379743644154,-0.40055379743644154,1.000181421600764,0.00033701670489549266
-0.4001519324046967,-0.4001519324046967,1.0000734695708282,0.00033903657484344295
-0.3996733905725705,-0.3996733905725705,1.000289072854665,0.00035665508950397855
-0.39897476312689834,-0.39897476312689834,1.000278030933864,0.0003594752216826621
-0.39819303281547036,-0.39819303281547036,1.0002160797043098,0.00034465868204549145
-0.3976098816776357,-0.3976098816776357,1.0005143134705223,0.00034287964901900725
-0.3969679502879444,-0.3969679502879444,0.999632483937685,0.00038082609223955526
-0.3963438234575733,-0.3963438234575733,1.0002084052051958,0.00033592484197690067
-0.39566536335187263,-0.39566536335187263,0.9999552945721113,0.0003605060090247211
-0.39518572119704914,-0.39518572119704914,1.0001816327664632,0.00030862210845505466
-0.39459461815131364,-0.39459461815131364,1.0007657910656247,0.00034489907362436633
-0.3941402585580363,-0.3941402585580363,0.9997227580298504,0.00038005113495031753
-0.3935419521862059,-0.3935419521862059,1.0001624322426668,0.0003582970544797598
-0.3929837295996549,-0.3929837295996549,1.0003213823441555,0.0003457989807192802
-0.39216729597756056,-0.39216729597756056,1.0000089481675523,0.00033345943667641864
-0.3915745786449406,-0.3915745786449406,1.0003704487441651,0.0003610562779648752
-0.3909780692425556,-0.3909780692425556,0.9996627738628213,0.00034214005627476913
-0.390123151725129,-0.390123151725129,0.9992599869829263,0.0003358935161413175
-0.3894225451804232,-0.3894225451804232,1.0003521986960018,0.00036262941449529453
-0.38878608789746066,-0.38878608789746066,1.0001311829523143,0.00036996996190340675
-0.38840536627249095,-0.38840536627249095,1.0005256052270515,0.000334705274915948
-0.38785513412512956,-0.38785513412512956,1.0004229329450205,0.0003590954421204246
-0.3873597907360818,-0.3873597907360818,1.0001576729331352,0.0003581821776193863
-0.3868744753570354,-0.3868744753570354,0.9998807238196006,0.00035930911071448634
-0.38601591049009587,-0.38601591049009587,1.0001981202281514,0.00035784970662593976
-0.38526843027211727,-0.38526843027211727,1.000387335339785,0.0003383916556951779
-0.3846272583017708,-0.3846272583017708,1.0001022802700734,0.00034069410732958473
-0.3839829751268553,-0.3839829751268553,0.9999531147233011,0.00035842727976128725
-0.3834294029555167,-0.3834294029555167,1.0001566658976464,0.00033637928288666465
-0.38260918916857917,-0.38260918916857917,0.9993029508674736,0.000359212305433309
-0.3819226957697538,-0.3819226957697538,1.0001952513974322,0.00031107679969798684
-0.38136672890468615,-0.38136672890468615,0.999966014048044,0.00040239250206449773
-0.38081132233855897,-0.38081132233855897,1.000382666242215,0.0003583043999412699
-0.3803459144284716,-0.3803459144284716,0.9997701865403854,0.0003358864971979975
-0.3796542905693059,-0.3796542905693059,0.9999190476746435,0.00036455166628597053
-0.3789453473742469,-0.3789453473742469,1.0000703097776733,0.00033377242769564694
-0.37832650830969217,-0.37832650830969217,0.9996392716230288,0.000338090109211803
-0.3776291462403606,-0.3776291462403606,0.999837911402679,0.0003354813553507328
-0.3769498312241922,-0.3769498312241922,1.0002163258209529,0.000340168153744865
-0.3763284557389852,-0.3763284557389852,0.9994472182898442,0.0003589625667415221
-0.37575230621805533,-0.37575230621805533,1.0001026067806777,0.0003593650405654179
-0.3751220847450895,-0.3751220847450895,0.9999554297645854,0.0003339675408837304
-0.37455971228773705,-0.37455971228773705,1.0000410447252521,0.0003573331624410125
-0.37372618374429295,-0.37372618374429295,1.0000012502292315,0.00033528360885578526
-0.3728497678639542,-0.3728497678639542,1.0000581104469952,0.00033362200407132016
-0.37224848631667556,-0.37224848631667556,0.9997340216993207,0.0003818322458560477
-0.37162453704004295,-0.37162453704004295,1.0004587069814452,0.0003647723231482528
-0.3709376630416955,-0.3709376630416955,1.0000059983386986,0.000336811883800434
-0.3704161743320583,-0.3704161743320583,1.000152188418365,0.0003612499235495631
-0.36975075805021335,-0.36975075805021335,0.999736533036014,0.0003343741408991392
-0.3692325487369089,-0.3692325487369089,0.9994678728495554,0.00033493818327003094
-0.36872422672458927,-0.36872422672458927,1.0003074103904641,0.00036271835775078445
-0.36840594077148126,-0.36840594077148126,0.9999844320813752,0.0003584872688669178
-0.3679325271950802,-0.3679325271950802,1.0000025373113481,0.00033435708808693897
-0.3670863729916164,-0.3670863729916164,0.9996617435909808,0.00038052234403614305
-0.3663553618294827,-0.3663553618294827,1.000136289491376,0.00035968805658287493
-0.36567385835733146,-0.36567385835733146,0.9998947985367224,0.0003587217279269996
-0.3646960717574984,-0.3646960717574984,1.0001305719881124,0.0003589275647850711
-0.36390939193443045,-0.36390939193443045,0.9999001678276205,0.00033894622053504787
-0.3634610916247766,-0.3634610916247766,0.9997478667196138,0.0003590167128157226
-0.36298071689234346,-0.36298071689234346,1.0000527774496764,0.00036075246929616415
-0.3625004225541488,-0.3625004225541488,0.9997460703595579,0.00030925449680957033
-0.36200330082210713,-0.36200330082210713,0.9998255297977281,0.0003585546992949896
-0.3615698518922727,-0.3615698518922727,1.0001488798564055,0.00033290414895036915
-0.360869603275205,-0.360869603275205,0.9998918112292945,0.00035942773956415894
-0.3600649857398821,-0.3600649857398821,0.9999868643240488,0.0003347764755501525
-0.3595792753978458,-0.3595792753978458,0.9999565837734551,0.00038072877806289053
-0.35889536088798196,-0.35889536088798196,1.0002459715704768,0.0003654042551181621
-0.3581519805447897,-0.3581519805447897,0.9998896671772559,0.00033665164400316355
-0.3574098847711866,-0.3574098847711866,0.9999525002941938,0.0003383354243071949
-0.35687191173565225,-0.35687191173565225,1.000141390419603,0.00033348451710100724
-0.3561284309216717,-0.3561284309216717,1.0001026982111412,0.00036292539400992234
-0.3556691340338148,-0.3556691340338148,0.9998396274367692,0.0003595539066938071
-0.3552022175899765,-0.3552022175899765,0.9998925260527176,0.0003343750679601513
-0.3545603288577695,-0.3545603288577695,0.9999308795466675,0.000357784924181677
-0.3540177802264225,-0.3540177802264225,0.9996893895975758,0.0003590951349430871
-0.3533295682471362,-0.3533295682471362,1.0001192267677772,0.00036284041811205704
-0.35258636953367384,-0.35258636953367384,0.9999236858177405,0.0003606045625756584
-0.3520003195182653,-0.3520003195182653,1.000237210820024,0.0003171869512489867
-0.3512456458272936,-0.3512456458272936,0.999738052445491,0.0003621227852685461
-0.3506042036926374,-0.3506042036926374,1.0002040512634511,0.0003574471915520754
-0.350124316252186,-0.350124316252186,1.0001527763970384,0.00031140973195947026
-0.3496780858258717,-0.3496780858258717,1.0000461027915775,0.0003350288785476581
-0.3491621902561747,-0.3491621902561747,0.9999899440638551,0.00033359590473675904
-0.3487016289640451,-0.3487016289640451,0.9999542887154778,0.0003343809880307101
-0.34791512593074003,-0.34791512593074003,1.0002963021348077,0.0003590773175520081
-0.3471333045512438,-0.3471333045512438,0.9997735206135683,0.0003584661072627323
-0.3460537635590299,-0.3460537635590299,1.0002328811062455,0.00034302741419920313
-0.3453943476226414,-0.3453943476226414,1.0000478057920899,0.00036047499273227497
-0.3445613587689877,-0.3445613587689877,1.0001576354058064,0.0003091257213867874
