time,time,flux,flux_err
-0.499332191340424,-0.499332191340424,1.0000668089618414,0.0001321232746517166
-0.4983083104492228,-0.4983083104492228,0.9999456523560463,0.0001317629954113009
-0.4975898146356485,-0.4975898146356485,1.000045793644381,0.00012023880504700234
-0.4970490802559652,-0.4970490802559652,0.9997680159896525,0.00012167338848146194
-0.49665477516755346,-0.49665477516755346,0.9999924148771024,0.00012154011954204917
-0.49638156718647225,-0.49638156718647225,0.9998217354386307,0.00012159510669286948
-0.49609431507778934,-0.49609431507778934,1.0001745089503393,0.00012179713898683859
-0.49581786074886625,-0.49581786074886625,1.0000328314337956,0.0001218485153493951
-0.49554099053748357,-0.49554099053748357,0.9999543567318089,0.00012212193905298326
-0.4953269774963701,-0.4953269774963701,0.9998676267864821,0.0001216901597091597
-0.49503899982191796,-0.49503899982191796,0.9999476789860609,0.00012203067742425609
-0.49474174600218246,-0.49474174600218246,1.000057239918279,0.00012165934885733695
-0.49439413316576974,-0.49439413316576974,0.9999553474356006,0.00012193473533366459
-0.494050873395463,-0.494050873395463,1.000206162622886,0.00012192962991506955
-0.4936281859168957,-0.4936281859168957,0.9999516430802421,0.0001238593632870255
-0.4932928777736379,-0.4932928777736379,1.0001217914937872,0.00012374584861259827
-0.4929605696466751,-0.4929605696466751,1.0003094975419018,0.00012381001050457526
-0.4926269996067276,-0.4926269996067276,0.9999334076386053,0.00012560430834104562
-0.4922026704785821,-0.4922026704785821,0.9999256125183444,0.00012216499313144366
-0.4917336736434663,-0.4917336736434663,0.9997253828818955,0.00012394352815392262
-0.4912896166835708,-0.4912896166835708,1.0000448305383343,0.00012220954401557079
-0.49085120358322454,-0.49085120358322454,1.0001462562944985,0.00012469122258499293
-0.49039194456890983,-0.49039194456890983,0.9998420693679984,0.00012549179561106218
-0.49007728579163085,-0.49007728579163085,1.000494296494106,0.00012649218745884293
-0.4886326099451253,-0.4886326099451253,0.9997245253165854,0.00012203338711693501
-0.4863344924473495,-0.4863344924473495,1.0003216108149995,0.0001236095350914503
-0.4851219720821973,-0.4851219720821973,1.0002415965478533,0.00011974417297320145
-0.4835521016033454,-0.4835521016033454,1.0000162872308571,0.00012131546622628894
-0.48240745619041264,-0.48240745619041264,1.0001126594878575,0.00012682242927261953
-0.4811984517069504,-0.4811984517069504,1.0000774958297725,0.00012887877032160717
-0.4803266778584657,-0.4803266778584657,0.9998605499967279,0.000128799221093799
-0.47974076249156494,-0.47974076249156494,0.9999443769731287,0.00012524127928870593
-0.47908265514997767,-0.47908265514997767,1.000209449989305,0.0001248441448800706
-0.47787049770377055,-0.47787049770377055,1.000135476852959,0.00012825932023915887
-0.47699825802446866,-0.47699825802446866,1.0002315285763528,0.0001251159536491685
-0.4762282423438592,-0.4762282423438592,1.0003493326596453,0.00012353396591839068
-0.47548759607489044,-0.47548759607489044,1.0002811358279904,0.00012040399391003513
-0.47491343163164856,-0.47491343163164856,1.0001077731815002,0.00012014560919670866
-0.4744410980525572,-0.4744410980525572,1.0000099256005623,0.0001238820648542596
-0.47401133722014493,-0.47401133722014493,1.000050660774066,0.00012211331872234574
-0.4735891239171906,-0.4735891239171906,0.9998142003366215,0.00012201581502643128
-0.4731285033023596,-0.4731285033023596,1.0000093014009512,0.00012020458998923935
-0.47269563927293345,-0.47269563927293345,0.999880508426551,0.00012002688661323898
-0.4723088312606706,-0.4723088312606706,1.000104916031756,0.0001200423679095464
-0.47190317399799825,-0.47190317399799825,1.0001250414009288,0.00011990551418044452
-0.4715279766656749,-0.4715279766656749,0.9999300309837753,0.00012006957572297875
-0.4711064260416606,-0.4711064260416606,1.0000210217172645,0.0001199184172591454
-0.47060816413541035,-0.47060816413541035,1.0004549849292181,0.00011986205171738574
-0.47019621076688056,-0.47019621076688056,1.0002127811786716,0.0001200262825045097
-0.46989149722830914,-0.46989149722830914,1.0001208749723574,0.00012161632402324515
-0.4696214463314391,-0.4696214463314391,0.9998893388353576,0.0001194590764958952
-0.469354819196451,-0.469354819196451,1.000056910590693,0.00012063841092710526
-0.4690939483971306,-0.4690939483971306,1.0001075248471107,0.00012155759519851526
-0.46884776764345587,-0.46884776764345587,1.0001196716537664,0.000129623102942648
-0.4685779673185607,-0.4685779673185607,1.0001604713579817,0.0001247934813351736
-0.46834868982550687,-0.46834868982550687,1.000329761266892,0.0001262092086475188
-0.4680561789475178,-0.4680561789475178,0.9999901720463928,0.00012134691870821339
-0.46769779010937784,-0.46769779010937784,0.9999542017173972,0.00012134233097934666
-0.4672995500764955,-0.4672995500764955,1.0000115157192648,0.00012135588154487667
-0.46695342908678866,-0.46695342908678866,1.0000517696482483,0.00012323939083313875
-0.4666368561291165,-0.4666368561291165,0.9999876152832868,0.00012473978805852714
-0.46630822331462696,-0.46630822331462696,0.9999461317625844,0.00012172373917892026
-0.46580249477992763,-0.46580249477992763,1.0001400351324015,0.00012373513735883783
-0.46528287013134106,-0.46528287013134106,1.0000302703608808,0.00012363502956824288
-0.46449645764223535,-0.46449645764223535,1.0001297338411566,0.00012032053918173554
-0.46278720857553707,-0.46278720857553707,0.9998495622255618,0.00012055177518680298
-0.46166884466365443,-0.46166884466365443,1.0000646506654067,0.00012042766858642478
-0.46096007574269604,-0.46096007574269604,0.9998369795171435,0.00012023185885655949
-0.4603717004949431,-0.4603717004949431,1.0001287176004503,0.00012021628858037802
-0.4599207460239995,-0.4599207460239995,0.9999794387332696,0.0001235559916154798
-0.4596148689190159,-0.4596148689190159,1.000163484694319,0.00012172562767348309
-0.4593295876406046,-0.4593295876406046,1.0000633738702294,0.00012005509240656832
-0.45904943789355457,-0.45904943789355457,0.9999017008195988,0.00012305618308492596
-0.4587818887070171,-0.4587818887070171,1.0000990374531473,0.00012006824196711349
-0.45850814612567775,-0.45850814612567775,1.000022057325945,0.00012165923792404326
-0.45823141584041877,-0.45823141584041877,1.0000849632752786,0.00012235328442914502
-0.4579960004459281,-0.4579960004459281,1.0000423855073073,0.0001217196711386818
-0.4577250658268895,-0.4577250658268895,1.0000940710122832,0.00012170668611059792
-0.45745027031407515,-0.45745027031407515,1.000371220756152,0.00012176217074594321
-0.4571278203598922,-0.4571278203598922,0.9999923917711258,0.00012195671672764633
-0.4568359796769073,-0.4568359796769073,0.9998172543522135,0.00012194773472353009
-0.4564165765437792,-0.4564165765437792,1.0000802080668896,0.00012389510290023622
-0.45608414376802103,-0.45608414376802103,1.0002842343681557,0.00012368619343850937
-0.4557493721087667,-0.4557493721087667,1.000024096186095,0.00012383321903183743
-0.4554204448879318,-0.4554204448879318,1.0003008406374971,0.00012561032331580003
-0.45505701864567527,-0.45505701864567527,1.0003655062333816,0.00012214276075474522
-0.4545926548424177,-0.4545926548424177,1.000208663284407,0.00012397142092064365
-0.4541735074144526,-0.4541735074144526,1.0002453765021204,0.0001225335015043371
-0.45372736405115577,-0.45372736405115577,1.0000659240150533,0.0001230453705308537
-0.45331734676983615,-0.45331734676983615,1.0001652550089057,0.00012707234616983996
-0.45299612253475063,-0.45299612253475063,1.0000242738832748,0.0001246078437593501
-0.452078004015857,-0.452078004015857,0.9998247583938309,0.00012184352170549822
-0.44953606913659316,-0.44953606913659316,0.9999906697138448,0.00012377078763272176
-0.44860815130850823,-0.44860815130850823,0.9999660468501382,0.00011989210044544842
-0.4475959970295662,-0.4475959970295662,1.0000207736248,0.00011959042806913031
-0.44615144590316047,-0.44615144590316047,0.9997562238158902,0.00012305797681670127
-0.44485073810828907,-0.44485073810828907,0.9997453567756889,0.0001286027366175204
-0.4436112085728382,-0.4436112085728382,1.0001177519027222,0.00012888446027242055
-0.4428323606010963,-0.4428323606010963,0.9999120921151509,0.0001287882461174352
-0.44219402738817737,-0.44219402738817737,1.0002794670453228,0.00012490564865985673
-0.44122179041441995,-0.44122179041441995,1.000406562896907,0.00012647243058610787
-0.43997292136700705,-0.43997292136700705,1.0002070150402644,0.0001251425062558858
-0.4392095157167205,-0.4392095157167205,1.00013249182749,0.0001235629753415115
-0.43858759644463136,-0.43858759644463136,0.9999776343541079,0.00012204106937616732
-0.43791199001534553,-0.43791199001534553,1.0000312519797907,0.0001222118492042416
-0.4374923390547337,-0.4374923390547337,1.000091654684935,0.00012394603725461546
-0.43705698261983345,-0.43705698261983345,1.0001723827169648,0.00012203034649472814
-0.4366276429183927,-0.4366276429183927,0.9999284753518008,0.00012210179334051595
-0.43619295884309395,-0.43619295884309395,1.0002796691963154,0.00012197187140009828
-0.435739716691387,-0.435739716691387,1.0000448893932257,0.00012016113753692582
-0.43530921485071306,-0.43530921485071306,0.9999563488520394,0.00012002764624325873
-0.4349261218467291,-0.4349261218467291,0.9998891955094236,0.00012009965381837653
-0.43443507369265716,-0.43443507369265716,1.0001899905355844,0.0001199081706044479
-0.4339459122857079,-0.4339459122857079,0.9999752802407412,0.0001197267042234455
-0.4333980339473783,-0.4333980339473783,1.0002384082723097,0.00011990109178283544
-0.43297511038399533,-0.43297511038399533,1.0000176298613432,0.00012005886227961157
-0.43268219193232654,-0.43268219193232654,1.0000072777254956,0.00011892284859759345
-0.4324187431473547,-0.4324187431473547,1.000230220569442,0.00012004206455689993
-0.4321643262039288,-0.4321643262039288,0.9998025380878639,0.0001327790524625692
-0.4319369127304526,-0.4319369127304526,1.0003313237199427,0.00012162838674975454
-0.4317010006274359,-0.4317010006274359,1.0001967667145402,0.00012616193216596376
-0.4314764810009365,-0.4314764810009365,1.0002241434618375,0.00012525340371022159
-0.4312489885807736,-0.4312489885807736,1.0000495475808395,0.00012159898731472422
-0.4309409502824565,-0.4309409502824565,1.0000515272940553,0.00012132649097472195
-0.430579694574044,-0.430579694574044,1.0001498691609867,0.00012299150016154998
-0.43020354836262414,-0.43020354836262414,1.0001317831804832,0.00012323257740253226
-0.42988240620215945,-0.42988240620215945,1.000065762988294,0.00012324921161696833
-0.42956175606341274,-0.42956175606341274,1.0003071456102375,0.0001232484734105489
-0.42917109994596103,-0.42917109994596103,1.0001447708861329,0.00012171815212945639
-0.428726217736039,-0.428726217736039,0.9999564710108426,0.00012364542273544623
-0.42814295420030246,-0.42814295420030246,1.0002744812064293,0.00012370023416773403
-0.4272093576968473,-0.4272093576968473,0.999755623228104,0.0001216570427064648
-0.4255982109192701,-0.4255982109192701,0.9999638478844355,0.00012062872441002967
-0.4246407250782795,-0.4246407250782795,1.000185597226321,0.00012035262403882498
-0.4238523817675741,-0.4238523817675741,1.0001579774666893,0.00012028595943045138
-0.4232732064272568,-0.4232732064272568,1.0001532720922004,0.00012033068403858089
-0.4227804844831553,-0.4227804844831553,1.00007864143091,0.0001231520060044641
-0.42245852360902064,-0.42245852360902064,0.9999841872365861,0.0001200960706766416
-0.4221715447427414,-0.4221715447427414,1.0001310365780096,0.00012155585312446354
-0.4219060873027047,-0.4219060873027047,0.999900441116431,0.00012155765567806385
-0.4216307167636842,-0.4216307167636842,0.9999409822401889,0.00012166017541992807
-0.4213590927491168,-0.4213590927491168,1.0001998934247829,0.0001225249296433557
-0.42111997266511025,-0.42111997266511025,0.999867687103308,0.00012178945136139177
-0.42084839595190715,-0.42084839595190715,0.9998299959377409,0.00012168890273412078
-0.4205154557541391,-0.4205154557541391,0.9999756645107004,0.00012171487740930765
-0.420167620443317,-0.420167620443317,1.0002102982561494,0.00012196565230212992
-0.4197995287882804,-0.4197995287882804,1.000182711301947,0.00012372716935301855
-0.4194132998454734,-0.4194132998454734,1.0002464156608248,0.00012389323545715676
-0.41907692094937377,-0.41907692094937377,0.9999155401757523,0.0001238446335949972
-0.4187409314334218,-0.4187409314334218,1.0002483687939887,0.0001238473300415706
-0.41838416249811416,-0.41838416249811416,0.9999988532936446,0.00012559130699263285
-0.4179094444032671,-0.4179094444032671,0.9998698436731704,0.00012212656630569298
-0.4174814917238109,-0.4174814917238109,1.0002802596107012,0.00012222486683709035
-0.4170322881087486,-0.4170322881087486,1.0000073250530208,0.0001240151300002571
-0.41655760755893423,-0.41655760755893423,1.0001008566349676,0.000126212466265792
-0.41618228787920086,-0.41618228787920086,1.000006869157705,0.00012528168300757905
-0.4158511771700432,-0.4158511771700432,0.9999183233127711,0.00012317090887313526
-0.4132575996969535,-0.4132575996969535,0.9999934593696811,0.00012391779785830316
-0.4117815865407465,-0.4117815865407465,0.9999995848729547,0.00012172411424878833
-0.41047664573707154,-0.41047664573707154,1.0002239923968361,0.00011955065848221517
-0.4089451743820973,-0.4089451743820973,1.0000567552876778,0.000123080202332071
-0.4076584094826103,-0.4076584094826103,1.0002232899603558,0.00012863458261517353
-0.40641775760414023,-0.40641775760414023,0.9999024009338415,0.00012885128903310372
-0.40568661767756564,-0.40568661767756564,0.9999384740423348,0.00012690354049980324
-0.40499717166931076,-0.40499717166931076,1.0002476720313755,0.00012485140932135585
-0.4037852204801311,-0.4037852204801311,1.0005872996693916,0.00012825366370179623
-0.4029119774186256,-0.4029119774186256,1.0003904008410753,0.00012508403921645883
-0.4021414780527266,-0.4021414780527266,0.9998078877666952,0.0001235429029624044
-0.40139986546928413,-0.40139986546928413,1.000046341121981,0.00012038730389617297
-0.40079522206324325,-0.40079522206324325,0.9999443664121739,0.00012199242110483837
-0.40035450929535726,-0.40035450929535726,1.0001467447225605,0.00012389453425273766
-0.3999243163954816,-0.3999243163954816,1.0000003347818673,0.00012211181228910005
-0.3995024431085767,-0.3995024431085767,1.0002885969124107,0.00012205017693697653
-0.3990413683208317,-0.3990413683208317,1.0003352514928356,0.00012022061976016324
-0.3986086996425001,-0.3986086996425001,1.0000947081769962,0.00012005468957537175
-0.39822229384335517,-0.39822229384335517,1.0001314527955454,0.00012004815862269789
-0.3978166677810805,-0.3978166677810805,0.9999348234927388,0.00011991813211073254
-0.3973647722072201,-0.3973647722072201,0.9998618586190334,0.0001198831079888565
-0.396859342051539,-0.396859342051539,1.0001091844019325,0.00011993078861720096
-0.3963229936616699,-0.3963229936616699,0.9999322530458465,0.00011986250722947008
-0.3959867892350303,-0.3959867892350303,1.0002516035918292,0.00012175372687006441
-0.3956932673914707,-0.3956932673914707,1.0001047924090265,0.0001177919045112326
-0.39542233184074577,-0.39542233184074577,0.9999272932634036,0.0001204205439381902
-0.39515651351939596,-0.39515651351939596,1.0001703493490193,0.0001214927638732842
-0.3949159921321552,-0.3949159921321552,1.000033020366456,0.0001296747028368391
-0.39464817974549077,-0.39464817974549077,0.9997001246023098,0.00012630367839071662
-0.3944256501377822,-0.3944256501377822,1.0001242194969513,0.00012141886650657008
-0.39414947265249795,-0.39414947265249795,1.0001292205148369,0.0001245141906939167
-0.3938232283278921,-0.3938232283278921,1.0003967859648792,0.00012137554271801396
-0.3934480560234078,-0.3934480560234078,1.0002078025294874,0.0001229867987730275
-0.39313230861625925,-0.39313230861625925,0.9996761975585968,0.00012321460910632597
-0.3928112718262128,-0.3928112718262128,1.0000431340615923,0.0001232176938735285
-0.3924907318236365,-0.3924907318236365,1.0001787628994634,0.00012325564298270344
-0.392137189001005,-0.392137189001005,0.999939665886575,0.0001235544198411527
-0.39160573714980274,-0.39160573714980274,1.0002167547631644,0.00012184281057362736
-0.3911103885704506,-0.3911103885704506,1.000045241097594,0.00012378634686885322
-0.39039234640003995,-0.39039234640003995,0.999985342339183,0.00012022420229690631
-0.388700161539964,-0.388700161539964,1.0001897431947078,0.00012053459337476224
-0.38758185136539397,-0.38758185136539397,1.000055249408845,0.00012041252224317287
-0.3868729680347315,-0.3868729680347315,1.0001651891100973,0.00012024297069800748
-0.3862846975080174,-0.3862846975080174,1.0000519872413887,0.00012019994811560148
-0.38583433973435605,-0.38583433973435605,1.000354504108421,0.0001235958304921657
-0.38552841552409517,-0.38552841552409517,0.9999804753549648,0.00012173015752489217
-0.3852427519250341,-0.3852427519250341,1.0004073142648129,0.00012007649069897956
-0.38496345885905614,-0.38496345885905614,1.0002181838071569,0.00012307920164834202
-0.3846950848826964,-0.3846950848826964,1.000189466001576,0.0001200955092588077
-0.3844218004502181,-0.3844218004502181,1.000061473877005,0.0001216648549672974
-0.38414467355069065,-0.38414467355069065,1.0002865659765257,0.00012233847014766607
-0.3839095437368087,-0.3839095437368087,1.0004239954507619,0.00012169936336941565
-0.3836386606391898,-0.3836386606391898,0.999827707679062,0.00012170459611024005
-0.38336377882806116,-0.38336377882806116,1.0002183497288213,0.00012176690213957736
-0.3830229171544488,-0.3830229171544488,1.000138768797453,0.00012195916728110809
-0.3826606243928836,-0.3826606243928836,1.0002320067893573,0.00012376208928889155
-0.3822718721075944,-0.3822718721075944,1.000160314588666,0.0001239110134789257
-0.3819355935633212,-0.3819355935633212,1.0001317035826363,0.00012386095428688898
-0.3815997098117805,-0.3815997098117805,1.0002847837966222,0.0001238817543340242
-0.3812642353179399,-0.3812642353179399,0.9998760563819753,0.00012381585391589727
-0.38086091261793625,-0.38086091261793625,1.0000184614499905,0.00012207075124676497
-0.38043093425949337,-0.38043093425949337,1.0001931280190892,0.0001239748441835528
-0.37998488433331656,-0.37998488433331656,1.0000514782763625,0.00012260192776094827
-0.37955662215135816,-0.37955662215135816,1.0001969322117792,0.0001248728408888267
-0.3791673726362205,-0.3791673726362205,1.0001732128041458,0.00012516155894666645
-0.3788468102855404,-0.3788468102855404,1.0001646276631033,0.00012459579752210594
-0.37739381482424506,-0.37739381482424506,1.0000942735830214,0.00012204505774856789
-0.37530122823554846,-0.37530122823554846,1.000189230158832,0.0001236442418641474
-0.3741340711047087,-0.3741340711047087,1.0000710105405397,0.00011980890598054382
-0.37291722519221365,-0.37291722519221365,1.000152480919947,0.00011949456392256746
-0.3717270402259601,-0.3717270402259601,1.000060921199378,0.00012499414226112653
-0.3704662667561934,-0.3704662667561934,1.0003518605348898,0.00012868403467688916
-0.36935066125297455,-0.36935066125297455,0.9998987098564089,0.00012880924348376128
-0.36862377662073414,-0.36862377662073414,0.9997749907831899,0.000128768210950341
-0.3679747381251218,-0.3679747381251218,1.0000532628690741,0.00012300851158579448
-0.3668409920242993,-0.3668409920242993,1.000717896989968,0.0001282559025612181
-0.3657041134705651,-0.3657041134705651,1.0000523007691322,0.00012514586681648362
-0.3650032024317625,-0.3650032024317625,0.9995163464266005,0.00012191382092379596
-0.3643510564179451,-0.3643510564179451,1.0002243375685664,0.00012204553592814617
-0.36375042965300963,-0.36375042965300963,0.9999955456720657,0.00012402564301708022
-0.36331172307436643,-0.36331172307436643,1.0001840862300517,0.00012203633170156751
-0.3628883829136612,-0.3628883829136612,0.9998522623529038,0.00012209150331522138
-0.36246798174979633,-0.36246798174979633,0.9999400408303849,0.00012387363175595965
-0.36208686326936,-0.36208686326936,1.000161033003072,0.00012003006161098023
-0.3616528686205129,-0.3616528686205129,1.0003113926096616,0.00012015745749868097
