time,time,flux,flux_err
-0.49929643844795163,-0.49929643844795163,1.0000069247488066,3.807439890444603e-05
-0.49797809165223345,-0.49797809165223345,1.0000615006614033,3.799239581566838e-05
-0.4961109895854558,-0.4961109895854558,1.000287011194013,3.7972902268397754e-05
-0.4945669775552233,-0.4945669775552233,1.000077449519021,3.4711217364855065e-05
-0.49323766710513156,-0.49323766710513156,1.0000413121119125,3.478678262408515e-05
-0.4917494539753534,-0.4917494539753534,1.0000817779154985,3.471878575934868e-05
-0.4901990932630724,-0.4901990932630724,0.9998813714157013,3.473892695679759e-05
-0.48879896423968605,-0.48879896423968605,1.0000751067995304,3.469612987855428e-05
-0.48742075827685766,-0.48742075827685766,1.0001025507181827,3.47088294526253e-05
-0.4855560254509328,-0.4855560254509328,0.9999381808761552,3.4788603814779636e-05
-0.48401774284866406,-0.48401774284866406,0.9999691926301757,3.466742508768005e-05
-0.48257205823028926,-0.48257205823028926,0.9999803034488952,3.4682701490979106e-05
-0.4809127673499461,-0.4809127673499461,1.0000050859624403,3.4787689942744244e-05
-0.4793814786389703,-0.4793814786389703,0.9998983702885184,3.465317080054524e-05
-0.47832690130671834,-0.47832690130671834,1.000183540782806,3.4706892269448136e-05
-0.47726590632228183,-0.47726590632228183,0.9999515991053581,3.4688993985030254e-05
-0.4758701071390533,-0.4758701071390533,0.9999248507651337,3.4776231206286694e-05
-0.47449869965275865,-0.47449869965275865,1.0000591113016752,3.4716034232838594e-05
-0.4731407151288295,-0.4731407151288295,1.0001097392839977,3.463493737596468e-05
-0.4719648166705156,-0.4719648166705156,1.0001186362223444,3.475039511487294e-05
-0.4702777286984201,-0.4702777286984201,0.9999877269526106,3.4654529466763595e-05
-0.4686728052183753,-0.4686728052183753,1.0000581043318513,3.471276794242769e-05
-0.4673357920473791,-0.4673357920473791,0.9998904223502507,3.4782772196630566e-05
-0.46588233628863235,-0.46588233628863235,0.9999973087702934,3.467740410750353e-05
-0.46442787480773406,-0.46442787480773406,1.0000462097537048,3.47834810174356e-05
-0.4629028628100059,-0.4629028628100059,0.9998599326343831,3.469707491818075e-05
-0.46152465075210786,-0.46152465075210786,1.0000451444229683,3.4717760294360306e-05
-0.4596588617940142,-0.4596588617940142,1.0000676487447184,3.478852878247019e-05
-0.45825443290814294,-0.45825443290814294,1.0001290975944113,3.4702075762173005e-05
-0.45681406216026516,-0.45681406216026516,1.0000373525454878,3.466120611421605e-05
-0.45501492408220656,-0.45501492408220656,1.0000187756326866,3.4788114443696456e-05
-0.45347012526472097,-0.45347012526472097,0.9999591032732088,3.466966087265531e-05
-0.4521592682998744,-0.4521592682998744,0.9999894552948888,3.472031831145447e-05
-0.4511761632988055,-0.4511761632988055,1.0000337530122567,3.4689642766894675e-05
-0.44963002652220896,-0.44963002652220896,1.0000213331671197,3.467565907401352e-05
-0.4484034111454093,-0.4484034111454093,0.9999246287718201,3.471274921306602e-05
-0.447479573028977,-0.447479573028977,0.9999861522231779,3.4649660198572473e-05
-0.44652341653127225,-0.44652341653127225,0.9999209242153402,3.489576776256826e-05
-0.44496460232840035,-0.44496460232840035,0.9999711570642742,3.4670398052205094e-05
-0.44352317882803616,-0.44352317882803616,0.9999050400081719,3.4819636842086234e-05
-0.442157880726154,-0.442157880726154,1.0000455916660977,3.458876766880507e-05
-0.44070288228685967,-0.44070288228685967,0.9998891608048448,3.4740674464555626e-05
-0.439340860772063,-0.439340860772063,0.9999863687643954,3.469029633490704e-05
-0.43780445492302533,-0.43780445492302533,1.000115027230899,3.469978690556568e-05
-0.4365885319915833,-0.4365885319915833,0.9998236288857605,3.4797902439128016e-05
-0.43485248160359335,-0.43485248160359335,0.9999887692150464,3.473830340776448e-05
-0.433078421971004,-0.433078421971004,1.0000604344866193,3.467133837644912e-05
-0.4319658403954236,-0.4319658403954236,0.9999818448535542,3.479414093814567e-05
-0.4301441040006466,-0.4301441040006466,1.0000146541123232,3.467673334525295e-05
-0.42840690800803716,-0.42840690800803716,1.0000308111875575,3.4666740383675975e-05
-0.42707212392851945,-0.42707212392851945,0.9999867890240003,3.479182757538831e-05
-0.4256119829879026,-0.4256119829879026,1.0000325491663837,3.457685227142291e-05
-0.4244357481889892,-0.4244357481889892,0.9999725599827347,3.483712290052863e-05
-0.4229238413485291,-0.4229238413485291,1.000056514694484,3.467474794826877e-05
-0.42161998309748017,-0.42161998309748017,0.9999524357057805,3.473293807916488e-05
-0.42062801735446553,-0.42062801735446553,0.9999541349027904,3.4788519366850735e-05
-0.41907218199412455,-0.41907218199412455,0.9999897446791511,3.467475554252485e-05
-0.41762106282403694,-0.41762106282403694,1.0000064854106536,3.481820504389238e-05
-0.4162668161225156,-0.4162668161225156,1.000162836300052,3.458932866034285e-05
-0.4147186043592228,-0.4147186043592228,1.0000366091545847,3.474573208137375e-05
-0.4132431434896716,-0.4132431434896716,1.0000674613508587,3.47899551601904e-05
-0.41163005321795937,-0.41163005321795937,1.000075614859894,3.459300681717342e-05
-0.41036805263720455,-0.41036805263720455,0.9999666839746506,3.4852999762538406e-05
-0.408699269007775,-0.408699269007775,0.9999636177097482,3.4764785013615e-05
-0.4071881423587911,-0.4071881423587911,0.9999946271400283,3.4677106206600806e-05
-0.40606301371954034,-0.40606301371954034,0.9999715862806633,3.480007695822461e-05
-0.4043082971846161,-0.4043082971846161,0.9999805021692513,3.4716596066527975e-05
-0.40251593107896044,-0.40251593107896044,0.9999003255324024,3.466789456480812e-05
-0.4011699620532454,-0.4011699620532454,1.0000578477093462,3.478716796336628e-05
-0.39972220240961176,-0.39972220240961176,0.9999547032302056,3.457280335441476e-05
-0.39817341763628067,-0.39817341763628067,1.0000466276681934,3.478583695506252e-05
-0.39686917664585053,-0.39686917664585053,1.0000055586131569,3.468583679778526e-05
-0.39572175139619503,-0.39572175139619503,0.9999707810934865,3.472643531605601e-05
-0.3947326863984927,-0.3947326863984927,0.9998641841514957,3.473568471014608e-05
-0.3931799047801178,-0.3931799047801178,1.0002103751550941,3.4677513255037274e-05
-0.39192550262014264,-0.39192550262014264,0.9998095065723968,3.48124907716061e-05
-0.39072836658306187,-0.39072836658306187,1.0000844637204724,3.462072299329257e-05
-0.3896285907991114,-0.3896285907991114,1.0000233977440818,3.4742852789363906e-05
-0.3879369833361125,-0.3879369833361125,1.0000524407565206,3.464985447198546e-05
-0.38673311032616764,-0.38673311032616764,0.9999476102120981,3.47825752141916e-05
-0.38521854277860257,-0.38521854277860257,0.9999964994488625,3.465395727181987e-05
-0.3838342256931355,-0.3838342256931355,1.0000800472987326,3.4777093383675774e-05
-0.38209294080370454,-0.38209294080370454,0.9999993355311949,3.4786209364469814e-05
-0.3805652066010225,-0.3805652066010225,0.9999840725052855,3.469881974126289e-05
-0.3791870026718243,-0.3791870026718243,1.0000565812494302,3.470679844796942e-05
-0.3773223874202813,-0.3773223874202813,1.0001050482591929,3.478965243447817e-05
-0.3757838754747354,-0.3757838754747354,1.0000008697064495,3.4668475575623425e-05
-0.3744562611434958,-0.3744562611434958,1.0000459349101054,3.4586202391162576e-05
-0.37331319744116626,-0.37331319744116626,0.9999797379787226,3.4765850498091e-05
-0.37170369447630947,-0.37170369447630947,0.9998772382388184,3.46031978485902e-05
-0.37055043791187925,-0.37055043791187925,0.9999677194252257,3.4849804718650254e-05
-0.36935197189304747,-0.36935197189304747,0.9998694221582369,3.4581547162138934e-05
-0.3683476461512328,-0.3683476461512328,1.000019381535543,3.482578319603318e-05
-0.3667055576661369,-0.3667055576661369,0.9999586614531027,3.4651735486685414e-05
-0.36545723788804024,-0.36545723788804024,0.9999597564398357,3.4781761112474164e-05
-0.36428463069023564,-0.36428463069023564,0.9999503894893156,3.460746443833506e-05
-0.3626230052010214,-0.3626230052010214,0.9999695674084126,3.4676464715288133e-05
-0.36119236979284325,-0.36119236979284325,0.999985927362663,3.482009209256835e-05
-0.3596091195104236,-0.3596091195104236,1.0001627254638137,3.460443239283132e-05
-0.35823941144917626,-0.35823941144917626,0.9999488160526588,3.473952128444546e-05
-0.35681183073611467,-0.35681183073611467,0.9998567741362965,3.478512401334393e-05
-0.3551717146387091,-0.3551717146387091,1.000041107830775,3.459253417665562e-05
-0.3539435751554265,-0.3539435751554265,1.0001180191039836,3.485323490094372e-05
-0.35213104716312954,-0.35213104716312954,0.9999478907823619,3.474618148511247e-05
-0.35049164650554304,-0.35049164650554304,0.9999056205595581,3.4598628623073615e-05
-0.3492669518927869,-0.3492669518927869,1.0000344273173967,3.48112913542419e-05
-0.3474838606278354,-0.3474838606278354,0.9999392262031279,3.473186534913592e-05
-0.3458140863374865,-0.3458140863374865,1.000134773287779,3.460319061353455e-05
-0.3444683876623458,-0.3444683876623458,1.0000038730260612,3.47979807907165e-05
-0.34326747466766394,-0.34326747466766394,0.9999698228505144,3.457993436525092e-05
-0.34210611896196497,-0.34210611896196497,1.0000716356051842,3.484933515297903e-05
-0.34058619326751793,-0.34058619326751793,0.9999516029242452,3.467547425404965e-05
-0.33928484152638705,-0.33928484152638705,1.0001105413349003,3.4737707711900465e-05
-0.3380932583095273,-0.3380932583095273,0.9999785113274843,3.465380216125335e-05
-0.3364568362027057,-0.3364568362027057,0.9998098304996319,3.460164719079442e-05
-0.3349625200149603,-0.3349625200149603,0.9998912867395564,3.490801994221359e-05
-0.3338551985034428,-0.3338551985034428,1.0001280312009084,3.48414549113608e-05
-0.3326566419578739,-0.3326566419578739,1.0000496164747117,3.485451429221598e-05
-0.33132254224983626,-0.33132254224983626,0.9999434290552532,3.462277295990537e-05
-0.32988795326673426,-0.32988795326673426,1.0000098553015317,3.4713648349363446e-05
-0.3285756556811975,-0.3285756556811975,0.9999204317884235,3.4784979300287026e-05
-0.32712957513722357,-0.32712957513722357,1.0000227924732532,3.4651572746848827e-05
-0.32552818783806287,-0.32552818783806287,0.9999792152353711,3.479102712430026e-05
-0.32412415608778244,-0.32412415608778244,0.9998736171198794,3.469672436428733e-05
-0.32275554188963723,-0.32275554188963723,1.0000624247517835,3.455526973830958e-05
-0.3212761428731028,-0.3212761428731028,1.0000400431042762,3.484392419316811e-05
-0.3195852850425581,-0.3195852850425581,0.9999389524338271,3.46461958804926e-05
-0.31818163591597115,-0.31818163591597115,1.0000475659977055,3.4785097327811636e-05
-0.3170472369885829,-0.3170472369885829,1.0000291160909627,3.468096034153241e-05
-0.31550396496168104,-0.31550396496168104,0.9999796186976833,3.4674381453532905e-05
-0.31421623847127195,-0.31421623847127195,0.9999032220899959,3.480096417689932e-05
-0.3128975179097324,-0.3128975179097324,1.0000521754317853,3.458687640036538e-05
-0.3119177634463995,-0.3119177634463995,1.0001164546087635,3.4915731461867625e-05
-0.31025730551118613,-0.31025730551118613,0.9999191292431835,3.4653155855292195e-05
-0.3087397130926547,-0.3087397130926547,0.9999903466315339,3.481750953538764e-05
-0.3075381214839581,-0.3075381214839581,0.9999568619602114,3.4652153178286806e-05
-0.30577563375918543,-0.30577563375918543,0.9998719630505342,3.468244718001988e-05
-0.30439768163923875,-0.30439768163923875,0.9999301128311437,3.478361646639007e-05
-0.3028783118374122,-0.3028783118374122,1.000018521577691,3.4654445400307115e-05
-0.30149810898074064,-0.30149810898074064,0.9999011280113171,3.4771958826169655e-05
-0.2998776574313524,-0.2998776574313524,1.0000390344254955,3.482940053555093e-05
-0.298483539436711,-0.298483539436711,1.0000207070152927,3.461656533980655e-05
-0.2971430838319066,-0.2971430838319066,0.999980955351392,3.4717543069628e-05
-0.29537273761816324,-0.29537273761816324,1.0000289561515616,3.484599872085101e-05
-0.2936933576427691,-0.2936933576427691,0.9999745442697929,3.4643903800672466e-05
-0.2922782654946786,-0.2922782654946786,0.9999110477054295,3.4783129190232055e-05
-0.2909778314140567,-0.2909778314140567,1.0000303142843907,3.464363333814254e-05
-0.2893589774204884,-0.2893589774204884,1.0000202679200167,3.4604775610875956e-05
-0.2882229285103676,-0.2882229285103676,1.0000792616837244,3.486607599997087e-05
-0.28700744208908874,-0.28700744208908874,0.9998988699941614,3.458566903576085e-05
-0.2860160802869359,-0.2860160802869359,0.9999476300724748,3.4851501768365765e-05
-0.2843643045562203,-0.2843643045562203,1.000180914766812,3.465479238632837e-05
-0.28292039676452985,-0.28292039676452985,1.0000322528605217,3.4791323426173734e-05
-0.28193963726735094,-0.28193963726735094,0.9998755163384404,3.4606667295396626e-05
-0.28028157006701804,-0.28028157006701804,0.9999206224329953,3.467949655749767e-05
-0.2791091478393355,-0.2791091478393355,0.9999643428827543,3.4792756200418095e-05
-0.2775074585013499,-0.2775074585013499,0.9999687980575583,3.4584305066905236e-05
-0.2762311942729866,-0.2762311942729866,0.9999285821481368,3.484819231655983e-05
-0.2745678205130389,-0.2745678205130389,1.0000699431667917,3.4771802159049874e-05
-0.2730635909763805,-0.2730635909763805,0.9999884143833407,3.468555186271412e-05
-0.2719272953858308,-0.2719272953858308,0.9999058226477274,3.479815151876863e-05
-0.27017791614780434,-0.27017791614780434,1.0000532037180254,3.472324807763807e-05
-0.2683907598919177,-0.2683907598919177,0.9999850641613165,3.467270090729155e-05
-0.2670348339182965,-0.2670348339182965,0.9999064885775821,3.4785630830199384e-05
-0.26559808212768987,-0.26559808212768987,1.0000217028995397,3.457680283884002e-05
-0.26404132146708437,-0.26404132146708437,0.9999184972064633,3.478281815384205e-05
-0.2627395405310381,-0.2627395405310381,1.0000742195154395,3.467671217285028e-05
-0.2615901043311169,-0.2615901043311169,1.000019621690359,3.4729504009045605e-05
-0.2606035739991057,-0.2606035739991057,1.0000152934393847,3.471114601354185e-05
-0.25905355842987776,-0.25905355842987776,0.9999811193020358,3.466523111216858e-05
-0.2577892869958305,-0.2577892869958305,0.999968065367644,3.4807178440750336e-05
-0.25644369766523595,-0.25644369766523595,0.9999636009598296,3.458650904622367e-05
-0.25514951503282646,-0.25514951503282646,0.9997498933701753,3.4739196023032124e-05
-0.253541844170104,-0.253541844170104,0.9998783575882187,3.468067388581546e-05
-0.2518898213733337,-0.2518898213733337,0.9999726194644122,3.468331989355641e-05
-0.25064928825886457,-0.25064928825886457,1.0001245833132038,3.4807685599797374e-05
-0.24911367235545184,-0.24911367235545184,0.9999869090805191,3.4657107730296706e-05
-0.24755083587078844,-0.24755083587078844,1.0000068600102363,3.478792349767265e-05
-0.24624280956122674,-0.24624280956122674,0.9999787867611138,3.471146381098524e-05
-0.2447270262775419,-0.2447270262775419,1.0000795835892042,3.469836795255087e-05
-0.24278413776264643,-0.24278413776264643,0.9999715777891032,3.478742579142016e-05
-0.24160271843502415,-0.24160271843502415,1.0000129341785973,3.471176018483031e-05
-0.24000591784279096,-0.24000591784279096,1.0001198899556158,3.464281320159395e-05
-0.23814285694024875,-0.23814285694024875,1.0000365877473683,3.478633096549605e-05
-0.2367835625060252,-0.2367835625060252,0.9999937217858406,3.469675278710875e-05
-0.23544208743187484,-0.23544208743187484,0.9999709455479289,3.4620150308999944e-05
-0.2344321315387788,-0.2344321315387788,0.9999312744609821,3.479167832693708e-05
-0.23290375750875683,-0.23290375750875683,1.0001238969079653,3.460026394638834e-05
-0.23160904116448364,-0.23160904116448364,0.9999655831759574,3.481055213340445e-05
-0.2303599961749569,-0.2303599961749569,1.0000192959454548,3.45853496291048e-05
-0.2288679126620991,-0.2288679126620991,0.9999141294329164,3.47773504021537e-05
-0.22735426237632056,-0.22735426237632056,0.9999189178823421,3.4743890555342214e-05
-0.22587839087937028,-0.22587839087937028,1.0000464910335007,3.467020998201443e-05
-0.2247475476200634,-0.2247475476200634,1.0000767119087626,3.4802817210833465e-05
-0.22325702207090217,-0.22325702207090217,1.0000325422435323,3.462120157184818e-05
-0.22206243729742708,-0.22206243729742708,1.000005255724461,3.478414711814119e-05
-0.22053933203569615,-0.22053933203569615,1.0000210298635324,3.4697326084112515e-05
-0.21916112723920378,-0.21916112723920378,0.9999269104879105,3.471991971228278e-05
-0.21729451496939872,-0.21729451496939872,1.000055200811858,3.479095845828163e-05
-0.21589043474014033,-0.21589043474014033,0.9999646337262261,3.469672140790806e-05
-0.21445101939680172,-0.21445101939680172,0.9999987680353499,3.4655293072506e-05
-0.21265004947781563,-0.21265004947781563,1.0000988231704593,3.4790648327273246e-05
-0.211106902793108,-0.211106902793108,1.0000159492970322,3.4668250701820964e-05
-0.20990966003082576,-0.20990966003082576,0.9999238943407963,3.462304933041841e-05
-0.20900540551810992,-0.20900540551810992,1.0000190036364567,3.466889963545596e-05
-0.2079127181212243,-0.2079127181212243,0.9999809090712745,3.512840800458026e-05
-0.2064562982035568,-0.2064562982035568,0.9998451447875742,3.4677471434507595e-05
-0.20533944179260288,-0.20533944179260288,1.000120918083572,3.47076651655383e-05
-0.2043561726262851,-0.2043561726262851,0.9999547332748489,3.4721600423476504e-05
-0.20296841552044498,-0.20296841552044498,0.999951441866366,3.478220871714504e-05
-0.20145687923941297,-0.20145687923941297,1.000078165251741,3.474068883463649e-05
-0.19998337897341117,-0.19998337897341117,1.0001494521683874,3.466725662965358e-05
-0.19870915457358934,-0.19870915457358934,1.000035294470552,3.4741896834727065e-05
-0.1969784984801663,-0.1969784984801663,1.0000206373009042,3.4690685528787086e-05
-0.19544269589241595,-0.19544269589241595,0.9999589023003669,3.4695439102968733e-05
-0.194220146418229,-0.194220146418229,1.0000339810318628,3.480046127674025e-05
-0.1925506736813986,-0.1925506736813986,0.9999442660294285,3.471061362117711e-05
-0.19098896391151357,-0.19098896391151357,0.9999508987670719,3.4798330698020144e-05
-0.18980568312472315,-0.18980568312472315,1.0001152668099818,3.471501919721252e-05
-0.18828042189925326,-0.18828042189925326,0.9999808355335826,3.4684466382856415e-05
-0.18634639296433306,-0.18634639296433306,1.0000479824727986,3.4788707487782036e-05
-0.18499210312511422,-0.18499210312511422,0.9999755542001634,3.469441925477932e-05
-0.18346195501653711,-0.18346195501653711,0.999774677620835,3.4611011209716326e-05
-0.18211014795160735,-0.18211014795160735,0.9998772409134216,3.4784897137405324e-05
-0.180573161974462,-0.180573161974462,0.9999375747591046,3.466778879408731e-05
-0.1795211733020551,-0.1795211733020551,0.9998582214592681,3.470842236908051e-05
-0.17846145277289907,-0.17846145277289907,1.0000613532447618,3.473166604660032e-05
-0.17706904842998483,-0.17706904842998483,1.0001228752325857,3.478099641269877e-05
-0.17555964735947782,-0.17555964735947782,1.000092303937846,3.473463965317102e-05
-0.174259857879224,-0.174259857879224,1.0000218652587791,3.4626126459289645e-05
-0.17316136931767687,-0.17316136931767687,1.0001215407341133,3.474594312031949e-05
-0.17134992587234593,-0.17134992587234593,1.0000465498213802,3.466884742100487e-05
-0.16986507148321833,-0.16986507148321833,0.9999046863581112,3.4714145452239276e-05
-0.168538322411041,-0.168538322411041,0.9999808719454079,3.4785436753541746e-05
-0.16704713160506798,-0.16704713160506798,0.9999508388188725,3.4714891161172674e-05
-0.1654110657342244,-0.1654110657342244,1.0000006871855958,3.4824951552787754e-05
-0.1640976965543814,-0.1640976965543814,1.0000011658831542,3.469699373122411e-05
-0.16271949813599348,-0.16271949813599348,0.9997836998615381,3.470072493791711e-05
-0.16085511658166068,-0.16085511658166068,0.9998864794762289,3.478849749824404e-05
-0.15931614682704093,-0.15931614682704093,1.0000569325716178,3.466620568091735e-05
-0.15787068864810863,-0.15787068864810863,0.9999679853250811,3.4680033242601095e-05
-0.15655781260356888,-0.15655781260356888,1.0000343644271636,3.4749051403706516e-05
-0.15490117401132011,-0.15490117401132011,1.0000388271442386,3.465073825818835e-05
