time,time,flux,flux_err
-0.49985857986939664,-0.49985857986939664,0.9999753160369758,0.0001368120665344585
-0.49959363625566766,-0.49959363625566766,1.0000288192584026,0.00014152611261601883
-0.4992083336219366,-0.4992083336219366,0.9999787709556464,0.00013839769482017425
-0.4989224582332099,-0.4989224582332099,0.9998031786170264,0.00013833887793727613
-0.49867904101483873,-0.49867904101483873,0.9999706929117644,0.00013008765087594803
-0.49848745891358703,-0.49848745891358703,0.999993106784588,0.0001276236196823488
-0.4981722945012734,-0.4981722945012734,0.99998142621727,0.00012588037098272773
-0.49786249987082554,-0.49786249987082554,0.9997668854254365,0.0001228662480505152
-0.497689866150904,-0.497689866150904,0.9997714267127149,0.00012922363522383047
-0.4973857949240482,-0.4973857949240482,1.0000193410496594,0.00012878824594589295
-0.49717128520132975,-0.49717128520132975,0.9998839624681224,0.00014057720063470809
-0.49677877581416396,-0.49677877581416396,0.9999856789794552,0.0001266395413532642
-0.49654886356947825,-0.49654886356947825,0.9999392620851164,0.00012978714498681018
-0.49632137792505093,-0.49632137792505093,0.9998661098632093,0.00012414525274029238
-0.4961676604252716,-0.4961676604252716,1.0001768183213815,0.00012352885932830348
-0.49599335143866485,-0.49599335143866485,0.9998600375719718,0.00012653703298761505
-0.49563048975469426,-0.49563048975469426,0.9997487087181831,0.00012098259810914286
-0.4953384719185124,-0.4953384719185124,1.0001173424235161,0.00013026967921414215
-0.4950846366140468,-0.4950846366140468,1.0000117016688144,0.00012658071300135476
-0.49492005484426044,-0.49492005484426044,0.9999493722298395,0.00012624786518342432
-0.49472430486421215,-0.49472430486421215,0.9999572151073352,0.00012726271103623255
-0.49435197129278097,-0.49435197129278097,1.000073363154534,0.00012310617549038974
-0.4941318403602054,-0.4941318403602054,1.0000635101454987,0.0001305975355668908
-0.49384817952013693,-0.49384817952013693,1.0000820160965171,0.0001283876094089386
-0.49363056311922265,-0.49363056311922265,0.9998142684416328,0.0001260748106752878
-0.4933619653376809,-0.4933619653376809,1.0000799739495991,0.00012353271492854525
-0.4929768093774328,-0.4929768093774328,1.000053868182558,0.00012564442517575802
-0.49267242905989406,-0.49267242905989406,1.0000623098877017,0.0001245376974119199
-0.4925389794378134,-0.4925389794378134,0.999997356952617,0.0001311738278760634
-0.4924029422385502,-0.4924029422385502,1.0001644306251072,0.0001272709237334647
-0.4920993802472367,-0.4920993802472367,1.0000565879502854,0.00012112905223412723
-0.49173705804350903,-0.49173705804350903,1.0002111576680133,0.00013458520858316338
-0.4916120052257611,-0.4916120052257611,0.9999853327056181,0.0001266524291181001
-0.49133815074892484,-0.49133815074892484,0.9999877431787493,0.0001269052237810172
-0.49096175153099464,-0.49096175153099464,0.9999955542959297,0.00012589207096574636
-0.49059178108218476,-0.49059178108218476,0.9999262307927133,0.0001243688073564763
-0.490233006177732,-0.490233006177732,1.000136676157006,0.00012820487968170734
-0.49007569368623083,-0.49007569368623083,0.9999359118786758,0.00012967403799155877
-0.48998455320470385,-0.48998455320470385,0.9999351385641864,0.00012924531561273663
-0.4898533820654848,-0.4898533820654848,0.9999837312998505,0.00012126756197175977
-0.48938505227924906,-0.48938505227924906,0.999889497203419,0.0001333799336936069
-0.48924312905437545,-0.48924312905437545,0.9999346654627601,0.00013111258425325487
-0.4888378951480263,-0.4888378951480263,0.9998511580699884,0.00012510224418412164
-0.48849042565270795,-0.48849042565270795,0.9998063823234737,0.0001266675701047774
-0.4883102597035759,-0.4883102597035759,0.999884258366292,0.00012536015308464842
-0.4879505608274485,-0.4879505608274485,1.000001452001001,0.00012752873955590045
-0.4877056384459138,-0.4877056384459138,0.9997722640423777,0.0001248277573436168
-0.48758858480578054,-0.48758858480578054,0.9998469502632247,0.00013015480004684895
-0.48744664230180207,-0.48744664230180207,1.0000396369614655,0.0001277185976879661
-0.4871722643707471,-0.4871722643707471,0.9999021424098287,0.0001203021759490914
-0.4868681225561886,-0.4868681225561886,1.0000442858236245,0.00013364211482567637
-0.48677155523691906,-0.48677155523691906,1.0001329974733806,0.00013060464399583887
-0.4864489228792081,-0.4864489228792081,1.000038638314328,0.00012575565753456883
-0.48622696008096683,-0.48622696008096683,0.9999952946502784,0.00013010914622993048
-0.48588765688473357,-0.48588765688473357,0.9998004596626867,0.00012770855377323333
-0.4856061728525674,-0.4856061728525674,1.000136162869701,0.0001286486403153461
-0.48540233855164844,-0.48540233855164844,1.000096848498283,0.0001263269976184914
-0.48519722244745933,-0.48519722244745933,1.0001507511428382,0.0001275212177066946
-0.48499084313589264,-0.48499084313589264,1.0001514732615564,0.00012200616408991413
-0.48464065714142635,-0.48464065714142635,1.0000654839597183,0.0001214284012427969
-0.48440275615721473,-0.48440275615721473,0.9999566738821113,0.00012985634548980034
-0.4840652072460216,-0.4840652072460216,1.0000604022020991,0.00012908581739275773
-0.4838525687380752,-0.4838525687380752,0.9999358586922407,0.00014509529760351936
-0.48355064725037666,-0.48355064725037666,0.9998532256505586,0.00012194612536276122
-0.4832978581522184,-0.4832978581522184,1.0000080861992646,0.0001298299476449806
-0.4830789355983143,-0.4830789355983143,0.999829526889552,0.0001295407708018195
-0.4828063228145766,-0.4828063228145766,1.0002243454567832,0.00012005878421216859
-0.48268524184895795,-0.48268524184895795,1.000116421870513,0.00012867951850319045
-0.48228224679987763,-0.48228224679987763,1.000055443186358,0.00012228026031197575
-0.48207290217615084,-0.48207290217615084,1.0001378427355778,0.00012594050627898762
-0.48184631285985235,-0.48184631285985235,0.9998739335052538,0.00012658335040427555
-0.4816202338326548,-0.4816202338326548,0.9998820323366179,0.00012817868562825936
-0.4814020480844192,-0.4814020480844192,0.999929712822442,0.00013056898833806483
-0.48125426530168625,-0.48125426530168625,1.0002514957176027,0.00012260068153356363
-0.4810460799235443,-0.4810460799235443,0.9998999880857932,0.0001240659479907344
-0.48081342861260057,-0.48081342861260057,1.0001403134551954,0.00013389743679831655
-0.48044049008385625,-0.48044049008385625,0.9999398546701401,0.00012823629877318322
-0.4800458266057831,-0.4800458266057831,0.999986898064018,0.00012236603627286327
-0.47973331213142956,-0.47973331213142956,1.000086778904922,0.00012324887694434988
-0.47930509613943284,-0.47930509613943284,1.0001174340810384,0.00012763000152834838
-0.4791508077185426,-0.4791508077185426,0.9999975055228225,0.00013175622537265233
-0.4790107592343702,-0.4790107592343702,0.9999139724601843,0.00012940702124549278
-0.4787915923552646,-0.4787915923552646,0.9997999981325171,0.00012354159839775253
-0.4784524073344073,-0.4784524073344073,1.0000105470782537,0.0001279833255984618
-0.47827824009291364,-0.47827824009291364,1.0001169117658395,0.00013067848818429741
-0.4781192483023915,-0.4781192483023915,1.000072454508598,0.00013127014544247188
-0.4777653006283799,-0.4777653006283799,0.9999566138803694,0.00012333528864503504
-0.47731002834261743,-0.47731002834261743,0.9999259978968016,0.00012449017735382373
-0.47689436088257936,-0.47689436088257936,0.9999196796139259,0.00012551800783609855
-0.4766990301737678,-0.4766990301737678,0.9998389449218019,0.00013006881081996407
-0.47660617958754303,-0.47660617958754303,1.0000121217998,0.00013032224622019619
-0.4765558833219984,-0.4765558833219984,1.0000939737406944,0.00012330663396960877
-0.47605710285643,-0.47605710285643,1.0000828354229032,0.00012346207777095175
-0.4759020492412674,-0.4759020492412674,0.9998729414157944,0.0001339679552846065
-0.4757424203482515,-0.4757424203482515,1.000050571931051,0.0001335737914840928
-0.4754276661682525,-0.4754276661682525,0.9999532941660962,0.00012600339636383736
-0.4751514099523774,-0.4751514099523774,1.0000278726263951,0.0001295568964313594
-0.4749595765810227,-0.4749595765810227,0.9999504161197255,0.00012547285264056675
-0.474650940180436,-0.474650940180436,1.000116738814949,0.00012447946156504718
-0.47430886205766,-0.47430886205766,0.9999591251892485,0.00012857715927413454
-0.47414989850367417,-0.47414989850367417,1.0001270475271546,0.00013130881164634623
-0.4739045989699662,-0.4739045989699662,1.000188129145003,0.00012254803973431864
-0.47352035366129713,-0.47352035366129713,0.9998562996686566,0.000130289124238049
-0.4734176816062245,-0.4734176816062245,0.9998653016967214,0.00013369390918866817
-0.4732807275773666,-0.4732807275773666,0.999857132302657,0.00012095397460945169
-0.47299428988335424,-0.47299428988335424,0.9999372834297613,0.00012400442623523855
-0.47282191631093157,-0.47282191631093157,0.9998466679117861,0.0001321827526291645
-0.472487887708121,-0.472487887708121,0.9998044191327036,0.00012752500410194857
-0.4722103425134264,-0.4722103425134264,0.9999184561464227,0.0001288135106299124
-0.47202718988482956,-0.47202718988482956,1.0000782360085037,0.0001231922973803781
-0.4718082202169171,-0.4718082202169171,0.999746963991627,0.00012957747692548158
-0.47158956705025046,-0.47158956705025046,1.0001290930110673,0.00012338225697477745
-0.4713331358521827,-0.4713331358521827,0.9999099981283152,0.00012501250747996086
-0.47108801504509756,-0.47108801504509756,1.0000136753600901,0.00012423358238565317
-0.470876163146022,-0.470876163146022,1.0001282622194982,0.00013022739961078686
-0.47060584908686,-0.47060584908686,1.0000318601494826,0.00012873438003152297
-0.4704524296030286,-0.4704524296030286,0.9998967360649103,0.00013897426723478287
-0.4703037918668997,-0.4703037918668997,0.9998747703347142,0.00012876876448386561
-0.4700357654808613,-0.4700357654808613,0.9999673596188344,0.00012435213840010528
-0.4697640796141059,-0.4697640796141059,0.9999438828411066,0.00013161953571433365
-0.4694680485925346,-0.4694680485925346,1.0001450763938995,0.00012385566555964762
-0.4693016789889953,-0.4693016789889953,0.9998390713256665,0.0001286338306833259
-0.4689450861864316,-0.4689450861864316,0.9999633810862312,0.00012126017754688788
-0.46866315507504624,-0.46866315507504624,0.9998876885757626,0.00013101813330471606
-0.46844242865772684,-0.46844242865772684,1.0000645701215884,0.0001268481476084962
-0.4682279729167931,-0.4682279729167931,0.9999674514095686,0.0001281750261701045
-0.4679845725579071,-0.4679845725579071,1.0000592988872135,0.00012731216179337972
-0.4676112633613229,-0.4676112633613229,1.0001798295599753,0.00012280264927673972
-0.46736096277309114,-0.46736096277309114,1.0000883077931384,0.00013403746566523626
-0.46712097391791757,-0.46712097391791757,1.0001342487591267,0.00012872976564723282
-0.4667987140070181,-0.4667987140070181,0.9998371667826531,0.0001223930615987497
-0.4665793542902975,-0.4665793542902975,0.9999932354431771,0.0001224194818105609
-0.46624296638328816,-0.46624296638328816,1.0001780495496946,0.00012643598933156962
-0.46589347178451135,-0.46589347178451135,0.9998945323143493,0.00012548951846126562
-0.4657496210580575,-0.4657496210580575,1.0000081275584256,0.00013131422461107442
-0.4655987803307653,-0.4655987803307653,0.9999094696051196,0.00012631587476006175
-0.46537057779860336,-0.46537057779860336,0.9998685573916631,0.00012006513448389892
-0.465011361282086,-0.465011361282086,1.0001332782654184,0.00012753515380486364
-0.46482127137787754,-0.46482127137787754,0.9999658396270075,0.0001303034358028584
-0.4645631425941247,-0.4645631425941247,1.0000901370915656,0.00012817318583572494
-0.464107917441288,-0.464107917441288,0.9999397447935756,0.00012343412643797173
-0.4637352235542494,-0.4637352235542494,1.0001611672856972,0.00012245314739089315
-0.4634399407361343,-0.4634399407361343,1.0001690497024454,0.0001311498428579005
-0.4632530864510045,-0.4632530864510045,1.0001853622068986,0.00012757266333556693
-0.46318887823508703,-0.46318887823508703,0.999793264728863,0.00012733930318953898
-0.46300965099071617,-0.46300965099071617,1.000237067669446,0.00012331014462777076
-0.46256107392764534,-0.46256107392764534,0.9999101550836593,0.00013263146025221774
-0.46244868252542803,-0.46244868252542803,0.9998709889054288,0.00013503957316624116
-0.4621649634456844,-0.4621649634456844,1.0000028825674576,0.00012601406720906316
-0.46188593879996914,-0.46188593879996914,0.9998949235863386,0.0001307849620081766
-0.46172314922660007,-0.46172314922660007,0.9999579086199526,0.00012908827712716808
-0.4615806211812014,-0.4615806211812014,1.000132659197439,0.0001246824581450291
-0.4611753889315878,-0.4611753889315878,1.0000552787860317,0.0001275625158497385
-0.46087369036031306,-0.46087369036031306,0.9998225232055932,0.00012854410205636208
-0.46074321188716566,-0.46074321188716566,1.0001184926173412,0.0001283670267873355
-0.4605309970291273,-0.4605309970291273,1.0000949598693758,0.00012250597309465514
-0.46014256068592657,-0.46014256068592657,0.9999658505398653,0.00012605001085280206
-0.46002765904704573,-0.46002765904704573,1.0000593834146965,0.00013414615865922432
-0.45991980866310767,-0.45991980866310767,0.999939224316328,0.00012898042769685994
-0.459559781869757,-0.459559781869757,0.999955906720302,0.0001253539928237565
-0.4593626428344578,-0.4593626428344578,1.0001634423093293,0.0001311541269329847
-0.4590147877395793,-0.4590147877395793,1.0001458339847442,0.00012744284483696654
-0.4588254874841368,-0.4588254874841368,0.9999015734480586,0.00012814612422493943
-0.4586385330789199,-0.4586385330789199,1.00009055454066,0.00012617522844020392
-0.4583809619951353,-0.4583809619951353,1.0000178191984763,0.00012633802196943548
-0.45823292828936246,-0.45823292828936246,1.0000346274081549,0.00012320105825001354
-0.4578817722845997,-0.4578817722845997,0.9998700548950857,0.00012241284720402367
-0.4575886605132837,-0.4575886605132837,0.9999736822569014,0.00013290368440287834
-0.45722730643028625,-0.45722730643028625,1.00011219333495,0.0001289391649216588
-0.4570298473474395,-0.4570298473474395,0.9998760498741144,0.0001392714684085718
-0.4568205944058718,-0.4568205944058718,1.0000553551029756,0.00012710005766638832
-0.45648443372701875,-0.45648443372701875,0.9997272899450108,0.00013122539931924947
-0.4561279775465664,-0.4561279775465664,1.0001023858639968,0.00012404612436523252
-0.4559098224701302,-0.4559098224701302,1.0000162038625438,0.00012973048956564618
-0.4556698327156482,-0.4556698327156482,0.9999118889490995,0.00012051491750248662
-0.4554111069490318,-0.4554111069490318,1.0000232942729614,0.00012333525077535802
-0.4551009771821555,-0.4551009771821555,1.0001109966919364,0.00012699482239922498
-0.4548561438590696,-0.4548561438590696,1.0002135716486016,0.00012821275532762634
-0.45460783968592294,-0.45460783968592294,1.0000373218143488,0.00012654410710696682
-0.45438833114967564,-0.45438833114967564,0.9999018883772525,0.00012025664860817838
-0.45415829127232427,-0.45415829127232427,0.999916280314016,0.00012592046608466903
-0.45393299516872504,-0.45393299516872504,0.999770458571249,0.0001309217134453353
-0.4536197529429046,-0.4536197529429046,0.9997024955673204,0.00012821048256163648
-0.4533670239688945,-0.4533670239688945,0.9999131656845737,0.0001222857091235782
-0.4530707597201399,-0.4530707597201399,0.9999709968501408,0.0001242324414295964
-0.45268723593544563,-0.45268723593544563,1.0000219931804173,0.00012542631643787527
-0.4524392253711994,-0.4524392253711994,0.9999641592438181,0.00013123675250143702
-0.4522527873545187,-0.4522527873545187,0.9998721704613824,0.00012228143592516483
-0.45214301836895177,-0.45214301836895177,1.0000532842150727,0.0001316527190253926
-0.45177032904466613,-0.45177032904466613,0.9998869537369647,0.00012342745016615192
-0.4514826974547759,-0.4514826974547759,0.9998693198254666,0.00013415338704045554
-0.45114875860381287,-0.45114875860381287,1.0000965177138816,0.00012561186504264112
-0.4508314862236148,-0.4508314862236148,1.000090931833904,0.00012768557631342222
-0.45058694180988823,-0.45058694180988823,0.9998958182261888,0.00012377406331107925
-0.450225250753283,-0.450225250753283,1.0000098827117798,0.00012634211189440131
-0.44995757587239493,-0.44995757587239493,0.9998799769485022,0.0001291486671522867
-0.4498372409390868,-0.4498372409390868,0.9998736145937535,0.0001286527309911438
-0.44977521154869465,-0.44977521154869465,0.9999372771673114,0.00012716219575022002
-0.44937416036045763,-0.44937416036045763,1.0000288118063465,0.00012777196143928416
-0.44908120237087135,-0.44908120237087135,0.9998625652307094,0.00013602963709126166
-0.44886087583654444,-0.44886087583654444,1.0000308700749354,0.00012592637093499358
-0.44840678993132316,-0.44840678993132316,0.999894756779258,0.00012955381310690163
-0.44815882768452864,-0.44815882768452864,0.999898623116718,0.00012689626990547916
-0.44776656726680814,-0.44776656726680814,1.0000986413309325,0.00012444341288083766
-0.4474862804847362,-0.4474862804847362,0.9998830466545116,0.00012856772913031288
-0.447358389069268,-0.447358389069268,0.9999640027447597,0.00012850655291725226
-0.44716020045452753,-0.44716020045452753,0.9999769851502815,0.00012230330092045155
-0.4469259710640472,-0.4469259710640472,1.0002042804227211,0.00012021197091033303
-0.4466636775934603,-0.4466636775934603,0.9999924902731088,0.00013151590243606835
-0.44655455605097816,-0.44655455605097816,0.9997446482497097,0.00012846655158517682
-0.44626189102418723,-0.44626189102418723,1.00007466771931,0.00012368656958715467
-0.4461179912534135,-0.4461179912534135,0.9998388164588643,0.0001254965866064876
-0.44584186874417353,-0.44584186874417353,1.000076717777881,0.00013223987786999957
-0.4455036840852699,-0.4455036840852699,1.0000472029543108,0.00012899943789382523
-0.44526089202117874,-0.44526089202117874,0.9998988791978674,0.00012615621893988918
-0.4449953166404157,-0.4449953166404157,1.0000791095069979,0.00012750603915654194
-0.44480723320521065,-0.44480723320521065,1.0000101994019066,0.00012318037011529846
-0.44435122043068986,-0.44435122043068986,1.0000973280503345,0.00012058723933350225
-0.44413182801945367,-0.44413182801945367,0.9999527189173996,0.00013295439530620171
-0.4438033352555067,-0.4438033352555067,0.999977304314525,0.00013012258238969868
-0.44359254798910114,-0.44359254798910114,0.999957721084531,0.00013606664166773564
-0.4433924432538333,-0.4433924432538333,1.0001753017992157,0.00012703575700929667
-0.4430930275702849,-0.4430930275702849,0.9999990518193492,0.00013120373944210014
-0.44275634213991,-0.44275634213991,0.9999841255044343,0.0001240857407510556
-0.4425189622641483,-0.4425189622641483,1.0000102707619516,0.00012787731058913542
-0.44232300184230555,-0.44232300184230555,0.9999758712014015,0.00012342694262287648
-0.4420998863235582,-0.4420998863235582,0.9998828650521645,0.00012205544204160012
-0.44172981665615224,-0.44172981665615224,0.9999012921368431,0.00012709461355256145
-0.4415448018051393,-0.4415448018051393,0.9998809323911313,0.0001233744192190058
-0.44130340807314494,-0.44130340807314494,0.9999055889562382,0.0001296563004378408
-0.44110536238367787,-0.44110536238367787,0.9999468553131627,0.0001252530329759757
-0.44073566480510634,-0.44073566480510634,1.0000109438507385,0.0001256979157007364
-0.44050862859367046,-0.44050862859367046,0.9998481008005082,0.0001308399560812541
-0.44023075199729644,-0.44023075199729644,1.0000676944934215,0.00012820462574390047
-0.43999827402367375,-0.43999827402367375,0.9998869649750898,0.00012228164072062845
-0.4396913368771493,-0.4396913368771493,0.9999122163869787,0.00012425220207922606
-0.4393668015181902,-0.4393668015181902,1.000167737768921,0.00012216490386230945
-0.439132404672273,-0.439132404672273,1.0000286238722713,0.00012762265805885
-0.4389681007291074,-0.4389681007291074,1.0000589553643584,0.00012731088804967034
-0.43881704918458125,-0.43881704918458125,1.0001623528062993,0.00012717362956357535
-0.43860927152636575,-0.43860927152636575,1.000111988899885,0.00012509825500906709
-0.43833022604812866,-0.43833022604812866,0.9997451334905707,0.00012347980557349874
