time,time,flux,flux_err
-0.4986452177374076,-0.4986452177374076,0.9965326401581809,0.0005609259647499341
-0.49658851708699103,-0.49658851708699103,0.996354879603475,0.0005609711197372818
-0.49453181648623284,-0.49453181648623284,0.9965531261293356,0.0005611303811357505
-0.49247511589088616,-0.49247511589088616,0.9966079614405354,0.0005612309195568707
-0.49041841529558494,-0.49041841529558494,0.9968103275739777,0.0005612191629740313
-0.48836171476090157,-0.48836171476090157,0.9977573492615152,0.0005613884360760523
-0.4863050142372458,-0.4863050142372458,0.9972930326169106,0.000561392475294891
-0.4842483137412842,-0.4842483137412842,0.9954247495987676,0.0005611725842443247
-0.48219161326737775,-0.48219161326737775,0.9968259805842843,0.0005613082068735629
-0.48013491279892834,-0.48013491279892834,0.9971141869661542,0.0005614307854963122
-0.47807821236912107,-0.47807821236912107,0.9970510385876296,0.0005613541599965872
-0.4759886045675671,-0.4759886045675671,0.997412205117263,0.0005614787333569789
-0.4738825430830843,-0.4738825430830843,0.9974823995966974,0.0005615553606619278
-0.4718258427194428,-0.4718258427194428,0.9972501166051518,0.0005614850122309487
-0.4697691424054483,-0.4697691424054483,0.9973992530837075,0.000561545356781598
-0.4677124420914879,-0.4677124420914879,0.9980225284683849,0.0005616416271541125
-0.4656557418105649,-0.4656557418105649,0.9968728113037845,0.0005615897682199585
-0.46359904156829546,-0.46359904156829546,0.9969941964141323,0.0005615005800210059
-0.4615423413206031,-0.4615423413206031,0.9976752675083368,0.0005617209811224299
-0.45948564112239865,-0.45948564112239865,0.9982697733209009,0.0005618400794260845
-0.4574289409242397,-0.4574289409242397,0.9975678878137962,0.0005616748109985658
-0.45537224078689176,-0.45537224078689176,0.9979732480924349,0.0005616136497770245
-0.4533155406383571,-0.4533155406383571,0.9968154686896172,0.0005613954717083446
-0.45120947941858275,-0.45120947941858275,0.9981732596317979,0.0005613937537028329
-0.44913873417862077,-0.44913873417862077,0.9963724606807697,0.0005611551810553753
-0.44706317714494614,-0.44706317714494614,0.9967872298696874,0.000561155582000464
-0.4450064771178518,-0.4450064771178518,0.9970297848511722,0.0005611748717362776
-0.4429497770963735,-0.4429497770963735,0.996393869189615,0.0005610677934558728
-0.4409683962810277,-0.4409683962810277,0.9992191638182218,0.0005698276460710702
-0.43924771438522614,-0.43924771438522614,0.9993510551158262,0.0005613730245813992
-0.4371910144463186,-0.4371910144463186,1.0005469758726004,0.0005615517170499827
-0.4351343145240662,-0.4351343145240662,1.0007124837078738,0.0005615996872609494
-0.4330776146073049,-0.4330776146073049,0.9999225484794408,0.0005615166047403111
-0.4310209147400883,-0.4310209147400883,1.0003789578767388,0.0005614732214131987
-0.4289642148950179,-0.4289642148950179,0.9996613296355245,0.0005613195562683325
-0.42690751506092967,-0.42690751506092967,1.0003637202607176,0.0005613776413655302
-0.42471918691542215,-0.42471918691542215,0.9998367229106778,0.0005612810993447494
-0.42262958006839424,-0.42262958006839424,1.0010373843505675,0.0005614184700515813
-0.4205728802949352,-0.4205728802949352,1.0002221653630297,0.00056142579800053
-0.4185161805821508,-0.4185161805821508,0.9995271283074206,0.0005613799952193416
-0.416459480858407,-0.416459480858407,0.9991510537621149,0.0005613055021673843
-0.4144027811568094,-0.4144027811568094,0.9997006958977026,0.0005614217628070268
-0.4123131739511109,-0.4123131739511109,1.0008615200257762,0.0005615245771431184
-0.41020711291898804,-0.41020711291898804,0.9998751465693474,0.0005615223765674566
-0.4081504133001658,-0.4081504133001658,0.9999349952134473,0.0005614952477791629
-0.4060937137032738,-0.4060937137032738,0.9999972821269942,0.0005614769004308847
-0.4040370141339622,-0.4040370141339622,0.9999830481015819,0.0005615033070669082
-0.4019803146033496,-0.4019803146033496,0.9994344917673649,0.0005614478729198254
-0.3999236150836964,-0.3999236150836964,1.0003176803190101,0.0005614620209337454
-0.3978669155916236,-0.3978669155916236,0.9998381792304969,0.00056142186328882
-0.39581021611069217,-0.39581021611069217,1.0008258478092882,0.0005616235929398384
-0.3937370631837325,-0.3937370631837325,0.9997648174781585,0.0005614214872376082
-0.39161454982552185,-0.39161454982552185,0.9999471783241953,0.0005615269219008836
-0.3895578504107789,-0.3895578504107789,1.0000127991107037,0.0005612943960575506
-0.3875011510456147,-0.3875011510456147,0.9997853408500708,0.0005614325334914316
-0.3854444516805529,-0.3854444516805529,0.9999941657559035,0.0005613531744055238
-0.38330548388354374,-0.38330548388354374,1.0001504605925458,0.0005615842220511403
-0.38115006368329885,-0.38115006368329885,0.9994852890404189,0.0005614400664705943
-0.37902755046299036,-0.37902755046299036,1.0000044908703454,0.0005613857845585967
-0.37697085120263407,-0.37697085120263407,1.0004882246170679,0.0005614702700280872
-0.37484833748600294,-0.37484833748600294,1.0006128710764008,0.0005614564778742628
-0.37274227726476283,-0.37274227726476283,0.9997496124985433,0.0005613347865682974
-0.37060330958904614,-0.37060330958904614,0.9996156920842687,0.0005613319421429028
-0.36849724936228084,-0.36849724936228084,0.9990284208173712,0.000561205085001287
-0.3666716843611539,-0.3666716843611539,1.000546494114755,0.0005612853283310555
-0.3649717043822761,-0.3649717043822761,0.9999384022783149,0.0005610997162603066
-0.363320528339716,-0.363320528339716,1.000128095215478,0.0005612115330536282
-0.36157963459761505,-0.36157963459761505,1.0000145672532992,0.0005612717956656702
-0.3597771628596888,-0.3597771628596888,1.0003796871474089,0.0005617376997790323
-0.3580492169525996,-0.3580492169525996,1.0002317482545133,0.0005613421158901088
-0.3563335796181491,-0.3563335796181491,1.000479135392764,0.0005612891991198249
-0.3545618030709761,-0.3545618030709761,0.999657968859475,0.0005612336725166404
-0.3527902254626724,-0.3527902254626724,1.000152503099136,0.0005612582554832233
-0.3510403230197994,-0.3510403230197994,0.9999195195058235,0.0005616860026545542
-0.3493216878067301,-0.3493216878067301,0.999852734656343,0.0005613401278993944
-0.3476131800233702,-0.3476131800233702,1.0002601566016962,0.0005612148787416131
-0.3458735605931224,-0.3458735605931224,1.0002856601204233,0.0005614473896088841
-0.34393274975782334,-0.34393274975782334,0.9995756676789508,0.0005612126594485223
-0.34208209061504247,-0.34208209061504247,1.0000506952348869,0.0005615799147538457
-0.3403736011736555,-0.3403736011736555,0.9996032818163704,0.000561469166811254
-0.3387224031261667,-0.3387224031261667,1.0000525691440103,0.0005614652885311211
-0.3369560765845335,-0.3369560765845335,1.0004080081198115,0.0005620465719149423
-0.3352609953413321,-0.3352609953413321,1.0001887244451484,0.0005615227427934976
-0.33343532697393813,-0.33343532697393813,0.9999537597596484,0.0005615304138620141
-0.3316834019827297,-0.3316834019827297,1.0003909906182804,0.0005617120128075892
-0.3300078469101891,-0.3300078469101891,0.9993923612786473,0.000561505570587547
-0.328274371306793,-0.328274371306793,1.0000618643246253,0.000561542045035893
-0.32649161182930586,-0.32649161182930586,0.9997694908265912,0.0005621812264814002
-0.32476360374716934,-0.32476360374716934,0.9994311440800848,0.0005614597383177369
-0.32301508429485465,-0.32301508429485465,1.000489321073523,0.000561581901821902
-0.3212596337040736,-0.3212596337040736,0.9993885813589081,0.0005615656538795481
-0.31954063149180456,-0.31954063149180456,1.000967184406657,0.0005617904015775322
-0.31782633995070453,-0.31782633995070453,1.0006175935719164,0.0005616822591321648
-0.31610941609050086,-0.31610941609050086,0.9996656727582277,0.000562108842388531
-0.31444720333948906,-0.31444720333948906,1.0002444568018012,0.0005618427407400296
-0.31273159939000833,-0.31273159939000833,0.9998311842368268,0.0005616460636537675
-0.31097610931285546,-0.31097610931285546,0.9997562154290176,0.0005618035642558252
-0.30925711987651994,-0.30925711987651994,0.9999416094657034,0.0005618993765987315
-0.3075428462857303,-0.3075428462857303,1.0006255176085468,0.0005616673056992171
-0.30582594322792145,-0.30582594322792145,0.9993791969137253,0.0005623786738912817
-0.3041637109103249,-0.3041637109103249,0.9999249110825724,0.0005620108596029221
-0.3023658483425152,-0.3023658483425152,0.9986098975886663,0.000561724563938453
-0.30069258561654805,-0.30069258561654805,1.0011655618238902,0.0005621874308244536
-0.2988913420856079,-0.2988913420856079,0.9999509829151261,0.0005621513456906506
-0.297177086505792,-0.297177086505792,0.9998542628602717,0.0005615827856546989
-0.29546020419511476,-0.29546020419511476,1.0004959028352745,0.0005627852840123198
-0.2937979521564671,-0.2937979521564671,0.9999665599777481,0.0005623271584862034
-0.2920659110674251,-0.2920659110674251,1.0000683810913724,0.0005622018300691139
-0.29032679372585335,-0.29032679372585335,1.0002956696793106,0.0005624560179313656
-0.28852556293215914,-0.28852556293215914,0.9999857533745429,0.0005625117340590038
-0.2868220865141552,-0.2868220865141552,0.9999623603899289,0.0005629190201055771
-0.2850837047785035,-0.2850837047785035,0.9996687813941325,0.0005616467140167238
-0.28334992509779794,-0.28334992509779794,0.9999755301314819,0.0005625302028964342
-0.28167218015579465,-0.28167218015579465,1.0000655531968048,0.000562685346162499
-0.27990671677575846,-0.27990671677575846,0.9991061856776919,0.0005625393401969606
-0.2781597865258618,-0.2781597865258618,0.9995555467441045,0.0005627114835431174
-0.276374081410529,-0.276374081410529,1.0002238926821856,0.0005631777156788491
-0.27471794619561934,-0.27471794619561934,0.9997911736813571,0.0005616481229544843
-0.2729841669838834,-0.2729841669838834,1.000522251552101,0.0005628346624133669
-0.2713228445683285,-0.2713228445683285,1.0002521895093242,0.0005629658094667316
-0.2696232348442436,-0.2696232348442436,1.0002931374882267,0.0005629113304440988
-0.2677775564531089,-0.2677775564531089,0.9997953308314271,0.0005629719645341383
-0.26599754243585494,-0.26599754243585494,1.0008071136609114,0.0005616459512890738
-0.26419845459687397,-0.26419845459687397,0.9990106933018321,0.0005634358609001471
-0.26235071444244795,-0.26235071444244795,0.9999053907448685,0.0005627996591114977
-0.2602776018799773,-0.2602776018799773,0.9998854503993948,0.000563244979831714
-0.2582258111956207,-0.2582258111956207,0.9999249274509057,0.0005639561879269313
-0.25644340376503577,-0.25644340376503577,0.9996365188817418,0.0005629285315788024
-0.2546060335316838,-0.2546060335316838,1.0006685275517424,0.0005643163413896437
-0.25267014289215695,-0.25267014289215695,1.0009401966277953,0.0005618553274241327
-0.25101132712848084,-0.25101132712848084,1.0000537748294072,0.0005638534829426893
-0.24935724093479622,-0.24935724093479622,0.9997178998266488,0.0005637896833312877
-0.2476577155618429,-0.2476577155618429,0.9998257907607865,0.0005638491282524226
-0.2460002836494823,-0.2460002836494823,0.9995280972318635,0.0005638548751005705
-0.24428965803612074,-0.24428965803612074,0.9998023118943762,0.0005645605250295174
-0.24238665403202048,-0.24238665403202048,0.9997407798337814,0.0005616384783732284
-0.24072782004213877,-0.24072782004213877,1.0002270746172872,0.0005642025403226729
-0.23907372145311,-0.23907372145311,0.9989790509651406,0.0005639834570954788
-0.2373742358754498,-0.2373742358754498,1.0004257545670632,0.0005642756056240851
-0.23571679489966754,-0.23571679489966754,1.000502062014617,0.0005644078215269582
-0.23400618993406397,-0.23400618993406397,0.9995411767730269,0.0005647642685221041
-0.23210316596064332,-0.23210316596064332,1.0006408910770008,0.000561712658080286
-0.23039495227620818,-0.23039495227620818,1.0002799891746015,0.0005645731195431887
-0.22870793376034726,-0.22870793376034726,1.000322649788555,0.0005643712783631711
-0.2270134271038046,-0.2270134271038046,1.0001249035828987,0.0005649580234149737
-0.22536313665215174,-0.22536313665215174,0.9987000437466376,0.000564613793917585
-0.22370568462163193,-0.22370568462163193,1.0000323647956677,0.0005648830610767315
-0.22173740975540568,-0.22173740975540568,0.9998661249710196,0.0005615855977398672
-0.22007853896566304,-0.22007853896566304,1.000128246484908,0.0005649348205832184
-0.21842441564114096,-0.21842441564114096,0.9992487597924292,0.0005649378721177677
-0.216729960154737,-0.216729960154737,1.0008738873477099,0.0005656167811632252
-0.2150796584717,-0.2150796584717,1.0000304656721553,0.0005652817769108268
-0.21342219705234128,-0.21342219705234128,1.0001611502107297,0.00056544579562451
-0.21145392315692108,-0.21145392315692108,1.0004751996777557,0.0005616807356014771
-0.20971276578095513,-0.20971276578095513,1.0001792241230905,0.0005656003785605787
-0.20805863012728879,-0.20805863012728879,0.9993548605838827,0.0005654988866896353
-0.20624905102807817,-0.20624905102807817,0.9994147877636645,0.0005659071253147083
-0.20454937802438736,-0.20454937802438736,0.9991815786196525,0.000565610933678769
-0.20289190707817398,-0.20289190707817398,1.0011400437276883,0.0005660607226328774
-0.20108817050976313,-0.20108817050976313,0.9998182833186847,0.0005614303676106404
-0.19933821203044316,-0.19933821203044316,1.0000516405382487,0.0005661395696231633
-0.19761935972080663,-0.19761935972080663,1.0001597553388315,0.0005661051957483942
-0.19591622534671843,-0.19591622534671843,1.0004624292758184,0.0005667059196160669
-0.19426590121199752,-0.19426590121199752,1.0001089254047817,0.00056619492323308
-0.19257551364324854,-0.19257551364324854,1.0006866833660173,0.0005665358380110654
-0.19072241814392327,-0.19072241814392327,0.9991483690530872,0.0005614572936717631
-0.18898122265510436,-0.18898122265510436,0.999793261891291,0.0005664177157737257
-0.1873270618853212,-0.1873270618853212,0.9993437830714098,0.0005666801612188709
-0.1855504930992197,-0.1855504930992197,1.0001912499371823,0.0005671618890342437
-0.1838507974011236,-0.1838507974011236,0.999564857003166,0.0005667677607305842
-0.18212749311599055,-0.18212749311599055,1.0007442674775717,0.0005670912738926384
-0.18034307977524122,-0.18034307977524122,0.9991124515689398,0.0005668546605243759
-0.17838223752021348,-0.17838223752021348,1.0002348117251967,0.0005615837524715367
-0.17656639502824872,-0.17656639502824872,1.0015601566214563,0.0005672541581911124
-0.1748311172463673,-0.1748311172463673,0.9991712554208696,0.0005669960964151311
-0.1731230713007676,-0.1731230713007676,1.000553969327846,0.0005671852487258931
-0.17128527586602332,-0.17128527586602332,0.9991395552198643,0.000567686318380568
-0.1694837019959891,-0.1694837019959891,1.000074102661442,0.000567300078561054
-0.16776351970984252,-0.16776351970984252,1.0001385752475322,0.0005676375974471458
-0.16569937301014762,-0.16569937301014762,1.0004068330958193,0.0005675578700238581
-0.1640347201967188,-0.1640347201967188,1.000090344649134,0.0005615925894029248
-0.1619973125387446,-0.1619973125387446,1.0000775660983177,0.0005675300965623148
-0.15994061219715833,-0.15994061219715833,1.0000521776840612,0.0005676544296041168
-0.1581218820555364,-0.1581218820555364,1.000142930427486,0.0005676781698008744
-0.15634044208346723,-0.15634044208346723,0.9993079561981706,0.0005677499370408367
-0.15461783905650464,-0.15461783905650464,1.0000039587708056,0.0005683410264728955
-0.15295530440781704,-0.15295530440781704,0.9990180179565431,0.000567935553685059
-0.15130247075145462,-0.15130247075145462,1.0011689147770404,0.0005683112707461203
-0.14958848464746097,-0.14958848464746097,1.0002179428156666,0.0005615060278677463
-0.14769028607362317,-0.14769028607362317,1.0001168470406536,0.0005681693323138115
-0.14589243239573763,-0.14589243239573763,1.0011723203310647,0.0005684625688091703
-0.14423490501150127,-0.14423490501150127,1.000549718278002,0.0005685575447610363
-0.14252448812712828,-0.14252448812712828,0.9991372886258949,0.0005687666819833088
-0.140868095125586,-0.140868095125586,0.999363809816257,0.0005614378124325122
-0.13917616671973293,-0.13917616671973293,1.0001749448655823,0.0005686747913365866
-0.1373080511520243,-0.1373080511520243,0.9995097976743146,0.0005685807570551913
-0.13560895938421708,-0.13560895938421708,0.999518131257549,0.0005687125354769732
-0.13381979182835266,-0.13381979182835266,0.9996995373680588,0.0005687989016405009
-0.13215875813019692,-0.13215875813019692,1.0006976563210757,0.000569361690916212
-0.13035426210016113,-0.13035426210016113,1.000634965512225,0.0005616280967860906
-0.12867876792653304,-0.12867876792653304,0.9999220429997606,0.0005690990482965936
-0.12681135813276115,-0.12681135813276115,0.9993585195502093,0.0005695609131722691
-0.12516528168159766,-0.12516528168159766,1.0005665015553828,0.000569300874410317
-0.1234333302755772,-0.1234333302755772,1.0006586685882568,0.0005693394018478247
-0.12167705751388666,-0.12167705751388666,0.9998651078252149,0.0005694408187817543
-0.11985688396042633,-0.11985688396042633,1.0000247835957314,0.0005616072301231126
-0.1180661972411258,-0.1180661972411258,0.9997740660705056,0.0005696056737099358
-0.11641195199318873,-0.11641195199318873,0.9994871683319537,0.0005695065988165733
-0.11471800578585771,-0.11471800578585771,1.0008101748732392,0.0005702690607968909
-0.11290305632096534,-0.11290305632096534,0.9986013554493054,0.0005697517975005795
-0.11116322654062287,-0.11116322654062287,0.9997069212909239,0.0005700894985520821
-0.10944177783253509,-0.10944177783253509,1.0003885954969869,0.0005616653294043125
-0.10778269839628365,-0.10778269839628365,1.0000795184481581,0.0005701420232497819
-0.10612844099561017,-0.10612844099561017,1.000307925680265,0.0005701069560762717
-0.10443454587566521,-0.10443454587566521,0.9998007939423414,0.0005707090360425929
-0.10261958537806777,-0.10261958537806777,0.9996423317037255,0.0005703903964320016
-0.10087974469184928,-0.10087974469184928,1.0015247571108454,0.0005707961117381718
-0.09915829928803532,-0.09915829928803532,0.9999945412051268,0.0005616410775806319
-0.09749920014712643,-0.09749920014712643,1.0003188444369808,0.0005706450013781727
-0.09584493063806576,-0.09584493063806576,1.0003458391249196,0.0005706536919994934
-0.09415108657777864,-0.09415108657777864,0.999724466767424,0.0005710307947141916
-0.09233611506392662,-0.09233611506392662,0.9987611763047909,0.000570674139524611
-0.09059626332848439,-0.09059626332848439,0.9995248360085505,0.0005709629975444136
-0.08887482144403976,-0.08887482144403976,0.999485995748606,0.0005616650630693361
-0.0872157024938133,-0.0872157024938133,0.9995001913490877,0.0005709373348533216
-0.08556142087621765,-0.08556142087621765,1.0005586629795902,0.0005709641702657532
-0.08386762789230033,-0.08386762789230033,1.0008532191264192,0.000571554583553992
-0.08205264535667993,-0.08205264535667993,1.0003234617186127,0.0005709749699064949
-0.08031278248924992,-0.08031278248924992,1.000441406695077,0.0005713526084690265
-0.07859134431731718,-0.07859134431731718,0.9994147310114718,0.0005616741887996478
-0.07693220543071674,-0.07693220543071674,0.9998087960820149,0.0005712912373906332
-0.07527791173780543,-0.07527791173780543,1.0007254676375414,0.0005713241819483622
-0.07358416980246148,-0.07358416980246148,1.0008688796810277,0.0005719170526245319
-0.07176917628929687,-0.07176917628929687,0.999640983423299,0.0005714197831666153
-0.07002930212988759,-0.07002930212988759,1.0002010137367896,0.0005718430378238143
-0.06830786791310857,-0.06830786791310857,1.000455827415015,0.0005617914463285575
-0.0666487089635325,-0.0666487089635325,0.9992824083899654,0.000571855411973585
-0.0649944032117105,-0.0649944032117105,0.9992852842665698,0.0005719520613106054
-0.06330071230863724,-0.06330071230863724,1.0002144216311601,0.0005724163401081367
-0.06148570783435616,-0.06148570783435616,1.0000113138885982,0.0005719948364838452
-0.059745822239358405,-0.059745822239358405,0.9999809390265316,0.0005721447755815086
-0.05802439221508848,-0.05802439221508848,1.0001373129704598,0.0005616761003905634
-0.05636521303686095,-0.05636521303686095,0.9992676955156726,0.0005721724740206452
-0.05471089526472497,-0.05471089526472497,1.0008050615841544,0.000572391593747941
