time,time,flux,flux_err
-0.49984644214176416,-0.49984644214176416,0.9999928939376881,7.51800644112438e-05
-0.4994428536495737,-0.4994428536495737,0.9999857970063569,7.552961066550174e-05
-0.49928707469128614,-0.49928707469128614,1.0001155784318654,7.575866855781886e-05
-0.4990009608857993,-0.4990009608857993,0.9999756858888658,7.55490917460856e-05
-0.4987507904268568,-0.4987507904268568,0.9999963521033421,6.829979359074161e-05
-0.498482591327047,-0.498482591327047,1.0000397444567155,6.812422857051718e-05
-0.49819209663546643,-0.49819209663546643,0.9999904441155207,6.862713760418071e-05
-0.49797541640291454,-0.49797541640291454,0.9999321981186906,6.886818767092828e-05
-0.49776807258022016,-0.49776807258022016,0.9999432174342873,6.826203000169002e-05
-0.49757838804507626,-0.49757838804507626,1.0001338615142885,6.80755583391245e-05
-0.4973171954625286,-0.4973171954625286,0.9999633602883525,6.896675805238488e-05
-0.4969858907192247,-0.4969858907192247,0.9999928893988604,6.813453351122423e-05
-0.49680560525448525,-0.49680560525448525,0.9999705085302178,6.822870220460947e-05
-0.49666105028882157,-0.49666105028882157,1.000055551045286,6.820832972924642e-05
-0.4964211716869613,-0.4964211716869613,1.0000488108039116,6.875600161006003e-05
-0.49615420910995456,-0.49615420910995456,0.9999105021484647,6.895016115476834e-05
-0.4959229821455665,-0.4959229821455665,1.0000271924694721,6.77506989444628e-05
-0.49573700366308915,-0.49573700366308915,1.000000719908423,6.889897661210709e-05
-0.49561895430088043,-0.49561895430088043,0.9999725921603655,6.856683703400123e-05
-0.4953637357422849,-0.4953637357422849,0.9999856730361658,6.834548884132842e-05
-0.49511501487577336,-0.49511501487577336,0.999968452299316,6.750300300704831e-05
-0.49490239408332853,-0.49490239408332853,0.9999596920729609,6.771192123867313e-05
-0.4947472465428291,-0.4947472465428291,0.9998628882137968,6.884307951471983e-05
-0.49457620415778364,-0.49457620415778364,1.0000569361117089,6.798816945070291e-05
-0.494337305155932,-0.494337305155932,1.0000260054784682,6.772433652758956e-05
-0.4942309447447769,-0.4942309447447769,0.9998634572551468,6.80713764773605e-05
-0.49408765660482457,-0.49408765660482457,0.9999343636881978,6.794687239293513e-05
-0.49385471235145817,-0.49385471235145817,0.999948974843711,6.875590935532754e-05
-0.49356544155743903,-0.49356544155743903,1.0001071097275411,6.734116425182711e-05
-0.4934535145002883,-0.4934535145002883,1.0000037633402763,6.84249515726814e-05
-0.49328519787814,-0.49328519787814,1.0000071981317478,6.843737207763294e-05
-0.492953423698782,-0.492953423698782,0.999930643170498,6.819334980291117e-05
-0.49268915417196696,-0.49268915417196696,0.9999085785259393,6.991117378790237e-05
-0.4925603166688234,-0.4925603166688234,0.9999397248172677,6.903086584848446e-05
-0.4923118436388904,-0.4923118436388904,1.0000322934829557,6.828333370987921e-05
-0.4920522763102781,-0.4920522763102781,0.9998675176231402,6.84960028995743e-05
-0.4918502899352461,-0.4918502899352461,1.0000434682321404,6.883639963862451e-05
-0.4916751445591217,-0.4916751445591217,0.9999932293410033,6.857366748695843e-05
-0.4915193233609898,-0.4915193233609898,0.9999236623272667,6.862144979934297e-05
-0.49133409988717175,-0.49133409988717175,1.0000863806721252,6.8630576348825e-05
-0.4910772791568888,-0.4910772791568888,1.000069298778887,6.895157008882349e-05
-0.4908743429288734,-0.4908743429288734,0.9999823002254778,6.905469691300055e-05
-0.49060792121163105,-0.49060792121163105,0.9999663482395444,6.880154224796244e-05
-0.4904021787719103,-0.4904021787719103,0.99991133317981,6.904876104238828e-05
-0.49019360303936993,-0.49019360303936993,1.000008242121697,6.902149072391542e-05
-0.48990424094663465,-0.48990424094663465,1.0000278892536525,6.853123274059227e-05
-0.4896735542744864,-0.4896735542744864,1.0000528151570935,6.802962726230158e-05
-0.4893331712577492,-0.4893331712577492,0.9999250631222619,6.890890480703433e-05
-0.48919395713019187,-0.48919395713019187,1.0000398432202557,6.842406334311874e-05
-0.4890959463402396,-0.4890959463402396,1.0000116226881086,6.791510661244557e-05
-0.4889014849235537,-0.4889014849235537,1.0000570613408213,6.867941943068627e-05
-0.48850989529746586,-0.48850989529746586,1.000066506273172,6.897967533843569e-05
-0.48818653099588116,-0.48818653099588116,0.9999814971098198,6.867356157380215e-05
-0.4880289700377034,-0.4880289700377034,1.0000575405203178,6.822796387703206e-05
-0.48772330344072545,-0.48772330344072545,1.0000340629344833,6.81320580784831e-05
-0.4872852808272,-0.4872852808272,1.0000749492754213,6.801194769648708e-05
-0.48710093914705793,-0.48710093914705793,0.9998737976292696,6.860085214536318e-05
-0.48694554409594276,-0.48694554409594276,1.0000480668802232,6.775300617612164e-05
-0.48682842347770927,-0.48682842347770927,0.9999793291723382,6.831531066703859e-05
-0.48660458135127554,-0.48660458135127554,0.9999545814746466,6.78101579254402e-05
-0.48638045649277045,-0.48638045649277045,0.9999737411328538,6.78669388312534e-05
-0.4861534977069823,-0.4861534977069823,1.0000868229818884,6.864345325904798e-05
-0.48585704871511554,-0.48585704871511554,0.999991476099644,6.795425006484216e-05
-0.485705605550902,-0.485705605550902,1.00005175400968,6.956731662246637e-05
-0.48563136711600235,-0.48563136711600235,0.9999668787790463,6.707049050605971e-05
-0.48543114301864987,-0.48543114301864987,1.0001036472872378,6.854329289233908e-05
-0.48518902462674307,-0.48518902462674307,0.999950367149778,6.850207038296335e-05
-0.48496134231390897,-0.48496134231390897,0.9999297155348554,6.761195052979325e-05
-0.4847634583537001,-0.4847634583537001,0.9999171103683198,6.89554851586192e-05
-0.48458430607570335,-0.48458430607570335,1.0001123553635458,6.803499267994739e-05
-0.4843368638888933,-0.4843368638888933,1.0000330129216297,7.06116150052104e-05
-0.48422706312849184,-0.48422706312849184,1.0000243696860245,6.786416939216346e-05
-0.48397020542179237,-0.48397020542179237,0.9999702636805174,6.862574083062463e-05
-0.4837109767715447,-0.4837109767715447,0.9999086606746165,6.915897977120078e-05
-0.483425425644964,-0.483425425644964,1.000024265965492,6.849844329816447e-05
-0.4833184169983724,-0.4833184169983724,0.9999516856535242,6.899509615155547e-05
-0.48307318619918077,-0.48307318619918077,0.9999288081395228,6.812492614325952e-05
-0.4828227361052996,-0.4828227361052996,1.0000949590421386,6.88908218104861e-05
-0.48265425613499247,-0.48265425613499247,0.9999569234644088,6.942572077056783e-05
-0.4824095486284932,-0.4824095486284932,1.0000214057623573,6.850338754684676e-05
-0.48216709531261587,-0.48216709531261587,1.0000308388503971,6.858408984016643e-05
-0.4820422093907837,-0.4820422093907837,0.9999202834567855,6.86598787326311e-05
-0.4816943700570846,-0.4816943700570846,1.0000531127585137,6.933606915675614e-05
-0.48152887396281585,-0.48152887396281585,1.0000000243287552,6.823917399697883e-05
-0.48135103315871675,-0.48135103315871675,1.0000345451053456,6.795864753642688e-05
-0.4810985705582425,-0.4810985705582425,1.0000271131086194,6.835996125779526e-05
-0.48067491432011594,-0.48067491432011594,1.0000053823860873,6.859289366779887e-05
-0.4804658937617205,-0.4804658937617205,1.0000953979748175,6.747496206746236e-05
-0.48031367290823257,-0.48031367290823257,0.9999700161140057,6.875616529656333e-05
-0.48003177489736115,-0.48003177489736115,1.0001195339202464,6.889375077836163e-05
-0.47969044795027005,-0.47969044795027005,1.0000805873523695,6.773474860894027e-05
-0.47945729906787166,-0.47945729906787166,0.9999305909321956,6.914506841138499e-05
-0.4792660892650019,-0.4792660892650019,0.9997633402881403,6.867320621365795e-05
-0.47891641886380965,-0.47891641886380965,1.0000211423473377,6.919899277192163e-05
-0.47858750906889325,-0.47858750906889325,0.9999960185708799,6.76919160680044e-05
-0.4784206360869575,-0.4784206360869575,1.0000546255860223,6.8585340341017e-05
-0.4782296927383868,-0.4782296927383868,0.9999884474992324,6.846684074899586e-05
-0.477923093654681,-0.477923093654681,0.9999142797313991,6.823938414287297e-05
-0.4777086561633041,-0.4777086561633041,1.0000141225293058,6.860000278999179e-05
-0.477446555782808,-0.477446555782808,0.9999591885343682,6.947113595639635e-05
-0.47727262682747096,-0.47727262682747096,0.9999727511927208,6.746445008611228e-05
-0.47698185257031583,-0.47698185257031583,0.9999207128545994,6.818609752423263e-05
-0.4768831364926882,-0.4768831364926882,0.9999495813377663,6.89815630677079e-05
-0.4767219904228114,-0.4767219904228114,1.0000243557683293,6.82862088820279e-05
-0.4764411267766263,-0.4764411267766263,1.0000955486655676,6.813837815986843e-05
-0.47628092132217714,-0.47628092132217714,1.0001174733559823,6.804594047560118e-05
-0.4761131999810459,-0.4761131999810459,0.99995818893223,6.923007408665075e-05
-0.4759953126136679,-0.4759953126136679,1.000143004881821,6.858219088597729e-05
-0.47574055435543416,-0.47574055435543416,1.0000486390395102,6.900052407760595e-05
-0.47549348505272065,-0.47549348505272065,0.9998741259436719,6.858407480547215e-05
-0.4753332208143547,-0.4753332208143547,0.9999578432092633,6.866592582106614e-05
-0.4750896559387911,-0.4750896559387911,0.9998819766429483,6.8941991440754e-05
-0.4747725496534258,-0.4747725496534258,0.9999495317243798,6.895827312049729e-05
-0.4746089100110112,-0.4746089100110112,1.0000598983607891,6.88221327801129e-05
-0.4744898691569688,-0.4744898691569688,1.0001742271880827,6.838223556592248e-05
-0.47429353012994396,-0.47429353012994396,1.0001157462437766,6.824014972523399e-05
-0.4740664898330579,-0.4740664898330579,0.999968875570981,6.89163778988169e-05
-0.4737987440370489,-0.4737987440370489,0.9999387983746189,6.864799805572125e-05
-0.4735202400974231,-0.4735202400974231,0.9999589347096507,6.862025435674562e-05
-0.47326925449306145,-0.47326925449306145,0.9999955254926197,6.850570032153337e-05
-0.47294755664479454,-0.47294755664479454,0.9999962102385485,6.833309620805058e-05
-0.47274516832840163,-0.47274516832840163,0.9999501552794575,6.810595699315326e-05
-0.4726069094700506,-0.4726069094700506,0.999970009107226,6.73050768037291e-05
-0.47232486358843745,-0.47232486358843745,1.000000147309684,6.824132829371457e-05
-0.47199031481286513,-0.47199031481286513,1.000028245142056,6.81950899430161e-05
-0.4718042883934686,-0.4718042883934686,1.00004067936272,6.792102395836782e-05
-0.47151164757087827,-0.47151164757087827,0.9999528731452735,6.889825636180791e-05
-0.47122026452270804,-0.47122026452270804,1.0000257398994823,6.951950246662398e-05
-0.47101377666404004,-0.47101377666404004,0.9999143870507237,6.847403115953235e-05
-0.47078117599885444,-0.47078117599885444,1.0000947713206876,6.869355559230449e-05
-0.47051404674421066,-0.47051404674421066,0.9999538772469215,6.868452863438565e-05
-0.47020689927448983,-0.47020689927448983,1.0000737043265473,6.839503714937148e-05
-0.47007090629194864,-0.47007090629194864,1.0000081557243015,6.828494640084272e-05
-0.4698834421054926,-0.4698834421054926,1.0000568321745216,6.762649980890046e-05
-0.4697096585819963,-0.4697096585819963,1.0000256582866724,6.858912867710845e-05
-0.469484816188924,-0.469484816188924,1.0000584121486567,6.8815131272518e-05
-0.46929478787060364,-0.46929478787060364,0.9999495595044007,6.73705631710551e-05
-0.46898317031154874,-0.46898317031154874,0.9999432450202926,6.794920355820074e-05
-0.4688117796118604,-0.4688117796118604,0.9999608399888202,6.835253252350927e-05
-0.4686374672222883,-0.4686374672222883,0.9999658654237041,6.847781484149338e-05
-0.46846403924864716,-0.46846403924864716,0.9999284714528406,6.785452178863555e-05
-0.46812332691042685,-0.46812332691042685,1.0001339782262395,6.851055514439846e-05
-0.4679387838783441,-0.4679387838783441,1.0000175953766917,7.222806058186277e-05
-0.46775179155811203,-0.46775179155811203,0.9999385127813507,6.815692065245675e-05
-0.46753378505818544,-0.46753378505818544,1.0001026013273093,6.874593059920161e-05
-0.4673080165695865,-0.4673080165695865,1.0001755364652147,6.810755738471754e-05
-0.46719815384421964,-0.46719815384421964,0.999974007670993,6.871673928645443e-05
-0.46699872144381516,-0.46699872144381516,1.0000770690028384,6.857299890455081e-05
-0.4667773946508532,-0.4667773946508532,1.0001624182313398,6.921002586040371e-05
-0.46652500645723194,-0.46652500645723194,0.9999772569157621,6.891225630807433e-05
-0.4662997031438863,-0.4662997031438863,1.0000015738692727,6.897432142515058e-05
-0.4659050744230626,-0.4659050744230626,1.000091836928242,6.887661648874912e-05
-0.4657591215102002,-0.4657591215102002,0.9999456708857771,6.965272888230572e-05
-0.4656480477016885,-0.4656480477016885,0.9999786146983833,6.793290234709551e-05
-0.46539669097401204,-0.46539669097401204,1.000035555500041,6.903500899007383e-05
-0.4651808484137291,-0.4651808484137291,0.9998402196405125,6.829088755072947e-05
-0.46490326947241556,-0.46490326947241556,1.0000266311264707,6.812107759213063e-05
-0.4646366958564613,-0.4646366958564613,1.0000744385862683,6.862704630513932e-05
-0.4643995576334419,-0.4643995576334419,0.9999517446849495,6.887175898026454e-05
-0.46418625411461106,-0.46418625411461106,1.0000085448257312,6.82630283776283e-05
-0.46404336909763516,-0.46404336909763516,1.0001110650381242,6.738774926901724e-05
-0.46382562414510176,-0.46382562414510176,0.9999762207186365,6.893815627131922e-05
-0.46347255079017485,-0.46347255079017485,0.9999846007565611,6.845687868169852e-05
-0.46324776114197447,-0.46324776114197447,0.9999507279684847,6.784923117663207e-05
-0.46314259740174746,-0.46314259740174746,1.0000803052895972,6.785452589817382e-05
-0.46293821969011334,-0.46293821969011334,0.99995759332059,6.862502441900797e-05
-0.46264073400816413,-0.46264073400816413,0.9999891299037351,6.895181033177099e-05
-0.4623370858724229,-0.4623370858724229,1.0000274862454408,6.83169077456356e-05
-0.46215345252712725,-0.46215345252712725,1.0000184187037484,6.839659624722028e-05
-0.4620453349401942,-0.4620453349401942,1.000017135996671,6.830621515019164e-05
-0.46185732225712856,-0.46185732225712856,0.9999185078686574,6.820150403002489e-05
-0.4615808153350372,-0.4615808153350372,1.0000068934578654,6.762435680340497e-05
-0.461339502397459,-0.461339502397459,1.0000849814009112,6.815527487233301e-05
-0.46117209946678484,-0.46117209946678484,1.0000122164404615,6.872375819959511e-05
-0.46100259968079627,-0.46100259968079627,0.9999558172527079,6.811488106851436e-05
-0.460750853040372,-0.460750853040372,0.9999865000683027,6.773447864672857e-05
-0.46063823493313977,-0.46063823493313977,0.999945648700731,6.835658378615225e-05
-0.4604508165823063,-0.4604508165823063,1.0000272821523557,6.799188388235193e-05
-0.46005216451303566,-0.46005216451303566,0.999991893283546,6.770400484158075e-05
-0.45991937357757706,-0.45991937357757706,1.000071085856303,6.842972667254616e-05
-0.45977087946375833,-0.45977087946375833,1.000034255986894,6.827906945608562e-05
-0.45944860982126556,-0.45944860982126556,0.9998655198957247,6.865813756042036e-05
-0.4591468150349101,-0.4591468150349101,0.9999752776050647,7.006231663525833e-05
-0.45898679410747717,-0.45898679410747717,0.9999307380570673,6.878662849571146e-05
-0.45879170748230536,-0.45879170748230536,1.000017425652336,6.83074380046375e-05
-0.4585779610264581,-0.4585779610264581,0.999917254947672,6.840518276573921e-05
-0.4583373672066955,-0.4583373672066955,1.0000272465728475,6.888596678180463e-05
-0.458192738116486,-0.458192738116486,0.9998555448937548,6.805048000318425e-05
-0.4580124031868763,-0.4580124031868763,0.999986249684728,6.869713185621578e-05
-0.45785146646085195,-0.45785146646085195,1.0000606910095142,6.873718312375764e-05
-0.45765618662990165,-0.45765618662990165,0.999996765714028,6.850134658785215e-05
-0.45743121207051446,-0.45743121207051446,0.9998575336708775,6.908205271106014e-05
-0.45710800937376916,-0.45710800937376916,1.0000216661796386,6.813917631565413e-05
-0.456898036019993,-0.456898036019993,0.9999443330505049,6.914319784380548e-05
-0.45675265553873035,-0.45675265553873035,1.0000262642754525,6.925554566660053e-05
-0.4563926892791642,-0.4563926892791642,1.0000101580241645,6.868684426516085e-05
-0.4562107371719321,-0.4562107371719321,0.9999919760788061,6.807095700609074e-05
-0.45587742448260543,-0.45587742448260543,0.9999389181409761,6.846433960445486e-05
-0.4556661620066734,-0.4556661620066734,1.000085442549532,6.87965331771815e-05
-0.4555481692921603,-0.4555481692921603,1.0000830620745078,6.834098845911516e-05
-0.4553722231357824,-0.4553722231357824,1.000060554428863,6.819855718872238e-05
-0.4551078623306239,-0.4551078623306239,1.0000071320811874,6.885629349028659e-05
-0.4547230448864866,-0.4547230448864866,0.9999680389395678,6.870497135844227e-05
-0.454541920174961,-0.454541920174961,0.9998861203818681,6.835036564601479e-05
-0.4543213810888119,-0.4543213810888119,0.9999655632653848,6.846348892659051e-05
-0.45391054475912823,-0.45391054475912823,0.9999841697264529,6.811217410095634e-05
-0.45363471684977413,-0.45363471684977413,1.0000243300531138,6.802747141869567e-05
-0.45343535060528667,-0.45343535060528667,0.9999832431700669,6.788153448512018e-05
-0.45333759860950523,-0.45333759860950523,1.0000501565756876,6.840546356537889e-05
-0.45317531810724176,-0.45317531810724176,0.9999430045902782,6.8777795006626e-05
-0.45289065869874323,-0.45289065869874323,1.0000367088071171,6.792502923147397e-05
-0.4525753530295333,-0.4525753530295333,1.0001386293700327,6.864122558899893e-05
-0.4522781766398111,-0.4522781766398111,0.9999758189857311,6.794448921091937e-05
-0.45211389878822955,-0.45211389878822955,0.9999233185610692,6.925985656616805e-05
-0.45199787739838937,-0.45199787739838937,0.9999218574184784,6.756589801860781e-05
-0.4518023539247224,-0.4518023539247224,0.9999903342753225,6.810181642439012e-05
-0.4515511274221353,-0.4515511274221353,0.9999673364225969,6.815141825622956e-05
-0.45134984743199313,-0.45134984743199313,1.0001290294410001,6.761802058649638e-05
-0.4511787799099693,-0.4511787799099693,0.9999735047968544,6.898600542943177e-05
-0.4510036781313829,-0.4510036781313829,0.9998786289752942,6.836490825522796e-05
-0.4506892099772813,-0.4506892099772813,0.999923314982523,6.905337353624847e-05
-0.45057351284194735,-0.45057351284194735,1.0000275749187886,6.820817793860762e-05
-0.45022895362635607,-0.45022895362635607,0.9997909280102177,6.927298283222657e-05
-0.44997038479777984,-0.44997038479777984,0.9999128509205073,6.846072590624343e-05
-0.4497868707723683,-0.4497868707723683,1.0001584397285432,6.884280149334901e-05
-0.4495622431859374,-0.4495622431859374,0.9999266981064867,6.821583978356025e-05
-0.44934854744642505,-0.44934854744642505,1.0000841091653547,6.842572130852598e-05
-0.44914068626239895,-0.44914068626239895,1.0000841986797167,6.953831476295294e-05
-0.4489453140704427,-0.4489453140704427,1.0000293337851043,6.833965319010701e-05
-0.4486907022219384,-0.4486907022219384,0.9999935031847071,6.869822272174105e-05
-0.44854257275001147,-0.44854257275001147,0.9999881866392899,6.89774244077268e-05
-0.44834159553574865,-0.44834159553574865,0.9999739426445663,6.832625897829116e-05
-0.44803695795999376,-0.44803695795999376,0.9999570895270317,6.924735583947766e-05
-0.4478527029277757,-0.4478527029277757,1.0000772256333437,6.838933531874721e-05
-0.44758459446020427,-0.44758459446020427,1.0000287381716197,6.833190603344313e-05
-0.4471778180304682,-0.4471778180304682,1.0001132023991937,6.81584770831344e-05
-0.44691814539255575,-0.44691814539255575,0.9998952782137843,6.793343483739638e-05
-0.44677031483442986,-0.44677031483442986,1.0000183784269951,6.844342778761365e-05
-0.4465316890185932,-0.4465316890185932,1.0000025958696708,6.886171609875468e-05
-0.4461893645027885,-0.4461893645027885,0.9999380972386562,6.808564693438438e-05
-0.4459181738086045,-0.4459181738086045,0.9999536161658827,6.881376217454321e-05
-0.4457848644407932,-0.4457848644407932,1.0000038520880072,6.761552252376268e-05
-0.44555663110513705,-0.44555663110513705,1.0000700659012034,6.855510662876505e-05
-0.44530700395116585,-0.44530700395116585,1.00009948061854,6.924740373444443e-05
