time,time,flux,flux_err
-0.49988686139355804,-0.49988686139355804,0.9997026640015939,0.0003417949091651741
-0.49974216081682243,-0.49974216081682243,1.0000341026108723,0.00041119392051852595
-0.49959115028589923,-0.49959115028589923,1.0002305042600927,0.0003819378689715067
-0.4994384742807597,-0.4994384742807597,0.999827037103896,0.00031684325039966815
-0.49928515856154265,-0.49928515856154265,1.0000615662040846,0.00033204553618609823
-0.4992004602550878,-0.4992004602550878,0.9997946597936022,0.00034364436639387416
-0.49909979809308425,-0.49909979809308425,1.0000610816619973,0.00033069086861244675
-0.49899520999460945,-0.49899520999460945,1.0005070542619359,0.0003635349683537198
-0.4989433564667706,-0.4989433564667706,1.0002180491096593,0.00037138196684174734
-0.49885520357056523,-0.49885520357056523,1.0004017875263247,0.0003422656559440979
-0.49869390762905824,-0.49869390762905824,1.0005571328594223,0.00033431324579618493
-0.49856043660402066,-0.49856043660402066,0.9998382802674579,0.00032837397399009867
-0.4983542560439673,-0.4983542560439673,0.9998801164831737,0.0003407711140425787
-0.49826233849598794,-0.49826233849598794,0.9999472279144704,0.00033210804983225216
-0.4981253933394328,-0.4981253933394328,0.9999819786989314,0.0003378803787513044
-0.49805708908679663,-0.49805708908679663,0.9999333007391064,0.00033315386949132333
-0.4979374214046402,-0.4979374214046402,1.0001367480539387,0.00036265819494778076
-0.4978340984103852,-0.4978340984103852,0.9998664683018689,0.00034479358406803306
-0.49769176089321265,-0.49769176089321265,0.9995978038378075,0.0003591226088565956
-0.4975343258221983,-0.4975343258221983,0.9999827541863789,0.0003428113389184965
-0.4972128557754331,-0.4972128557754331,0.9999903779614936,0.00034785338591131426
-0.4970652653282741,-0.4970652653282741,0.9998550760760502,0.0003408311724887863
-0.4969649416860193,-0.4969649416860193,0.9998666234685863,0.00033037855582185234
-0.49676936281903183,-0.49676936281903183,0.9999654402822473,0.00037524282085532183
-0.49665566822804974,-0.49665566822804974,0.9997719483691927,0.0003420638346522363
-0.4965243647704483,-0.4965243647704483,1.0000504021172785,0.0003559220765636854
-0.4963670587996603,-0.4963670587996603,0.9998682387504433,0.0003173751362552055
-0.4963130458490923,-0.4963130458490923,0.9994859932244861,0.00034707627744342244
-0.496103662349924,-0.496103662349924,0.9999881665440723,0.0003381393184142064
-0.49595508261554644,-0.49595508261554644,1.0001006885819863,0.00033126841102504897
-0.49582391143630955,-0.49582391143630955,0.999687080874834,0.0003320466415880249
-0.49570189278165344,-0.49570189278165344,0.9990831376923095,0.0003501075954487011
-0.4956064420272014,-0.4956064420272014,0.9994474618937879,0.0003408167444685749
-0.4954567077336833,-0.4954567077336833,1.0000823433156205,0.0003674720809514998
-0.4953749189953669,-0.4953749189953669,1.0002725957961953,0.0003711899262958336
-0.49522818898403786,-0.49522818898403786,1.0000983075630352,0.0003621661544476722
-0.4950619941693731,-0.4950619941693731,1.0001991235499847,0.00034190851756609597
-0.4948846231898642,-0.4948846231898642,0.9999950671246776,0.0003360125222450398
-0.49477573517069684,-0.49477573517069684,1.0005982524139383,0.0003326962669371723
-0.4945618337005726,-0.4945618337005726,0.9997396750950696,0.00035539266871969426
-0.4943382327153813,-0.4943382327153813,1.0000313395932083,0.0003378367176981479
-0.49421658972714794,-0.49421658972714794,0.9999650380025965,0.00032553584668080853
-0.49410161704872735,-0.49410161704872735,1.0003579299836127,0.00035141485383592073
-0.49397074127628005,-0.49397074127628005,0.9996067446477749,0.00035066532263632413
-0.4938457096126513,-0.4938457096126513,1.000523539226452,0.00032788857061126503
-0.4937176298873965,-0.4937176298873965,0.9999431101565299,0.00034981147484379244
-0.49362837820808636,-0.49362837820808636,1.0001350654735341,0.0003723818030675967
-0.4935311352295685,-0.4935311352295685,1.0001273961479926,0.0003731868179766684
-0.49342598744260613,-0.49342598744260613,0.9997633303775636,0.0003223836236018059
-0.4932331656673341,-0.4932331656673341,1.0000292431929925,0.0003555894703151805
-0.4930564519643667,-0.4930564519643667,1.0003787833655104,0.0003321649766521812
-0.49288702257617845,-0.49288702257617845,0.9994761828047756,0.0003270105480774082
-0.49281074777391043,-0.49281074777391043,0.9997468064397639,0.0004646658797406343
-0.49273711036221357,-0.49273711036221357,1.0003956909010285,0.00034752301768840746
-0.4926521565153962,-0.4926521565153962,1.000085920920579,0.00036446708781564136
-0.4926069294233457,-0.4926069294233457,0.9995485478878843,0.00031403959102326354
-0.49250038330064855,-0.49250038330064855,0.9999151547817714,0.00031113692519111306
-0.4923878124784096,-0.4923878124784096,0.9998784516881722,0.00035935564530562974
-0.49214124942664056,-0.49214124942664056,1.0003146032624444,0.00034349064219312437
-0.4919449560489738,-0.4919449560489738,0.999832860125373,0.00034283304473271305
-0.4917933637116221,-0.4917933637116221,0.9998522176550473,0.00032684634662762097
-0.49168702558090444,-0.49168702558090444,0.9996061112739006,0.0003272387850335993
-0.4916106485601631,-0.4916106485601631,1.0003031888240976,0.0003272847839756993
-0.491562216434977,-0.491562216434977,1.0000293363755295,0.00035337805255614455
-0.49142929106747035,-0.49142929106747035,0.9998338386311882,0.0003505950986916731
-0.4912746680289274,-0.4912746680289274,1.0003089019671356,0.000326649229017443
-0.4910252027082606,-0.4910252027082606,1.000333832202201,0.0003294788362535238
-0.4909463178570149,-0.4909463178570149,1.0004541348637626,0.00035997409048701626
-0.4908424834953621,-0.4908424834953621,1.0003975450108622,0.0003363597084707132
-0.4907072843285277,-0.4907072843285277,1.000148921231156,0.00033975292051005075
-0.4905259364270023,-0.4905259364270023,1.0006461977697132,0.0003521128298279798
-0.4904357787410845,-0.4904357787410845,1.000032797015662,0.0003299157769319423
-0.490344588024891,-0.490344588024891,1.0001655130038716,0.0003459160378398555
-0.49021795476437546,-0.49021795476437546,0.9999562895612266,0.00034322503678240325
-0.4901146657415666,-0.4901146657415666,1.000259038623778,0.00031921072586323194
-0.48994862053659743,-0.48994862053659743,0.9999345595002804,0.000393639072028308
-0.48983491608087204,-0.48983491608087204,1.0004755517319048,0.00033676294780846317
-0.4897746854665456,-0.4897746854665456,0.9999792384330186,0.0003228812964849219
-0.4897128385564429,-0.4897128385564429,1.00029116273627,0.0003590941855367757
-0.48961801340192324,-0.48961801340192324,1.0002839056656243,0.00033941948964137935
-0.4894563809488318,-0.4894563809488318,1.0002780439123575,0.0003420808666010254
-0.48927726674446603,-0.48927726674446603,1.0004283747888594,0.00035176172383978506
-0.4890376558731077,-0.4890376558731077,0.9999736802647006,0.0003289286883918876
-0.48888998863840244,-0.48888998863840244,0.9997153099534536,0.00034356211041600376
-0.4887971110190847,-0.4887971110190847,1.0004115521601364,0.0003232804255433942
-0.488628435737337,-0.488628435737337,0.9999958728061704,0.0003451796707259087
-0.4885120679304237,-0.4885120679304237,1.00009901456612,0.000359150382264265
-0.4884732737991726,-0.4884732737991726,0.9996648064769275,0.0003542121272668181
-0.48838255762238986,-0.48838255762238986,0.9999444147901269,0.0003275671768726709
-0.4882437034480972,-0.4882437034480972,1.000343851264681,0.0003549506549507248
-0.48810636885173153,-0.48810636885173153,0.9999086674615058,0.0003735792951157309
-0.4879734275265946,-0.4879734275265946,0.999441937151388,0.0003083141634812759
-0.4877834423154127,-0.4877834423154127,1.000156632150927,0.00033464828454199294
-0.48766912160499487,-0.48766912160499487,1.0000891781357477,0.00035259036947446736
-0.48760949136485576,-0.48760949136485576,0.9998468428740562,0.0003344100426873751
-0.4874740123486845,-0.4874740123486845,0.9995980979384693,0.00034441235816681397
-0.4873370486020576,-0.4873370486020576,1.0000749976905,0.0003475338415700003
-0.4872588650570833,-0.4872588650570833,0.9999070593352224,0.00038331024454033556
-0.48715964620496377,-0.48715964620496377,1.0003057763336376,0.0003474310070661357
-0.4869658828203683,-0.4869658828203683,0.9997419953922784,0.00040009284377000775
-0.48690308274963173,-0.48690308274963173,1.0000783209492978,0.0003465377197972041
-0.48679433014185636,-0.48679433014185636,0.9999073154829308,0.00033156787900404566
-0.486687076088856,-0.486687076088856,1.0002624521719343,0.00031469182546241264
-0.4865643625947996,-0.4865643625947996,0.9998872210034804,0.0003349795065981074
-0.4864395687080105,-0.4864395687080105,0.9997763067343814,0.0003700624583022649
-0.4863731816090876,-0.4863731816090876,0.9997532039883655,0.000359448329954107
-0.48625538161577425,-0.48625538161577425,1.000184732503571,0.000350076718893452
-0.48611179372674085,-0.48611179372674085,1.0005146089348373,0.00036930837397279674
-0.48600086509250107,-0.48600086509250107,1.0002148873021859,0.00037156723135852495
-0.48588921546179337,-0.48588921546179337,0.9996395579159234,0.0003402529633826457
-0.4857335811466328,-0.4857335811466328,1.000736701640252,0.0003999085806566026
-0.485599143707077,-0.485599143707077,1.0003865983813072,0.0003443651589996839
-0.4854575818884769,-0.4854575818884769,1.0002265443669676,0.0003460492400203827
-0.48534524478163804,-0.48534524478163804,1.0001852530130042,0.0003436874431837921
-0.4852336879499489,-0.4852336879499489,0.9995545394087164,0.00036029303921719376
-0.4851457568525802,-0.4851457568525802,0.9999620195185713,0.00031888600570274394
-0.4850341157100047,-0.4850341157100047,0.9998006995986135,0.0003239083917215887
-0.484886010257469,-0.484886010257469,1.0003275321085308,0.00033829125347521196
-0.4847711750335293,-0.4847711750335293,1.0000807130391705,0.0003337934662560107
-0.4846925353631377,-0.4846925353631377,0.9995291619899593,0.0003465482169811032
-0.48458797573839546,-0.48458797573839546,0.9998046181414401,0.0003474841113123774
-0.48437339337106095,-0.48437339337106095,0.9999038469111493,0.00035432735902288617
-0.48429383487527955,-0.48429383487527955,1.0002210820453994,0.0003283795957373645
-0.48425526302744404,-0.48425526302744404,1.0003449191312406,0.000309966396274511
-0.4841995728682377,-0.4841995728682377,0.9997677892327733,0.00033956157859357707
-0.4841000970685855,-0.4841000970685855,1.0000831046827448,0.0003459078477935452
-0.4839333000432816,-0.4839333000432816,1.0000399774353905,0.0003564990178481806
-0.4838257783427252,-0.4838257783427252,1.0002372372830572,0.0003329179667855983
-0.48373668888089016,-0.48373668888089016,0.9997416362626378,0.0003406470805050085
-0.4835975533380406,-0.4835975533380406,1.000335997923355,0.0003481819165776813
-0.4834880962589523,-0.4834880962589523,1.0000439157653773,0.0003449436896408645
-0.48335840689251197,-0.48335840689251197,0.9998929341768916,0.00034507240672975023
-0.48321929716912565,-0.48321929716912565,0.9997809396925195,0.0003373249850294679
-0.4831071204374894,-0.4831071204374894,0.9995920718308617,0.00034623539793323706
-0.4830464141065022,-0.4830464141065022,0.9995796611773422,0.0005075272268973534
-0.4829967091878643,-0.4829967091878643,0.9994129867067872,0.00033376478754187444
-0.48286745289806277,-0.48286745289806277,0.9999924648126463,0.0003060589750014883
-0.4826458872877993,-0.4826458872877993,1.0001948539392413,0.00034531844140770217
-0.4825445677372045,-0.4825445677372045,0.9994998508610387,0.00035692095650603
-0.48243182294099823,-0.48243182294099823,1.0004515729619805,0.00034572573309911073
-0.48230824763159036,-0.48230824763159036,0.9999310385175926,0.0003343149794763396
-0.4821586360209039,-0.4821586360209039,0.9998368195368311,0.00034023214325114455
-0.48206341475452064,-0.48206341475452064,1.0000613944216687,0.00034283323628721263
-0.48192855098459403,-0.48192855098459403,1.0002461396988456,0.0003349856297674751
-0.48183320325333623,-0.48183320325333623,0.999838614039232,0.00044978130256023284
-0.4817789154141792,-0.4817789154141792,0.9999767338390934,0.0003198453523426126
-0.4816987027472351,-0.4816987027472351,0.9995670212075233,0.0003251258678784623
-0.4815029244331527,-0.4815029244331527,0.9999569852613582,0.00034734253894643164
-0.48138556566700574,-0.48138556566700574,1.0001474775238404,0.00033252573763475977
-0.48130246317305136,-0.48130246317305136,0.9997059248890192,0.0003376694499886629
-0.4812060554992058,-0.4812060554992058,0.9997535749877594,0.00032085489169845545
-0.48101056573505047,-0.48101056573505047,1.0000128795144823,0.00036414933117739337
-0.4808544719897327,-0.4808544719897327,0.9998595667545507,0.000353189546743885
-0.4808033793378854,-0.4808033793378854,0.9999259407111569,0.0003468933296594478
-0.48068046100379436,-0.48068046100379436,0.9994395705788544,0.00037240094819684266
-0.4806082548908307,-0.4806082548908307,1.0002773087830632,0.0003350760744743813
-0.480505413976789,-0.480505413976789,1.0002487576729713,0.00036474491114519945
-0.4803472483836231,-0.4803472483836231,1.0001953408186892,0.0003406239196735572
-0.48016542097757337,-0.48016542097757337,0.9993686381539613,0.0003947406445990897
-0.48005597766605207,-0.48005597766605207,0.9998017443801258,0.00032876475035500187
-0.4799123037591926,-0.4799123037591926,0.9997995370909003,0.0003390740515866517
-0.479624168711598,-0.479624168711598,1.000069002093606,0.00035330362019140156
-0.47951357918063875,-0.47951357918063875,1.0000879765609554,0.0003439671281463145
-0.4794512931533973,-0.4794512931533973,1.0000406457177249,0.0003142105240838997
-0.4793659685499733,-0.4793659685499733,1.0001530081031471,0.00033236860149844555
-0.4792240595561452,-0.4792240595561452,0.9997230874278777,0.00033204001155974613
-0.47908528646366905,-0.47908528646366905,0.9993454539708069,0.00033726569656005346
-0.47895340805262093,-0.47895340805262093,1.0002471063014968,0.00034087295451526163
-0.4788666381602525,-0.4788666381602525,0.9999400803808663,0.00036332136462406846
-0.47873794091574384,-0.47873794091574384,0.9998772830831847,0.0003352568954728958
-0.4786157598748105,-0.4786157598748105,1.0000844754130747,0.0003480032825340624
-0.47846740313252667,-0.47846740313252667,0.9999480960782329,0.00031883223683322183
-0.4783625867305091,-0.4783625867305091,0.9996666029520374,0.00033826010249214406
-0.47826160361873915,-0.47826160361873915,1.0001341026796768,0.00032853562890042926
-0.47816385748737955,-0.47816385748737955,0.9993113803483276,0.0003452762792375237
-0.47807772116648267,-0.47807772116648267,0.99992732648487,0.00033160594084648086
-0.4779314035389689,-0.4779314035389689,1.0000367873532086,0.0003271252345020953
-0.47778935044334503,-0.47778935044334503,1.000270940438914,0.00031731928979702366
-0.4777035541846999,-0.4777035541846999,0.9999873582771726,0.00035855403989451816
-0.47761242695414696,-0.47761242695414696,0.9998429488155196,0.00032871565903328626
-0.4775368687216542,-0.4775368687216542,1.0004494499224132,0.0003423358232271644
-0.47730733296630207,-0.47730733296630207,1.0000906423664537,0.0003304553157932754
-0.47712151679006637,-0.47712151679006637,1.0005038034284535,0.0003878138480828847
-0.4770094054925721,-0.4770094054925721,0.9999198442442188,0.0003489140096107189
-0.4768767804285744,-0.4768767804285744,0.9997738925959375,0.0003143067024744889
-0.47675172083691,-0.47675172083691,0.9999411404381219,0.0003354307250155695
-0.4766296102461638,-0.4766296102461638,1.0001114299097495,0.00034511855347719067
-0.4765608077010256,-0.4765608077010256,1.0001159943513955,0.00032965331080290263
-0.47642468407575506,-0.47642468407575506,0.999986142693843,0.00033257704513449274
-0.47636112670297737,-0.47636112670297737,0.9999011482899818,0.0005447850578657308
-0.47630022837547586,-0.47630022837547586,0.999977700337307,0.00033406522836709263
-0.4761343388687237,-0.4761343388687237,0.9994754972455476,0.0003377825497308545
-0.47593292703677437,-0.47593292703677437,1.0001063221416526,0.0003288726922777823
-0.4757657340975129,-0.4757657340975129,1.000064871665114,0.0003414594536218825
-0.475664601920289,-0.475664601920289,0.9997630635414403,0.0003320093985639781
-0.4755196870202781,-0.4755196870202781,0.9996298923259215,0.0003347292671474096
-0.4754273431142792,-0.4754273431142792,0.9996978221854531,0.000325983511700095
-0.4753078374254983,-0.4753078374254983,0.9995751329852542,0.0003478376405349484
-0.4752004592330195,-0.4752004592330195,1.0007421532204634,0.00037617505069212993
-0.47508287361852125,-0.47508287361852125,0.9999469950850509,0.00033484068106433106
-0.4748817586048972,-0.4748817586048972,0.9999726380739442,0.00034640387471405776
-0.4746136382993427,-0.4746136382993427,0.9999770818122645,0.0003426764532997744
-0.4744831640084158,-0.4744831640084158,0.9996888356245004,0.0003258486468801661
-0.47440369589457987,-0.47440369589457987,1.0004176049112288,0.0003377026929469728
-0.47421144833497236,-0.47421144833497236,0.9998347604577564,0.0003627088830666351
-0.47407113476365337,-0.47407113476365337,1.000033901377479,0.00033596114151604375
-0.4739506442376296,-0.4739506442376296,0.9994874688612801,0.000352919957534519
-0.4738195809943136,-0.4738195809943136,0.9998509206741071,0.0003080377343807668
-0.47373946399311534,-0.47373946399311534,1.0003688763881862,0.0003215653420355025
-0.47367014537012436,-0.47367014537012436,0.9998111596856167,0.0003417552796877599
-0.4733896321049542,-0.4733896321049542,0.9999477253542816,0.0003287746487783421
-0.47324624229513573,-0.47324624229513573,0.9998670263764394,0.00033650805959851374
-0.4731104946753476,-0.4731104946753476,1.0003555212981123,0.0003500013053425525
-0.4730126751062926,-0.4730126751062926,0.9999791439718347,0.00033871550369667726
-0.4729060817073332,-0.4729060817073332,0.9998553667704565,0.0003241156103087401
-0.47278782085195414,-0.47278782085195414,1.0002755855329168,0.00033592950352687433
-0.4727051221227157,-0.4727051221227157,1.0002327359357657,0.00034683676355688937
-0.4725641357494169,-0.4725641357494169,1.000269200258129,0.00037318120531662166
-0.47241231534280814,-0.47241231534280814,1.0000948471149635,0.00031599008116324956
-0.472260919684777,-0.472260919684777,0.9999193048738123,0.00033560512190897694
-0.47215577512688467,-0.47215577512688467,0.9997641407905189,0.0003444243221006829
-0.4719666975172004,-0.4719666975172004,1.000194645108965,0.0003537145511982558
-0.47177784385421545,-0.47177784385421545,1.0000689138715244,0.00034734297643200637
-0.47158312085230136,-0.47158312085230136,1.0000180986975589,0.00034249756566020746
-0.47145358706038676,-0.47145358706038676,1.0002905190905451,0.0003470233059120711
-0.47134951380430723,-0.47134951380430723,0.9999424375784756,0.0003500209973460926
-0.4712244474329054,-0.4712244474329054,1.0002467458987516,0.00032587180467463447
-0.4711084875802044,-0.4711084875802044,0.999917468559034,0.00034895266819183235
-0.47097690549417165,-0.47097690549417165,1.0001718964619482,0.0003397482838996958
-0.47078473315923475,-0.47078473315923475,1.0000500373153665,0.00039990759308692546
-0.47057760528114156,-0.47057760528114156,1.0001206715849866,0.00034338958178270956
-0.4704451055382378,-0.4704451055382378,0.9997862143006314,0.00033159665733362826
-0.47025921661988834,-0.47025921661988834,1.0002935680694078,0.0003430047913608249
-0.4701785284138168,-0.4701785284138168,0.999364924231864,0.00046117864843687334
-0.4700640821334673,-0.4700640821334673,1.0000014066594365,0.00036408270608693334
-0.4700213501462713,-0.4700213501462713,0.9998990813493348,0.00032544462337036627
-0.4699023215318448,-0.4699023215318448,0.9999101998404584,0.00031638278835516016
-0.4697957232623594,-0.4697957232623594,1.0001264483477512,0.00034942728857717434
-0.4696291840969934,-0.4696291840969934,0.9998051077683486,0.00033889881433593237
-0.46943041568883925,-0.46943041568883925,1.000351692630496,0.0003438110502105104
-0.4692536939415731,-0.4692536939415731,1.000299917591835,0.00033999141533470683
-0.46906922131311146,-0.46906922131311146,1.0003185312327783,0.00032668349278764346
-0.4689904914208455,-0.4689904914208455,0.9998928105594939,0.0003539473748324321
