time,time,flux,flux_err
-0.49955524874603724,-0.49955524874603724,0.999976471092298,5.5428493171408386e-05
-0.4978516189046786,-0.4978516189046786,0.9999746222886928,5.531112551975212e-05
-0.4928241426758177,-0.4928241426758177,0.9999771216244191,5.50043210845477e-05
-0.48962230473334784,-0.48962230473334784,1.000145066776581,5.534864032121017e-05
-0.4877190220293414,-0.4877190220293414,1.0000364684443004,5.529075930658725e-05
-0.48661746064171896,-0.48661746064171896,1.0000186650829241,5.5462853491091595e-05
-0.4856491354214086,-0.4856491354214086,1.0000495185324894,5.546144201406423e-05
-0.48454789991301367,-0.48454789991301367,0.9999218803645202,5.567133585597446e-05
-0.4837565664311114,-0.4837565664311114,1.0000148108917866,5.535753930750698e-05
-0.48230268366387463,-0.48230268366387463,1.0001949065455276,5.512133384008521e-05
-0.4804227925465966,-0.4804227925465966,1.0000302791988929,5.530024270237255e-05
-0.47751757944788553,-0.47751757944788553,1.000103969897958,5.5358956321012364e-05
-0.4760675507946871,-0.4760675507946871,1.0000272377715056,5.515659920146942e-05
-0.474652016152686,-0.474652016152686,1.000012602351136,5.507271714519325e-05
-0.473357455322548,-0.473357455322548,1.0000334996592717,5.512441034629665e-05
-0.47248859920509856,-0.47248859920509856,0.9999220829852742,5.571188437438871e-05
-0.47175176937744256,-0.47175176937744256,1.0000112702425625,5.531891857967666e-05
-0.4711245683138259,-0.4711245683138259,0.9998793496463753,5.528054404934361e-05
-0.4701670338770782,-0.4701670338770782,1.0001160221457153,5.552973981239414e-05
-0.468961631169077,-0.468961631169077,0.9999464622261256,5.554278582636283e-05
-0.46768059350870317,-0.46768059350870317,1.0000519099288736,5.538234653257072e-05
-0.46633662727981573,-0.46633662727981573,1.0000312930011777,5.5312285836709785e-05
-0.4649096462671878,-0.4649096462671878,0.9998866648956872,5.530163331411372e-05
-0.4633240215523983,-0.4633240215523983,0.9999750874056039,5.523320083247544e-05
-0.4623649230779847,-0.4623649230779847,1.000026508779234,5.503850443604945e-05
-0.46157742190625867,-0.46157742190625867,1.0001819040076054,5.526019657104562e-05
-0.4604863881439087,-0.4604863881439087,0.9999702780601695,5.547298554956998e-05
-0.45963937828273627,-0.45963937828273627,1.0000044829240493,5.50230291864017e-05
-0.4588343437972071,-0.4588343437972071,0.9999321928370545,5.536623976274891e-05
-0.4579365932222572,-0.4579365932222572,1.0000748262626802,5.528820123607592e-05
-0.4568605896376539,-0.4568605896376539,0.9999747877559182,5.535440852207154e-05
-0.45547690272287583,-0.45547690272287583,0.9999966480945892,5.553199028611684e-05
-0.45451692667556925,-0.45451692667556925,0.9998913407685898,5.532898064351543e-05
-0.45367910031200154,-0.45367910031200154,0.9998633487101325,5.539241582390948e-05
-0.4527682780259056,-0.4527682780259056,1.000020857312078,5.533576029501056e-05
-0.45196368492470357,-0.45196368492470357,0.9999625877842838,5.522544267904757e-05
-0.45099573441184476,-0.45099573441184476,0.9997853662517482,5.517189367842902e-05
-0.45018089226359737,-0.45018089226359737,0.999910120767292,5.5258386466667186e-05
-0.44928758039095557,-0.44928758039095557,0.9998474766617598,5.518839263414268e-05
-0.4481968380801845,-0.4481968380801845,0.9998995540901081,5.518352447760466e-05
-0.4466194209337118,-0.4466194209337118,0.9999727867816779,5.5310835176193886e-05
-0.44554417505278254,-0.44554417505278254,1.0000334779650006,5.5165290327987994e-05
-0.44447940318423207,-0.44447940318423207,1.000007407974446,5.513553971251774e-05
-0.44349853361200076,-0.44349853361200076,0.9999724746416698,5.524110035160154e-05
-0.442681666478893,-0.442681666478893,1.0000627102666277,5.5143063942516616e-05
-0.4416518105681462,-0.4416518105681462,0.9998989579247759,5.5189542508590795e-05
-0.44038717151852325,-0.44038717151852325,0.9999190583970042,5.523887829503377e-05
-0.4394867390525178,-0.4394867390525178,1.0000578470181423,5.507172893011306e-05
-0.4385930864766124,-0.4385930864766124,1.0001022258940684,5.5264270414711095e-05
-0.43739224662422205,-0.43739224662422205,1.0000059132120065,5.531298113715474e-05
-0.43652845473916385,-0.43652845473916385,0.9999819377349228,5.524206548805878e-05
-0.43538730606233,-0.43538730606233,0.9999826125701767,5.5254784359949315e-05
-0.4329498585073452,-0.4329498585073452,0.999774868230751,5.546142798627347e-05
-0.4293120509915752,-0.4293120509915752,1.0000906930615578,5.5212043966638326e-05
-0.4276851400180021,-0.4276851400180021,0.9999411341479718,5.525056397796224e-05
-0.42639241159631636,-0.42639241159631636,0.9999940834121057,5.496934074217811e-05
-0.4251206272521813,-0.4251206272521813,0.9999443883931466,5.496580150174574e-05
-0.4240755995539075,-0.4240755995539075,1.0000997860080767,5.5045746715079254e-05
-0.4217488326052262,-0.4217488326052262,1.0000207502920655,5.5347429816065434e-05
-0.41970722624610063,-0.41970722624610063,1.000074766700898,5.5066552699672566e-05
-0.4183891362794384,-0.4183891362794384,0.9999689368309003,5.50418357626839e-05
-0.4174840016363305,-0.4174840016363305,1.0000161884065495,5.513470350221924e-05
-0.41632066423699143,-0.41632066423699143,1.000133069865345,5.508880495013643e-05
-0.41500514753934115,-0.41500514753934115,1.0000182688882553,5.5289032565465365e-05
-0.41351589001351385,-0.41351589001351385,1.0000307750849458,5.494468191067236e-05
-0.41145873546483924,-0.41145873546483924,1.0000012162471985,5.516627035865965e-05
-0.40975162528047804,-0.40975162528047804,0.9999665428903685,5.499895696366298e-05
-0.40761785755239544,-0.40761785755239544,0.9999507277205197,5.524061185752143e-05
-0.4037885143843596,-0.4037885143843596,0.999883902361033,5.5301038228950595e-05
-0.40247294236542075,-0.40247294236542075,0.9997384697956937,5.536561791830649e-05
-0.4016652067242831,-0.4016652067242831,0.9998922665130561,5.539164038320253e-05
-0.400879452474328,-0.400879452474328,0.999917341332754,5.51715069126778e-05
-0.3998189767175063,-0.3998189767175063,1.0000430002009142,5.533069327307423e-05
-0.39879104122155695,-0.39879104122155695,0.9999758728775963,5.553352910258755e-05
-0.3941108497252571,-0.3941108497252571,0.9999680482317954,5.530456361876509e-05
-0.39226049963472176,-0.39226049963472176,1.0000004094091712,5.504978097684408e-05
-0.389159877475322,-0.389159877475322,1.0000501247994456,5.5356574639595825e-05
-0.38763821280590494,-0.38763821280590494,0.9999271693894742,5.535649703011638e-05
-0.3867142952054564,-0.3867142952054564,1.000054641526971,5.546133554521335e-05
-0.3857459666345676,-0.3857459666345676,1.0000117306100222,5.546348569889557e-05
-0.3846447054071177,-0.3846447054071177,0.9999179675801273,5.567151399568874e-05
-0.38329123508301566,-0.38329123508301566,0.9999422302459129,5.533933732733303e-05
-0.381640040397906,-0.381640040397906,0.9999369396613818,5.5332230401971575e-05
-0.37944345813666586,-0.37944345813666586,0.9999862000715039,5.5144559250962826e-05
-0.3767793461345718,-0.3767793461345718,0.9999925379545,5.50916280889876e-05
-0.3756302066729404,-0.3756302066729404,0.999962596946354,5.5233084709029184e-05
-0.3744252242555376,-0.3744252242555376,0.9999261689223374,5.485443081084184e-05
-0.37327448865689805,-0.37327448865689805,0.9999260223749115,5.5309118340005244e-05
-0.3724074897465471,-0.3724074897465471,1.0000465456913425,5.553085670413807e-05
-0.3715534431670676,-0.3715534431670676,1.0000107253872113,5.5333037520402116e-05
-0.37065526146907357,-0.37065526146907357,0.9999313788438797,5.5532033330017155e-05
-0.36958727019809884,-0.36958727019809884,0.9999700399088102,5.550137580323892e-05
-0.3682947075132688,-0.3682947075132688,1.0001168157917313,5.5621032716737524e-05
-0.3668441212219477,-0.3668441212219477,1.0000622356450737,5.532720905951682e-05
-0.3653926350074471,-0.3653926350074471,0.999994924022275,5.545617878498049e-05
-0.3636751470832678,-0.3636751470832678,1.000040409236006,5.5249165665475843e-05
-0.3625251498604484,-0.3625251498604484,1.000035275886306,5.506692304657318e-05
-0.36168986431366645,-0.36168986431366645,0.9999157996561779,5.5311212749326205e-05
-0.3607837139905314,-0.3607837139905314,1.0001910966534715,5.5421046921534675e-05
-0.3598786611924879,-0.3598786611924879,1.0000353733410914,5.519430220858021e-05
-0.35892510080884676,-0.35892510080884676,0.9999479890689198,5.5415789836779575e-05
-0.35797182552705636,-0.35797182552705636,0.999984371267522,5.529552797078574e-05
-0.3566621083075006,-0.3566621083075006,0.9999379690289641,5.551444511538306e-05
-0.355518036835565,-0.355518036835565,0.9999684592949987,5.5306045156750005e-05
-0.3546140875347191,-0.3546140875347191,0.9999348350839383,5.533028850508895e-05
-0.35354486944997915,-0.35354486944997915,0.9998996729127306,5.5442407631426805e-05
-0.35274175651939005,-0.35274175651939005,0.9998855508651673,5.5345007813125736e-05
-0.35170641296645044,-0.35170641296645044,0.9999573856973104,5.5128889711563244e-05
-0.3509286474909459,-0.3509286474909459,1.0000006714276732,5.5149889220586226e-05
-0.3502781486167805,-0.3502781486167805,0.9999419106938635,5.525713479157009e-05
-0.34938427119341214,-0.34938427119341214,1.000072181727363,5.519151188071644e-05
-0.34829397662033446,-0.34829397662033446,0.9999087683008987,5.518296115001549e-05
-0.3467165091096831,-0.3467165091096831,1.0000459278825322,5.531181697290641e-05
-0.3455449069180759,-0.3455449069180759,0.9999736765083398,5.5136220296058714e-05
-0.3444518788382993,-0.3444518788382993,1.000039795490478,5.514351006878032e-05
-0.3435918918294192,-0.3435918918294192,0.9999613557681085,5.516616310901228e-05
-0.3427123122448393,-0.3427123122448393,1.000023039633388,5.5174239548910375e-05
-0.34145875064641584,-0.34145875064641584,0.99994878882897,5.524659645430634e-05
-0.3403736742584442,-0.3403736742584442,0.9999187518331988,5.5145329104598975e-05
-0.33935313692491037,-0.33935313692491037,0.9998889429821869,5.515907594742712e-05
-0.3381874495637021,-0.3381874495637021,0.9999212428005333,5.5270107753501635e-05
-0.33727220021100945,-0.33727220021100945,0.9999568488979854,5.52846870497299e-05
-0.33641820971533887,-0.33641820971533887,0.9999278027975962,5.523005395663163e-05
-0.3354317427227215,-0.3354317427227215,0.9999521872071891,5.530259178771228e-05
-0.3331494228288648,-0.3331494228288648,0.9999778396704752,5.5255723945858995e-05
-0.3298661288434232,-0.3298661288434232,1.0001312549514132,5.5303426172154426e-05
-0.32807278914915516,-0.32807278914915516,0.9999949846743877,5.499504351118402e-05
-0.3268653890409041,-0.3268653890409041,0.9998855609127167,5.498092440638627e-05
-0.3257064690849802,-0.3257064690849802,0.999970314903029,5.496176880377534e-05
-0.3245486973042716,-0.3245486973042716,0.9999210775766001,5.492433759988493e-05
-0.3224231758918904,-0.3224231758918904,0.999993400700028,5.5339854592546834e-05
-0.3197446525315172,-0.3197446525315172,0.9999507862644276,5.52718296349195e-05
-0.3182844401293551,-0.3182844401293551,1.000038292396234,5.5066250983882445e-05
-0.3171511416301655,-0.3171511416301655,0.9999078208889666,5.523526805893305e-05
-0.3157576997604338,-0.3157576997604338,0.9999049194164261,5.522185484669536e-05
-0.3144942556413298,-0.3144942556413298,0.999972254434006,5.510828426558595e-05
-0.31284378283453407,-0.31284378283453407,0.9998876091875706,5.5126229555215006e-05
-0.3112719487537106,-0.3112719487537106,0.9999987379149557,5.515796924482141e-05
-0.30984854790440297,-0.30984854790440297,0.9999214218396787,5.499663501805066e-05
-0.30798465217740156,-0.30798465217740156,0.9999604609417801,5.4938703204065177e-05
-0.3046132989911712,-0.3046132989911712,0.999895684277854,5.520088944288928e-05
-0.3027879847089935,-0.3027879847089935,0.9999900439753582,5.558751768463344e-05
-0.3019870607597113,-0.3019870607597113,0.9999467542034759,5.5421957277533206e-05
-0.3011807181072072,-0.3011807181072072,0.9999726012974779,5.5392936351833e-05
-0.30033838328090495,-0.30033838328090495,0.9999425382557681,5.5334004753123726e-05
-0.29924891446135005,-0.29924891446135005,1.0000216995741882,5.5338378113918476e-05
-0.29626126725852375,-0.29626126725852375,0.9999484082385057,5.51796213626025e-05
-0.29303317576632254,-0.29303317576632254,0.9999956050511816,5.529452759287806e-05
-0.2903976509172935,-0.2903976509172935,0.9999255190424312,5.512522910326537e-05
-0.28822977385643755,-0.28822977385643755,1.0000017126473237,5.5350098669949656e-05
-0.28720049848634516,-0.28720049848634516,1.0000141092059736,5.5330104526118074e-05
-0.2862301478642621,-0.2862301478642621,1.0000656989885726,5.545851951700711e-05
-0.28540838581029676,-0.28540838581029676,0.9999536013826132,5.54918774136861e-05
-0.2843531475133204,-0.2843531475133204,1.0000219712882443,5.5675115186722165e-05
-0.28251364900716,-0.28251364900716,0.9998861953196728,5.534069249695397e-05
-0.2805003816152748,-0.2805003816152748,1.0000465712361841,5.536974042490481e-05
-0.2773282780166483,-0.2773282780166483,0.9999487186073658,5.508258143711662e-05
-0.27585674619913336,-0.27585674619913336,1.0000001135227392,5.5120473582744446e-05
-0.27477133803768083,-0.27477133803768083,1.0000950521901155,5.4936162904596514e-05
-0.27349049085751176,-0.27349049085751176,1.0000377077024447,5.521655195203553e-05
-0.2728749144662288,-0.2728749144662288,1.0000119927320947,5.551184398236268e-05
-0.271946030525578,-0.271946030525578,0.9999193541198329,5.531464501049683e-05
-0.27114287349322697,-0.27114287349322697,0.9999739823846706,5.552661688618426e-05
-0.27016940432586123,-0.27016940432586123,0.9999627207615889,5.552610003652114e-05
-0.2687964366079541,-0.2687964366079541,0.9999878491198478,5.542986726995075e-05
-0.2676228924479801,-0.2676228924479801,1.0000566703375697,5.5659317608311704e-05
-0.26597207118393273,-0.26597207118393273,1.000074536789837,5.529708946253705e-05
-0.2640629946130503,-0.2640629946130503,1.000099584154571,5.519618756204136e-05
-0.26281999354978325,-0.26281999354978325,0.999886692594156,5.52151032204484e-05
-0.26201546550364585,-0.26201546550364585,0.9999343149770741,5.50774136903403e-05
-0.2610785639830283,-0.2610785639830283,0.9998868943934252,5.529781391839803e-05
-0.25990530427370684,-0.25990530427370684,1.000117302012054,5.541678274855681e-05
-0.25882272012822793,-0.25882272012822793,1.0001059233810863,5.547892711955504e-05
-0.25777188062056666,-0.25777188062056666,0.9999865363643845,5.53764480575783e-05
-0.2568102817851468,-0.2568102817851468,1.0000357145364318,5.5314677937555546e-05
-0.255882814584038,-0.255882814584038,0.9999522747790547,5.539304093802638e-05
-0.25481096483563304,-0.25481096483563304,0.9999339386324392,5.532650897827276e-05
-0.2536266273840738,-0.2536266273840738,1.0000618780978336,5.5586955183579e-05
-0.25264205410785506,-0.25264205410785506,0.9999178396612537,5.530663297183974e-05
-0.25150281051173806,-0.25150281051173806,0.9999542790176073,5.524419590788285e-05
-0.2507073280699842,-0.2507073280699842,1.0000413084239062,5.509342067765784e-05
-0.24987075498938793,-0.24987075498938793,0.9999126963364328,5.5072025214129264e-05
-0.24906563757176628,-0.24906563757176628,0.9999681850899208,5.527933430293742e-05
-0.2477505946306337,-0.2477505946306337,1.0000112094422111,5.527577835278214e-05
-0.2463729537310428,-0.2463729537310428,1.0000193259728463,5.513516614194429e-05
-0.24536075154901482,-0.24536075154901482,0.9999929572897708,5.523158671270075e-05
-0.24435470755270217,-0.24435470755270217,0.9999690885100291,5.514129520127526e-05
-0.24349492732362704,-0.24349492732362704,0.9999388166229666,5.51629790608423e-05
-0.24261274681412032,-0.24261274681412032,1.0000105409612747,5.517956258408995e-05
-0.24162484133485124,-0.24162484133485124,1.00006396443731,5.537490190185902e-05
-0.24058199456194415,-0.24058199456194415,0.9998729678884398,5.5239467011968814e-05
-0.23945052002818557,-0.23945052002818557,1.000005465046359,5.5162050834161734e-05
-0.23845976842494565,-0.23845976842494565,0.9999007175188677,5.5173574549688244e-05
-0.23756223671152837,-0.23756223671152837,1.0000028266009937,5.529699813471232e-05
-0.23651516197060118,-0.23651516197060118,1.0000553572051798,5.523351472082131e-05
-0.23544394522614312,-0.23544394522614312,1.0000552455792602,5.548039697497063e-05
-0.2321991481781879,-0.2321991481781879,1.0000984287482946,5.508008645999523e-05
-0.22942379607120528,-0.22942379607120528,1.0000826366811693,5.5314347792500534e-05
-0.22747202623286283,-0.22747202623286283,1.0000200350767643,5.503283300487451e-05
-0.22604571683114044,-0.22604571683114044,1.000078024543219,5.4937009238880656e-05
-0.22472777534858324,-0.22472777534858324,0.9999858559144732,5.495766397878441e-05
-0.22245005428267178,-0.22245005428267178,0.9999656163244731,5.5216443460517115e-05
-0.2200862779020099,-0.2200862779020099,1.0000645083261197,5.519675461200016e-05
-0.21876829166067183,-0.21876829166067183,0.9999469906126022,5.506046140631172e-05
-0.217608664445288,-0.217608664445288,1.00003385777963,5.507110366252537e-05
-0.216265344171552,-0.216265344171552,0.9999120879377881,5.524956530146245e-05
-0.2148716875752143,-0.2148716875752143,0.99992503663517,5.511366449801752e-05
-0.21348147006792714,-0.21348147006792714,0.9999856909655509,5.5047336354387956e-05
-0.21229578076527106,-0.21229578076527106,0.999988131669358,5.509114498467267e-05
-0.21107424542642547,-0.21107424542642547,1.0000849899557858,5.517264440449638e-05
-0.20956954890498308,-0.20956954890498308,1.0000420928951113,5.5018044821970856e-05
-0.2079904866463039,-0.2079904866463039,1.0001029658620424,5.499844311310886e-05
-0.20563875824736896,-0.20563875824736896,1.000090844244678,5.4952109145186655e-05
-0.20288455695845187,-0.20288455695845187,0.9999618155579315,5.558919791763765e-05
-0.20173398800980066,-0.20173398800980066,1.0000390101771206,5.5399120916534885e-05
-0.2010234234345262,-0.2010234234345262,1.0000429235803843,5.517428090655985e-05
-0.20008167726773535,-0.20008167726773535,0.9999494802656249,5.557187961219603e-05
-0.1983468830563652,-0.1983468830563652,1.0000407302308698,5.535551461136879e-05
-0.19497960824592156,-0.19497960824592156,0.9999733648858203,5.5378359818110715e-05
-0.1920992760627996,-0.1920992760627996,1.0000657774168078,5.497212152825824e-05
-0.18886687459089443,-0.18886687459089443,1.0000471675772389,5.5342198394810766e-05
-0.18750567047754885,-0.18750567047754885,1.0000856138363603,5.556336857166524e-05
-0.18657351674119127,-0.18657351674119127,0.9999619108126427,5.54360890017414e-05
-0.18589356848970057,-0.18589356848970057,0.9999660748972072,5.549703962744161e-05
-0.18479556041565956,-0.18479556041565956,1.0000287398515546,5.5689931436189904e-05
-0.18329971987113822,-0.18329971987113822,0.9999821416226101,5.546986329370736e-05
-0.18185053559573133,-0.18185053559573133,0.9999493277852516,5.517361860058223e-05
-0.18076098540404928,-0.18076098540404928,1.0000673331823642,5.530636062404361e-05
-0.1785528169501049,-0.1785528169501049,0.9998983715060866,5.4923253482454064e-05
-0.17625977855204839,-0.17625977855204839,1.0000380478872894,5.508487485507028e-05
-0.17514826288606855,-0.17514826288606855,1.000022235563499,5.515636379337769e-05
-0.1740412432991434,-0.1740412432991434,0.9999698858349448,5.527019840510868e-05
-0.17312493780846125,-0.17312493780846125,1.0000386743129253,5.531094708482322e-05
-0.17211370777513366,-0.17211370777513366,1.000034817962597,5.5538713436749506e-05
-0.1710453642983339,-0.1710453642983339,1.0000700931274182,5.553369314523644e-05
-0.16998459011010708,-0.16998459011010708,0.9999742723885797,5.5319740180331825e-05
-0.16889041085742065,-0.16889041085742065,1.0000194755076741,5.54283097907361e-05
-0.16790061879510176,-0.16790061879510176,1.0000206779696286,5.566204694093818e-05
-0.16617451770725894,-0.16617451770725894,0.9999579714999071,5.546222352627925e-05
-0.16416063005672185,-0.16416063005672185,1.0002640192737542,5.5193665781398564e-05
-0.1628019079180376,-0.1628019079180376,0.9999164447273448,5.523320008306063e-05
-0.16187046591367107,-0.16187046591367107,0.9999802755885538,5.525470711158421e-05
-0.16077924160053952,-0.16077924160053952,0.9999680037759827,5.5472026072920976e-05
