time,time,flux,flux_err
-0.4998620056382303,-0.4998620056382303,0.9999313673588143,0.0001848999640589428
-0.4997017805217183,-0.4997017805217183,0.9999479447697475,0.00018658111609504746
-0.49958936432328,-0.49958936432328,0.999829379326607,0.0001808202389159451
-0.4994081524986541,-0.4994081524986541,1.0000426589330864,0.0001650986211906822
-0.49922660053998696,-0.49922660053998696,0.9999477097252356,0.00016798466462414414
-0.4990663609671174,-0.4990663609671174,1.0000952025313015,0.0001666909928918264
-0.49899099608883263,-0.49899099608883263,0.9999904476556327,0.00016604544657917384
-0.49889666959934403,-0.49889666959934403,1.0000285223732461,0.00016784571175651743
-0.4987681025872007,-0.4987681025872007,1.000029100619638,0.0001658951567442975
-0.49864368720154745,-0.49864368720154745,0.9999367927505476,0.00017257261332539905
-0.4984803995495895,-0.4984803995495895,0.9998994955240553,0.0001662055106476417
-0.49834160596074073,-0.49834160596074073,1.0000340957232248,0.00016009317773517276
-0.49819527521904095,-0.49819527521904095,0.9997412819067257,0.00016515809709063603
-0.4981243535701651,-0.4981243535701651,0.9999162896259042,0.0001567589798063416
-0.49801562274515165,-0.49801562274515165,1.0000986865818136,0.0001717335693827774
-0.49791296538896856,-0.49791296538896856,0.9999666990843853,0.0001625313279063811
-0.4978396616032114,-0.4978396616032114,0.9997813515135237,0.00015258424121405715
-0.49767527758085633,-0.49767527758085633,1.0000348882915093,0.00015894927710835923
-0.4975850901188096,-0.4975850901188096,0.999959482332628,0.00016947283699356362
-0.4974463341903174,-0.4974463341903174,0.9999751250764468,0.00016033072370681554
-0.497335056294105,-0.497335056294105,0.9999488801915035,0.00017465183060748316
-0.4972370569099439,-0.4972370569099439,0.9999690536371902,0.0001585723192826984
-0.49706984651274977,-0.49706984651274977,0.9999972992847139,0.00016262268222747397
-0.4968936787860002,-0.4968936787860002,0.9999929690821755,0.00016980681437228976
-0.496792788055609,-0.496792788055609,0.9998996425830173,0.0001637243529866588
-0.4966254896629835,-0.4966254896629835,1.0001792159922869,0.00017219259846134905
-0.49651729270699435,-0.49651729270699435,0.9999292325724239,0.00017244997988013222
-0.49644997700233945,-0.49644997700233945,1.000147827265446,0.00016292846954086808
-0.4963412952783983,-0.4963412952783983,1.000068765049523,0.00016412797552747802
-0.4962496463791467,-0.4962496463791467,0.9997254405034445,0.00016705519501107794
-0.49607274756999686,-0.49607274756999686,0.9998900638055458,0.00017044616882735982
-0.4959088502422674,-0.4959088502422674,0.9998619811713569,0.00016619728162271235
-0.49580022917652966,-0.49580022917652966,1.0000424219434694,0.0001688348139199327
-0.49559307540475855,-0.49559307540475855,1.0000082363385059,0.00016477929486223656
-0.49543304689868817,-0.49543304689868817,1.0001720278588255,0.000162541346330741
-0.4952679113397608,-0.4952679113397608,1.0000497490953293,0.00016396814167274308
-0.4950825934007298,-0.4950825934007298,1.0000604718644552,0.00016632005598432072
-0.49489366307971067,-0.49489366307971067,1.0001845626257564,0.00016394246064192707
-0.4947857222898165,-0.4947857222898165,1.0001044863820947,0.00016013074396126545
-0.4946784177765949,-0.4946784177765949,0.9999715215216389,0.00016177373629148978
-0.49451218596077523,-0.49451218596077523,0.9999626812484863,0.0001607377136835468
-0.4942524748039432,-0.4942524748039432,0.9997498769080908,0.00016972925052808442
-0.4939423795352923,-0.4939423795352923,1.0001875039111026,0.00017030009909947862
-0.4938077597558731,-0.4938077597558731,1.0000317806178747,0.00016604248656565862
-0.4936687286972301,-0.4936687286972301,1.0000878183786135,0.0001661952944268538
-0.4935125604097266,-0.4935125604097266,1.0001453195229664,0.0001728721389335137
-0.4933913088607369,-0.4933913088607369,1.0001238177172902,0.0001628635987846737
-0.49326916950521993,-0.49326916950521993,0.9998757034301515,0.00016357562553554868
-0.49314634549373293,-0.49314634549373293,0.9998969066660699,0.00016519808872030153
-0.49307550726516636,-0.49307550726516636,0.9999793073396166,0.00016866299425405748
-0.49301389759930314,-0.49301389759930314,0.9999802638097026,0.0001690846038993562
-0.49295203243964353,-0.49295203243964353,1.0001660265719519,0.00016666448633137997
-0.49285196665441616,-0.49285196665441616,0.9998123380061953,0.00016470246823331662
-0.492608439916512,-0.492608439916512,0.9999474759489193,0.00016912432376540727
-0.4924363173864549,-0.4924363173864549,0.9999220838795836,0.00016677875084116831
-0.49230519764241765,-0.49230519764241765,0.9999499031914816,0.00016547365005147762
-0.492208475334337,-0.492208475334337,1.0000731956757583,0.00016786014048835718
-0.492020372863044,-0.492020372863044,0.9998910011345629,0.00016995141121816686
-0.49185404388117604,-0.49185404388117604,0.9999094453298557,0.00017069244592182462
-0.4916793763433816,-0.4916793763433816,0.999797002326954,0.00016367633133871235
-0.4915608586074086,-0.4915608586074086,1.0000524346964874,0.00021006733922526534
-0.49147146320901813,-0.49147146320901813,0.9999886832256525,0.00016638550287274736
-0.49135251313855405,-0.49135251313855405,0.9998250328340521,0.00016012630392468004
-0.49118419647275,-0.49118419647275,0.9999726393877374,0.00017245065350793675
-0.4909201628906885,-0.4909201628906885,1.000232384600109,0.00016774429433785357
-0.4907564866298344,-0.4907564866298344,1.000142827735717,0.00015843497555930242
-0.4906500991113717,-0.4906500991113717,0.9998864745079317,0.00016491461994233662
-0.4905827545793727,-0.4905827545793727,1.00019893470573,0.00016468219454825064
-0.49050334198982454,-0.49050334198982454,0.9998130107269722,0.00015592976007808778
-0.4904557415022282,-0.4904557415022282,0.9999141191777394,0.0001701086856542365
-0.49037738259066826,-0.49037738259066826,0.9999990817362321,0.00017102157321535383
-0.4902111963077914,-0.4902111963077914,0.9999355599002107,0.00016966620543402104
-0.4900128162436886,-0.4900128162436886,1.000126153307635,0.00017308137933382187
-0.48988841981336007,-0.48988841981336007,1.0001552214578948,0.00017139209739424214
-0.48980535714363216,-0.48980535714363216,1.000019121991175,0.00017150606630114945
-0.4897099586261902,-0.4897099586261902,0.9997916531356091,0.00015616205184528292
-0.4895437594270334,-0.4895437594270334,0.9998958449283923,0.00016573008880663067
-0.4893517736607464,-0.4893517736607464,1.0000535053584967,0.00016450478809561
-0.4891559634706937,-0.4891559634706937,0.999939332063887,0.0001677871803959407
-0.4889700024708873,-0.4889700024708873,0.9999791448710134,0.00016382603328283038
-0.48879044797504323,-0.48879044797504323,1.000024639681135,0.0001736747574891648
-0.48869410905172117,-0.48869410905172117,0.9999091841380536,0.00018181625210316265
-0.4885289468424162,-0.4885289468424162,0.999926923193151,0.000166350788876284
-0.48834773018606936,-0.48834773018606936,1.0000478144526634,0.0001616415289463848
-0.4881702185579343,-0.4881702185579343,0.9999334590208303,0.00016005142190843747
-0.488065394712612,-0.488065394712612,0.9998416439514441,0.00016865814650597995
-0.48787422964232974,-0.48787422964232974,0.9998982686642821,0.00016374449431541812
-0.4877904633904109,-0.4877904633904109,1.000305082237804,0.0001669621818396527
-0.4876011482469039,-0.4876011482469039,1.0000556648334344,0.00016412828215333323
-0.4875067058048444,-0.4875067058048444,1.000006691642911,0.00017316456284325227
-0.4873924792744219,-0.4873924792744219,1.0000613138008587,0.00016835302014226803
-0.48729580263316163,-0.48729580263316163,1.0000389206347846,0.00016113949721243155
-0.4872060220281128,-0.4872060220281128,1.0002482697147674,0.00016608185588928715
-0.4870054158556741,-0.4870054158556741,1.00014153788,0.00016873594865811237
-0.4868259237409802,-0.4868259237409802,0.9998280566211031,0.00016694422462540772
-0.4866821903473465,-0.4866821903473465,1.0001992765587198,0.0001724406452195226
-0.4865851953712991,-0.4865851953712991,0.9999765876636377,0.00016521168367845588
-0.48642969435604755,-0.48642969435604755,1.0001899329696484,0.00017158479268796132
-0.4862674034840893,-0.4862674034840893,1.0002761222675942,0.0001698308149976937
-0.4860977220727364,-0.4860977220727364,0.999745704054725,0.00016314398135400824
-0.4859998001076747,-0.4859998001076747,0.9999436868041081,0.00016766501120713722
-0.48591165387188084,-0.48591165387188084,1.000062014923701,0.0001683297211390764
-0.4857718701037811,-0.4857718701037811,1.0000419578207287,0.0001644756641539923
-0.4856098998134257,-0.4856098998134257,1.0002551021516817,0.00017518254176065532
-0.48547729456040545,-0.48547729456040545,0.9998529356242584,0.00016314053694295685
-0.48529878905101215,-0.48529878905101215,0.9999937513352352,0.00016732957838795415
-0.4851924088288797,-0.4851924088288797,1.0002615951881846,0.00016189498534732082
-0.4851037928601727,-0.4851037928601727,1.0003466683339546,0.00016349766408064963
-0.4849406706431182,-0.4849406706431182,0.9999868486344786,0.00016449344591520026
-0.4848484365735203,-0.4848484365735203,1.0000774535870067,0.00015640999381603369
-0.4846493874443695,-0.4846493874443695,0.999883756611038,0.00016886689005651153
-0.48455579599249177,-0.48455579599249177,1.0002235158696968,0.00016594435427006148
-0.4844316333794268,-0.4844316333794268,0.9999037003946644,0.00016383687615360474
-0.48431848332693334,-0.48431848332693334,1.0000504604798084,0.00017436066266301613
-0.4842261442448944,-0.4842261442448944,0.9999996391953063,0.00015916098754242385
-0.4840570456464775,-0.4840570456464775,1.0000965157279775,0.00015861108772744837
-0.4839219544810476,-0.4839219544810476,1.0002060186729826,0.0001691209822437907
-0.4837937133386731,-0.4837937133386731,1.0002976122172942,0.0001661326615434473
-0.4836456032207934,-0.4836456032207934,1.000198145318943,0.00016986649378892117
-0.48350673557142726,-0.48350673557142726,0.9999782251821671,0.00016190329525675134
-0.4834219984681113,-0.4834219984681113,1.0001451878478629,0.0001628310825885645
-0.4833306302520214,-0.4833306302520214,0.9997698395730188,0.00016415912833618872
-0.4832171736168675,-0.4832171736168675,1.0002979338947042,0.0001671362868112042
-0.48305148638319223,-0.48305148638319223,1.0000618361983495,0.0001691028237973059
-0.48292121558624784,-0.48292121558624784,1.0001095492471204,0.00016460953245854768
-0.48277782241639217,-0.48277782241639217,1.0001335263309739,0.00016883201399301443
-0.48254467265505807,-0.48254467265505807,0.999994611283563,0.00016799554925671608
-0.48240177747502455,-0.48240177747502455,0.9996914430643458,0.00016159143265612105
-0.48216640467580874,-0.48216640467580874,1.0001524026068025,0.00016615141542452135
-0.4820243562484393,-0.4820243562484393,0.9998709328013714,0.00017402706752275
-0.4818380748940399,-0.4818380748940399,0.9998604286198132,0.00016202269788525913
-0.48172302916646004,-0.48172302916646004,0.9999575308576905,0.0001583637122424954
-0.4816046587162418,-0.4816046587162418,1.0000115989679919,0.0001565748101836889
-0.4814002406055806,-0.4814002406055806,0.9998850036987997,0.00016796225115551703
-0.4811203817895148,-0.4811203817895148,1.00033023030126,0.0001704451472275379
-0.4808852845337242,-0.4808852845337242,0.9998713217477444,0.0001665212274417069
-0.48073987010284325,-0.48073987010284325,1.000022410669395,0.0001651073344833025
-0.48052497025346386,-0.48052497025346386,0.999732562696626,0.00016531665644848884
-0.48040847709344237,-0.48040847709344237,0.9998593894550172,0.00016632118060725353
-0.48027897730644326,-0.48027897730644326,0.9999091119356882,0.00016560098806857733
-0.48016920865920837,-0.48016920865920837,0.9999973382551491,0.00015831432154039983
-0.48008863590366674,-0.48008863590366674,0.9999271570718173,0.00017533052240591891
-0.4800227563304361,-0.4800227563304361,0.999710625474236,0.00015919704600153578
-0.4799597632692894,-0.4799597632692894,0.9999965154473518,0.00017637724463102612
-0.4799022365245037,-0.4799022365245037,0.9997953317885674,0.00016948148108269866
-0.479708236688748,-0.479708236688748,0.999981078894811,0.00016101237369298913
-0.4795151736412663,-0.4795151736412663,0.9998774512576624,0.0001706689177877876
-0.47936854370636867,-0.47936854370636867,0.9999529291527864,0.0001685820732081467
-0.4792872063379036,-0.4792872063379036,0.9997807357607806,0.00015575607763160113
-0.47921076210332103,-0.47921076210332103,1.000001583492464,0.0001624474416506983
-0.4790161589044146,-0.4790161589044146,0.999935420751439,0.00016975976579107951
-0.4788423396530561,-0.4788423396530561,1.000082508032985,0.00017070561170813483
-0.4786890126939397,-0.4786890126939397,1.0000512850938335,0.00016369856914805796
-0.47853921899804847,-0.47853921899804847,1.0003567325296199,0.00020971240916077194
-0.47842288137180733,-0.47842288137180733,0.9999323686659636,0.00016097378961144444
-0.4782992050779285,-0.4782992050779285,0.99987081766416,0.0001653822661214302
-0.4781425934081199,-0.4781425934081199,0.9997449334033195,0.00016675350095761622
-0.47785702268301977,-0.47785702268301977,0.9999695454341229,0.00016719336812237926
-0.4777137390803546,-0.4777137390803546,1.0000471726275277,0.00016408150121142458
-0.47761390765663236,-0.47761390765663236,0.9997975170795707,0.0001662302401350676
-0.4775461554643698,-0.4775461554643698,1.0000976461106448,0.00016436073789160625
-0.47750169996288605,-0.47750169996288605,1.0001904521820248,0.0001555922155363896
-0.4774124477262376,-0.4774124477262376,1.0002015747300734,0.00017969398629000063
-0.47728981635882517,-0.47728981635882517,1.0001622361443725,0.00016184950277711114
-0.47710117214301134,-0.47710117214301134,1.0001071551242755,0.00018207316240459592
-0.4769330336828716,-0.4769330336828716,0.9998390215176493,0.00016156657723809698
-0.4768395155057078,-0.4768395155057078,0.9999317215955141,0.00017368630861965725
-0.47676812947029246,-0.47676812947029246,0.9999302765933333,0.0001613983774021439
-0.4767044975800673,-0.4767044975800673,1.000104201945608,0.00015821010669236273
-0.47652686065121086,-0.47652686065121086,1.0000697592475007,0.00016588446377231966
-0.47635791552020235,-0.47635791552020235,0.9999537510253986,0.0001675569409419105
-0.4762279213347938,-0.4762279213347938,0.9999922498336454,0.0001622781492818392
-0.4761061130062444,-0.4761061130062444,0.99991470471982,0.00016889498408884047
-0.47599133288313167,-0.47599133288313167,1.0003642240173558,0.0001616222043778405
-0.4758882552734576,-0.4758882552734576,0.9999835660722038,0.00017657027919825436
-0.47574029959505426,-0.47574029959505426,1.0002097350841916,0.00017508225670451416
-0.47562330240325534,-0.47562330240325534,1.000331106173964,0.00017684822033120858
-0.4754036150610773,-0.4754036150610773,1.0000041909315505,0.00016310692004797774
-0.4752378128294367,-0.4752378128294367,1.000081461374771,0.0001609381151480967
-0.475106069832691,-0.475106069832691,1.0000231979311334,0.00016740372529846164
-0.47496457283268684,-0.47496457283268684,0.9996880683562559,0.00016546242801258803
-0.4748429338011192,-0.4748429338011192,0.9997725822177369,0.0001672678321371299
-0.47469087290228346,-0.47469087290228346,0.9998570613042166,0.000170330063744947
-0.47454579076438674,-0.47454579076438674,1.0001798474147248,0.00017374806556826703
-0.4744627343665343,-0.4744627343665343,0.9999388580152935,0.00016757779467353027
-0.474344149386161,-0.474344149386161,1.0001200213645094,0.00016749245272584655
-0.4742498797830194,-0.4742498797830194,1.0001608105107267,0.0001589126834324603
-0.47405810761556494,-0.47405810761556494,0.9999430050697633,0.0001683846456477664
-0.4738392059400212,-0.4738392059400212,0.9998975950611815,0.0001675146074925728
-0.47370348823897074,-0.47370348823897074,0.9997142887749744,0.0001723547801076518
-0.47362194080196784,-0.47362194080196784,1.0000496601337006,0.0001608709063204993
-0.4734714514430379,-0.4734714514430379,0.9999508693038184,0.00016432995842230973
-0.4732960498688044,-0.4732960498688044,1.0000830986799134,0.00016920409370165885
-0.4731298248603707,-0.4731298248603707,1.0000531913443507,0.00016130340513515943
-0.47301121819473335,-0.47301121819473335,0.9999663739946699,0.00016639527780377768
-0.4729123254190199,-0.4729123254190199,0.9998071201835647,0.0001667069546683245
-0.47278057868243195,-0.47278057868243195,0.9995585833490084,0.00016357416484046546
-0.47259537216450553,-0.47259537216450553,0.9997632797553052,0.00017492019837588276
-0.4724515378504293,-0.4724515378504293,0.999853344449664,0.0001652772845825245
-0.4722580091591226,-0.4722580091591226,0.999912208645911,0.00016159558259459878
-0.47216419606411364,-0.47216419606411364,0.9999218711413022,0.00016114088616940865
-0.47207738884608264,-0.47207738884608264,1.0000778178567777,0.0001644605701728541
-0.4719369242578978,-0.4719369242578978,1.0001308778691165,0.00015929702959008687
-0.4718525899632368,-0.4718525899632368,1.0002916213355149,0.00016155902720218143
-0.47165105206659064,-0.47165105206659064,0.9997385233407542,0.00016752510498419605
-0.47157314727664923,-0.47157314727664923,1.0002128548275857,0.00016715900105116683
-0.4714530726574594,-0.4714530726574594,1.0002293222944185,0.00016049684864087734
-0.47134587390173693,-0.47134587390173693,1.000138705774432,0.00017357348714293244
-0.4712580368795898,-0.4712580368795898,0.9997844741197236,0.0001592068650289778
-0.47109531274763866,-0.47109531274763866,0.9998995606868369,0.00015931473712150316
-0.4709192493726732,-0.4709192493726732,1.0000785919948685,0.000168912241890584
-0.4707480738637969,-0.4707480738637969,0.9998481564864076,0.00016921280423085194
-0.4705925551010296,-0.4705925551010296,0.9999961183566362,0.0001652195935385979
-0.4704741314431885,-0.4704741314431885,1.0001274951451795,0.00016306796137019103
-0.47040327620343303,-0.47040327620343303,1.0000491131764844,0.00016080975175503378
-0.47030114227673037,-0.47030114227673037,1.0000404450675269,0.00016598712036164674
-0.47014820724725725,-0.47014820724725725,1.0000101823207561,0.00016291593959264568
-0.47000019083789085,-0.47000019083789085,0.9999610198225912,0.00017258163500294166
-0.4698827943124343,-0.4698827943124343,1.0001888338056102,0.0001656608935438355
-0.46974180518300274,-0.46974180518300274,1.000129852790119,0.00016768876838065873
-0.4695130375766894,-0.4695130375766894,0.9998597514979538,0.0001656868375829808
-0.46936399005935525,-0.46936399005935525,1.0002433592037,0.0001632194117222248
-0.4691195499384776,-0.4691195499384776,0.9999712378435672,0.00016813305263753569
-0.46891020303883124,-0.46891020303883124,1.0000730426452342,0.00017384636321753606
-0.46876564279955346,-0.46876564279955346,1.0000828459795583,0.0001567259128603343
-0.4686642200074857,-0.4686642200074857,1.0001682142943635,0.0001591133234262163
-0.46847468402411324,-0.46847468402411324,0.9999358476508986,0.00016358741460204668
-0.46823021914751733,-0.46823021914751733,0.9999588484871454,0.00016980885210249465
-0.46795065958285703,-0.46795065958285703,0.9998656191270175,0.00016591574472061703
-0.4677785597887123,-0.4677785597887123,0.9999459576743641,0.00016604382462409768
-0.4676271467411425,-0.4676271467411425,0.9997667939098012,0.00016384456688519052
-0.467455849176622,-0.467455849176622,0.9998927977790689,0.00016564282679622748
-0.4672981367271859,-0.4672981367271859,0.9999954813625586,0.0001646932765322822
-0.4672155793872662,-0.4672155793872662,1.0000030919013496,0.00015736560950563416
-0.46710558844788463,-0.46710558844788463,1.0001443820002234,0.00016519631812351
-0.46702265695203093,-0.46702265695203093,1.0002494055928568,0.0001701333430491696
-0.4669504699879326,-0.4669504699879326,1.000050748770983,0.00017043394170760358
-0.46689379327872305,-0.46689379327872305,0.9999186142988685,0.00016961417188265815
-0.46674455861211755,-0.46674455861211755,0.9999091532855842,0.00016808308900200037
-0.4665413880982669,-0.4665413880982669,1.0001030958645696,0.00016943675465038352
-0.4664035494613927,-0.4664035494613927,1.0002135515196782,0.00016606171097562747
-0.4662818260432687,-0.4662818260432687,1.0000764644179632,0.00015959631399379274
-0.4661776464432478,-0.4661776464432478,0.9998633901598861,0.00016232508859612564
