time,time,flux,flux_err
-0.49920683947129874,-0.49920683947129874,0.9999226051593734,0.00015555141288738477
-0.4984898620702249,-0.4984898620702249,1.0000909427541282,0.00015518937340354536
-0.49748189117963193,-0.49748189117963193,1.0000141351086924,0.00015503311524761083
-0.49657671032473444,-0.49657671032473444,1.000034013562439,0.00014173390062155092
-0.4960740472379257,-0.4960740472379257,1.0000173394605896,0.0001415603283397202
-0.49551740791503107,-0.49551740791503107,0.9997231056833856,0.0001415309225375361
-0.4948731279146159,-0.4948731279146159,1.0001195414805482,0.0001418040762553674
-0.4940408741880674,-0.4940408741880674,0.9999626695845016,0.00014174998898189295
-0.4936993257564609,-0.4936993257564609,0.9999652615311646,0.0001419859096986312
-0.4930811358906794,-0.4930811358906794,1.0000243022909987,0.0001428105577801104
-0.49219390612415737,-0.49219390612415737,0.999991390696659,0.0001415936924774724
-0.4911174444423523,-0.4911174444423523,0.9998696186855884,0.0001416664958521359
-0.4899939143724623,-0.4899939143724623,0.9998977725697624,0.00014172337879999098
-0.4894528645716491,-0.4894528645716491,1.0000827553011413,0.00014160344313238646
-0.4883641977648949,-0.4883641977648949,0.9999647287717192,0.00014370092591530905
-0.4867794615100138,-0.4867794615100138,0.9997466167721297,0.00014220884169946583
-0.4861913038548664,-0.4861913038548664,0.9999728097642524,0.00014213423409174797
-0.48540163098223277,-0.48540163098223277,0.9999981462240223,0.00014156581398677625
-0.48441389786894434,-0.48441389786894434,1.0001604318805568,0.00014198336857297017
-0.4840323170355987,-0.4840323170355987,1.0000943436964445,0.0001421457005986571
-0.48347422933438794,-0.48347422933438794,1.0004828333680262,0.00014189450701044927
-0.4827759523701388,-0.4827759523701388,1.0001033527183967,0.00014172448591924958
-0.4816340861245408,-0.4816340861245408,1.0002345509959871,0.00014403765450216892
-0.4808164349407889,-0.4808164349407889,0.9999030735509912,0.00014275953211520054
-0.47974924231675686,-0.47974924231675686,0.9999122682479145,0.0001417174767376737
-0.4792401079466799,-0.4792401079466799,1.0003511346414782,0.00014432232974463346
-0.47883147314132657,-0.47883147314132657,0.9999622066142791,0.00014162583906854431
-0.47829429555131353,-0.47829429555131353,0.999835909867252,0.00014153602091100773
-0.47755086536490127,-0.47755086536490127,0.9998482202943938,0.00014159930071916863
-0.47696170487615747,-0.47696170487615747,0.9998069056373756,0.00014367520701479827
-0.4764560088180588,-0.4764560088180588,1.0000062904443363,0.0001417932840806869
-0.4757811581584974,-0.4757811581584974,1.0001332964482146,0.00014194398513508818
-0.4747415713063674,-0.4747415713063674,1.0001527434554833,0.00014160094728946743
-0.4737887095849146,-0.4737887095849146,1.0000672842967628,0.00014173891226456665
-0.4729076389252441,-0.4729076389252441,0.9998377200965333,0.0001415949403857731
-0.47208756137406455,-0.47208756137406455,1.0000392893691354,0.0001419213471621769
-0.4711254471752909,-0.4711254471752909,1.0000355613934917,0.00014168565339337636
-0.47032625573920084,-0.47032625573920084,1.00012579929652,0.00014165487175839728
-0.46988938090362353,-0.46988938090362353,1.0002841526466502,0.00014290989964419384
-0.46908856659865705,-0.46908856659865705,1.0003210833735268,0.00014172772998323095
-0.4683126879870542,-0.4683126879870542,0.9998759059848592,0.00014388298014526109
-0.4673675003912649,-0.4673675003912649,0.9999630207578505,0.00014214810219238388
-0.46656334012222944,-0.46656334012222944,1.0001579309542352,0.00014202144685752623
-0.4650948147042072,-0.4650948147042072,0.9998039255337374,0.00014212106871452644
-0.46391106777300595,-0.46391106777300595,0.9999028623958877,0.00014147601651181294
-0.4629727090752567,-0.4629727090752567,1.0001195375363534,0.00014187862189984
-0.4625276367398328,-0.4625276367398328,1.0000368963843118,0.00014188265212682874
-0.4621135939843953,-0.4621135939843953,0.9999101060002722,0.0001415829193195648
-0.46131454962160207,-0.46131454962160207,0.9998698985353915,0.00014157716623949373
-0.4607224285355187,-0.4607224285355187,1.000061597963156,0.00014217265515697712
-0.46020507614593953,-0.46020507614593953,0.9999843812938789,0.000141740062541813
-0.45979600692808165,-0.45979600692808165,1.000060804895037,0.0001416504130148537
-0.45869217938161455,-0.45869217938161455,0.9998631014119205,0.0001417647995299404
-0.4576791154162493,-0.4576791154162493,0.9999882994323933,0.00014142703433665273
-0.45656221147364706,-0.45656221147364706,0.9999178233050381,0.00014164587835155049
-0.4557082224782789,-0.4557082224782789,1.000062177390656,0.00014168730298946315
-0.4548555941626546,-0.4548555941626546,1.000030697832402,0.00014155343409992424
-0.4539373921405058,-0.4539373921405058,0.9999844470185245,0.0001417578390380926
-0.4531045306779561,-0.4531045306779561,0.999855657524843,0.00014261668991170538
-0.45188685775210613,-0.45188685775210613,1.000108729230742,0.00014217951533437688
-0.4506657007499598,-0.4506657007499598,0.9997730006955934,0.00014194282044641853
-0.4502020897547482,-0.4502020897547482,0.9999503379547041,0.000142205586631256
-0.4494250637013465,-0.4494250637013465,1.0001019183646158,0.00014545803933078594
-0.4484275901893852,-0.4484275901893852,1.0000009391344444,0.0001423991155563947
-0.4473103855314548,-0.4473103855314548,0.999892600457579,0.0001445321492515667
-0.44612645445740784,-0.44612645445740784,1.0001510177643467,0.00014203093575440996
-0.44570162785676076,-0.44570162785676076,0.999872780380852,0.00014195578894358652
-0.4452848482891568,-0.4452848482891568,1.000297458052633,0.00014161953048240833
-0.444420726338285,-0.444420726338285,0.9999395022691372,0.00014152960316338569
-0.4436826933117118,-0.4436826933117118,0.9998488947264917,0.00014217518880030793
-0.4431520584941609,-0.4431520584941609,0.9999119435552922,0.00014176171420892037
-0.4421438483041129,-0.4421438483041129,0.9999547979096501,0.00014173389253005318
-0.4412223001680104,-0.4412223001680104,0.9999508555427674,0.00014158891983465156
-0.4404492795743863,-0.4404492795743863,1.0001692558678799,0.0001415952117649874
-0.4395899173861835,-0.4395899173861835,1.0000163289950303,0.00014210804571806025
-0.4390835431753658,-0.4390835431753658,0.9999792497292503,0.00014161550739931055
-0.4386169866193086,-0.4386169866193086,0.9999494964108914,0.00014163854434850217
-0.43807702980266183,-0.43807702980266183,1.0002456059680445,0.00014153827689290173
-0.4373444957076572,-0.4373444957076572,0.9999092955179935,0.00014165045571548176
-0.43687204544694397,-0.43687204544694397,1.0000002030394801,0.0001417255332145182
-0.43648877373634604,-0.43648877373634604,1.0000909955978892,0.0001428862442022191
-0.4358775664848508,-0.4358775664848508,1.0000435462190551,0.00014176739476079366
-0.43489114181284094,-0.43489114181284094,1.0000883525042452,0.00014167611938827187
-0.4342173021068447,-0.4342173021068447,1.000230878652133,0.0001416802045569296
-0.4332864287411212,-0.4332864287411212,0.9996735411091061,0.0001416334566285886
-0.4327337950831861,-0.4327337950831861,1.0001360418968674,0.00014181755850792445
-0.4323439483865513,-0.4323439483865513,0.9999920179045689,0.00014162851740425448
-0.43119875041447814,-0.43119875041447814,0.9999132668042549,0.00014154703727924995
-0.4297481807356235,-0.4297481807356235,0.9998808546761546,0.00014161841530775237
-0.4292714504292235,-0.4292714504292235,1.000033986256691,0.0001425760814843079
-0.42841392022673974,-0.42841392022673974,1.0001711548968655,0.0001417733601223309
-0.42740055472531824,-0.42740055472531824,0.9999737969433428,0.0001419776718236523
-0.4269140498217894,-0.4269140498217894,1.0001195302860864,0.00014221265437000148
-0.42594689673715036,-0.42594689673715036,1.000169407041472,0.00014188810541679244
-0.4249390152370324,-0.4249390152370324,0.9999624728588424,0.0001415308856000473
-0.4238613440524205,-0.4238613440524205,1.000083676428394,0.00014394349984620073
-0.4227475419611437,-0.4227475419611437,1.000025981601708,0.00014169065108311492
-0.4221192255907226,-0.4221192255907226,1.0001321280614883,0.00014174209790319115
-0.4215793625757215,-0.4215793625757215,0.9999319766306286,0.00014161449099318234
-0.42098976636625596,-0.42098976636625596,1.0000806982422337,0.00014204545969407717
-0.42048956120124786,-0.42048956120124786,0.9998688357754665,0.00014217448301220473
-0.41981779244961215,-0.41981779244961215,0.99994780391335,0.00014171767724512055
-0.4194132343909587,-0.4194132343909587,1.0001975768912894,0.00014267213842565158
-0.41888105536054354,-0.41888105536054354,0.9998801565769039,0.00014244267687509875
-0.41802104791422606,-0.41802104791422606,1.0000533411285977,0.00014158483803368936
-0.4170728459605016,-0.4170728459605016,1.0001476151960216,0.0001432223773103071
-0.41654205509548775,-0.41654205509548775,0.9999394656689116,0.00014187949057181936
-0.4157634781295201,-0.4157634781295201,0.9999298397512393,0.00014158249545741735
-0.41499612902407534,-0.41499612902407534,1.0001821118056533,0.00014158110496857916
-0.4140914754680125,-0.4140914754680125,1.0000804833120316,0.00014194930964924078
-0.41310370963910825,-0.41310370963910825,0.9999693981420172,0.00014198307112618484
-0.4122049674333539,-0.4122049674333539,1.0000961356595113,0.00014241255418653265
-0.41062162933521906,-0.41062162933521906,1.000198924701647,0.0001419117570763731
-0.40985778271278833,-0.40985778271278833,1.0000782706838809,0.00014203962856829708
-0.408631812321255,-0.408631812321255,0.9998412131405907,0.00014216123665057137
-0.4076451918037492,-0.4076451918037492,1.0001689330840429,0.0001419347828286602
-0.4067754484291072,-0.4067754484291072,0.9998540095843784,0.00014160548451991168
-0.40598228490853216,-0.40598228490853216,1.0001638624881015,0.00014156818418350586
-0.40540474239096513,-0.40540474239096513,1.0000428000724935,0.00014198595236950012
-0.4049640832512523,-0.4049640832512523,1.000057223060012,0.00014160724987407597
-0.4043393057014327,-0.4043393057014327,0.9999040703058784,0.0001415804981320905
-0.4035287237595185,-0.4035287237595185,0.9999745664631277,0.00014176397982946625
-0.40300603473588126,-0.40300603473588126,0.9998199900617755,0.0001419195572825083
-0.40238125015457626,-0.40238125015457626,1.000010916885322,0.00014223983337396655
-0.40142131095781225,-0.40142131095781225,0.9999293349971081,0.00014159756129266264
-0.40072365356318185,-0.40072365356318185,1.0002380240168534,0.0001415254388094665
-0.3996829232259188,-0.3996829232259188,1.0000642048408719,0.00014157693329891412
-0.3989559101755731,-0.3989559101755731,0.9999146427562595,0.00014164745419947735
-0.3980584282951895,-0.3980584282951895,1.0001496832807353,0.0001415588969862869
-0.39741120444814443,-0.39741120444814443,1.0000996509493028,0.00014180403854592252
-0.3966032482901937,-0.3966032482901937,1.000034219521242,0.00014164171866442747
-0.3961922822942142,-0.3961922822942142,0.9999368066725298,0.00014270397123502504
-0.3954789768205956,-0.3954789768205956,1.0002339022964732,0.00014191487330933211
-0.3946045632706955,-0.3946045632706955,0.9999373559818647,0.00014177817476500592
-0.39357250027387636,-0.39357250027387636,1.0002563666060844,0.00014200540551474408
-0.39294078997481846,-0.39294078997481846,1.0001229894521548,0.00014450314880033833
-0.3920167980788392,-0.3920167980788392,1.0000350034307992,0.00014207707407896763
-0.3910859141295077,-0.3910859141295077,0.9999982674807125,0.00014482255033346084
-0.3892550996359205,-0.3892550996359205,1.0000071588111945,0.00014249837190470776
-0.3888101805365295,-0.3888101805365295,0.9998451395024898,0.00014178087040199328
-0.38828356901067307,-0.38828356901067307,1.0001961065343057,0.00014362742869465666
-0.3875445154539193,-0.3875445154539193,1.000030969613419,0.0001415466928161903
-0.3868485603525187,-0.3868485603525187,1.0001083949953296,0.00014180909424483861
-0.3862607402916183,-0.3862607402916183,1.000114664025292,0.00014217015112257659
-0.3853370892582461,-0.3853370892582461,1.0001698572731557,0.00014179150424835352
-0.3843865905771963,-0.3843865905771963,0.9998726625373126,0.00014442483962255484
-0.3834048604563577,-0.3834048604563577,0.9996895856142511,0.00014192584259403366
-0.3825734783473308,-0.3825734783473308,0.9998924579172709,0.0001416764016384915
-0.3819959279790055,-0.3819959279790055,0.9999036844615905,0.00014162849573184493
-0.38132461752538804,-0.38132461752538804,0.9999115423754968,0.00014155333630391396
-0.38086414045246786,-0.38086414045246786,1.000116175531834,0.00014160267268451386
-0.3801948967869976,-0.3801948967869976,0.9999319478981665,0.00014164508804130632
-0.37984069797385017,-0.37984069797385017,0.9999680292904797,0.00014162869474832347
-0.3793496998740011,-0.3793496998740011,1.0000564628141153,0.00014165843703139975
-0.37869665694161087,-0.37869665694161087,1.0001352246967152,0.00014221708045189738
-0.3780335125309648,-0.3780335125309648,0.999890840022703,0.0001415147141219199
-0.3771789412567159,-0.3771789412567159,0.9999658897532822,0.00014159077531470312
-0.37646936200471826,-0.37646936200471826,0.9999229020159669,0.00014163224338583806
-0.3756299141401541,-0.3756299141401541,1.0001132061352336,0.00014160709953686053
-0.3748148465208942,-0.3748148465208942,1.0000881055582556,0.00014162305262475073
-0.37341629660659237,-0.37341629660659237,0.9998935719366964,0.0001416230824283546
-0.3726496023402433,-0.3726496023402433,0.9999940294323508,0.0001420503433721911
-0.37212785125884695,-0.37212785125884695,1.0000918653020237,0.0001424593925758947
-0.37159641109901714,-0.37159641109901714,1.000271397301105,0.00014151103652505932
-0.37081572208262514,-0.37081572208262514,1.0001432170162654,0.00014404052798250045
-0.370190517231822,-0.370190517231822,0.9999398689905654,0.00014217905044549645
-0.3695040512800915,-0.3695040512800915,0.9999637018526508,0.00014202851710745466
-0.36850574496929767,-0.36850574496929767,0.999880338030166,0.00014182259917979047
-0.3675430452247383,-0.3675430452247383,0.9999021071187542,0.00014146138831282084
-0.36701737329858586,-0.36701737329858586,1.0001968037795015,0.0001440483386468835
-0.3660096010149573,-0.3660096010149573,0.9999544418602839,0.00014151507977272517
-0.36515263871406206,-0.36515263871406206,1.0000603040675815,0.00014189675129809389
-0.36472846348042365,-0.36472846348042365,0.9999970902323458,0.00014160954902000714
-0.3639457116019912,-0.3639457116019912,0.9997035285227456,0.0001419373833106187
-0.3634162690985249,-0.3634162690985249,0.9998875777777135,0.00014168542520707664
-0.36274121888855004,-0.36274121888855004,0.9999212270541976,0.0001417644206672976
-0.36227052464091686,-0.36227052464091686,1.0001338999701632,0.00014174284964097193
-0.36153190381010064,-0.36153190381010064,1.0002176140804186,0.00014186246842793027
-0.3609504118692712,-0.3609504118692712,1.0000922502838516,0.00014158580686007483
-0.3596755615551956,-0.3596755615551956,1.000103013616304,0.0001415890727635814
-0.3587619725454715,-0.3587619725454715,0.9999988454436174,0.00014155090124031873
-0.3580765823629918,-0.3580765823629918,0.9999202640309257,0.00014159416940824323
-0.356875564774964,-0.356875564774964,1.0000851017727015,0.00014176230524281177
-0.35602198051929007,-0.35602198051929007,1.0001931383955351,0.0001426383901077728
-0.3549143467535032,-0.3549143467535032,0.9996882451395624,0.0001417418993535651
-0.35325982314388965,-0.35325982314388965,0.9999277225622407,0.00014194684765151528
-0.3527904751885217,-0.3527904751885217,1.0000811327848276,0.00014225315936856404
-0.3515696097369073,-0.3515696097369073,0.9999852620969337,0.00014166857028632808
-0.3506409571680706,-0.3506409571680706,0.9997920257307529,0.00014196975177086313
-0.3497815483569866,-0.3497815483569866,1.0000534126301814,0.00014262808552516099
-0.34897629359911664,-0.34897629359911664,1.0000339909677038,0.00014207281593674328
-0.3484548977969098,-0.3484548977969098,1.00007549030151,0.00014196692076139618
-0.34796558267553335,-0.34796558267553335,1.0001561798817526,0.00014162848968328617
-0.34752965450752527,-0.34752965450752527,1.0000071701588946,0.00014147024810545668
-0.34691774171660655,-0.34691774171660655,1.0003093859623786,0.00014224689160774231
-0.3462186021351954,-0.3462186021351954,0.9999268034188145,0.00014172720001098804
-0.3456621313263895,-0.3456621313263895,1.0000417455176558,0.0001420271156658936
-0.3445359932418796,-0.3445359932418796,1.000047554985978,0.00014158204530214887
-0.34397505940287376,-0.34397505940287376,0.9997298523073189,0.00014154391450991885
-0.3428313225769671,-0.3428313225769671,1.000060904965298,0.00014159906632899667
-0.3420404489676002,-0.3420404489676002,0.9998488662575846,0.00014172417622658912
-0.3416290886787465,-0.3416290886787465,0.9999736264224852,0.00014152574165261393
-0.34111029969062656,-0.34111029969062656,1.0000271158805307,0.00014158268152150472
-0.3403461917216191,-0.3403461917216191,1.0000861938724328,0.00014178022474073296
-0.3395905404118821,-0.3395905404118821,1.0001559305630685,0.00014172347957990155
-0.3391655544692185,-0.3391655544692185,1.0001233052559102,0.00014273542298414094
-0.338434026579489,-0.338434026579489,1.0002821292781874,0.00014215839406085386
-0.3373579517574399,-0.3373579517574399,1.0000597840799113,0.00014263655615888841
-0.3363362180272816,-0.3363362180272816,0.9998372571064656,0.00014165063625214117
-0.33534750615071973,-0.33534750615071973,1.0002593088246226,0.00014178930757137011
-0.3342832946014823,-0.3342832946014823,0.9999161193896787,0.00014199221728460032
-0.3322468502869015,-0.3322468502869015,0.9998687634263236,0.00014225883536316504
-0.33166601808334234,-0.33166601808334234,1.0000880728854071,0.00014203000002169125
-0.3311261098584509,-0.3311261098584509,0.9999799804837506,0.00014354908785613557
-0.3303462945012143,-0.3303462945012143,0.9998745211346876,0.0001415550410195021
-0.3297858083140454,-0.3297858083140454,1.0004057153642918,0.00014222423623243453
-0.3292018504056614,-0.3292018504056614,0.9998936726529706,0.0001421504452163009
-0.3283196318370756,-0.3283196318370756,0.9998563516767895,0.0001417162155511079
-0.32713103328133003,-0.32713103328133003,1.0000093140258364,0.00014400742550865683
-0.3264300180337159,-0.3264300180337159,1.0001312628118728,0.00014152946609710988
-0.325612245562661,-0.325612245562661,1.0000636508207694,0.00014203104794311604
-0.32498447761463467,-0.32498447761463467,0.9999697413034425,0.00014180886800281833
-0.3243949635216268,-0.3243949635216268,1.0002573020612284,0.00014158823642639758
-0.3237406034400919,-0.3237406034400919,1.000017353471754,0.0001415804712747507
-0.3230630698642926,-0.3230630698642926,1.0001593824666093,0.0001417130096018283
-0.3225678021335625,-0.3225678021335625,0.9999010131725363,0.00014163623452531065
-0.32180568605836013,-0.32180568605836013,0.9996285941282637,0.00014177653485065146
-0.3207580411704839,-0.3207580411704839,1.000002647322749,0.00014165094223084906
-0.3195851824217243,-0.3195851824217243,1.0001072846116272,0.00014169286220888373
-0.3187163828581106,-0.3187163828581106,1.0001055151669163,0.00014161538362088272
-0.3179531562971533,-0.3179531562971533,1.0000553660003209,0.00014167824358741167
-0.3171114643395413,-0.3171114643395413,0.9998155205581382,0.00014196012943906768
-0.31603723987791454,-0.31603723987791454,1.0001462458087316,0.0001420028830282408
-0.3154745196879958,-0.3154745196879958,0.9997708331687672,0.00014253185689853883
-0.31481232671940235,-0.31481232671940235,1.0000149522400643,0.0001417747838051409
-0.3143051225153613,-0.3143051225153613,0.9999418209920569,0.00014376224008086266
-0.31320244333328445,-0.31320244333328445,0.9998836387571594,0.00014176261484110642
-0.31277320984372636,-0.31277320984372636,1.0000329555322025,0.00014220471034259008
-0.311813558168069,-0.311813558168069,0.9998757413838,0.00014179259129851068
-0.31045985346863747,-0.31045985346863747,1.0000139444029021,0.0001417032371008977
-0.30933422885864276,-0.30933422885864276,0.999978208069772,0.00014153758983336955
-0.30855360858113273,-0.30855360858113273,0.9999460081171974,0.0001419290447968568
