time,time,flux,flux_err
-0.49970124357496387,-0.49970124357496387,1.0000897198981256,7.919318177248832e-05
-0.4991660452535143,-0.4991660452535143,1.0000316876125195,8.0055077637739e-05
-0.4983413363574073,-0.4983413363574073,1.0000107072887938,7.934163121990198e-05
-0.4977825264155399,-0.4977825264155399,1.0001918437442563,7.853566850647531e-05
-0.49668096294335556,-0.49668096294335556,0.9998703104427223,7.871570257047594e-05
-0.49577256095653865,-0.49577256095653865,0.9999619478138383,7.920029008315268e-05
-0.49486401189351453,-0.49486401189351453,1.0001872825208118,7.906238042344539e-05
-0.4943839391547954,-0.4943839391547954,0.9999458827677732,7.8284956226587e-05
-0.49371040090336465,-0.49371040090336465,0.9998865862154652,7.922801540100604e-05
-0.4929591140098637,-0.4929591140098637,1.0002146860730625,7.895959148510215e-05
-0.49219323037250434,-0.49219323037250434,0.9998410977126604,7.91225214275084e-05
-0.49168255260156,-0.49168255260156,1.0000410500565784,7.83490171063866e-05
-0.4908969533804338,-0.4908969533804338,1.0000584881215744,7.932812994795134e-05
-0.4901961410301737,-0.4901961410301737,1.0000188920229864,8.373717901569847e-05
-0.48929427926777863,-0.48929427926777863,0.9998965206616054,7.905839664904664e-05
-0.48847190064843743,-0.48847190064843743,1.0000720852811293,7.858083561799363e-05
-0.4875330248585669,-0.4875330248585669,1.0002354899347492,7.914219955593893e-05
-0.4867079223622568,-0.4867079223622568,1.000131180102422,7.8644775056519e-05
-0.4857699501939351,-0.4857699501939351,0.9999179466535055,7.97406934403044e-05
-0.485044090761221,-0.485044090761221,0.9999519721412868,7.853373433002619e-05
-0.4842863302794285,-0.4842863302794285,0.9998883678656953,7.91578159801016e-05
-0.4836196624615695,-0.4836196624615695,0.9999230607862131,7.969604452613879e-05
-0.48306990713463166,-0.48306990713463166,1.0000609769854338,7.916138194221414e-05
-0.4823790696420474,-0.4823790696420474,1.0000138568567123,7.97337112772046e-05
-0.4816262661915971,-0.4816262661915971,1.0000149373692697,7.863168666881903e-05
-0.4811545023403596,-0.4811545023403596,1.0001077946684114,7.920514935052844e-05
-0.4804471717798151,-0.4804471717798151,0.9997390976549825,8.024135578480601e-05
-0.47957479071919806,-0.47957479071919806,0.9999907216058339,7.808846689618617e-05
-0.47879609441151844,-0.47879609441151844,1.000061228350221,7.905914889084791e-05
-0.4779338484891923,-0.4779338484891923,1.0000105160035493,7.871522665357997e-05
-0.47723637610906733,-0.47723637610906733,1.0001687350175543,7.916585683721912e-05
-0.4765393875510199,-0.4765393875510199,1.0000369085416063,7.860931708071691e-05
-0.47593146892031657,-0.47593146892031657,0.9999617002360186,7.890209367799974e-05
-0.47532399724586866,-0.47532399724586866,1.0000238081943507,7.920747232071302e-05
-0.47448246119020043,-0.47448246119020043,1.0000368424387756,7.886332737865601e-05
-0.4737837097985903,-0.4737837097985903,1.0000770793286746,7.923954249452453e-05
-0.47298168945126234,-0.47298168945126234,0.9999317305386161,7.891598182936266e-05
-0.4721361100411741,-0.4721361100411741,0.9999888328317278,8.259858224115215e-05
-0.4714966014609672,-0.4714966014609672,1.0001231465988196,7.947135484101577e-05
-0.47054781460028605,-0.47054781460028605,1.0000563374672213,7.907490496659127e-05
-0.4697447193873813,-0.4697447193873813,0.9999862120773539,7.85966790371495e-05
-0.46876081567606886,-0.46876081567606886,0.9999356207805972,7.916975304552131e-05
-0.46814525514200794,-0.46814525514200794,1.000001143948895,7.911188262205295e-05
-0.4673529604449868,-0.4673529604449868,0.999727310725288,7.969752497711757e-05
-0.4666427594347624,-0.4666427594347624,0.9999824137020928,7.86036094009739e-05
-0.46590064181364144,-0.46590064181364144,1.0000406653155267,7.913775636583403e-05
-0.46527280426525974,-0.46527280426525974,0.9999792535739858,7.971035916771576e-05
-0.46466062339313796,-0.46466062339313796,0.9998693838396896,7.914968924592334e-05
-0.4641308659862261,-0.4641308659862261,1.0000726148409946,8.09816178410611e-05
-0.4633663252403494,-0.4633663252403494,0.99996103902714,7.919237194457614e-05
-0.46265372020425277,-0.46265372020425277,1.0000149743148161,7.909074217563809e-05
-0.4616279240231961,-0.4616279240231961,0.9999923606320508,7.921407204664776e-05
-0.46092642027069813,-0.46092642027069813,0.9999362659311359,7.907536855753324e-05
-0.45969310772197786,-0.45969310772197786,0.9998796714912217,7.862746701359596e-05
-0.4591794659063453,-0.4591794659063453,1.000040653863425,7.87049417060296e-05
-0.45832929930766114,-0.45832929930766114,0.9999548961333137,7.90981573054921e-05
-0.45766221375088206,-0.45766221375088206,1.000246470732811,7.900472069259031e-05
-0.4570379549957579,-0.4570379549957579,1.0000965270372386,7.920355756281872e-05
-0.4562109104241244,-0.4562109104241244,1.0001608850128758,7.885811476960599e-05
-0.45537998819199854,-0.45537998819199854,0.9999112500670346,7.87353496479123e-05
-0.4546575036714785,-0.4546575036714785,1.0001444879191286,7.958652732520993e-05
-0.4536051577655599,-0.4536051577655599,1.0001008309493273,8.015230265532776e-05
-0.45262003008683677,-0.45262003008683677,0.9999960321447791,7.960030987034664e-05
-0.4516672696045134,-0.4516672696045134,0.9998752309861004,7.855953700333022e-05
-0.4505562985257711,-0.4505562985257711,0.9998965394133139,7.914530537058445e-05
-0.44987757777853404,-0.44987757777853404,1.0000055143282913,7.910672496313905e-05
-0.4489587471151026,-0.4489587471151026,1.000028671457369,7.975203154856304e-05
-0.4483061146194814,-0.4483061146194814,1.0000711848374284,7.915621256451841e-05
-0.4477081701217685,-0.4477081701217685,0.9999521681908972,7.855179934941319e-05
-0.4470551842125133,-0.4470551842125133,0.9998747435493675,7.96981810856553e-05
-0.44640954851056447,-0.44640954851056447,0.9998944214224459,7.978793676841703e-05
-0.4458718015259365,-0.4458718015259365,0.9999356842651105,7.960435430827402e-05
-0.44511771089455576,-0.44511771089455576,0.9999568689344807,7.918132875440963e-05
-0.44442263411765454,-0.44442263411765454,0.999978739890216,7.85511781660619e-05
-0.44350724476098546,-0.44350724476098546,1.0001596764565666,7.874898510790389e-05
-0.4424341015983373,-0.4424341015983373,0.9999892419314541,7.962729617461657e-05
-0.4414136092935223,-0.4414136092935223,1.000054401034459,7.906622849497425e-05
-0.4409442298900103,-0.4409442298900103,0.9999628711713697,7.828114879848358e-05
-0.44026521856721956,-0.44026521856721956,1.0001566125694779,7.923241954200792e-05
-0.4395023852412123,-0.4395023852412123,1.000141151050035,7.89580297146776e-05
-0.4387531884247437,-0.4387531884247437,1.000025040036799,7.91598851737177e-05
-0.43811794437642676,-0.43811794437642676,1.0001193880842432,7.840257925662391e-05
-0.4374079906498082,-0.4374079906498082,0.9999333717632044,7.921111826373958e-05
-0.4367666271427879,-0.4367666271427879,1.000130690587938,8.410182079471137e-05
-0.435843482875498,-0.435843482875498,1.0001008186242888,7.9070208614714e-05
-0.4350316102936631,-0.4350316102936631,1.0000811462668484,7.858736271295445e-05
-0.4338628715428058,-0.4338628715428058,0.9998955200125657,7.911232132315624e-05
-0.43307768981321715,-0.43307768981321715,0.9999993175356587,7.911349098034316e-05
-0.4321091216464993,-0.4321091216464993,1.0001502452175717,7.919668790628683e-05
-0.43148698669101576,-0.43148698669101576,0.9999737770335496,7.914367254628083e-05
-0.43054900198185353,-0.43054900198185353,0.9999900032419008,7.972900646371344e-05
-0.4300297564739594,-0.4300297564739594,1.0001657544061344,7.940856840410693e-05
-0.4294778721523471,-0.4294778721523471,1.0000959936387779,7.912979624122787e-05
-0.42876907242171003,-0.42876907242171003,0.9999784171198799,7.973376783351762e-05
-0.4279963696928462,-0.4279963696928462,1.0000033391432281,7.91913106934134e-05
-0.4274584528437117,-0.4274584528437117,1.000084176371956,7.983797398509561e-05
-0.4266007863014238,-0.4266007863014238,1.000136328065383,7.922909976986374e-05
-0.42593465848476625,-0.42593465848476625,1.0001915419251242,7.856386280262026e-05
-0.42487871485063805,-0.42487871485063805,0.999956498381323,7.917717062158587e-05
-0.42427552497247234,-0.42427552497247234,0.9999233737476896,7.866310806558274e-05
-0.4232332247425802,-0.4232332247425802,1.000099931165258,7.961550527497732e-05
-0.42280152531166093,-0.42280152531166093,0.9999326860440932,7.833663839738475e-05
-0.42206061995238997,-0.42206061995238997,0.9999359189304867,7.915318483324854e-05
-0.42143851854198144,-0.42143851854198144,1.000186052477066,7.839275976069906e-05
-0.4205644199246308,-0.4205644199246308,1.0000372448085992,7.97805745483203e-05
-0.4198958332213806,-0.4198958332213806,1.0000166748013544,7.832039257706715e-05
-0.4190396310645156,-0.4190396310645156,0.9999454340743604,8.368521564146644e-05
-0.41828976388496814,-0.41828976388496814,1.0000067084082955,7.8486645512293e-05
-0.41732676766987425,-0.41732676766987425,0.9999174198001551,7.907461547169262e-05
-0.41653022226237224,-0.41653022226237224,1.0000667641838883,7.862012429464856e-05
-0.41536312810203524,-0.41536312810203524,1.0001368291201065,7.913155609144356e-05
-0.4146946388704237,-0.4146946388704237,1.0000086140145283,7.911024981544395e-05
-0.4139960061351303,-0.4139960061351303,1.0000882660606698,7.923011434449752e-05
-0.41331395015877204,-0.41331395015877204,1.0000120467543427,7.914965143457936e-05
-0.412567512964597,-0.412567512964597,1.0001624871885717,7.856031274026268e-05
-0.41192645457922483,-0.41192645457922483,0.9999917851611331,7.968602143178028e-05
-0.4114928968279855,-0.4114928968279855,1.0000512291670338,7.923299489436043e-05
-0.41086057691718453,-0.41086057691718453,0.9999810068551902,8.064019072066395e-05
-0.4101844573626295,-0.4101844573626295,0.9998607588270971,7.967156734269766e-05
-0.4095185940648662,-0.4095185940648662,1.0001659238925664,7.863913921023827e-05
-0.40878182816377373,-0.40878182816377373,1.00002165084411,8.024185127899615e-05
-0.4078314915270312,-0.4078314915270312,1.000199034700938,7.861789217919016e-05
-0.4069041365815792,-0.4069041365815792,1.0000194950949615,7.907598847947298e-05
-0.40616917023144194,-0.40616917023144194,0.9999467600152793,7.873786459291606e-05
-0.40529400365194307,-0.40529400365194307,0.9999165251989991,7.91821245824419e-05
-0.40466111951391215,-0.40466111951391215,1.0000546673076423,7.872425181157576e-05
-0.40389648176787885,-0.40389648176787885,1.0001330436181433,7.878612081328219e-05
-0.4033070686360588,-0.4033070686360588,0.999983925750415,7.881636523963883e-05
-0.4024210764793679,-0.4024210764793679,1.0000367071818266,7.931801409332548e-05
-0.4016824540070957,-0.4016824540070957,1.0000519265073167,7.829283449764895e-05
-0.4007955198379932,-0.4007955198379932,1.0000289814459697,8.226076252849146e-05
-0.3998956715775421,-0.3998956715775421,0.9997906663850831,7.860047810625806e-05
-0.39884646456921474,-0.39884646456921474,0.9999784076876959,7.973817718081638e-05
-0.3980053846549708,-0.3980053846549708,1.000020295659397,7.860070194161924e-05
-0.39695143622811885,-0.39695143622811885,1.000086386634714,7.860520945520796e-05
-0.3962602846440859,-0.3962602846440859,0.9999863125670083,7.971424410025314e-05
-0.395330292955623,-0.395330292955623,1.0000891970819092,7.915356180531355e-05
-0.3947409676184179,-0.3947409676184179,1.0000571742260767,7.920980994671924e-05
-0.3940591271908488,-0.3940591271908488,1.0000910049508511,7.910633714872461e-05
-0.39350846414163243,-0.39350846414163243,1.0001313401054535,7.970710610510296e-05
-0.39278926157276145,-0.39278926157276145,1.000091074956845,7.918615933075353e-05
-0.39227024820283984,-0.39227024820283984,1.0000684343917399,7.978454209437347e-05
-0.3915329992363695,-0.3915329992363695,1.0000605224360082,7.980767453338386e-05
-0.39089309475966727,-0.39089309475966727,0.9999469213697662,7.853719918459016e-05
-0.3897965760057559,-0.3897965760057559,0.9999767405534676,7.81554226838293e-05
-0.38868855045584494,-0.38868855045584494,0.9999730508172433,8.017593449857939e-05
-0.38792633896227924,-0.38792633896227924,0.9999929086303896,7.864471663465799e-05
-0.3873570732830558,-0.3873570732830558,0.9999542924845948,7.821215279932094e-05
-0.386661031859694,-0.386661031859694,1.000063661723289,7.920112221758275e-05
-0.38587025152810384,-0.38587025152810384,1.0001209858093607,7.898310067980886e-05
-0.385173376018065,-0.385173376018065,1.0001753166578606,7.86275173448773e-05
-0.3843042822933057,-0.3843042822933057,1.0000914576561015,7.935804132211767e-05
-0.383522617717972,-0.383522617717972,1.000308960945633,7.834635072984695e-05
-0.3827398469817126,-0.3827398469817126,0.9998649765664925,7.967849560308696e-05
-0.3816402464581188,-0.3816402464581188,0.9998597110581112,7.854183203080534e-05
-0.3806708085903665,-0.3806708085903665,1.0000093736083495,7.959324814332096e-05
-0.3797090539621422,-0.3797090539621422,0.9999107707593419,7.859806446659434e-05
-0.3786602580425097,-0.3786602580425097,0.9999819077881178,7.86023769431108e-05
-0.37802996261161753,-0.37802996261161753,0.999868590542061,7.973168279239876e-05
-0.3770889178820653,-0.3770889178820653,1.000159322262269,7.97152965729169e-05
-0.376517966054962,-0.376517966054962,0.999937952948296,7.919131925762799e-05
-0.3758762497775024,-0.3758762497775024,0.9998819871206278,7.909143935326238e-05
-0.37528672598127744,-0.37528672598127744,1.0000612730768819,7.967591003265306e-05
-0.3745398612722056,-0.3745398612722056,1.000137174064605,7.918961391953126e-05
-0.37400334330741314,-0.37400334330741314,0.9999828839657214,7.992113362830885e-05
-0.3731441693409579,-0.3731441693409579,0.9999483168496921,7.922431073762065e-05
-0.3724889848585008,-0.3724889848585008,1.00006788101469,7.85542873814509e-05
-0.37142514311417474,-0.37142514311417474,0.9999246657568932,7.918086518501234e-05
-0.37082196479605045,-0.37082196479605045,1.0000098375703448,7.867108263045878e-05
-0.36977056080359033,-0.36977056080359033,0.999892260068864,7.960328384521383e-05
-0.3693551422853488,-0.3693551422853488,1.000024020586447,7.832753392898114e-05
-0.3686188882245915,-0.3686188882245915,0.9997879378882681,7.914952742508749e-05
-0.36799691459164025,-0.36799691459164025,1.0000814858265341,7.840130933392333e-05
-0.3671119724254822,-0.3671119724254822,1.0000563838123022,7.920821386784049e-05
-0.36654140402097257,-0.36654140402097257,1.0001192888760986,7.88824375945195e-05
-0.36582061167864593,-0.36582061167864593,1.000129227150233,7.98369877846747e-05
-0.36512967790768014,-0.36512967790768014,0.9999990388776387,8.297217721443279e-05
-0.3643732215219643,-0.3643732215219643,1.00004654138039,7.865865482096243e-05
-0.3633696101343958,-0.3633696101343958,0.9999954428054604,7.912394129006459e-05
-0.3624536019546213,-0.3624536019546213,0.9998802266199054,7.907064598719864e-05
-0.3616404165193671,-0.3616404165193671,1.0000182129516084,7.808030499282932e-05
-0.36095509282604327,-0.36095509282604327,1.000021885627318,7.963324137306063e-05
-0.36022838156204673,-0.36022838156204673,1.0000607321105643,7.926390212767323e-05
-0.3595953402953455,-0.3595953402953455,1.0002185448894982,7.918568410513966e-05
-0.3588519787794212,-0.3588519787794212,1.0000500271545616,7.912847588210601e-05
-0.3582725273066899,-0.3582725273066899,1.0000107527449893,7.917299690551877e-05
-0.35762687376118263,-0.35762687376118263,1.0000505917077123,7.909497819633472e-05
-0.3568890908936737,-0.3568890908936737,0.9999360713911895,7.971414046148e-05
-0.3562524952780223,-0.3562524952780223,1.0000195855592833,7.866668293605953e-05
-0.3556385256175417,-0.3556385256175417,1.0000039009724828,7.967894695880037e-05
-0.35470378666068425,-0.35470378666068425,1.0000078296185195,7.923562581224661e-05
-0.35401562569022643,-0.35401562569022643,1.0000607488472333,7.908324244865881e-05
-0.35280208268086427,-0.35280208268086427,1.0001065605970236,7.862656540434567e-05
-0.35239842075970956,-0.35239842075970956,1.0000072433703298,7.817136031726274e-05
-0.3516886370663997,-0.3516886370663997,1.000046497221213,7.970963043318412e-05
-0.3511738125758711,-0.3511738125758711,0.9999360478446133,7.825856748358535e-05
-0.350457638836815,-0.350457638836815,1.000241382017203,7.875385294518568e-05
-0.3498575186356902,-0.3498575186356902,1.0000875958204178,7.881842424839763e-05
-0.34896893180557526,-0.34896893180557526,1.0002646950893,7.932203327563562e-05
-0.3481333032163093,-0.3481333032163093,0.9999963022291911,7.871846556590661e-05
-0.34713591875624844,-0.34713591875624844,0.9999454803509739,8.219066483406421e-05
-0.3463540113007184,-0.3463540113007184,0.9999224920711436,7.859842360394766e-05
-0.34538946095563006,-0.34538946095563006,0.999999370423402,7.983582021592964e-05
-0.34456336762523276,-0.34456336762523276,0.9999055717522636,7.859487983438476e-05
-0.34350788418960293,-0.34350788418960293,1.00009256142626,7.85965556250305e-05
-0.34279884400311855,-0.34279884400311855,1.0000922427959258,7.971338753501775e-05
-0.34187412762548774,-0.34187412762548774,1.0000587477719844,7.914717388337762e-05
-0.341295474107028,-0.341295474107028,1.000071084958096,7.920803603595768e-05
-0.3406027856166475,-0.3406027856166475,1.000007526110497,7.912982055936809e-05
-0.340044508659048,-0.340044508659048,1.0001102624766183,7.968971664996947e-05
-0.3393432009674143,-0.3393432009674143,0.9998999754433175,7.856603691261306e-05
-0.33881638046586887,-0.33881638046586887,0.9999577793807513,8.062344482585047e-05
-0.33806736113037916,-0.33806736113037916,1.000052022526906,7.980533826819563e-05
-0.3372715920791961,-0.3372715920791961,1.0000336627523372,7.907305613696005e-05
-0.33609403551381545,-0.33609403551381545,0.9998978120988434,7.860791221704508e-05
-0.33512190060864666,-0.33512190060864666,0.9998799115461731,8.060657303368583e-05
-0.3344830182264559,-0.3344830182264559,1.000099146644814,7.863054354383933e-05
-0.333916612205212,-0.333916612205212,0.9998831634801766,7.820289698024199e-05
-0.33324171986896545,-0.33324171986896545,0.9998923088341325,7.915412404441585e-05
-0.33270111636375077,-0.33270111636375077,0.9998935926265501,7.882718838730217e-05
-0.3319476837234106,-0.3319476837234106,0.9998819167918874,7.920325389659286e-05
-0.33123318990692496,-0.33123318990692496,1.0000706950760436,7.839992668464198e-05
-0.3303442049858859,-0.3303442049858859,0.9999387240590492,7.918265838927432e-05
-0.32963926178344993,-0.32963926178344993,1.0001543962580537,7.920383724659892e-05
-0.32854013576579744,-0.32854013576579744,0.9999301938285001,7.869536926165747e-05
-0.32770903133496176,-0.32770903133496176,1.0001243761183638,7.904105977219504e-05
-0.32668647985265126,-0.32668647985265126,1.000029261243015,7.855645087327792e-05
-0.32559098762867505,-0.32559098762867505,0.9999034387060328,7.969310310418153e-05
-0.32479384856123944,-0.32479384856123944,0.9999873381111597,7.913431798226959e-05
-0.32399958789465017,-0.32399958789465017,0.9999503299173973,7.916930047637428e-05
-0.32327374966116623,-0.32327374966116623,0.9999179031086559,7.917230104800714e-05
-0.32267332956253086,-0.32267332956253086,1.0000177871626712,7.968716824258959e-05
-0.3220516340661561,-0.3220516340661561,1.000181217429747,7.96862224428786e-05
-0.3214862335444195,-0.3214862335444195,1.0000563552725161,7.862362685002699e-05
-0.32094941909017505,-0.32094941909017505,1.0000438041290751,7.858484051174055e-05
-0.32040188867831604,-0.32040188867831604,0.9999312570560666,8.059136114582364e-05
-0.3195186866214499,-0.3195186866214499,0.999980235728593,7.864079072637089e-05
-0.3188706267508678,-0.3188706267508678,0.9999305291530897,7.921543109113697e-05
-0.317677959552384,-0.317677959552384,1.000096444843812,7.813412191864962e-05
-0.3168897376745008,-0.3168897376745008,0.9998668720898133,7.973343519958552e-05
-0.316196913755266,-0.316196913755266,1.0001142235474254,7.86114005862228e-05
-0.31560845861095005,-0.31560845861095005,1.000088936578123,7.828758074409283e-05
-0.3149622819182696,-0.3149622819182696,0.9999672766150542,7.979658237825774e-05
-0.31413467320380734,-0.31413467320380734,0.9998539945019992,7.88472720447414e-05
-0.31348108837555627,-0.31348108837555627,1.00010530496996,7.866443043182292e-05
