time,time,flux,flux_err
-0.4999065164241377,-0.4999065164241377,1.0011892319511106,0.0012323627102739704
-0.4998114072138075,-0.4998114072138075,1.0000711235206503,0.0013753780858487248
-0.4997216143892729,-0.4997216143892729,0.9991506165106964,0.0012879917524803153
-0.49957876544067403,-0.49957876544067403,0.9981840148360602,0.0011468031096463602
-0.49941990326624364,-0.49941990326624364,0.9988486458729577,0.0009908514489966882
-0.4993214387752232,-0.4993214387752232,1.0001189087136875,0.0010137633701933252
-0.49922480915120104,-0.49922480915120104,1.0005476882538622,0.0010557032009961265
-0.4991612005032948,-0.4991612005032948,0.9999097732969593,0.0012074033590328001
-0.4990419770459994,-0.4990419770459994,0.9992978275705511,0.0010803154238796825
-0.4989844294061186,-0.4989844294061186,0.9990390635106328,0.001180450737603353
-0.4988621029770002,-0.4988621029770002,1.0004046259832313,0.0011883138320101499
-0.49877157630689906,-0.49877157630689906,1.0004347995990308,0.0010151428102163336
-0.49867503636196486,-0.49867503636196486,1.0008824843777548,0.001239666432053968
-0.4984874828180182,-0.4984874828180182,0.9994463831835032,0.0010587319696884698
-0.4982140301144682,-0.4982140301144682,1.0000081615761656,0.0009448074216502388
-0.4981604863365646,-0.4981604863365646,0.9994048059478005,0.001214298180619642
-0.49800501266872743,-0.49800501266872743,1.0011554536347593,0.0011032078023994359
-0.4978548619139474,-0.4978548619139474,0.9993315268065872,0.0010729056962199505
-0.49771224939468084,-0.49771224939468084,0.9996229088072492,0.0012476491267984313
-0.49761313331546264,-0.49761313331546264,0.9988684357199519,0.001325511731261346
-0.4975435537300655,-0.4975435537300655,1.0007773231098853,0.0011595276238060372
-0.49744328230153767,-0.49744328230153767,0.9998532097680503,0.0010916907378569806
-0.4973448987089796,-0.4973448987089796,1.0007436499615836,0.0013673309940433036
-0.4972685667074984,-0.4972685667074984,1.000169420738974,0.0010018515772446954
-0.4971630260246457,-0.4971630260246457,1.0009089669633962,0.0011845454732588188
-0.49704427246033445,-0.49704427246033445,1.0006364500272031,0.0010203472865076093
-0.4968451560736867,-0.4968451560736867,0.9993993241126171,0.0011529654289787997
-0.49671027524163947,-0.49671027524163947,1.0016323193100862,0.0011732787843957708
-0.49659441675175914,-0.49659441675175914,0.9997257695778599,0.0009576467998534146
-0.4964874390861951,-0.4964874390861951,1.001537992053191,0.0019045142278584569
-0.49637450584996257,-0.49637450584996257,1.0007809405827222,0.0011232564554077352
-0.49629071046074386,-0.49629071046074386,1.0005335040135486,0.001156622728887958
-0.49624260274140397,-0.49624260274140397,1.000406172797829,0.001026256332473241
-0.4961502274571103,-0.4961502274571103,1.0001694825662661,0.0011900580884270746
-0.49604351774032696,-0.49604351774032696,0.9992503414459254,0.0012563088663572815
-0.49586980644380674,-0.49586980644380674,0.9999654287747142,0.0011246609515436043
-0.49578653876815226,-0.49578653876815226,0.9989387477826899,0.0009846342712872072
-0.49568461193557595,-0.49568461193557595,1.0009524309773503,0.0010479510987072053
-0.49560761846660173,-0.49560761846660173,0.9994424207046864,0.0011456952093804329
-0.49538135967595737,-0.49538135967595737,0.9999216288043797,0.0009139488911066264
-0.49529206425941086,-0.49529206425941086,0.9999700979795465,0.0012104412626160728
-0.4951577251238632,-0.4951577251238632,0.9990863078143821,0.0012625852369245985
-0.4949983258571592,-0.4949983258571592,1.0003636069625512,0.0011267322755026332
-0.49486299055424754,-0.49486299055424754,1.0006252951082044,0.001205022176130335
-0.4947840935084969,-0.4947840935084969,1.0005583908686235,0.0013679559220397275
-0.4946388288619346,-0.4946388288619346,0.9994142760856549,0.0013673574486555732
-0.49455469005915803,-0.49455469005915803,1.0010193889058645,0.001055061074784458
-0.4944642118774937,-0.4944642118774937,1.0005403256017176,0.0012844142524211565
-0.4943879687489243,-0.4943879687489243,0.9998032228087259,0.0011952077485083853
-0.49427769570756935,-0.49427769570756935,1.0005107025654574,0.0011165984081404237
-0.4941230128868483,-0.4941230128868483,0.9999987059056069,0.0011722012170567152
-0.4939479656139156,-0.4939479656139156,1.0000039174831272,0.0010989876761943918
-0.49381468497304015,-0.49381468497304015,0.9995299692844746,0.001156257220668752
-0.49365726042888125,-0.49365726042888125,1.000882599991101,0.0009820038998666185
-0.49351786389161134,-0.49351786389161134,1.0005178714850695,0.0011787207481095095
-0.4934174083900871,-0.4934174083900871,1.0008608092850881,0.0012487144922726811
-0.49331915276270594,-0.49331915276270594,1.001273000579107,0.00102183350064958
-0.4932847527859849,-0.4932847527859849,0.9987464625022696,0.0011873365593777665
-0.49325073174113643,-0.49325073174113643,0.999261760301318,0.0009855053954907424
-0.49309352881246016,-0.49309352881246016,0.9993176000519345,0.0012379397155384986
-0.4930046349123586,-0.4930046349123586,0.9990027419895506,0.001133001420603443
-0.492926438980794,-0.492926438980794,1.0008676247020953,0.0011209761981738166
-0.4928232884121826,-0.4928232884121826,0.9995586375515041,0.0011130551871316075
-0.4927349372432218,-0.4927349372432218,1.0004335155052586,0.0010016020317467995
-0.49261763603280995,-0.49261763603280995,0.9990480008796668,0.0011058499788481287
-0.4925340424801107,-0.4925340424801107,0.9991608258555585,0.0010871964604616893
-0.49243815009103853,-0.49243815009103853,1.000521595262775,0.0010972002452945147
-0.49232585447607563,-0.49232585447607563,1.000011600258548,0.0010927593213564087
-0.49217654219974066,-0.49217654219974066,0.999213302842756,0.0012088336580275685
-0.492069354186242,-0.492069354186242,1.001303857705518,0.0012743645903204753
-0.49197534996346803,-0.49197534996346803,1.000262126549495,0.0011576929607579687
-0.4918483705856488,-0.4918483705856488,1.000270771471342,0.0010586451173634469
-0.4917763058387209,-0.4917763058387209,0.9999400773080657,0.001142689631948036
-0.49167637299397027,-0.49167637299397027,1.0017471068721282,0.001227586819097319
-0.4915796606335789,-0.4915796606335789,0.9998077844470356,0.001434036416721507
-0.49146838470041987,-0.49146838470041987,1.0000390952966025,0.001178344915470171
-0.4913334202952683,-0.4913334202952683,0.9993420684895483,0.0011966033439016132
-0.4911741138610523,-0.4911741138610523,1.0006417615526666,0.001108725962088488
-0.491074551687052,-0.491074551687052,1.0011875067908205,0.0010828078630545812
-0.49093303475819994,-0.49093303475819994,1.0000821324210385,0.0012462356962488022
-0.490825120494992,-0.490825120494992,1.0000857022658853,0.001146078431211801
-0.49073242736340034,-0.49073242736340034,0.9994992855213317,0.001158618206311929
-0.4905752851365833,-0.4905752851365833,1.0000315424971318,0.0008877829477757689
-0.49050209467241074,-0.49050209467241074,1.0007901311804195,0.0012892161181364916
-0.49036414017900826,-0.49036414017900826,0.9999536848251995,0.0012193255326713324
-0.4902944204659434,-0.4902944204659434,1.0000107554454734,0.001213767144826168
-0.4902370500305551,-0.4902370500305551,1.0009686266941245,0.0008942029914035116
-0.4901556567841908,-0.4901556567841908,1.0002807616126361,0.0011582627351752908
-0.4900816192181082,-0.4900816192181082,1.0000416918658925,0.0009538102185378103
-0.48995833775552455,-0.48995833775552455,1.0000688766959906,0.0012035070995026758
-0.48985666159424,-0.48985666159424,1.0007204789098374,0.0008859490352668023
-0.48976907654141544,-0.48976907654141544,0.9998947033565349,0.0009844580714203875
-0.4897233008974581,-0.4897233008974581,0.9997655324951534,0.0010235296638457954
-0.48958966160716955,-0.48958966160716955,0.9998233154660243,0.0012435262793056357
-0.48945642162580044,-0.48945642162580044,1.0007133545085831,0.001131600082970911
-0.4893573941706563,-0.4893573941706563,0.9988923486486762,0.0009843964869005457
-0.48926075203635266,-0.48926075203635266,1.00056098193089,0.0013393659651357104
-0.48909905695472844,-0.48909905695472844,1.0001838301425896,0.0012783686507419256
-0.4889887146069668,-0.4889887146069668,1.0012039168872449,0.0011607182554860657
-0.4888786313676974,-0.4888786313676974,1.0002140499435324,0.0011668289692828347
-0.48870019716705426,-0.48870019716705426,1.0012249332394916,0.00122026420057109
-0.48863269916182617,-0.48863269916182617,1.0011755253793369,0.001230606943373043
-0.4885238184637274,-0.4885238184637274,1.0005463625355826,0.001171614540999442
-0.4884254121629056,-0.4884254121629056,0.9997802754207437,0.001191438239425264
-0.4882918235292891,-0.4882918235292891,0.9992621238835252,0.00122909434261065
-0.48814623694488546,-0.48814623694488546,0.9999916525018921,0.0009959751726534415
-0.4880356393769034,-0.4880356393769034,0.9998153642532852,0.0011859083701668998
-0.48799863034510055,-0.48799863034510055,0.9993700322505756,0.0012114391726620248
-0.4879327782342443,-0.4879327782342443,1.000069963523637,0.001264334621431016
-0.4877659890189534,-0.4877659890189534,1.0002543182474066,0.0011616848138155304
-0.48753204816021023,-0.48753204816021023,1.0013434589021595,0.0010968914234140408
-0.48732801543956156,-0.48732801543956156,1.000101062810073,0.000971173018339359
-0.487257460343244,-0.487257460343244,1.000998720099258,0.000889496731766229
-0.48721256342687413,-0.48721256342687413,0.9993868261840675,0.001304532547553003
-0.48708525027323046,-0.48708525027323046,1.0002883444478226,0.001069622199864358
-0.4869703948701499,-0.4869703948701499,1.0012165786860336,0.0010527151122156817
-0.48687824516528055,-0.48687824516528055,1.0006662469864385,0.0010530825502421198
-0.4867814535391517,-0.4867814535391517,1.0004812738983577,0.001399041488176785
-0.48666896628274114,-0.48666896628274114,1.0007148179153857,0.0010252717533575158
-0.48654301659116755,-0.48654301659116755,0.9988532297079699,0.0011678808560746862
-0.48647125250718093,-0.48647125250718093,1.0012978549014886,0.0013883583304874641
-0.48637741993006783,-0.48637741993006783,1.0016739051128454,0.0012026214622193332
-0.48624257448827846,-0.48624257448827846,0.9988728121646057,0.0010382778093168622
-0.486108165603946,-0.486108165603946,0.9991916067349997,0.001300409388415358
-0.48598513916222147,-0.48598513916222147,0.9989859828322223,0.0011117652141106721
-0.48587200456968277,-0.48587200456968277,0.9993363746542462,0.0010426120976386542
-0.4857182585648843,-0.4857182585648843,1.000313287804865,0.0012322597685040125
-0.48549611674243354,-0.48549611674243354,0.9989509018980854,0.0014538763622233013
-0.48537026521808,-0.48537026521808,1.0002136891238902,0.0011854506842291083
-0.4852371524728369,-0.4852371524728369,0.9997472943376755,0.0011285698708105034
-0.4851924876085832,-0.4851924876085832,1.0002179298618623,0.0012686323581571366
-0.48508501024916767,-0.48508501024916767,1.000346717975399,0.0010160430314320843
-0.484998883024673,-0.484998883024673,0.9983142416289313,0.0014022141501064053
-0.4848460262757726,-0.4848460262757726,0.9996855973506328,0.0012255305586790792
-0.4845658054095111,-0.4845658054095111,0.9989645576930413,0.0009834708974532109
-0.48428006408503277,-0.48428006408503277,0.9997380664373765,0.0011275618955683534
-0.4841301595821278,-0.4841301595821278,0.9992513234974139,0.0011462734245179607
-0.48404449290537743,-0.48404449290537743,0.99971483257671,0.0013059910038436286
-0.48396439623611515,-0.48396439623611515,0.9989957485417671,0.0013629356515556224
-0.483888099550677,-0.483888099550677,1.0002994256036293,0.0011875480569775068
-0.4837906064494746,-0.4837906064494746,0.9997979135885677,0.001160186705492323
-0.4836609775797115,-0.4836609775797115,1.0006260609783664,0.0011619215201145727
-0.4835032600254635,-0.4835032600254635,1.0006999344774694,0.0013109484983647147
-0.4833996417961316,-0.4833996417961316,1.0000595697387678,0.0010372765245576124
-0.48335595005337384,-0.48335595005337384,1.0011532838059343,0.001303905223282152
-0.48330091652314877,-0.48330091652314877,1.0018715391961812,0.00112722112556933
-0.4832010175901814,-0.4832010175901814,0.9997251685716277,0.0009380528135377682
-0.4830660668987548,-0.4830660668987548,0.9993710897375772,0.0009874774823387807
-0.4829328544481541,-0.4829328544481541,0.9995598290473289,0.0010769516002162678
-0.4828426650681649,-0.4828426650681649,1.0004130906148978,0.001211065808087815
-0.48274475107173204,-0.48274475107173204,1.0012504057996043,0.0013415869387025422
-0.48260062274202936,-0.48260062274202936,1.0008091228497964,0.0012895975325173952
-0.4824607914692024,-0.4824607914692024,1.0007333942112933,0.001261470419869543
-0.48239054638834206,-0.48239054638834206,1.0004926037541728,0.0013320514954434045
-0.4822509446021286,-0.4822509446021286,0.9994880697378624,0.0011402764745805547
-0.48214687909494386,-0.48214687909494386,1.0003457732287624,0.0011234090998685077
-0.48204663044016344,-0.48204663044016344,0.9984163271619566,0.0011323655955362904
-0.481843808942358,-0.481843808942358,0.9985851778403735,0.0012243094466054764
-0.4816273259522859,-0.4816273259522859,0.9984064371247026,0.0010121430121946395
-0.4814774175043567,-0.4814774175043567,1.0008791294169967,0.0009230386761905124
-0.4813219385265256,-0.4813219385265256,1.0003885054918178,0.0012953084217544569
-0.48116935309226394,-0.48116935309226394,1.0006234847582032,0.001236166672356317
-0.4810613820474828,-0.4810613820474828,0.9998631375049036,0.001184282778546156
-0.48097819242684636,-0.48097819242684636,0.9993313611977108,0.0011561339108820403
-0.4808898672272335,-0.4808898672272335,1.0001600544606593,0.0011417587423864363
-0.48068487996642945,-0.48068487996642945,1.0000300960374506,0.0011456246318598273
-0.4805438829731429,-0.4805438829731429,0.9997548602032946,0.001308161690020298
-0.4804470016650157,-0.4804470016650157,1.0003622983758338,0.001027903553262335
-0.48035981742723377,-0.48035981742723377,0.9997856808891099,0.0011429882997881083
-0.4802922163362382,-0.4802922163362382,0.9998392574319641,0.0010844817984950457
-0.48017888911417683,-0.48017888911417683,0.9993421069257442,0.0008610186635830061
-0.4800748618625221,-0.4800748618625221,1.0004957458802561,0.0011346253221944287
-0.4798667726063286,-0.4798667726063286,0.9990571450550142,0.0012616693806491172
-0.47972719259996666,-0.47972719259996666,1.0005683911928107,0.0012692047385035028
-0.4796361242842977,-0.4796361242842977,1.0000831413810825,0.00142600949277009
-0.4794897735235281,-0.4794897735235281,0.9990851777818472,0.0011574685056072254
-0.47937111376813846,-0.47937111376813846,0.9989776664906943,0.001030979866141624
-0.47921467476699037,-0.47921467476699037,0.9989508736927869,0.0009226003830960665
-0.47910874181980034,-0.47910874181980034,0.9998653716557948,0.0012781454787295042
-0.47899561232334237,-0.47899561232334237,1.000879729152056,0.001008377167950259
-0.4787932523904601,-0.4787932523904601,0.9996856560641063,0.0010336777877461153
-0.4786765505210496,-0.4786765505210496,0.9994999668954115,0.0009592866795110908
-0.47851617994892875,-0.47851617994892875,1.000506489630552,0.0012849855846366978
-0.478412437850784,-0.478412437850784,1.0003318336245026,0.0012771850984558174
-0.47830206099606587,-0.47830206099606587,1.0000361402826567,0.0012524437077375624
-0.47817960396205306,-0.47817960396205306,0.9997741945685161,0.0012029159887260352
-0.4780513435136527,-0.4780513435136527,0.9998768525605239,0.0010924502855196767
-0.47795399603055555,-0.47795399603055555,1.0008519927501296,0.0010953026375845043
-0.47788348645408407,-0.47788348645408407,0.9996126903568839,0.0010821903862393855
-0.47779894525447164,-0.47779894525447164,0.9985538011262524,0.0010276594444386165
-0.4776293151269783,-0.4776293151269783,0.9993743592931071,0.0012941621603745938
-0.4774982218470541,-0.4774982218470541,0.9997981900224859,0.0009491251217605938
-0.47733738410897786,-0.47733738410897786,0.9994962619408849,0.0009747584217742954
-0.4772599772986723,-0.4772599772986723,0.999474824637675,0.0012275334936436995
-0.47714544137124904,-0.47714544137124904,0.9987000138013231,0.001242481766853438
-0.4770209825161146,-0.4770209825161146,1.0003604528960972,0.0013173273423458592
-0.47691147417062896,-0.47691147417062896,1.001499760323192,0.0010675074920914638
-0.4768266446175403,-0.4768266446175403,1.0007832584172711,0.001251319679536052
-0.4767366668762406,-0.4767366668762406,0.999747224039336,0.0012255299171909538
-0.4766139039769769,-0.4766139039769769,1.0004743647859033,0.0010253133928829394
-0.476429579150863,-0.476429579150863,1.0008588211119727,0.0011514787935550026
-0.47627553511119913,-0.47627553511119913,1.0006917681020195,0.0010419979365556432
-0.47619648891850375,-0.47619648891850375,0.9990550692995095,0.0012341138394982801
-0.4760558412075625,-0.4760558412075625,0.9999514844445452,0.001048477732746894
-0.4759046521925484,-0.4759046521925484,1.0007525643601958,0.0011005160337619945
-0.475808882585261,-0.475808882585261,0.9987849377301086,0.0009468331691352995
-0.475689431677165,-0.475689431677165,1.0000602978698905,0.0012736312027597139
-0.4755981700160191,-0.4755981700160191,0.9991864830200857,0.0011952952877298576
-0.47551418440125415,-0.47551418440125415,0.9990565611696687,0.001135590875473489
-0.47542633044649846,-0.47542633044649846,0.9995821357813265,0.0013242023560351476
-0.4753201450803317,-0.4753201450803317,1.0003372524631295,0.001262080780488217
-0.4751993238241994,-0.4751993238241994,1.000571903932996,0.001222006572627317
-0.4750131599212182,-0.4750131599212182,0.9995651987446832,0.0011227567897903051
-0.47486222382140114,-0.47486222382140114,1.0008040914926382,0.0012553205204753543
-0.4747948387026554,-0.4747948387026554,1.0010482989329514,0.0011245684430432833
-0.4746472142767743,-0.4746472142767743,0.9993871917045365,0.00105247189746254
-0.4744904729974223,-0.4744904729974223,0.9999551848905156,0.0010152475422254023
-0.4743527563623502,-0.4743527563623502,1.0002630988360441,0.0011121962274384357
-0.4742864249681588,-0.4742864249681588,1.0016058365330052,0.0011355266984778383
-0.47422611490619604,-0.47422611490619604,0.9982531904376962,0.0010989266517176784
-0.4741344804468099,-0.4741344804468099,0.9991918763638893,0.0011920891237610846
-0.47402335829101505,-0.47402335829101505,0.999308672924602,0.0011522939580513288
-0.473937712564657,-0.473937712564657,0.9992915846273617,0.0010351975556807489
-0.47383438511023995,-0.47383438511023995,0.9994819668989917,0.001161567148956813
-0.4737564732073224,-0.4737564732073224,1.001405936627518,0.0010380089501985876
-0.47367384847602806,-0.47367384847602806,0.9989704897394353,0.0010376807886090399
-0.4734625708704698,-0.4734625708704698,0.9980143168363863,0.001028998693729352
-0.47328437020478303,-0.47328437020478303,0.9999320146023025,0.0011681690722003253
-0.4731359677840373,-0.4731359677840373,1.0012778892734733,0.00102800454697422
-0.4729895264026709,-0.4729895264026709,1.0004063401682957,0.0010815339358012648
-0.47289741938584484,-0.47289741938584484,0.9999932820320451,0.001085638569337548
-0.47283125629328426,-0.47283125629328426,0.9996826881488452,0.0012985014214755128
-0.4727193965285551,-0.4727193965285551,1.0004495027185496,0.0011710561442042373
-0.472624123073183,-0.472624123073183,0.9999719679163087,0.001246511191321686
-0.47255561909551036,-0.47255561909551036,1.0002858417358627,0.000955910489452996
-0.4725069019390503,-0.4725069019390503,1.0010199127703374,0.0012460120626146991
-0.47242010818299607,-0.47242010818299607,1.0006735599031604,0.0011390996779973132
-0.4723571071153856,-0.4723571071153856,0.9982177782364555,0.0011188956830324264
-0.4722799163791933,-0.4722799163791933,0.9999898599562705,0.001160009135951533
-0.47207949034054764,-0.47207949034054764,0.9985631823654263,0.001034665891674302
-0.47199534653045705,-0.47199534653045705,0.9990166260582098,0.0010337496673863103
-0.4718416179908672,-0.4718416179908672,1.0004158671635988,0.0011976526030616245
-0.4716928717403789,-0.4716928717403789,1.0010384137762325,0.0010244796927251492
-0.47151849466608836,-0.47151849466608836,0.9985833863275261,0.0013458025497262043
-0.47142907409288454,-0.47142907409288454,0.9995529030547547,0.001077249229564157
