time,time,flux,flux_err
-0.49988416291998305,-0.49988416291998305,1.0000195977156179,0.00010786023456072015
-0.49964934282917284,-0.49964934282917284,1.0002737380559563,9.77808959493541e-05
-0.499469588398199,-0.499469588398199,1.0000207179148342,9.884423529743521e-05
-0.4993320204131919,-0.4993320204131919,0.999989455461557,9.8365535620559e-05
-0.49905994626965366,-0.49905994626965366,0.9998960313653459,9.716536264888444e-05
-0.49880678783414395,-0.49880678783414395,1.0000027561229754,0.00010005670192146857
-0.4985072492068866,-0.4985072492068866,0.9998848132723331,9.88762633989179e-05
-0.49827300766071403,-0.49827300766071403,0.9998844803329707,9.755651361900991e-05
-0.49810291921210137,-0.49810291921210137,0.9999435223769545,9.839149969035807e-05
-0.4979311955518256,-0.4979311955518256,0.9998568933767975,9.925289757091113e-05
-0.4976971352242231,-0.4976971352242231,0.9999011016681829,9.833020857337904e-05
-0.4975331062185774,-0.4975331062185774,0.9998525481400158,9.773065816612978e-05
-0.4973098234391273,-0.4973098234391273,1.0000533694706522,9.892510058697841e-05
-0.4971133347482919,-0.4971133347482919,1.0000801285737897,9.773694837371895e-05
-0.4969633797524011,-0.4969633797524011,1.0001879561782387,9.901301665508262e-05
-0.4967596950604161,-0.4967596950604161,0.9999542733172555,9.757132726952759e-05
-0.49648266733299806,-0.49648266733299806,1.0001582386485357,9.777510619483121e-05
-0.4962550325952407,-0.4962550325952407,0.9999309428970123,0.00010026014820533043
-0.49594399400046996,-0.49594399400046996,0.9999120997431266,9.820292733400931e-05
-0.49573361361055956,-0.49573361361055956,1.000051554808667,9.834898610235412e-05
-0.49558366926414693,-0.49558366926414693,1.0000658615559548,9.854651590639427e-05
-0.4953619507193139,-0.4953619507193139,1.000043706528381,9.947861044788309e-05
-0.49518170619289775,-0.49518170619289775,1.0000776112475784,9.786659594332309e-05
-0.4949832786984416,-0.4949832786984416,0.9999395694742207,9.900582550541484e-05
-0.49477856969334655,-0.49477856969334655,0.999916496199339,9.766125940168595e-05
-0.4945703603765992,-0.4945703603765992,0.9999094048545702,9.788728118962533e-05
-0.49445027465408203,-0.49445027465408203,0.9998980636896032,9.802370404479594e-05
-0.4941559165327362,-0.4941559165327362,1.000002560805798,9.85301291862297e-05
-0.4938861288337989,-0.4938861288337989,0.9999382270375982,0.00010005381822463769
-0.4935865777330264,-0.4935865777330264,1.0000210583475595,9.887199705520613e-05
-0.4933523152309817,-0.4933523152309817,1.000135181605288,9.755937680783921e-05
-0.4931822265792789,-0.4931822265792789,0.999997330461914,9.839161094260423e-05
-0.4930105070528725,-0.4930105070528725,1.000098842381058,9.925036347498291e-05
-0.4927486531043769,-0.4927486531043769,1.0000428131855823,9.860954679793318e-05
-0.4925679966514167,-0.4925679966514167,1.0000931088361684,9.778745704484956e-05
-0.49235327670221524,-0.49235327670221524,1.000043402861588,9.78519566071969e-05
-0.4921100399835495,-0.4921100399835495,1.000109831278501,9.790815542151456e-05
-0.49200869960601495,-0.49200869960601495,0.9998830713072149,9.88455004787502e-05
-0.4918217508254429,-0.4918217508254429,1.0000954636407264,9.74923381893535e-05
-0.4915076839524204,-0.4915076839524204,1.0000914857378145,9.890882701433963e-05
-0.49128101647422684,-0.49128101647422684,1.0000613718103046,0.00010039876807535197
-0.4909740317083788,-0.4909740317083788,1.00011281038493,9.714403221355596e-05
-0.4907725745707694,-0.4907725745707694,0.9999252401084814,9.854769577781015e-05
-0.49063207875381065,-0.49063207875381065,0.999927095818698,9.94258945939887e-05
-0.49039005199730357,-0.49039005199730357,0.9999014727326434,9.799930974756048e-05
-0.4901836747610105,-0.4901836747610105,1.000010141888926,9.843579287241859e-05
-0.48997895601946767,-0.48997895601946767,0.9998746013413088,9.87553463804024e-05
-0.48973705063689293,-0.48973705063689293,0.9998401634259345,9.664229904948814e-05
-0.48958237246342834,-0.48958237246342834,0.9999422871715049,9.89948307569463e-05
-0.48937960412448545,-0.48937960412448545,0.9998166674152159,9.873465863479414e-05
-0.4891016691293316,-0.4891016691293316,1.0000968712550855,9.779597120213497e-05
-0.4888740076064096,-0.4888740076064096,1.0000995682483185,0.00010023654008057687
-0.48856298406774384,-0.48856298406774384,1.0000127541456805,9.822164096501584e-05
-0.48835258508349855,-0.48835258508349855,0.9999929433189882,9.834823782790775e-05
-0.48820260436104945,-0.48820260436104945,1.0000027826811357,9.853898746750452e-05
-0.48797671435122536,-0.48797671435122536,1.0000111670756076,9.894836908412566e-05
-0.4877623879664384,-0.4877623879664384,1.0000388886711942,9.802536781730779e-05
-0.4875637122790636,-0.4875637122790636,1.000052729707162,9.861907135198405e-05
-0.48730511342969296,-0.48730511342969296,0.9999375796064738,9.743977666484793e-05
-0.4871424514579189,-0.4871424514579189,0.9998723793157623,9.889822817131125e-05
-0.48698047118298293,-0.48698047118298293,0.9999872771403465,9.8527644491029e-05
-0.4866949330181001,-0.4866949330181001,0.9999524072775975,9.744554095382117e-05
-0.48646944330680525,-0.48646944330680525,1.000010237064893,0.00010047877521045965
-0.4861498338960587,-0.4861498338960587,0.9999625913359604,9.852016365100419e-05
-0.4859267079686447,-0.4859267079686447,1.00008884374035,9.633300248729779e-05
-0.485768411362676,-0.485768411362676,0.9998276879872059,9.916082891685844e-05
-0.4856253970454418,-0.4856253970454418,1.0000006304417393,9.932501785283798e-05
-0.48536773107765613,-0.48536773107765613,0.9999888216991538,9.860764991951983e-05
-0.4851869485806901,-0.4851869485806901,1.000120209028103,9.777637522806323e-05
-0.4849453734292865,-0.4849453734292865,1.0003562476676018,9.781583259426336e-05
-0.4847076306695953,-0.4847076306695953,1.0002543849408005,9.883731975235543e-05
-0.48457010722615906,-0.48457010722615906,1.0000526124710176,9.83329828243652e-05
-0.4843476692136733,-0.4843476692136733,1.0000464320389348,9.776124006868439e-05
-0.48407594134988585,-0.48407594134988585,1.0000588548380458,9.925437865731387e-05
-0.48382500029357517,-0.48382500029357517,1.000012350796705,9.9649415474308e-05
-0.4835495732293566,-0.4835495732293566,1.0002784141436272,9.71703516220938e-05
-0.4833626744108074,-0.4833626744108074,0.9999032923568428,9.80896596994233e-05
-0.48321724475847533,-0.48321724475847533,0.9998941367962958,9.952268735672978e-05
-0.48296768844688814,-0.48296768844688814,0.9999811250504074,9.799760976007871e-05
-0.48280262489595316,-0.48280262489595316,0.9998994881482011,9.841701802106983e-05
-0.48259796068750804,-0.48259796068750804,0.9999551010443302,9.8708412003866e-05
-0.4823105544354803,-0.4823105544354803,1.0000016425517255,9.690336482954573e-05
-0.48216459930206385,-0.48216459930206385,1.0000694150553686,9.898373667077397e-05
-0.48192588343769105,-0.48192588343769105,0.9999455874802562,9.840211059008838e-05
-0.48166243392156505,-0.48166243392156505,1.0000311195487694,9.8903393903063e-05
-0.4813844876272924,-0.4813844876272924,1.0001261772490517,0.00010036543570728434
-0.4811326814922836,-0.4811326814922836,1.0000275550997872,9.715050673583316e-05
-0.48090798829480264,-0.48090798829480264,0.9999738074701892,9.841004148175143e-05
-0.480756897454296,-0.480756897454296,0.9999169652540265,9.952464176439841e-05
-0.4805073953273336,-0.4805073953273336,0.9999793499405127,9.80041350246833e-05
-0.48037578622673893,-0.48037578622673893,0.9998999719827619,9.771194610863469e-05
-0.48018271207366753,-0.48018271207366753,1.000068785883764,9.858657021775895e-05
-0.4799102104487133,-0.4799102104487133,1.0000342344516007,9.738622727366588e-05
-0.4797410296078851,-0.4797410296078851,1.0000300450587611,9.900021857490632e-05
-0.479515808677229,-0.479515808677229,0.9998659054692041,9.848027015463539e-05
-0.4793421349010714,-0.4793421349010714,1.0000072771240838,9.621758715549204e-05
-0.4790939073258073,-0.4790939073258073,0.999768614646902,9.967424371036013e-05
-0.4787688223349619,-0.4787688223349619,0.9998424072264174,9.851881079069604e-05
-0.47857528635026936,-0.47857528635026936,1.0000434272974486,9.738815344868739e-05
-0.4783873572160019,-0.4783873572160019,1.0002203466425084,9.917760590885812e-05
-0.4781913075007992,-0.4781913075007992,1.0000754041969842,9.907450533596755e-05
-0.477997568744604,-0.477997568744604,1.0000215975396836,9.785230940098164e-05
-0.4778504219347724,-0.4778504219347724,0.999927775586141,9.77168345147549e-05
-0.4776230460265992,-0.4776230460265992,0.9999420932618104,9.871126844825435e-05
-0.477348117756253,-0.477348117756253,0.9998931355413336,9.786704801459209e-05
-0.47720247418469625,-0.47720247418469625,0.9999968737418733,9.933824014723542e-05
-0.47696664569381253,-0.47696664569381253,0.999930446912576,9.775099628328052e-05
-0.47672867409344233,-0.47672867409344233,1.0001475503037862,9.72638445832116e-05
-0.47644398493712287,-0.47644398493712287,0.9998817280638204,9.961475614409619e-05
-0.4761924588035754,-0.4761924588035754,0.9998891682382457,9.790839802255382e-05
-0.4759872633978148,-0.4759872633978148,0.9999906300767888,9.841284285049025e-05
-0.47583620285170125,-0.47583620285170125,0.9999950295437975,9.95196430261359e-05
-0.47558680910779005,-0.47558680910779005,0.9999673110037872,9.800991360282908e-05
-0.47545511577951627,-0.47545511577951627,1.0000485050154502,9.770111235869103e-05
-0.4752758304337362,-0.4752758304337362,1.0000724925093514,9.859506830706003e-05
-0.4750461851674572,-0.4750461851674572,1.0001527521264255,9.735676577516493e-05
-0.4748408138678428,-0.4748408138678428,1.0000031827206983,9.889861057662649e-05
-0.4746421127498593,-0.4746421127498593,1.0000199387426074,9.856500894669075e-05
-0.4744214621853075,-0.4744214621853075,0.9997958195956208,9.622035331995726e-05
-0.4741732265694168,-0.4741732265694168,0.9999814546921879,9.96657407558229e-05
-0.473848147953845,-0.473848147953845,1.0000383854309214,9.853499216795455e-05
-0.47365460980508944,-0.47365460980508944,1.0002358733881487,9.741208564034403e-05
-0.4734666544889592,-0.4734666544889592,0.9998403551932936,9.915785755100525e-05
-0.47327064369345634,-0.47327064369345634,0.9999110296011073,9.906913378375259e-05
-0.47307695839069763,-0.47307695839069763,1.0000396011431198,9.78515975660798e-05
-0.4729297509139883,-0.4729297509139883,1.000101143387957,9.771513544451945e-05
-0.4727431496728059,-0.4727431496728059,0.9999972996464184,9.86658144584546e-05
-0.4724693345278297,-0.4724693345278297,0.9999595981078512,9.689407179540171e-05
-0.47232330777310383,-0.47232330777310383,1.00001886354899,9.897580279600744e-05
-0.47208451127119133,-0.47208451127119133,0.9999197057811452,9.838260377734406e-05
-0.4718587117028846,-0.4718587117028846,0.9999967007100132,9.691361833919653e-05
-0.4715982587924373,-0.4715982587924373,1.000028705279329,0.00010039168975806731
-0.4712920869130926,-0.4712920869130926,0.9999492589812352,9.810845989437194e-05
-0.4710753615447629,-0.4710753615447629,1.0000000108928724,9.752846687722744e-05
-0.4709492944146973,-0.4709492944146973,0.9998883535467487,9.940315388347595e-05
-0.4707076256232995,-0.4707076256232995,0.9998290977771159,9.798153298531422e-05
-0.47056991482775173,-0.47056991482775173,1.0000640239572451,9.846196993030245e-05
-0.4703861598190997,-0.4703861598190997,1.0001214372555014,9.767721888083703e-05
-0.4701834829493691,-0.4701834829493691,1.0000261162683768,9.771216997711783e-05
-0.4699456733183524,-0.4699456733183524,1.0000219869831088,9.881172946835834e-05
-0.4697714129738415,-0.4697714129738415,1.000099802002984,9.835912606563067e-05
-0.4695451121195674,-0.4695451121195674,0.9998645746841704,9.673117860201797e-05
-0.46930817764983884,-0.46930817764983884,1.000023646984332,9.964171107767446e-05
-0.468983220346945,-0.468983220346945,1.0000114086811258,9.88920926570793e-05
-0.46874707134891197,-0.46874707134891197,1.000001146436255,9.762704038433785e-05
-0.4685459517849722,-0.4685459517849722,0.9999501445150922,9.91592324418974e-05
-0.46836896645000936,-0.46836896645000936,1.0001096880759779,9.830745193345398e-05
-0.4681774608654223,-0.4681774608654223,1.000031890391607,9.805005225347574e-05
-0.4680405252441687,-0.4680405252441687,0.999926736662282,9.84239542813069e-05
-0.4678583887261084,-0.4678583887261084,1.000019881717843,9.785695224962717e-05
-0.46760869109446046,-0.46760869109446046,1.0000060137501146,9.735169567899667e-05
-0.46743935133149533,-0.46743935133149533,1.0001393078489689,9.89867016389846e-05
-0.4671998260131545,-0.4671998260131545,1.0001420103712115,9.876920867982688e-05
-0.46698867482427886,-0.46698867482427886,0.9998996674493561,9.62139986327164e-05
-0.4666953124814654,-0.4666953124814654,0.9998264697282442,9.981340306415879e-05
-0.4664207196924622,-0.4664207196924622,1.0000012242705076,9.918184886183851e-05
-0.4661905308973246,-0.4661905308973246,0.9999715717038141,9.75740942878819e-05
-0.46602859835775234,-0.46602859835775234,0.9998554249246687,9.93905563251712e-05
-0.465810217756507,-0.465810217756507,0.9999177795194395,9.782013114945372e-05
-0.4656724250560046,-0.4656724250560046,1.0000461288209017,9.859868944891019e-05
-0.465509248062267,-0.465509248062267,1.0000122272799068,9.674194266619472e-05
-0.46532137567141946,-0.46532137567141946,1.000081874700899,9.862437392048206e-05
-0.46504651607184544,-0.46504651607184544,1.0000370986088942,9.787952273326683e-05
-0.4649008558463379,-0.4649008558463379,1.0000969248916414,9.930671462057155e-05
-0.4646649399957369,-0.4646649399957369,0.9999503492057011,9.774844537011721e-05
-0.46442516042579884,-0.46442516042579884,0.9999451693411547,9.767740504997816e-05
-0.46406254886638865,-0.46406254886638865,1.0001095444525818,9.889969320890632e-05
-0.46385074053528114,-0.46385074053528114,0.9998231119402924,9.848205842012477e-05
-0.4636580713195372,-0.4636580713195372,0.9999116046184143,9.838011237391369e-05
-0.46348667141576244,-0.46348667141576244,0.9999824940063713,9.932958902522088e-05
-0.46328534369342833,-0.46328534369342833,1.0000864366267368,9.802077315116985e-05
-0.46315343975313683,-0.46315343975313683,1.0000111429411267,9.7705722267795e-05
-0.4629741762009189,-0.4629741762009189,0.9999700556326548,9.852583331131535e-05
-0.46279010902409257,-0.46279010902409257,1.0000144882385147,9.823969821380512e-05
-0.4625646947806672,-0.4625646947806672,0.999860034800934,9.879761959224716e-05
-0.4623904203689676,-0.4623904203689676,1.0000744715462226,9.836073932923837e-05
-0.4621444446342252,-0.4621444446342252,1.000017804342172,9.673587069925605e-05
-0.4619007504993647,-0.4619007504993647,1.0000530616390884,9.929126001371124e-05
-0.4615464619548334,-0.4615464619548334,1.000059091397964,9.855166850603219e-05
-0.4613106216620963,-0.4613106216620963,1.0001930842598452,9.830147951734786e-05
-0.46113869999275037,-0.46113869999275037,0.9999905649495003,9.853605360880498e-05
-0.46093515139642705,-0.46093515139642705,1.0000565019467456,9.882906787577359e-05
-0.46077543253637715,-0.46077543253637715,0.999913506683928,9.784685054436442e-05
-0.4606280734349525,-0.4606280734349525,0.999991085834502,9.770173085628567e-05
-0.4604414896530898,-0.4604414896530898,0.999811900961304,9.859127339548277e-05
-0.46017854954898213,-0.46017854954898213,0.9999087929246036,9.761890936277921e-05
-0.4600583445342636,-0.4600583445342636,1.0000034992297757,9.89619093881391e-05
-0.4598537218724118,-0.4598537218724118,0.9999805283254896,0.00010019437660573562
-0.4596106055316227,-0.4596106055316227,0.9998287987492583,9.658391767742959e-05
-0.45931351540745025,-0.45931351540745025,1.0000129974897227,9.869541356056979e-05
-0.4590358079752036,-0.4590358079752036,0.9999791759915828,9.919409073765513e-05
-0.45880946542451967,-0.45880946542451967,1.0001255484055305,9.75812819053166e-05
-0.45864755431363163,-0.45864755431363163,0.9998162584112567,9.94079463870733e-05
-0.45842928116251186,-0.45842928116251186,1.0000652277845163,9.781871018779814e-05
-0.45829149558175003,-0.45829149558175003,0.9999973837389107,9.861991085147149e-05
-0.4581282540084658,-0.4581282540084658,0.9999254737935805,9.674573446326782e-05
-0.4579403734044149,-0.4579403734044149,1.0003428645701984,9.857137986755233e-05
-0.45766555514331914,-0.45766555514331914,1.0002240676652736,9.788481822810894e-05
-0.45751988495163687,-0.45751988495163687,0.9998884401231012,9.929000730260671e-05
-0.45726329259688325,-0.45726329259688325,1.0001120090889528,9.694040026622222e-05
-0.45703007756817443,-0.45703007756817443,0.9999434992732924,9.963121044923666e-05
-0.4567957215860815,-0.4567957215860815,1.0000414326606375,9.959803354405727e-05
-0.45650604576570686,-0.45650604576570686,0.9999746878685334,9.736659204795977e-05
-0.4562851257478314,-0.4562851257478314,0.9998428809137272,9.914542885488905e-05
-0.4561534245146845,-0.4561534245146845,0.9999380000079015,9.952341409107778e-05
-0.4559294012813325,-0.4559294012813325,0.9998419805421659,9.699548665699007e-05
-0.455807986281593,-0.455807986281593,0.999931974597122,9.841712278565396e-05
-0.4556241413089651,-0.4556241413089651,1.0000423560147618,9.767244672702394e-05
-0.4554215921832224,-0.4554215921832224,0.9998690718953419,9.761246688980798e-05
-0.4551837163370237,-0.4551837163370237,0.9999215761986224,9.880126256379889e-05
-0.4550094278572715,-0.4550094278572715,0.9998258325324739,9.834337455392792e-05
-0.4547540227745344,-0.4547540227745344,0.9999071942701565,9.750305089238283e-05
-0.4544944236506353,-0.4544944236506353,1.000013635980195,9.964237784181086e-05
-0.4542377201942031,-0.4542377201942031,1.0000710853828787,9.73649816905468e-05
-0.4539978235133731,-0.4539978235133731,1.0000119929049238,9.729645188328411e-05
-0.45378384383732284,-0.45378384383732284,0.999859988268365,9.91625693851495e-05
-0.45360693186592016,-0.45360693186592016,1.0001073547827442,9.831854655839914e-05
-0.45344128819360774,-0.45344128819360774,0.9999995706614072,9.911005366295791e-05
-0.45331209902954017,-0.45331209902954017,1.0000172184695675,9.770819097487364e-05
-0.4531328528649851,-0.4531328528649851,1.000049176539099,9.849423136334731e-05
-0.4529034258540946,-0.4529034258540946,0.9999229511705513,9.728784893064824e-05
-0.4526978666319678,-0.4526978666319678,1.0001345421820151,9.88749827551681e-05
-0.45249912219210275,-0.45249912219210275,1.0000537457669982,9.855078165197407e-05
-0.45222959784863404,-0.45222959784863404,1.000229140009374,9.66665817489081e-05
-0.4519324828991785,-0.4519324828991785,0.9999700147576152,9.86729048820523e-05
-0.4517017332715113,-0.4517017332715113,1.0000284840441247,9.808788420017134e-05
-0.45147316645454794,-0.45147316645454794,1.0000067576928438,9.829873333143502e-05
-0.4512972803372918,-0.4512972803372918,0.999726974573179,9.853112377985508e-05
-0.45110966339055947,-0.45110966339055947,0.9999257888537885,9.900444446435477e-05
-0.45095540319259725,-0.45095540319259725,1.0000134871427409,9.802395540950873e-05
-0.4508180757790342,-0.4508180757790342,1.0000267590957048,9.84049136812835e-05
-0.4506361534449866,-0.4506361534449866,1.000077242257141,9.779184856350634e-05
-0.4503865638691423,-0.4503865638691423,1.0000821433622666,9.73121595874447e-05
-0.45021700232446166,-0.45021700232446166,0.9999768303717437,9.896739569601774e-05
-0.4499774201151922,-0.4499774201151922,1.0000363709448532,9.874060723395858e-05
-0.4497157233323151,-0.4497157233323151,1.000052508189783,9.700881532714216e-05
-0.44941507929075897,-0.44941507929075897,0.9999463043450165,9.924645667634823e-05
-0.44919637864499007,-0.44919637864499007,0.9999461538843949,9.78984420285453e-05
-0.4489680449467187,-0.4489680449467187,0.999788877157236,9.75644449095299e-05
-0.4488061623003432,-0.4488061623003432,1.0001716926892374,9.943274362762782e-05
-0.4486067363637744,-0.4486067363637744,0.9999296948316163,9.864876867267372e-05
-0.4484571272305516,-0.4484571272305516,0.9999111178617082,9.883793226388962e-05
-0.4482869286393907,-0.4482869286393907,0.9999178048901249,9.674021556014593e-05
-0.4480990369923802,-0.4480990369923802,1.000093407746386,9.850005628095015e-05
-0.447845231102724,-0.447845231102724,0.9999974729729775,9.685078096221273e-05
