time,time,flux,flux_err
-0.4998999505108562,-0.4998999505108562,1.0002150953717528,0.000122562301727968
-0.49974989409990184,-0.49974989409990184,0.9998467095290553,0.00012018988687275774
-0.49956860977302614,-0.49956860977302614,0.9999795813814787,0.00011450499075813711
-0.49939028292101284,-0.49939028292101284,1.0000373065187347,0.00012100566293414918
-0.49931168919283664,-0.49931168919283664,1.0000431377124137,0.000100393885870107
-0.4992311162633996,-0.4992311162633996,1.0000522223089454,0.00011589130872886142
-0.4991494068344764,-0.4991494068344764,1.0000732098248348,0.00010210804564907277
-0.49898793436368577,-0.49898793436368577,0.999725412944786,0.000111947914513513
-0.4988119497691514,-0.4988119497691514,0.9999528616092604,0.00010640965445514316
-0.49867237770522477,-0.49867237770522477,0.9998675582926719,0.00010642577736967469
-0.4985878147839685,-0.4985878147839685,0.9999601938520467,0.00010577459888196922
-0.49849911942801556,-0.49849911942801556,0.99991898528163,0.00010405736143889269
-0.4984361348753737,-0.4984361348753737,1.0002528426847515,0.00010955065713626701
-0.49835914872091963,-0.49835914872091963,0.9999820972039298,0.00010700714271255557
-0.4982404073372891,-0.4982404073372891,0.9999384725815762,0.000111213051176496
-0.49812682347183,-0.49812682347183,0.9999632492776384,0.0001046133794708437
-0.4980188565830758,-0.4980188565830758,0.9999639269561339,0.000101880548643591
-0.49786253740167014,-0.49786253740167014,0.9999635323729497,0.0001097947819796457
-0.4977491674857447,-0.4977491674857447,1.0000681937669373,0.0001045415425437769
-0.49760102634099895,-0.49760102634099895,0.9999607041009124,0.00010306726942818013
-0.49749549603511695,-0.49749549603511695,0.9999519099091956,0.00010282610913936658
-0.4973530873117852,-0.4973530873117852,0.9999299479569667,0.00010896921766693376
-0.49717450377356726,-0.49717450377356726,0.9998853788510669,0.0001095507637527368
-0.49705901167253613,-0.49705901167253613,1.000075716174494,0.00010706805128195114
-0.49692989988107,-0.49692989988107,1.000010464515989,0.00010970481508215646
-0.4967908880484174,-0.4967908880484174,1.0000653567665934,0.00011223059027948615
-0.4966643225445296,-0.4966643225445296,1.0001468706617715,0.00011056117655407701
-0.49651028958469395,-0.49651028958469395,0.9999342186945015,0.00010702098686383757
-0.49639108615519945,-0.49639108615519945,0.9998515398929317,0.00010335838136755
-0.49625370924331946,-0.49625370924331946,0.9999154923830782,0.00011468185832234756
-0.49607966389594366,-0.49607966389594366,0.999918571053979,0.00010251719574707017
-0.4959523148594599,-0.4959523148594599,0.9999982166090728,0.00010273363181239822
-0.49583994359491046,-0.49583994359491046,1.0000663207303295,0.00010458844578190923
-0.49569057874396094,-0.49569057874396094,0.999912588716283,0.00010448137609618369
-0.4956078394010547,-0.4956078394010547,0.9999488642809495,0.00011172719711393154
-0.4955009971658001,-0.4955009971658001,0.9998845423028184,0.00010947673067034718
-0.4953569124765636,-0.4953569124765636,1.0001110017826018,0.00010490347697935413
-0.4952600103759323,-0.4952600103759323,0.9999665248921199,0.00010755707330109877
-0.4950783019667142,-0.4950783019667142,1.0000130282285322,0.00010759351195725289
-0.4949860259948764,-0.4949860259948764,0.9999403015767718,0.00010780097117582528
-0.49490510107498265,-0.49490510107498265,1.0000379752458888,0.00010907486955717008
-0.4948228382905654,-0.4948228382905654,1.0000796631487412,0.00010954289854870102
-0.49475020865938857,-0.49475020865938857,1.000004634105789,0.00010775065507597074
-0.4946621162642259,-0.4946621162642259,0.99997358775859,0.00010690169564367806
-0.49448878828407034,-0.49448878828407034,0.9998842774102951,0.00010558857882462765
-0.49435550262714967,-0.49435550262714967,1.0000626097253928,0.00010596339690511244
-0.49417581117231746,-0.49417581117231746,0.9999542288374957,0.0001089604014172076
-0.494061607169715,-0.494061607169715,1.0000329662922056,0.00010351263153606026
-0.4939938855895889,-0.4939938855895889,0.9999839900036269,0.0001101605563331438
-0.4938922114757588,-0.4938922114757588,1.000151883135952,0.00010417435652317762
-0.49378529147143124,-0.49378529147143124,1.0000140914962155,0.0001066926833705926
-0.4936278967637918,-0.4936278967637918,1.0002010480409456,0.00010841707250306548
-0.4935322458826704,-0.4935322458826704,0.9998685241984777,0.00010262810105364816
-0.4933947866447852,-0.4933947866447852,1.0000047822682832,0.00010419403365603914
-0.493322666084714,-0.493322666084714,0.9999202297434365,0.00010184883892163366
-0.4932300145315821,-0.4932300145315821,1.0001530396019818,0.00010295835746093017
-0.4930946728665731,-0.4930946728665731,0.9999978470493742,0.00010964586181842779
-0.4930002127934131,-0.4930002127934131,1.0000782109680673,0.0001111698500148757
-0.4927574165369151,-0.4927574165369151,0.9998542107063054,0.00011350934702253918
-0.4926082234051137,-0.4926082234051137,0.9999887829200264,0.000113801678662923
-0.4925207438514917,-0.4925207438514917,1.0000470752304413,0.00010648288101741062
-0.49246028957568344,-0.49246028957568344,0.9999571854983256,0.00011001610789163959
-0.49239654743578287,-0.49239654743578287,0.9999535537657211,0.00010280563340286999
-0.49233420183009,-0.49233420183009,1.000038405563969,0.00011292278848964124
-0.49219239315352753,-0.49219239315352753,0.999951650024758,0.00010083564257789052
-0.492130179086962,-0.492130179086962,0.999979364398192,0.0001096847083370688
-0.49204116211258225,-0.49204116211258225,0.9999995197830625,0.00010234219255422262
-0.49190891563121114,-0.49190891563121114,0.9999342049303509,0.00011095025917185877
-0.49182832722653985,-0.49182832722653985,1.0000416669425793,0.00011275468415908251
-0.4916967089578975,-0.4916967089578975,1.0001288422942998,0.00010665316680717929
-0.4915024560257734,-0.4915024560257734,1.0001914616574754,0.00010677422314589985
-0.491378317073395,-0.491378317073395,1.0001395086406135,0.00010939047610422723
-0.4912153634315473,-0.4912153634315473,1.0000795205430597,0.00010694912668167235
-0.4911190126251313,-0.4911190126251313,1.0001024012759614,0.00010967971469052164
-0.49098638965224384,-0.49098638965224384,1.0000132072089531,0.00010366885969526818
-0.490884226669732,-0.490884226669732,0.9999035849988843,0.00010523575117294679
-0.4907994673376379,-0.4907994673376379,1.0001346869492675,0.00010919711899045866
-0.4906974285491742,-0.4906974285491742,0.9999439388406195,0.0001095118908171272
-0.4905810356758593,-0.4905810356758593,0.9999291920999406,0.0001112518362876437
-0.49049318775432765,-0.49049318775432765,1.0000317147959579,0.00010516784014306267
-0.490360613942903,-0.490360613942903,1.0000800070576983,0.00010602798964435229
-0.4902339888802089,-0.4902339888802089,0.9999677102858463,0.00010517475879468596
-0.4901721134279796,-0.4901721134279796,0.9999319044163839,0.00010960754335475344
-0.4900563654970028,-0.4900563654970028,0.9998860287903849,0.00010644625348588876
-0.48992314686038296,-0.48992314686038296,1.0000783703162588,0.00010551627055506603
-0.4897513837982842,-0.4897513837982842,0.9999945386573733,0.00010134422439346674
-0.4895815253032197,-0.4895815253032197,1.0000568671153451,0.00010605775665151005
-0.48945378701973824,-0.48945378701973824,1.0000582104584255,0.00010346496380673171
-0.489325926505262,-0.489325926505262,1.000025230223599,0.00010503770008321955
-0.4892321797524346,-0.4892321797524346,0.999927795252944,0.00010335521652565487
-0.48906623572620445,-0.48906623572620445,1.000023375104859,0.00010215307695233652
-0.48897673768369715,-0.48897673768369715,1.000006207125295,0.00011039774458178899
-0.48891053396000644,-0.48891053396000644,0.9999528989007311,0.0001070216531518875
-0.4887949942036357,-0.4887949942036357,0.9999614751154381,0.00011246088420903777
-0.4886949048086535,-0.4886949048086535,0.9998705375007703,0.00010336229763386764
-0.4885771707864478,-0.4885771707864478,0.9999312265318714,0.00010528805931471857
-0.4884316962888988,-0.4884316962888988,1.0000158139861166,0.00011244721684062228
-0.4883079493025434,-0.4883079493025434,0.9999466639773115,0.00010823075783967396
-0.4881981454185734,-0.4881981454185734,1.0000681231850328,0.00010793365504140966
-0.4881178558796819,-0.4881178558796819,0.9999252300091921,0.0001126526211139378
-0.48801383657119,-0.48801383657119,1.0001589329289517,0.00010817433759027347
-0.48784139112831326,-0.48784139112831326,1.0000559064027634,0.00010824917026664128
-0.4877229902223917,-0.4877229902223917,1.0001170991331505,0.0001081367260481136
-0.4875270470249234,-0.4875270470249234,1.0000424715931862,0.00010203450341730915
-0.4874149769966607,-0.4874149769966607,1.0000738119613086,0.00010851671317045673
-0.4873637012511608,-0.4873637012511608,0.9998029004731107,0.00010362037777007355
-0.4872729935843381,-0.4872729935843381,1.0000549564150885,0.0001136113854563251
-0.4871491715974116,-0.4871491715974116,1.0000704601013042,0.00010733600919123202
-0.48703448312662656,-0.48703448312662656,1.0001101699658053,0.0001057479016307505
-0.4868986819645215,-0.4868986819645215,1.0001540612080309,0.00010344983513304421
-0.48672704283162604,-0.48672704283162604,0.9999892395308491,0.00010505036424182596
-0.4866510803840356,-0.4866510803840356,1.0000381549261754,0.00010636569192211296
-0.48656895211606754,-0.48656895211606754,1.0001413921258986,0.0001160496291803241
-0.4864947266971285,-0.4864947266971285,1.0000275319105405,0.00010320241110581675
-0.48634047810264747,-0.48634047810264747,0.9999711732282522,0.00011207852631360665
-0.48617934411013264,-0.48617934411013264,0.9999443507669115,0.0001067463863452375
-0.4860461749813112,-0.4860461749813112,1.000076628126202,0.00010416080679248538
-0.4859600549127208,-0.4859600549127208,0.9999913011554724,0.00010676740883098518
-0.48589996381488165,-0.48589996381488165,1.0000108494866626,0.0001045690084013351
-0.48583829183044147,-0.48583829183044147,0.9999663486498636,0.00010206404646339376
-0.4857716826867545,-0.4857716826867545,1.0000600763517862,0.00010744450801828912
-0.4857038766473124,-0.4857038766473124,0.9999980990754527,0.00011119566779139921
-0.4855009457183769,-0.4855009457183769,0.9999062485498749,0.00010919685296948887
-0.4853736246863264,-0.4853736246863264,0.9999667599236343,0.00010591729116402794
-0.48516337142937116,-0.48516337142937116,0.9999460315687845,0.00011062267033721282
-0.4850484912858519,-0.4850484912858519,1.0001255770483775,0.00010355353856815871
-0.48492850129769066,-0.48492850129769066,0.9998745851313317,0.0001044351977219811
-0.48488413093291455,-0.48488413093291455,0.9999478173690122,0.00010140943050872945
-0.48477729107471534,-0.48477729107471534,1.0000120566585564,0.00010438307732129523
-0.484635298041394,-0.484635298041394,1.0000644825499694,0.00011497629595951292
-0.48447669579909414,-0.48447669579909414,1.000117242552756,0.00010339563871483559
-0.4843958652600122,-0.4843958652600122,1.0001093992184265,0.00010562228827839651
-0.4842775349941803,-0.4842775349941803,1.000081576566679,0.00010355423603461433
-0.4841542005291558,-0.4841542005291558,1.0000114867449832,0.00011031208002980027
-0.48406623074261007,-0.48406623074261007,0.9999970373863025,0.00011588076755869761
-0.4839286294634803,-0.4839286294634803,0.999989252302681,0.0001028305968348184
-0.48383037712847,-0.48383037712847,0.9999391764238806,0.00010710461883627976
-0.4837094302391051,-0.4837094302391051,1.0001112371564154,0.00010411597147942024
-0.4836053825885756,-0.4836053825885756,0.9999919388667667,0.00010900352359253483
-0.4834696387995791,-0.4834696387995791,1.0002038245419302,0.00011126694049860757
-0.48336621752387143,-0.48336621752387143,1.0000944016988025,0.00010431061921061189
-0.48329238496153265,-0.48329238496153265,1.0001033235125427,0.00010367246588860696
-0.4831972609979857,-0.4831972609979857,1.0000694741214016,0.0001056344540628123
-0.4830453071052034,-0.4830453071052034,1.0000616514925058,0.00010718339094534441
-0.4829349630410434,-0.4829349630410434,1.0000035423806066,0.00011251145300831094
-0.4828522299132601,-0.4828522299132601,0.9999474658026726,0.00011215679364688061
-0.48268817454081725,-0.48268817454081725,0.9999416875118079,0.000105095777289062
-0.482592767044116,-0.482592767044116,0.9999325665400185,0.00010764021862492425
-0.4824364287065691,-0.4824364287065691,0.9998625929545559,0.00010668920647919754
-0.48234802581500846,-0.48234802581500846,0.9998529695629766,0.00010696514965788185
-0.4822488880396122,-0.4822488880396122,0.9998955373577078,0.00010535779550230264
-0.48217509199530467,-0.48217509199530467,0.999851334557947,0.00011246360083390155
-0.48207735490213965,-0.48207735490213965,1.0000197223315586,0.00010975862021018813
-0.4819750383874634,-0.4819750383874634,0.9999472829637306,0.00010749530736230291
-0.48180034107354003,-0.48180034107354003,1.000062528534258,0.00010463475629568081
-0.48172123785552684,-0.48172123785552684,0.9999390360732632,0.00010551870272476163
-0.4815298794703267,-0.4815298794703267,0.9998281245888169,0.0001029627471196037
-0.4814270213893906,-0.4814270213893906,0.9999230357737421,0.00010571313224344175
-0.4813514464403852,-0.4813514464403852,1.000039208412913,0.0001047056919386155
-0.48128187243055437,-0.48128187243055437,0.9999797501888494,0.00010916573947609162
-0.481129295516439,-0.481129295516439,1.0000427620809798,0.00010911526612017914
-0.4809513445521588,-0.4809513445521588,1.0001148754865092,0.00010295487433614722
-0.48082817460381194,-0.48082817460381194,0.9999760096458006,0.00010607997128769522
-0.4806971837504534,-0.4806971837504534,0.9999249844246645,0.00010485694803752976
-0.4806045392964734,-0.4806045392964734,1.0000262999390341,0.00010685363238899213
-0.4805210420687217,-0.4805210420687217,1.0000204391487235,0.00010481816891680059
-0.4803852945864492,-0.4803852945864492,0.9998886414086343,0.00011474290478974377
-0.48030506779978166,-0.48030506779978166,1.0000207878475362,0.00010577879991108445
-0.48004119228644415,-0.48004119228644415,0.9999367424699379,0.00011308452921297786
-0.4798796331459016,-0.4798796331459016,1.0000026342895088,0.00010989010399390193
-0.47979112798930146,-0.47979112798930146,1.0000375300511264,0.00011001189891011532
-0.479733961589227,-0.479733961589227,0.9999690749600683,0.0001028244228945271
-0.4796588546021667,-0.4796588546021667,0.9999843423912969,0.00011446282325877749
-0.4795332790978136,-0.4795332790978136,0.9998718524910555,0.00011013696591658725
-0.47946064990974263,-0.47946064990974263,1.0000526424027476,0.00010395333110081959
-0.4793027196341427,-0.4793027196341427,0.9999689276307351,0.00010749699420567421
-0.4791834845309495,-0.4791834845309495,1.0000384680695762,0.00011132246403260134
-0.4790860150962544,-0.4790860150962544,0.9999987217938902,0.00010771366985178799
-0.4789943960655364,-0.4789943960655364,1.0000183685230886,0.00010372239277378777
-0.47885602722817566,-0.47885602722817566,0.9999831110506825,0.00010550993014221257
-0.47876877856688227,-0.47876877856688227,1.0000567721696738,0.00010984998165924684
-0.47865068893588614,-0.47865068893588614,1.0001460174082246,0.00010940612958042518
-0.4785300053888932,-0.4785300053888932,1.0000431793931737,0.00011100818841307142
-0.4784031681068882,-0.4784031681068882,0.999993441839176,0.00010833764322499496
-0.47826525720374774,-0.47826525720374774,1.0000834480019258,0.00010514205721149427
-0.47815074902464405,-0.47815074902464405,1.0001299172334985,0.00011501633202352826
-0.47807138759817464,-0.47807138759817464,0.9999774664233705,0.00010916516879464339
-0.4779266119156091,-0.4779266119156091,1.0000234781154849,0.00011298017425315186
-0.4778533819393488,-0.4778533819393488,1.0000766985907976,0.00010289413771421602
-0.47774348131351874,-0.47774348131351874,1.0000117428001682,0.0001063886292910542
-0.47761074467271103,-0.47761074467271103,0.9998588517156243,0.00010138575478953142
-0.47752542108573837,-0.47752542108573837,1.0000572510930106,0.00011093093100899975
-0.47744726086602896,-0.47744726086602896,0.9999581304464398,0.00010732109699906171
-0.47735309407653403,-0.47735309407653403,1.0000130558821128,0.00010611843687453408
-0.477231326821493,-0.477231326821493,1.000021397847178,0.00010260904047319228
-0.4769702646532096,-0.4769702646532096,1.000052622691164,0.00010383215798840089
-0.47686073560180375,-0.47686073560180375,1.0001869467031292,0.00010402844577250864
-0.47672415719862327,-0.47672415719862327,0.9998533576691564,0.00010592659566655055
-0.4766352604507119,-0.4766352604507119,0.9999440304522329,0.00010182606602980736
-0.47655061166951784,-0.47655061166951784,0.9998962530856685,0.00010399926746887083
-0.47642229075499926,-0.47642229075499926,0.9999965068534238,0.0001014612241149674
-0.4763153342224541,-0.4763153342224541,1.0001181681625941,0.00010236308971911005
-0.47616571154576376,-0.47616571154576376,0.9999662251915475,0.00011221949142742511
-0.4760474669288669,-0.4760474669288669,0.9998825824272002,0.00010358335002543096
-0.4759297894073825,-0.4759297894073825,0.9998999798818401,0.00010557389863723697
-0.47579052595756366,-0.47579052595756366,1.0000352152895302,0.00010710544126934474
-0.4756996917640208,-0.4756996917640208,1.000073336324301,0.0001140062079758492
-0.4755898678791709,-0.4755898678791709,0.9998677309314831,0.00010741698288168349
-0.475495503845741,-0.475495503845741,1.0001315115722897,0.00011537447871218066
-0.4754122054502659,-0.4754122054502659,0.9998550139229916,0.00010675862809673383
-0.47534592531374076,-0.47534592531374076,0.999949295822465,0.00010804477410612413
-0.47514188016357367,-0.47514188016357367,1.0000025600023876,0.00010715041802617292
-0.4750362166691048,-0.4750362166691048,0.9999557055819659,0.00010812881104832683
-0.4748322856503364,-0.4748322856503364,1.0000344755349966,0.00010160634098515525
-0.47472660062703653,-0.47472660062703653,0.9999947194796865,0.000108309956213564
-0.47468588740666745,-0.47468588740666745,0.999833752232418,0.00010329675401169257
-0.4746134559987695,-0.4746134559987695,0.9998543261364645,0.00010692191666024649
-0.4745318298948405,-0.4745318298948405,1.0001889784400275,0.00010920180245867556
-0.4744526502363442,-0.4744526502363442,1.000042600143008,0.00010797743131546961
-0.47435353956607285,-0.47435353956607285,1.000005441537485,0.00010566411335526156
-0.4742302183280117,-0.4742302183280117,1.0000058832263015,0.00010347308535213683
-0.4740179051841551,-0.4740179051841551,0.9999310427921084,0.0001100798600422813
-0.4739328197458235,-0.4739328197458235,1.0000175759806191,0.00011363474885651837
-0.4738776928643347,-0.4738776928643347,1.0001461440479318,0.00010447951165370936
-0.47372345427429535,-0.47372345427429535,0.999866676185136,0.0001105050111243338
-0.47357654476800237,-0.47357654476800237,0.9998708131441433,0.0001048142078061279
-0.47343942507432074,-0.47343942507432074,0.99989254666472,0.00010518301203097478
-0.47332001997929185,-0.47332001997929185,0.9999757758788353,0.00010651346810819304
-0.47325112394973984,-0.47325112394973984,1.0000595531416887,0.00010473798483151705
-0.4731852471617458,-0.4731852471617458,0.9998536513557458,0.00010401346515876183
-0.47310627753831797,-0.47310627753831797,1.0000078589285608,0.0001047481752066225
-0.4730531283203163,-0.4730531283203163,1.000079270606461,0.00011204314276318795
-0.47292856604399275,-0.47292856604399275,1.0000526313195603,0.00011126310850623634
-0.4727962043391017,-0.4727962043391017,1.0000344769943208,0.00010268105825130862
-0.47270569956162944,-0.47270569956162944,0.9998999703209961,0.00010614377962865224
-0.4725244591230876,-0.4725244591230876,0.9998970764824943,0.00010811259901215399
-0.47240511906857136,-0.47240511906857136,1.0000262863940175,0.00010358273769184
-0.47226398422353666,-0.47226398422353666,1.0000301195234145,0.000104136688778974
-0.47223670437160764,-0.47223670437160764,0.9998310918664759,0.00010801156471831346
-0.472163171187276,-0.472163171187276,0.9999254575551705,0.00010678054816357783
-0.4720386757595406,-0.4720386757595406,0.999809349044351,0.00010409880306417135
-0.4718800039569032,-0.4718800039569032,0.9999791354035897,0.00011240089561288134
