time,time,flux,flux_err
-0.4999283355015602,-0.4999283355015602,1.0000817931422308,0.0002611279109314007
-0.4998249114923965,-0.4998249114923965,0.9999798855079872,0.0002430839604399086
-0.4996747309669445,-0.4996747309669445,1.0001372952258476,0.00028788192693403444
-0.49957163090342266,-0.49957163090342266,0.999865548748649,0.00029163119933704246
-0.49949435211674426,-0.49949435211674426,0.9999717054693228,0.00024916176759261227
-0.49937193050864154,-0.49937193050864154,0.9999451850069271,0.00021642921953633822
-0.49928092333793755,-0.49928092333793755,0.9999772587665985,0.00022217189629738496
-0.4991167992062401,-0.4991167992062401,1.0001782390061227,0.00022942457792287345
-0.49895125684925007,-0.49895125684925007,0.9998861827618523,0.00023973572189284615
-0.4987581682857126,-0.4987581682857126,0.9998174537781338,0.00021374459607780976
-0.49866616825456733,-0.49866616825456733,1.000302870751033,0.00024501969679689895
-0.4985867480674642,-0.4985867480674642,0.9999324882424145,0.0002546679883624201
-0.49847728672175434,-0.49847728672175434,1.0000586657091037,0.0002075756109190117
-0.49840882624412186,-0.49840882624412186,1.000324591088471,0.0002191249230782401
-0.4983409303051303,-0.4983409303051303,0.9998682600071044,0.0002733800538567671
-0.4982032778920257,-0.4982032778920257,1.0000312532490863,0.0002940849306035776
-0.4981375399598619,-0.4981375399598619,0.9998352934111485,0.0002435800720177963
-0.4980335089720029,-0.4980335089720029,0.9997627489273789,0.00022394317607765798
-0.4979545834401506,-0.4979545834401506,0.9999657228273332,0.00021271483469637297
-0.49786163858225335,-0.49786163858225335,0.9998870837816121,0.0002096701774620757
-0.49775368632690514,-0.49775368632690514,1.0002554397559367,0.0002111355608082423
-0.4975934828427853,-0.4975934828427853,1.0000256534427292,0.00024164624658781889
-0.4973842869592772,-0.4973842869592772,1.0002202125655117,0.0002406128623572968
-0.4973099405666289,-0.4973099405666289,1.00005894924603,0.00024956517561131714
-0.49720890791650163,-0.49720890791650163,1.00029503427726,0.00020745032475477827
-0.4971211919742927,-0.4971211919742927,0.999876939536666,0.00029175927857766663
-0.4970235416665673,-0.4970235416665673,0.9998405811295642,0.00024663897088820434
-0.49695762279225164,-0.49695762279225164,1.000158602791433,0.0002461404899340973
-0.4968692290560284,-0.4968692290560284,0.9999371332280281,0.0002683441740390487
-0.496756148836721,-0.496756148836721,1.000205233595182,0.00023926813860658845
-0.49661713036621224,-0.49661713036621224,0.999729678141318,0.0002221597907021182
-0.4965243241058488,-0.4965243241058488,0.9998687142197277,0.0002160240303216598
-0.49640664442558774,-0.49640664442558774,0.9998854241744812,0.0002481346908599453
-0.4963196062897623,-0.4963196062897623,1.0000538082021395,0.0002413848279362525
-0.4961662483001419,-0.4961662483001419,1.00012718177228,0.00021013896132883017
-0.4959876211862138,-0.4959876211862138,0.9999577764658056,0.0002503566827329073
-0.4958212191064376,-0.4958212191064376,1.0002802543399973,0.00021378938625552093
-0.4957215313872439,-0.4957215313872439,1.0001219598048106,0.00023872570937030624
-0.4955966751316737,-0.4955966751316737,0.9999699978757368,0.00027833070520205205
-0.49548927350915617,-0.49548927350915617,0.9999155535672506,0.0002481446484243674
-0.4954367789490789,-0.4954367789490789,0.9999510259914371,0.00024380466555428264
-0.4953873773723899,-0.4953873773723899,1.000134142128318,0.00021040391854277874
-0.4952478799932578,-0.4952478799932578,1.0002901445261099,0.0002223475975253571
-0.49515248726456773,-0.49515248726456773,0.9999428817098883,0.00022335940746875962
-0.49505893654059036,-0.49505893654059036,0.9998500605077991,0.0002673264180905464
-0.49496737402296276,-0.49496737402296276,0.9999943057992985,0.00021744815114979146
-0.49488463554007467,-0.49488463554007467,0.999969652991247,0.0002164613606576304
-0.49471972931496566,-0.49471972931496566,1.000268059631391,0.00023720218401449114
-0.4945346000167774,-0.4945346000167774,0.9999517640293414,0.00023968823508530926
-0.4944220751211105,-0.4944220751211105,0.9995126339112215,0.00024087308635116332
-0.4943545989284758,-0.4943545989284758,1.0002181980645546,0.00027085449639876146
-0.49419851814382126,-0.49419851814382126,0.9999637866077669,0.0002522130681685744
-0.4941084417128877,-0.4941084417128877,1.0001303508879764,0.0002520612837265488
-0.4940069329786638,-0.4940069329786638,1.0001386150166633,0.00024197647238882633
-0.4939490751326957,-0.4939490751326957,0.9998389620456072,0.00022907966386834314
-0.4937683551404916,-0.4937683551404916,1.0004533081247966,0.00024653993118345174
-0.4936612306366442,-0.4936612306366442,1.0000849188145593,0.00025566575178757433
-0.49356849245086776,-0.49356849245086776,0.9997073760063406,0.0002400775908249683
-0.4934897912629822,-0.4934897912629822,1.0000230039010942,0.00025164689392600224
-0.4933547122112941,-0.4933547122112941,0.9998409857758563,0.00021416229562514432
-0.4931625335906574,-0.4931625335906574,0.9997615057126236,0.00023624624463603464
-0.49307563038455554,-0.49307563038455554,1.0001982670874994,0.000245509921141164
-0.49298472436494195,-0.49298472436494195,0.9999910561749615,0.00026292433376003696
-0.49288939009129534,-0.49288939009129534,0.9999687961387126,0.0002419679839639248
-0.4928012233263871,-0.4928012233263871,0.9999566363051009,0.00023930490235064914
-0.49267088086853617,-0.49267088086853617,1.0001561896794446,0.00022355436891377634
-0.49249507401473236,-0.49249507401473236,1.0000505890004607,0.00023360088511059627
-0.4924330990019371,-0.4924330990019371,1.0000544646155736,0.00026369837963034933
-0.4923288778714777,-0.4923288778714777,0.9999874285241181,0.00021465669767178398
-0.49215543994723704,-0.49215543994723704,1.0001559833292624,0.00027171612701624775
-0.49206825752771693,-0.49206825752771693,0.9998646534060818,0.0002152084320176196
-0.4919423968247429,-0.4919423968247429,0.9998205976754665,0.00024458002643459425
-0.49181937367320644,-0.49181937367320644,1.0003279228774324,0.00021459221001050876
-0.49171314821360285,-0.49171314821360285,1.000126210662318,0.0002119838187293783
-0.49161613492833567,-0.49161613492833567,1.000065491075632,0.0002606200430758675
-0.49152289953999573,-0.49152289953999573,1.0001346487316225,0.00023931704099968044
-0.49141545453312574,-0.49141545453312574,0.999945881333117,0.00024368112158886787
-0.49128749681840417,-0.49128749681840417,1.0002232025367737,0.00021921864545600248
-0.49112680988982904,-0.49112680988982904,1.000035516885728,0.0002780383080100367
-0.4910204529747716,-0.4910204529747716,0.999905505708991,0.00023001856484937012
-0.49091648661124054,-0.49091648661124054,0.9999996372743695,0.00021040939997861463
-0.4907978076895233,-0.4907978076895233,0.9999415758761048,0.00024226139770790834
-0.4906432631512871,-0.4906432631512871,1.0001119225032915,0.00027174910214379917
-0.49052774131996557,-0.49052774131996557,1.0002344145220923,0.00021824288949752485
-0.4903542788422783,-0.4903542788422783,1.0001249942851442,0.00020863119378395134
-0.4902832318075525,-0.4902832318075525,1.0000367673176012,0.00025226489291882176
-0.4902270108825178,-0.4902270108825178,0.9999401235194656,0.00026329891753392874
-0.4900196428097843,-0.4900196428097843,1.0001154972474489,0.00022391165605155448
-0.4898901530119474,-0.4898901530119474,0.9997969832277214,0.00021250952130509975
-0.48983273266785543,-0.48983273266785543,0.99992934219639,0.00026901210358274113
-0.4896927836067334,-0.4896927836067334,1.0002276326158108,0.0002463322946247599
-0.489575419328321,-0.489575419328321,0.9998321831592504,0.00022201202363537935
-0.4895141603978118,-0.4895141603978118,1.0001358435212553,0.0002136111872595681
-0.48940724294661775,-0.48940724294661775,0.999993218129657,0.00026755337788504153
-0.4892864662317152,-0.4892864662317152,1.0000772721750688,0.0002419040987300186
-0.4890971482731402,-0.4890971482731402,0.9999736687095162,0.00022324640111024912
-0.4889105538815784,-0.4889105538815784,1.0002378981024318,0.00026964451913653805
-0.4888088870160573,-0.4888088870160573,0.9999367721032983,0.0002093650849298871
-0.48858591388707284,-0.48858591388707284,0.9998460478061368,0.00023907657059525083
-0.4885012570681283,-0.4885012570681283,1.0003422745292396,0.00022367541522278633
-0.48834350482502487,-0.48834350482502487,1.0000487905483257,0.00024407083016862182
-0.4882222712127259,-0.4882222712127259,0.9999535010854299,0.00022282126114692456
-0.4881378451369528,-0.4881378451369528,1.0002504066123503,0.00024737076021077005
-0.4880858749158506,-0.4880858749158506,1.0001720090504396,0.0002477860060483614
-0.4880198167105846,-0.4880198167105846,1.0000181059818176,0.00024438212574935225
-0.4879113534720091,-0.4879113534720091,0.9998924797736247,0.00024304678632613305
-0.48766444417851745,-0.48766444417851745,1.0002713683489008,0.00021762472665924482
-0.4875031361836591,-0.4875031361836591,0.9998859637555118,0.00021102832632126242
-0.48736158539977625,-0.48736158539977625,0.9997078546534448,0.00022635445443305955
-0.4872634377235954,-0.4872634377235954,1.0001070628667166,0.00023847299603436703
-0.4871553989745735,-0.4871553989745735,0.9999302144951596,0.00021970771831256321
-0.487069346546923,-0.487069346546923,1.000086326797994,0.00021733967086987735
-0.4869569430105912,-0.4869569430105912,1.0000791222368919,0.0002394210684273086
-0.486837589663628,-0.486837589663628,1.000026796774103,0.0002498420029150708
-0.4867376650436199,-0.4867376650436199,1.0002776687049526,0.00028375700275612566
-0.48667805214136023,-0.48667805214136023,1.000205303983229,0.00021885220316751963
-0.48663114120136014,-0.48663114120136014,1.0000608578499706,0.00023733251962356427
-0.4865720082023472,-0.4865720082023472,0.9998242361325123,0.0002563379493915175
-0.4864632794531644,-0.4864632794531644,1.0004029165594086,0.00023878156773774395
-0.4862997499352787,-0.4862997499352787,1.0002870508379955,0.00023507549516285214
-0.48615276436685234,-0.48615276436685234,1.0001704948120183,0.00026425025993018566
-0.4860166849575762,-0.4860166849575762,1.0003305518029897,0.00024551445332330246
-0.48587902891595147,-0.48587902891595147,0.9995781474023258,0.0002445420658089317
-0.48574757154929105,-0.48574757154929105,1.000121790671177,0.00021846036037878017
-0.4856137707414746,-0.4856137707414746,1.0000560384027382,0.00024238955596937563
-0.48548975357189195,-0.48548975357189195,1.0000180200117579,0.00024296802623673084
-0.4853420308761997,-0.4853420308761997,1.0003365128080715,0.00024054459129893595
-0.4852665005942981,-0.4852665005942981,1.0000806613635238,0.0002182551279872214
-0.4852115827605303,-0.4852115827605303,0.999843847961345,0.0002933592615512636
-0.48512288698912015,-0.48512288698912015,1.000309170854809,0.00022860511747295787
-0.48501032044005116,-0.48501032044005116,1.0002423791990378,0.00021368154695445424
-0.4848413879830332,-0.4848413879830332,1.0003383948842397,0.0002504682664970932
-0.48464925230218797,-0.48464925230218797,0.9999464057267712,0.00027036980823585434
-0.4845619138686743,-0.4845619138686743,1.0004105958469904,0.0002185098326387931
-0.48436549926627775,-0.48436549926627775,0.9997252879769551,0.0002187038985285915
-0.48431721699234914,-0.48431721699234914,1.000066459960632,0.00022571868180064786
-0.4842440591659397,-0.4842440591659397,1.000252233166702,0.0002471559898994681
-0.4841459400828171,-0.4841459400828171,1.0001196799830312,0.00021710757812843338
-0.484003321199998,-0.484003321199998,0.9997143306428381,0.00024158721934082797
-0.4839196363573137,-0.4839196363573137,1.0000331056217313,0.0002924331353940448
-0.48384437998611246,-0.48384437998611246,0.9997145241846124,0.0002453654414004353
-0.4837365042549209,-0.4837365042549209,0.9996663041797292,0.00022598299016587958
-0.4836674447018595,-0.4836674447018595,1.0000119509800267,0.00023649464439576907
-0.4836206216379651,-0.4836206216379651,1.000117415674186,0.00024142003502825452
-0.48353604251824434,-0.48353604251824434,1.0001802885350741,0.00022488855612035156
-0.4833099528121238,-0.4833099528121238,0.9999224362688164,0.0002395502555446989
-0.48314070507185536,-0.48314070507185536,0.9998841227007074,0.0002136332239095811
-0.4830496781003603,-0.4830496781003603,1.0000516221499218,0.00022908611552485987
-0.48291033376881387,-0.48291033376881387,0.9995553454454683,0.00024070256357395608
-0.4827958136724192,-0.4827958136724192,0.999980875789998,0.00022080160639044184
-0.48263289230671946,-0.48263289230671946,0.9995274735813287,0.00027462936044490643
-0.4825487078727747,-0.4825487078727747,0.999623161252589,0.0002666512314137046
-0.48247049099591094,-0.48247049099591094,0.9998824894501881,0.00022049280919570545
-0.4823813310031255,-0.4823813310031255,1.0002105574223672,0.00022079489043302876
-0.4823058776761172,-0.4823058776761172,1.0001609295963918,0.00022783374379077787
-0.4821929146521143,-0.4821929146521143,1.000141162037107,0.00021031690079790239
-0.4820348869288864,-0.4820348869288864,1.0001704180382363,0.0002699816632002594
-0.4818765257143241,-0.4818765257143241,1.0000155391775212,0.00021210693844007735
-0.4817348049131397,-0.4817348049131397,0.99998968957518,0.00024404185072707105
-0.4816414880013326,-0.4816414880013326,0.9997328129529715,0.00024485522015080545
-0.4815519327261427,-0.4815519327261427,0.9998061190439828,0.0002138260460214434
-0.4814555607867078,-0.4814555607867078,0.9999064434271888,0.0002147702075626124
-0.48138634254646606,-0.48138634254646606,1.0001659727127616,0.00027630705128653995
-0.481321375312109,-0.481321375312109,1.0000776599929386,0.00024379707840280584
-0.48119919883538387,-0.48119919883538387,1.000042843361181,0.0002656213447332171
-0.4811200653333799,-0.4811200653333799,0.9998696805370612,0.0002512350035842966
-0.48101676159640194,-0.48101676159640194,0.9998931821171186,0.00021210168572161707
-0.48091759210074086,-0.48091759210074086,0.9997302939233119,0.00021245323920022767
-0.48072738588161884,-0.48072738588161884,0.999898375532017,0.0002437383013283283
-0.4804474656571983,-0.4804474656571983,0.9999010871149772,0.00023975842173006124
-0.4802787758722843,-0.4802787758722843,0.9999109619161303,0.00021195190748607204
-0.480119835575897,-0.480119835575897,0.999760625303662,0.00027123896456413747
-0.48003854600392515,-0.48003854600392515,1.0001811357493389,0.000227335654115945
-0.47995618819550145,-0.47995618819550145,0.9999460908005785,0.0002477105695880983
-0.4798812972709129,-0.4798812972709129,0.9997739376895236,0.00026630091705769825
-0.479798010198283,-0.479798010198283,1.0001783708648269,0.00023921808731815772
-0.4796588755925768,-0.4796588755925768,0.9999705551288711,0.0002222327691245388
-0.4795937947485072,-0.4795937947485072,0.9997754224260097,0.0002055563477666033
-0.4794950026582228,-0.4794950026582228,0.9997043492912419,0.0002176579349232326
-0.47939341433229854,-0.47939341433229854,0.9997376642415199,0.0002638691636761441
-0.47929421288645246,-0.47929421288645246,1.0000437636262276,0.00021969683403755025
-0.4791586363418901,-0.4791586363418901,1.0003035090446395,0.00024741639868168264
-0.4789685030729743,-0.4789685030729743,1.000050796496531,0.0002132294160144828
-0.4788360506776371,-0.4788360506776371,1.0000018915100395,0.00024600671524333445
-0.47878614840228695,-0.47878614840228695,1.0003119020322213,0.0002090309028228033
-0.47867004159925275,-0.47867004159925275,0.9996864236810857,0.0002858060524174222
-0.47857441544765605,-0.47857441544765605,1.0000801126149286,0.00023944739234665752
-0.47848748540127417,-0.47848748540127417,0.9997981025123439,0.0002500999027210686
-0.4784282788161363,-0.4784282788161363,1.0001076126251758,0.00022036881440190326
-0.47836239931930324,-0.47836239931930324,0.9999470676214935,0.00021159700049467955
-0.4782192374332226,-0.4782192374332226,0.9997993468326797,0.00022208155630248994
-0.4781250616593752,-0.4781250616593752,0.9996899651565327,0.0002483818423767381
-0.47806205865563245,-0.47806205865563245,1.0001597738904184,0.0002386985466141422
-0.4779636322586157,-0.4779636322586157,0.9997448089147112,0.00024333565165597483
-0.47791255214906414,-0.47791255214906414,1.0001596550386123,0.00021556890500779236
-0.4778338173062366,-0.4778338173062366,1.0000507856543213,0.000247136685588463
-0.4776561475831841,-0.4776561475831841,0.9999298533895298,0.00021202926478377664
-0.4775505090983643,-0.4775505090983643,1.000155061324041,0.0002723501575678026
-0.4774532743780583,-0.4774532743780583,0.9997735111790835,0.00023965224481911507
-0.47735628895461557,-0.47735628895461557,0.9999420470755354,0.0002685311162823654
-0.47723936929178307,-0.47723936929178307,0.9999648964802121,0.00023911672061515608
-0.47712401093522205,-0.47712401093522205,1.0001554977059324,0.000242021823778127
-0.4769877374805219,-0.4769877374805219,1.0000536860874123,0.00022542120421889625
-0.4768453517310263,-0.4768453517310263,1.0000640178576985,0.00024507088374648236
-0.47674599123856753,-0.47674599123856753,0.9998664280099915,0.0002437799132982192
-0.47657125574405657,-0.47657125574405657,0.9999292634390585,0.00021752128499475087
-0.47647489674272947,-0.47647489674272947,0.9997973583990436,0.00026458758614735596
-0.47639979127343396,-0.47639979127343396,1.000247179660649,0.00022219414195286187
-0.4762106338006561,-0.4762106338006561,0.9997153518490174,0.0002400381214117605
-0.47605535926049924,-0.47605535926049924,1.0001553674179053,0.0002151341212400559
-0.4759458893764531,-0.4759458893764531,1.0001346158024083,0.0002860866930943537
-0.4758468934509438,-0.4758468934509438,0.9999072693116581,0.00024137037906138292
-0.4757717550455709,-0.4757717550455709,0.9998454260944081,0.0002219486982977835
-0.4755671973071003,-0.4755671973071003,1.0000508275267879,0.0002201412894470965
-0.4754606089736626,-0.4754606089736626,1.0000288479516466,0.00027401073949315393
-0.47541090277809417,-0.47541090277809417,1.0001129287345287,0.00024207270443098
-0.4752593616489321,-0.4752593616489321,1.0000949237075303,0.0002145498769662221
-0.47515348798915513,-0.47515348798915513,1.0001738719301787,0.00024035507316037957
-0.47500486225399075,-0.47500486225399075,0.999977425727457,0.0002532250974609315
-0.4747959323351097,-0.4747959323351097,1.0001797897853681,0.00021539522840532352
-0.47467959994537523,-0.47467959994537523,0.9999122980183779,0.00023729105041669332
-0.4746015001910564,-0.4746015001910564,1.0002338970031828,0.00026194738101689604
-0.47445134633017005,-0.47445134633017005,1.0000856873987634,0.0002211374266015619
-0.47427158004866216,-0.47427158004866216,1.000338079670448,0.00021284986763377197
-0.47415811190803653,-0.47415811190803653,1.0001020294089238,0.0002719875693367451
-0.47397561781690456,-0.47397561781690456,1.0003045942455668,0.00023265939489960306
-0.47391165654553336,-0.47391165654553336,1.0002990719002114,0.00024134502230682754
-0.4738395123371447,-0.4738395123371447,0.9998552948362585,0.0002074867606249783
-0.4737058091566723,-0.4737058091566723,0.9997118988396319,0.00026952309883983587
-0.4735834894148866,-0.4735834894148866,0.9998824964570459,0.00020271546552087116
-0.4734027298000001,-0.4734027298000001,1.0000102992670477,0.00021378405242531866
-0.4732820446435653,-0.4732820446435653,0.9997940373222349,0.0002620282946652059
-0.47314269775670253,-0.47314269775670253,0.99998584179044,0.0002513373528317779
-0.47292847948992855,-0.47292847948992855,0.999981307280428,0.0002100115660973855
-0.472865358965646,-0.472865358965646,0.9998017927281602,0.0002647118245135339
-0.4727523864261457,-0.4727523864261457,1.0000828815751506,0.00024914810957245146
-0.47263915250587163,-0.47263915250587163,1.0001175533110085,0.00024224859691802182
-0.4725738222703512,-0.4725738222703512,0.9999631658641265,0.00022151721722258214
-0.47250636336539176,-0.47250636336539176,1.0001128271940407,0.0002426741166722879
-0.47244029116263847,-0.47244029116263847,0.9999365738874323,0.00026924178498049335
-0.4723265694759903,-0.4723265694759903,1.0001162417564002,0.00023846499386890994
-0.47213525789047706,-0.47213525789047706,0.9999162954093176,0.0002223827269303749
-0.4719600288080983,-0.4719600288080983,1.0000535796182475,0.00026677593528903786
