time,time,flux,flux_err
-0.4999264069066858,-0.4999264069066858,0.9999678196954225,2.599188225110155e-05
-0.49979480264860854,-0.49979480264860854,0.999977794218807,2.599748087975879e-05
-0.49962713722528446,-0.49962713722528446,0.9999955131062417,2.6192850626894293e-05
-0.4994933742062472,-0.4994933742062472,1.0000274084242098,2.3764708515278475e-05
-0.49942226181437943,-0.49942226181437943,1.0000125009575163,2.375935363486867e-05
-0.49931812387120544,-0.49931812387120544,0.9999850691358219,2.3752970774451635e-05
-0.4992046745523794,-0.4992046745523794,1.000083430796312,2.3780196732611477e-05
-0.49902378172159845,-0.49902378172159845,1.0000182167794658,2.3754965660747637e-05
-0.49880945530233023,-0.49880945530233023,0.9999719424481042,2.3726221983749483e-05
-0.4987219738125418,-0.4987219738125418,0.9999495495687054,2.3735353899687434e-05
-0.49862640537071456,-0.49862640537071456,1.0000548897060348,2.376371596781804e-05
-0.49845362432674845,-0.49845362432674845,1.0000080698910472,2.3782359866988077e-05
-0.49828755934943275,-0.49828755934943275,0.9999467755756134,2.3732162949912328e-05
-0.49820518712870127,-0.49820518712870127,0.999988811517855,2.369899054394424e-05
-0.4980832643529197,-0.4980832643529197,1.0000104935757475,2.3735060172039388e-05
-0.4979565143307809,-0.4979565143307809,1.000091176264085,2.372150232323269e-05
-0.4978155935917471,-0.4978155935917471,1.0000375064869427,2.390788017563081e-05
-0.4976994364646316,-0.4976994364646316,0.9999746857381254,2.377678954863155e-05
-0.4976166531710078,-0.4976166531710078,1.0000158392653988,2.3773060645446954e-05
-0.4975459219417985,-0.4975459219417985,1.000048137129219,2.374205257540768e-05
-0.4974105906435966,-0.4974105906435966,1.000107134736108,2.3802231666691707e-05
-0.497255774390851,-0.497255774390851,1.0000057479431745,2.37276481586911e-05
-0.4970387205415818,-0.4970387205415818,1.0000875456645433,2.3749607474273608e-05
-0.4969103749772671,-0.4969103749772671,0.9999814217521756,2.37275891504117e-05
-0.4968260026997996,-0.4968260026997996,1.0000279969732317,2.373580424092827e-05
-0.4966769382135453,-0.4966769382135453,0.9999948279274531,2.383586124261181e-05
-0.4964929088161398,-0.4964929088161398,1.0000213261083664,2.3713877903943943e-05
-0.4963830401841733,-0.4963830401841733,1.0000028309271676,2.3740430797464277e-05
-0.49628341376676416,-0.49628341376676416,0.9999916074649515,2.3720968695944802e-05
-0.49616738470132304,-0.49616738470132304,0.9999969621850944,2.372148407261586e-05
-0.4960453043302664,-0.4960453043302664,1.000001628896743,2.3908157071281612e-05
-0.4958906657508237,-0.4958906657508237,0.9999664034177481,2.37473456637843e-05
-0.495788423369811,-0.495788423369811,0.9999926437047932,2.3772480648356872e-05
-0.49572694260513117,-0.49572694260513117,1.0000276623486137,2.375571278587238e-05
-0.49561188094921815,-0.49561188094921815,1.0001094069722802,2.3789728715754303e-05
-0.49548976812003503,-0.49548976812003503,1.0000780186141078,2.3725785303388646e-05
-0.49525766359516865,-0.49525766359516865,0.999975521410396,2.3785934330215823e-05
-0.4951221801071597,-0.4951221801071597,0.9999947915916276,2.3714291066026953e-05
-0.49502873968569927,-0.49502873968569927,1.0000247532483333,2.3726925616992775e-05
-0.49488175423305164,-0.49488175423305164,0.9999603051229711,2.3831191569524437e-05
-0.4947031855956311,-0.4947031855956311,1.000014286213459,2.3742029555209165e-05
-0.49458899946369,-0.49458899946369,0.9999644923475559,2.3707895484993898e-05
-0.4944826743800945,-0.4944826743800945,0.9999969851919424,2.3732087766457844e-05
-0.49437703857629456,-0.49437703857629456,0.9999961707446181,2.3749030185294313e-05
-0.4942511706865048,-0.4942511706865048,0.9999968613366775,2.3900840926143354e-05
-0.4941090190813838,-0.4941090190813838,0.9999900079008164,2.372555934943015e-05
-0.4939756058121588,-0.4939756058121588,0.9999975269328678,2.378512196562543e-05
-0.4939080676747949,-0.4939080676747949,1.0000025361467073,2.3730781877919053e-05
-0.49381400243142937,-0.49381400243142937,1.0000939380611786,2.3780148106310723e-05
-0.4936926120444127,-0.4936926120444127,1.0000108128488876,2.3730916695720862e-05
-0.49353147781621376,-0.49353147781621376,0.9999917120824537,2.378991517009892e-05
-0.49333016872348023,-0.49333016872348023,0.999993200786004,2.3717441138821165e-05
-0.49323724812926456,-0.49323724812926456,1.0000000625263783,2.3735527220524815e-05
-0.49312329234800245,-0.49312329234800245,0.9999901048727058,2.377378838350625e-05
-0.49293955354594343,-0.49293955354594343,1.0000127727949695,2.376539954226276e-05
-0.49277448987907063,-0.49277448987907063,1.0000136557102164,2.370045529520632e-05
-0.4926997183341541,-0.4926997183341541,1.0000049793987746,2.3736961313340933e-05
-0.4925934839825231,-0.4925934839825231,1.0000634114861344,2.3773113690449573e-05
-0.4924718409791467,-0.4924718409791467,0.9999894562001348,2.372068198400701e-05
-0.49235045790418325,-0.49235045790418325,0.9999336247017678,2.3884060645466246e-05
-0.49218464616863,-0.49218464616863,0.9999825692774245,2.3797269403173312e-05
-0.492109364503267,-0.492109364503267,0.9999981661342773,2.3757627225336085e-05
-0.4920051955446866,-0.4920051955446866,0.999965807305407,2.3753070198926683e-05
-0.49189574099340233,-0.49189574099340233,1.0000464841435197,2.376902846955326e-05
-0.4917965435338715,-0.4917965435338715,0.9999955169059438,2.3717434165353338e-05
-0.49156271614349406,-0.49156271614349406,0.9999746788059097,2.3772923022285586e-05
-0.4914431642428895,-0.4914431642428895,0.9999939116432239,2.3714980133325294e-05
-0.49134638479733894,-0.49134638479733894,1.0000199039858235,2.3741160705569934e-05
-0.49119232559152126,-0.49119232559152126,0.9999894314777589,2.3836410299516056e-05
-0.4909961822309242,-0.4909961822309242,1.0000092619081218,2.3685011589190027e-05
-0.49089691806102564,-0.49089691806102564,0.9999649400782451,2.372818705388388e-05
-0.49078549452020753,-0.49078549452020753,0.999990580892361,2.373350011416615e-05
-0.4906842440880041,-0.4906842440880041,1.0000423115161612,2.3775061115911555e-05
-0.4905712394197053,-0.4905712394197053,0.9999650555187936,2.3871061375904256e-05
-0.4904149419197097,-0.4904149419197097,0.9999946531489776,2.376156578217281e-05
-0.4903037340006108,-0.4903037340006108,0.9999957053300873,2.3772248371095743e-05
-0.4902329850905517,-0.4902329850905517,1.0000331952122,2.3743422617207315e-05
-0.4901045053050552,-0.4901045053050552,1.0001189435899813,2.378411626996445e-05
-0.49002104040558836,-0.49002104040558836,0.9999750743408701,2.372478433704313e-05
-0.4898131629454724,-0.4898131629454724,0.9999911971175619,2.3752509047813168e-05
-0.48963747892044013,-0.48963747892044013,1.0000079589583615,2.371437617365248e-05
-0.4895589709103206,-0.4895589709103206,1.0000365041214032,2.3774425341835568e-05
-0.4894356536758096,-0.4894356536758096,0.9999656506683376,2.3806070319106656e-05
-0.48923674581202475,-0.48923674581202475,0.9999967173849198,2.3731689148348122e-05
-0.489104339815583,-0.489104339815583,1.0000016775046718,2.3708622253933158e-05
-0.4889979468397428,-0.4889979468397428,1.0000436690316945,2.373369413617182e-05
-0.48889587744678237,-0.48889587744678237,1.0000639620352185,2.377274279086939e-05
-0.4887931308250586,-0.4887931308250586,0.9999660937255989,2.371729642636447e-05
-0.4886583630298105,-0.4886583630298105,0.9999919898986175,2.391166319981321e-05
-0.48850813911483326,-0.48850813911483326,1.00003413267163,2.3774317558776804e-05
-0.4884361951758024,-0.4884361951758024,0.9999597978215051,2.3747099223771836e-05
-0.4883292720709392,-0.4883292720709392,1.000111873374631,2.3778430684893034e-05
-0.4882079364631977,-0.4882079364631977,0.9999959165658214,2.3730362549740373e-05
-0.48807099608839055,-0.48807099608839055,1.0000350434816228,2.3740685079575486e-05
-0.48784547793605954,-0.48784547793605954,1.0000244664441538,2.3719497630511665e-05
-0.4877525225153022,-0.4877525225153022,0.9999790904568284,2.3735244576647237e-05
-0.4876386177266454,-0.4876386177266454,1.00002481490143,2.3773477739023764e-05
-0.48749475127142433,-0.48749475127142433,1.000031429446387,2.380862781202199e-05
-0.48728983595245834,-0.48728983595245834,1.0000129956849981,2.370014696907776e-05
-0.4871923471103855,-0.4871923471103855,1.0000133181522979,2.3703805196807223e-05
-0.4870901523911016,-0.4870901523911016,1.0000129472490633,2.3774844799930287e-05
-0.48700762380615287,-0.48700762380615287,0.9999959712207636,2.3776908248871464e-05
-0.48689139432217415,-0.48689139432217415,1.0000665362617616,2.385592500881895e-05
-0.4867180963912688,-0.4867180963912688,0.9999770664468333,2.3800411000014708e-05
-0.4866246915597344,-0.4866246915597344,1.0000319175642427,2.3758369762492535e-05
-0.48652049934333946,-0.48652049934333946,1.000023827380107,2.3754408313276084e-05
-0.486400791691085,-0.486400791691085,1.000048780806299,2.3752735043869086e-05
-0.4862747390366053,-0.4862747390366053,1.0000127349520287,2.3758166155004162e-05
-0.48601724769293925,-0.48601724769293925,1.0000152181087654,2.371982056040481e-05
-0.48591633147408403,-0.48591633147408403,1.0000075029962276,2.3749194206863664e-05
-0.4857890898494702,-0.4857890898494702,1.0000031857043443,2.3759786014939463e-05
-0.4856965313874412,-0.4856965313874412,1.000030534861359,2.3815152000636275e-05
-0.48549742284518516,-0.48549742284518516,1.0000178978754806,2.3691993042684206e-05
-0.48538761432917,-0.48538761432917,1.0000184295918666,2.370087679459698e-05
-0.4852805323189955,-0.4852805323189955,1.0000292247632783,2.377213074689079e-05
-0.4851793979482636,-0.4851793979482636,0.9999730687791354,2.3777956104321585e-05
-0.48506317220385425,-0.48506317220385425,0.9999869442664835,2.3853155262152317e-05
-0.48490786045319967,-0.48490786045319967,0.9999741616657939,2.3750523953877597e-05
-0.48480716957619735,-0.48480716957619735,0.9999496072760822,2.3788308940698995e-05
-0.4847203189660604,-0.4847203189660604,1.000001144870441,2.3722860553921407e-05
-0.4845936365411035,-0.4845936365411035,1.0001124244256272,2.3823316456746196e-05
-0.4844836364900743,-0.4844836364900743,1.0000036188095003,2.3718695454571714e-05
-0.4842324965220996,-0.4842324965220996,0.9999690404107937,2.372269395087582e-05
-0.4841057442126043,-0.4841057442126043,0.9999942194161703,2.3751433932827635e-05
-0.48398216800884486,-0.48398216800884486,0.9999450778340219,2.377345154952203e-05
-0.48384283894765756,-0.48384283894765756,0.9999511860404049,2.378134524528088e-05
-0.4836334000228021,-0.4836334000228021,0.9999381278449784,2.36991482772511e-05
-0.4835358581190576,-0.4835358581190576,1.0000205098213582,2.3703744159422207e-05
-0.48343104805975373,-0.48343104805975373,0.9999883536301952,2.3809543588607868e-05
-0.48334019238789094,-0.48334019238789094,1.0000303259081582,2.3761657693421736e-05
-0.483234950083272,-0.483234950083272,1.0000305494185446,2.3850410510674072e-05
-0.483061648025182,-0.483061648025182,1.0000487630971784,2.380012441477069e-05
-0.4829750722595577,-0.4829750722595577,0.9999805329459885,2.373726564030021e-05
-0.4829188701951125,-0.4829188701951125,1.0000085356450863,2.3731117149231583e-05
-0.4827847252665379,-0.4827847252665379,1.0000413435649096,2.3799033813794094e-05
-0.48268708522321047,-0.48268708522321047,0.9999523756100455,2.3725255667118055e-05
-0.48245017789980693,-0.48245017789980693,0.9999869541889558,2.3738492241317313e-05
-0.4822996346255195,-0.4822996346255195,1.0000232898976187,2.3725451270350085e-05
-0.4821773126461949,-0.4821773126461949,1.0000251233504425,2.374795779743171e-05
-0.482045393368287,-0.482045393368287,1.0000019185011453,2.3840847526270202e-05
-0.481840972670409,-0.481840972670409,0.9999978660978586,2.3692332789681442e-05
-0.4817311350627961,-0.4817311350627961,1.0000402531296138,2.370109853383937e-05
-0.4816019295410797,-0.4816019295410797,0.9999748066017343,2.3755399076014065e-05
-0.48148022969676274,-0.48148022969676274,0.9999674413026085,2.3717227416268065e-05
-0.4813618379360832,-0.4813618379360832,1.000054078147752,2.3878406510812666e-05
-0.48120172884974866,-0.48120172884974866,1.0000741990587825,2.3796816702991592e-05
-0.48114001864959166,-0.48114001864959166,1.0000386265720789,2.3759057947856482e-05
-0.48106327990909675,-0.48106327990909675,0.9999888393677899,2.3704952062148304e-05
-0.4809371926993208,-0.4809371926993208,1.000069910847703,2.3822851174753642e-05
-0.48080767840449423,-0.48080767840449423,1.0000278123553725,2.3724924076430174e-05
-0.4805325569957063,-0.4805325569957063,0.9999965163478117,2.3720153206847037e-05
-0.4804316491705777,-0.4804316491705777,1.0000265684927254,2.3749290704053934e-05
-0.4802945299133512,-0.4802945299133512,1.0000460852841004,2.380671173751228e-05
-0.48012238348525216,-0.48012238348525216,0.9999782176505997,2.3802496831515175e-05
-0.47994992486484306,-0.47994992486484306,0.9999985908976129,2.3716534797235777e-05
-0.4798525269397601,-0.4798525269397601,0.9999527149190115,2.369084957831016e-05
-0.47972560058527736,-0.47972560058527736,1.000048859078803,2.3747357892733842e-05
-0.47962536921515947,-0.47962536921515947,0.9999387547139029,2.3877996940686537e-05
-0.47949253140665177,-0.47949253140665177,0.9999454720085827,2.3747056717830744e-05
-0.4793602678717207,-0.4793602678717207,1.0000048125517893,2.3795272001382516e-05
-0.4792938179723933,-0.4792938179723933,1.0000295768564256,2.3746271492308797e-05
-0.47918924443073363,-0.47918924443073363,0.9999818525690195,2.374766333800538e-05
-0.4790999334537787,-0.4790999334537787,1.0000968308008864,2.3770394821810707e-05
-0.4789794488401412,-0.4789794488401412,1.000062158528125,2.3724135414543597e-05
-0.4787043267740046,-0.4787043267740046,0.9999768662477047,2.371925323192664e-05
-0.4786034217540077,-0.4786034217540077,0.9999488132865121,2.37484651044566e-05
-0.47846630517782385,-0.47846630517782385,0.9999351069351883,2.3805650820050745e-05
-0.4782687537747051,-0.4782687537747051,1.0000198670321208,2.374784048659361e-05
-0.47807930680850175,-0.47807930680850175,0.999992779941546,2.3690324802226058e-05
-0.4779454380839979,-0.4779454380839979,0.999916278096593,2.375604705165323e-05
-0.4778396565020898,-0.4778396565020898,0.9999906932939643,2.3701085963412606e-05
-0.47772470208186635,-0.47772470208186635,1.000025549592199,2.3863539745009705e-05
-0.47756817093508064,-0.47756817093508064,0.9999814375118203,2.3819695730191425e-05
-0.47748229583671675,-0.47748229583671675,0.9999705188148104,2.375574837417166e-05
-0.4774099198238332,-0.4774099198238332,1.0000383203901828,2.37280015493683e-05
-0.47730391231502833,-0.47730391231502833,1.0000917871167228,2.3834541724970488e-05
-0.4772233673377627,-0.4772233673377627,1.000049025261374,2.372557319374833e-05
-0.47705967916296005,-0.47705967916296005,0.9999812887021168,2.373851665369467e-05
-0.4768550011442471,-0.4768550011442471,1.0000175980277346,2.3704859608021343e-05
-0.47675463383607164,-0.47675463383607164,0.9999640696509037,2.3742035841107738e-05
-0.4765910292367607,-0.4765910292367607,1.0000214446344162,2.382593363011001e-05
-0.4763485903075548,-0.4763485903075548,0.9999635390743107,2.369231412011643e-05
-0.47620824744435597,-0.47620824744435597,0.9999704222174163,2.3728050609009043e-05
-0.4760945486729497,-0.4760945486729497,0.9999819913113333,2.377920264489134e-05
-0.475995553919779,-0.475995553919779,0.9999954994407373,2.3716784980829024e-05
-0.47586847121606296,-0.47586847121606296,0.9999789035808664,2.3844826583179565e-05
-0.47573994998025454,-0.47573994998025454,0.9999898980877395,2.3818798376204128e-05
-0.47565407472517335,-0.47565407472517335,0.9999467687960534,2.3756673034197995e-05
-0.47556989205880884,-0.47556989205880884,0.9999912889662002,2.370003915506001e-05
-0.4754573060094799,-0.4754573060094799,1.000116179685443,2.3853014085593057e-05
-0.4753642375871209,-0.4753642375871209,1.00001880099436,2.3753182272275677e-05
-0.4751817339099375,-0.4751817339099375,0.9999710412146824,2.3745293493784984e-05
-0.47502054238557323,-0.47502054238557323,1.0000045786944634,2.3679520653365675e-05
-0.4749264066477735,-0.4749264066477735,1.0000225910640652,2.374332609186084e-05
-0.47476281621538874,-0.47476281621538874,1.000002135059447,2.3826262551749796e-05
-0.4745203685888896,-0.4745203685888896,1.0000587932920009,2.3692282098215175e-05
-0.4743667932046719,-0.4743667932046719,1.000028934093019,2.3742256291276732e-05
-0.47423961130405135,-0.47423961130405135,0.9999997002668127,2.3755135467506382e-05
-0.4741200431244124,-0.4741200431244124,0.9999948779004553,2.387349139626535e-05
-0.47401548341698574,-0.47401548341698574,1.000043131397702,2.3699169572010972e-05
-0.4738885192717589,-0.4738885192717589,1.0000033347441826,2.381781477073332e-05
-0.4738101212774041,-0.4738101212774041,1.0000583917840782,2.3733842376428263e-05
-0.47373165054107175,-0.47373165054107175,1.0000011054922044,2.3725286084795038e-05
-0.4736290854504318,-0.4736290854504318,1.0001225914373975,2.385185023590208e-05
-0.47353600249105054,-0.47353600249105054,0.999976997192995,2.375286581515619e-05
-0.4733461565390371,-0.4733461565390371,0.9999805343916041,2.372423092687088e-05
-0.47317797362316016,-0.47317797362316016,1.0000326155464756,2.3697034919458184e-05
-0.4730759855795327,-0.4730759855795327,1.0000103373999347,2.374668965934508e-05
-0.4729346032004287,-0.4729346032004287,1.0000044056149513,2.382626344464449e-05
-0.47269214686788247,-0.47269214686788247,0.999986414138634,2.3691326861054476e-05
-0.4725116101526396,-0.4725116101526396,0.9999593979370639,2.3760433759911164e-05
-0.4723567898946953,-0.4723567898946953,1.0000232764121055,2.3708459250578844e-05
-0.47224490679258224,-0.47224490679258224,1.0000102674284845,2.387418221439886e-05
-0.4721587837918378,-0.4721587837918378,1.000030787204215,2.375805854243966e-05
-0.4720251445561189,-0.4720251445561189,1.0000415555902302,2.380346507863865e-05
-0.47195644037697093,-0.47195644037697093,1.0000048609066101,2.3726435300691763e-05
-0.47188017109361907,-0.47188017109361907,0.9999490980520601,2.3753210530703718e-05
-0.4717822300231774,-0.4717822300231774,1.0001448305849054,2.3820525230354098e-05
-0.47168197922085253,-0.47168197922085253,1.0000234672888573,2.373959831992107e-05
-0.4714680753030052,-0.4714680753030052,1.000014554579637,2.3699097749747988e-05
-0.4713302084595739,-0.4713302084595739,0.9999751060611526,2.3724247702857952e-05
-0.4712079468028719,-0.4712079468028719,1.0000060213164321,2.374811942999171e-05
-0.4710581833105948,-0.4710581833105948,1.0000677620634328,2.3809572890111806e-05
-0.47082254796818007,-0.47082254796818007,1.0000116466370006,2.3707023024878067e-05
-0.47064417521341967,-0.47064417521341967,1.0000185243205697,2.376968946872468e-05
-0.47048424334794847,-0.47048424334794847,0.9999726869963395,2.3866622719903476e-05
-0.4703596475009476,-0.4703596475009476,1.0000744691570798,2.3698991460916044e-05
-0.47031148795387023,-0.47031148795387023,1.0000372772967068,2.376833239054685e-05
-0.47019693241325056,-0.47019693241325056,0.9999855384906855,2.380320409265793e-05
-0.4701282039650437,-0.4701282039650437,0.9999584172762848,2.3725467856109947e-05
-0.4700389838394017,-0.4700389838394017,1.0001283606049989,2.3787636711549805e-05
-0.46993298360180236,-0.46993298360180236,0.9999976918420819,2.38001915493543e-05
-0.469843836635755,-0.469843836635755,0.9999800568372059,2.3724852632351077e-05
-0.46963984423329064,-0.46963984423329064,0.9999699538026918,2.3698299821627048e-05
-0.4695019707794927,-0.4695019707794927,1.0000017221635822,2.3724589571000983e-05
-0.4693797191927501,-0.4693797191927501,1.0000168571531045,2.37474569619179e-05
-0.46922997270562516,-0.46922997270562516,0.9999738974717832,2.3809064355006972e-05
-0.46899432788327433,-0.46899432788327433,1.0000197467187533,2.370761678665057e-05
-0.468796949160469,-0.468796949160469,1.0000118613431475,2.37824240434805e-05
-0.4686220611205044,-0.4686220611205044,1.0000317681713713,2.3870741283249756e-05
-0.46850409637100937,-0.46850409637100937,0.9999726114652804,2.3701830141467685e-05
-0.46839468120429045,-0.46839468120429045,1.000005738557918,2.3832827693926135e-05
-0.4683216382836804,-0.4683216382836804,0.9999736399392172,2.373994119566582e-05
