time,time,flux,flux_err
-0.4997049553415612,-0.4997049553415612,1.0011757208496788,0.002004672907167486
-0.49921730538608244,-0.49921730538608244,1.0005039140897545,0.0020742033145292214
-0.49864855050145707,-0.49864855050145707,0.9989425934904794,0.0019951955997992614
-0.4981277253700682,-0.4981277253700682,1.001779158938488,0.0017496081552861354
-0.49782925408762824,-0.49782925408762824,1.0005161546285706,0.0018053785251035668
-0.4974295111340325,-0.4974295111340325,1.0018142833880446,0.0018724609792171699
-0.4968211845603946,-0.4968211845603946,0.9986672549814213,0.0016355022036502916
-0.49649491607669916,-0.49649491607669916,1.0016758577852116,0.0018489496875316765
-0.49584149112997694,-0.49584149112997694,1.0017021947506195,0.0017060258580165546
-0.4954284358405857,-0.4954284358405857,1.0004873353252384,0.0017036420973865825
-0.4947559481988719,-0.4947559481988719,0.9974559552286291,0.0018164870412200073
-0.4940876139426109,-0.4940876139426109,1.000848380580705,0.0016834637584655504
-0.49375722224758645,-0.49375722224758645,0.9996270772518828,0.0018344725893634551
-0.4932410933881329,-0.4932410933881329,0.9984103681169639,0.00179067197251461
-0.4929705118163838,-0.4929705118163838,1.0013367427321103,0.001771887699631896
-0.4926313560725248,-0.4926313560725248,1.0007075888035797,0.0018705610951677508
-0.4921827676167595,-0.4921827676167595,0.9988531307757726,0.0018400544345970188
-0.4917784994988324,-0.4917784994988324,0.9969913321148542,0.0018649408316299097
-0.49142436376532717,-0.49142436376532717,1.0014411855791705,0.0018123367932339311
-0.4909083319158526,-0.4909083319158526,0.9998561209284563,0.001833774180953229
-0.4904707227156905,-0.4904707227156905,1.0023527389434945,0.0018344950664169735
-0.4900498239629087,-0.4900498239629087,0.9999842625111505,0.0018380391684988332
-0.489840054366141,-0.489840054366141,1.0044586097149528,0.0018437453800010945
-0.4893354786821874,-0.4893354786821874,0.9996746750630645,0.0018037323998545002
-0.4888065701892629,-0.4888065701892629,1.0021239724843973,0.0016320567259972903
-0.4881882557845529,-0.4881882557845529,0.9995411786776558,0.0015700861700211105
-0.48769387157881283,-0.48769387157881283,0.9979765073342314,0.0017434771248809075
-0.48700587884341073,-0.48700587884341073,1.0003208734591258,0.0017474357253007993
-0.48621447445475496,-0.48621447445475496,0.9990892118843406,0.0016676464928987
-0.4858770447030111,-0.4858770447030111,0.9977412558973041,0.0018405441430802039
-0.48537067190773087,-0.48537067190773087,1.0021766275847521,0.0017646640271570878
-0.48506395935764884,-0.48506395935764884,1.0002313903753661,0.0018215526104137358
-0.4847350409083447,-0.4847350409083447,1.0009461021252233,0.0018543718103697076
-0.48434570674144195,-0.48434570674144195,0.9989066864176553,0.0018500623904301114
-0.48399149363649485,-0.48399149363649485,0.9996859368694523,0.001776819466651302
-0.4836562884156592,-0.4836562884156592,1.0008581779090275,0.0019020367286623474
-0.48318757149900193,-0.48318757149900193,1.0014689715894178,0.0017777642096931604
-0.4827541521310195,-0.4827541521310195,1.0011335148933376,0.001795226618553233
-0.4823034453624132,-0.4823034453624132,0.9987300485412762,0.001818686196684805
-0.4819808063100936,-0.4819808063100936,1.0012965751833798,0.0016630968363121623
-0.4815282676347124,-0.4815282676347124,1.0009652576827386,0.0018093558311153615
-0.48093045759778763,-0.48093045759778763,1.0013384291969798,0.0016329259050143104
-0.48044530165861943,-0.48044530165861943,0.9995171020449224,0.0016147179988622341
-0.4797820543488342,-0.4797820543488342,1.0013890518471007,0.0016141485922218355
-0.4789454867084714,-0.4789454867084714,0.9996072394226271,0.0018132954154911497
-0.47834133688447766,-0.47834133688447766,0.999199109981409,0.0016503073831729297
-0.47799147002224346,-0.47799147002224346,1.002064943485577,0.001854539579836582
-0.4776135279578739,-0.4776135279578739,1.000124799365922,0.0018327533676202354
-0.47740128849436586,-0.47740128849436586,0.9986484097678539,0.001767482706995825
-0.4770468044556765,-0.4770468044556765,1.0018456348290798,0.0018088227698773631
-0.47666713560502105,-0.47666713560502105,0.9993673340891268,0.001867976076029185
-0.4763619982353703,-0.4763619982353703,0.9997428812999785,0.0017085501324645136
-0.4759543622836645,-0.4759543622836645,0.9977282928214573,0.0019409015140717627
-0.4755484415218234,-0.4755484415218234,1.0010223039366142,0.0018126658990263312
-0.4751675711791904,-0.4751675711791904,0.9998981965702288,0.0018464036354101589
-0.47458279521779334,-0.47458279521779334,0.9992389140673923,0.001816232252661146
-0.4741534924851294,-0.4741534924851294,0.998596577865079,0.001764384458694953
-0.4738435100673087,-0.4738435100673087,0.9989618775005915,0.0017186713391332455
-0.4733779686674097,-0.4733779686674097,1.0003320346016282,0.001885266726730666
-0.47288907632646443,-0.47288907632646443,0.9995799156765661,0.001750303881109308
-0.47187103785327056,-0.47187103785327056,1.0010807204855616,0.0016232379316844959
-0.47090479069956925,-0.47090479069956925,0.9981556381741388,0.0018522617069974244
-0.47020941811679223,-0.47020941811679223,1.0008278660535936,0.0017593928253003537
-0.4697978847139893,-0.4697978847139893,1.001176886490399,0.0019299341366719094
-0.46957065927599617,-0.46957065927599617,0.9989043106043181,0.0017694794696367301
-0.46921249195838755,-0.46921249195838755,1.001096006399117,0.0018394016487196158
-0.46879471026004466,-0.46879471026004466,1.000622752366243,0.0018330666465686256
-0.46843703501144773,-0.46843703501144773,1.0016846057987139,0.0017588232354641253
-0.4680817821954406,-0.4680817821954406,0.9996599290529693,0.001873463216670498
-0.46771775078923383,-0.46771775078923383,1.0019871512025595,0.0019303347854564262
-0.46733439842864755,-0.46733439842864755,0.9990921640763606,0.0017712892941722336
-0.46686808787635525,-0.46686808787635525,0.9991020478880734,0.0018332887590057465
-0.4663725566857465,-0.4663725566857465,1.0002029907533372,0.0017707196596890337
-0.46604042134567863,-0.46604042134567863,0.9989312672761483,0.001639850699195899
-0.4656652412002586,-0.4656652412002586,1.000788284341499,0.0018674214185861056
-0.46527408620531785,-0.46527408620531785,0.9993512197054173,0.0018365097656872693
-0.46471504521869067,-0.46471504521869067,1.0001548780010692,0.0017860237558294805
-0.46423523723860854,-0.46423523723860854,1.0003629728206473,0.00174595306326585
-0.46355450979863233,-0.46355450979863233,1.0011907483018028,0.0017151033341281368
-0.4628683323320729,-0.4628683323320729,1.0007040785514179,0.0018054416586632837
-0.46217391681966546,-0.46217391681966546,1.0018261537811337,0.0018450562861735686
-0.46171547455924156,-0.46171547455924156,1.0008271304557788,0.001797944355689546
-0.4612878838543111,-0.4612878838543111,0.998371848897818,0.001862456378158173
-0.460874077536937,-0.460874077536937,0.9978042636417348,0.0018619977674772833
-0.4605563506087492,-0.4605563506087492,0.9983587136265992,0.0017515042318387189
-0.4601373710924236,-0.4601373710924236,0.998764726310065,0.001837270623295179
-0.45965842486875774,-0.45965842486875774,1.0017690363748788,0.0018755998841766732
-0.45932687769491165,-0.45932687769491165,0.9992697185408286,0.0019353665791529222
-0.4587683637204464,-0.4587683637204464,1.0007444433295936,0.0017911649023957927
-0.45835918530392517,-0.45835918530392517,1.0003624207985404,0.0017719117103305391
-0.4578950621449621,-0.4578950621449621,1.0006046320507103,0.0017033644758239202
-0.45753887746832334,-0.45753887746832334,0.999836918411599,0.0018084696835446138
-0.4571188720918144,-0.4571188720918144,1.0013488552059717,0.0018180004743520689
-0.45664576295821463,-0.45664576295821463,0.999179668302309,0.001601780091330342
-0.45598027004962205,-0.45598027004962205,0.9988019624429801,0.0017093192963494712
-0.45548641371970006,-0.45548641371970006,1.0006432877588183,0.0019067143531913537
-0.45482732993768876,-0.45482732993768876,0.9994468911038548,0.0018924936911537443
-0.45427880866191117,-0.45427880866191117,1.0031550095195003,0.0018566948419308595
-0.45390744845353764,-0.45390744845353764,0.9986784690931515,0.0017160098188808985
-0.4536514422899927,-0.4536514422899927,1.0019352596896258,0.0016711003986749511
-0.45335163948511764,-0.45335163948511764,1.000898198427963,0.0018479308067557282
-0.4528723282230203,-0.4528723282230203,1.0005139451905678,0.0016565491540673724
-0.45254899200226645,-0.45254899200226645,0.998101198140324,0.0018132750053230391
-0.45219316408438315,-0.45219316408438315,1.002198854787379,0.0018351734097079558
-0.4518060034013615,-0.4518060034013615,0.9984655302943402,0.001823464202844968
-0.45136007637447617,-0.45136007637447617,1.002054519478796,0.001868877959806743
-0.4508239926813985,-0.4508239926813985,1.001749245440873,0.0017411715131334035
-0.45048548317463427,-0.45048548317463427,0.9986172474397641,0.0018464160883062762
-0.4501159207058663,-0.4501159207058663,1.000865683614876,0.001692783832863573
-0.4498868945556751,-0.4498868945556751,1.002574726525674,0.0017750974870770317
-0.4496125843237678,-0.4496125843237678,1.0007470762421,0.0018224797510917109
-0.4491742083788267,-0.4491742083788267,0.9998321770471668,0.0018387095893185334
-0.4487010085344082,-0.4487010085344082,0.998517087307907,0.0016263657111526477
-0.4482717741833767,-0.4482717741833767,0.9998763788710795,0.0017295846917716323
-0.44760627373507306,-0.44760627373507306,0.9999491539058016,0.0017259970202886641
-0.44671918391613874,-0.44671918391613874,1.0000585772212398,0.0018878390020148745
-0.44623649076638683,-0.44623649076638683,1.000113762922379,0.0018351981690892319
-0.44588656181731495,-0.44588656181731495,1.0007152040862657,0.0016935615336846489
-0.4455685769458796,-0.4455685769458796,0.9989376868816588,0.0018189424335043202
-0.4450776849131216,-0.4450776849131216,0.9985203406421576,0.001804433371985726
-0.4447951021746121,-0.4447951021746121,1.0006956147001458,0.00174953984619186
-0.4444299716651585,-0.4444299716651585,0.9990240477783038,0.0018413003626234973
-0.4440138262925757,-0.4440138262925757,1.000040318701811,0.00180478089085221
-0.4435865321000165,-0.4435865321000165,0.9998185641270295,0.0018786619104612285
-0.4431429130814649,-0.4431429130814649,0.9985971307179675,0.001866682522091085
-0.44271759624207335,-0.44271759624207335,0.998695329215449,0.001854080314362851
-0.4422131914947386,-0.4422131914947386,1.0016100306903177,0.001738989876495897
-0.4418593699163466,-0.4418593699163466,1.0003006956554474,0.0017327939769482762
-0.44143641506598214,-0.44143641506598214,1.0016463583918038,0.0018710323168514287
-0.4409034983338643,-0.4409034983338643,0.9988484042429059,0.0016204235061298936
-0.440512253894849,-0.440512253894849,0.9991880680226716,0.0018533950225344442
-0.4398483991240937,-0.4398483991240937,1.001460740425068,0.0017046844355042966
-0.4393807552529324,-0.4393807552529324,1.0015661754604501,0.0017195729638079145
-0.4385814732999279,-0.4385814732999279,0.9979104216428706,0.0018099223138492945
-0.4380486780817591,-0.4380486780817591,1.002692708239897,0.001646847917962125
-0.4376360764625133,-0.4376360764625133,0.9985613463807896,0.0018485156250617172
-0.4372026218687097,-0.4372026218687097,0.9997244757186184,0.001805149115606488
-0.4369145438889973,-0.4369145438889973,1.0013990273232163,0.001748779506999111
-0.43653411019986377,-0.43653411019986377,1.0005128320820513,0.0018404242940616143
-0.4361308633822773,-0.4361308633822773,1.0009900969190826,0.0018735495919983657
-0.4357082902053662,-0.4357082902053662,1.002540463424109,0.0018614514579236344
-0.43533068109427403,-0.43533068109427403,0.9985178661330517,0.0017996606776725464
-0.43487798627757,-0.43487798627757,1.0021250997795428,0.001866758771609129
-0.4344275861956703,-0.4344275861956703,0.999281971301768,0.001832549873904079
-0.43397966277625527,-0.43397966277625527,0.9998043333031916,0.0018965195124591501
-0.433660661331669,-0.433660661331669,1.0000984989135295,0.0017722421227537879
-0.43312113261272317,-0.43312113261272317,0.9990185435939816,0.0017311360587012174
-0.43252765332472337,-0.43252765332472337,1.0000784779235876,0.0016440886133824478
-0.4319510440029262,-0.4319510440029262,0.9987859468111363,0.0016957441759458344
-0.4312319495402335,-0.4312319495402335,0.9999500281442814,0.00170172853116611
-0.43048904816969297,-0.43048904816969297,1.002686217706481,0.0017580371796322432
-0.4300394401281665,-0.4300394401281665,1.0001189507096568,0.0017311404453600001
-0.42956378241105997,-0.42956378241105997,0.9987062412789116,0.0018311479855971547
-0.4292836212011025,-0.4292836212011025,1.0006813159548917,0.0017827773430496487
-0.4289140600409155,-0.4289140600409155,0.9995188277432575,0.0018145157063448676
-0.42857890616396616,-0.42857890616396616,0.9979236893161053,0.0019326742558234196
-0.42822601127263626,-0.42822601127263626,0.9996154355815465,0.0018060458772252686
-0.42783494608374895,-0.42783494608374895,0.9982466595215383,0.0018717460949454067
-0.42749729672032116,-0.42749729672032116,0.999724323498992,0.0018089765811794972
-0.42702807554851463,-0.42702807554851463,0.9998616390024969,0.0018018955130189537
-0.4265932857306325,-0.4265932857306325,0.9973758397167364,0.0018435926411088164
-0.4262331799429376,-0.4262331799429376,1.0005213371383728,0.0018082001320001244
-0.42591264274524293,-0.42591264274524293,0.9998696015044658,0.0015832529081979206
-0.42544310644225336,-0.42544310644225336,1.0005287931452507,0.0018887271341140408
-0.4249373425147496,-0.4249373425147496,0.9995145905960128,0.0016318236732486054
-0.42436349929557765,-0.42436349929557765,1.0028150788964414,0.001577042707033803
-0.4236805280415865,-0.4236805280415865,0.9997773366881167,0.001610993529865129
-0.42288052573130697,-0.42288052573130697,1.000195284457865,0.0018105222116989925
-0.422302546573701,-0.422302546573701,0.9987341218200483,0.0016485825854131019
-0.4219226121484098,-0.4219226121484098,0.9995401260269381,0.0018300343390081435
-0.42155056898154725,-0.42155056898154725,0.9993698474213915,0.0018676142333844598
-0.4213401864068146,-0.4213401864068146,1.0007361303985454,0.0017347170129800057
-0.4209933827762143,-0.4209933827762143,0.9987288635500006,0.0018564656500613108
-0.4206283489467751,-0.4206283489467751,0.9994751574935219,0.0018276918705205272
-0.4202909398842166,-0.4202909398842166,1.000771526790818,0.0017139923161109626
-0.4199062637617317,-0.4199062637617317,1.0019276828613761,0.0019771922013051097
-0.4195552797671553,-0.4195552797671553,1.0024899651820116,0.001813549688567738
-0.419174431067222,-0.419174431067222,0.9989212634489381,0.001844688440334824
-0.418589618297483,-0.418589618297483,0.9997690828094286,0.0018136474642969822
-0.41816040752128175,-0.41816040752128175,1.000737183372955,0.0017663285481723146
-0.41788573151388847,-0.41788573151388847,0.999638269895382,0.001716775758379743
-0.4174757859378587,-0.4174757859378587,0.9999546312755505,0.0018554578093188923
-0.4170684975277254,-0.4170684975277254,1.0006839915847492,0.0017504559857149699
-0.416200886687875,-0.416200886687875,1.0002057192239817,0.0016668210930709166
-0.4152723076447728,-0.4152723076447728,1.0024216643755826,0.0017770333084562613
-0.41440171172071133,-0.41440171172071133,1.0004748933502892,0.001725914570427204
-0.4139641632988059,-0.4139641632988059,0.9994641960819088,0.00190597355243604
-0.41363290907174816,-0.41363290907174816,0.9983925849181334,0.0018199022155360924
-0.4133546693941753,-0.4133546693941753,0.9997248091743762,0.0018186874708729112
-0.4129884090827545,-0.4129884090827545,0.99793919085756,0.0019037005036160743
-0.4126189949023683,-0.4126189949023683,1.00237532474465,0.0016961586609447782
-0.41231168602862456,-0.41231168602862456,1.001733493549824,0.0018162577171816352
-0.41193717466558155,-0.41193717466558155,0.99915641601405,0.0019064091608197655
-0.41149996644453496,-0.41149996644453496,0.9997383790719002,0.0018003953357775084
-0.41112093403717154,-0.41112093403717154,0.999440180390302,0.0018731671263082094
-0.4104798770586058,-0.4104798770586058,1.0003969176660552,0.0018273537437095394
-0.41013158865571314,-0.41013158865571314,0.9994974882949021,0.0016163347744965148
-0.40975125232725984,-0.40975125232725984,0.9989649615018722,0.0018624574174995624
-0.4093547129585204,-0.4093547129585204,1.0002805612919372,0.0018224984823515876
-0.40885892913865973,-0.40885892913865973,1.0011601254134765,0.0017763959411122253
-0.4083150119658967,-0.4083150119658967,0.9988788652282603,0.0017625903509411445
-0.40769731680884436,-0.40769731680884436,1.000327679050887,0.0017167137569205656
-0.40703482196004187,-0.40703482196004187,0.9978639340201607,0.00189816056312185
-0.40629964717845723,-0.40629964717845723,1.0012516305716403,0.0018053946521360445
-0.40578796620684443,-0.40578796620684443,1.0017261724401245,0.001715018068155247
-0.40539481204941696,-0.40539481204941696,1.0012074009514045,0.001831547568257289
-0.40494492688085304,-0.40494492688085304,1.0001438006411234,0.0019259209779346575
-0.4046922420446208,-0.4046922420446208,1.0002960942415673,0.001663200858163423
-0.4043666263904015,-0.4043666263904015,1.000442332876219,0.0018413208590457332
-0.40381332002907583,-0.40381332002907583,0.9999956906136939,0.0019025473580528151
-0.40345061225489187,-0.40345061225489187,1.0000322110800037,0.0018995924553341479
-0.40301926129468485,-0.40301926129468485,1.0002318415120808,0.0018416023827771907
-0.40253917311019904,-0.40253917311019904,1.0005925748486257,0.0018517074384598229
-0.4020802610786632,-0.4020802610786632,1.000653185438032,0.0015918195822550388
-0.40169343005181873,-0.40169343005181873,1.0020081809085368,0.0019139070182692306
-0.4014229127722501,-0.4014229127722501,0.9988870957744602,0.0017282346093010434
-0.40103315322885463,-0.40103315322885463,0.9983631517672945,0.0017025261285932036
-0.40059607985058393,-0.40059607985058393,0.9995872594177632,0.0016489790643210306
-0.3999870623509196,-0.3999870623509196,1.001165339770848,0.0017101846889955399
-0.3994932471792708,-0.3994932471792708,0.9996672960930015,0.0019082060392755305
-0.3988343207274738,-0.3988343207274738,0.9988771088926768,0.0018930460699533168
-0.39819246622137144,-0.39819246622137144,1.000647233550444,0.0018059852349644437
-0.3978485289677337,-0.3978485289677337,0.9998538216521858,0.001782142306468678
-0.3975506405324268,-0.3975506405324268,1.000874970196118,0.0017302971930796783
-0.3971793168228032,-0.3971793168228032,1.0013972565611868,0.0018375109277908286
-0.3968143930156657,-0.3968143930156657,1.000012542346388,0.0016584181120330981
-0.3964897030738939,-0.3964897030738939,1.0000398280357818,0.0018382428347405299
-0.396117168877754,-0.396117168877754,1.0005789212743266,0.001806682864720675
-0.39571884424112796,-0.39571884424112796,0.9996295748407013,0.0018656125796657399
-0.39528824042317867,-0.39528824042317867,1.0026884119054704,0.001797713221697083
-0.39472758962547233,-0.39472758962547233,1.0004359720253155,0.0018259861274856483
-0.39442050852921967,-0.39442050852921967,0.9999091565928889,0.0017582365371782212
-0.3940911814217543,-0.3940911814217543,1.0002879139450171,0.0017496188593369144
-0.39386727350320144,-0.39386727350320144,0.9986981424990565,0.0018238220171434651
-0.3935391974617232,-0.3935391974617232,0.999766838429019,0.0018103272476131162
-0.393033627222394,-0.393033627222394,0.9996763725454482,0.0017681656034676506
-0.39260367266215324,-0.39260367266215324,0.9997539814088819,0.001706438104427666
-0.3919619041193073,-0.3919619041193073,1.000506919610789,0.0016787620256873519
-0.39131296812047367,-0.39131296812047367,1.0001461410053936,0.001848260091810368
-0.39047499025327853,-0.39047499025327853,0.9999629481180163,0.001812589135647755
-0.39009810468051,-0.39009810468051,0.9999471722422173,0.0017470220744698853
-0.3897485712510388,-0.3897485712510388,0.9996158141550806,0.0017550223791068214
-0.38938427210923693,-0.38938427210923693,1.0005028122921498,0.0018329096347619468
-0.38897530507929334,-0.38897530507929334,0.9989749675879409,0.0017363378264124174
-0.3886779173804825,-0.3886779173804825,1.0018757980929056,0.00182512888109705
