time,time,flux,flux_err
-0.4998453922015263,-0.4998453922015263,0.9994745273975547,0.0007540828473323925
-0.49968521449757947,-0.49968521449757947,0.9999873136447645,0.0006566885765443209
-0.49942446639323634,-0.49942446639323634,1.0004528019844277,0.0006777212961492594
-0.4991931343047706,-0.4991931343047706,1.0001433712047196,0.0006463088894836843
-0.49882615321494084,-0.49882615321494084,0.9999358851248026,0.0006696712338669426
-0.49846315458935353,-0.49846315458935353,0.9997898916743001,0.0005992803108569541
-0.4982348747015749,-0.4982348747015749,0.9998081725959725,0.0007815873503302338
-0.49798453379098645,-0.49798453379098645,0.9991973324424072,0.0006102657280206667
-0.49777359246195374,-0.49777359246195374,1.00041342640066,0.0006336234945964004
-0.49747710164897396,-0.49747710164897396,0.9998271688646355,0.0008231170967846118
-0.4969400124945878,-0.4969400124945878,0.9998971460510523,0.0006947426322848751
-0.496581335924634,-0.496581335924634,0.9992470070226995,0.000655546680363834
-0.4962017721362372,-0.4962017721362372,1.0002876966903884,0.0006512655691461801
-0.4959979229053488,-0.4959979229053488,1.000696888842063,0.0006143542257614504
-0.49577906266486027,-0.49577906266486027,1.0006816622088803,0.0005984627294944916
-0.49559654311067336,-0.49559654311067336,1.0003210037751056,0.0006216690290450006
-0.49543239327272204,-0.49543239327272204,0.9996854231827108,0.0005766958304501812
-0.49519844598203233,-0.49519844598203233,0.9990665826242979,0.0005810007446081919
-0.49501171834237995,-0.49501171834237995,1.0010996036676105,0.0006552261550021468
-0.4948384581847449,-0.4948384581847449,1.0003504799264396,0.0007102849261679479
-0.49466898527621195,-0.49466898527621195,0.9995294665294019,0.0007059869375431511
-0.49453004695005803,-0.49453004695005803,1.0003565350062273,0.000592678533659917
-0.49429852061803103,-0.49429852061803103,0.9993637701382587,0.0006269376675675678
-0.4941245247261804,-0.4941245247261804,1.0002848124350665,0.0005959288766810342
-0.4938583068019625,-0.4938583068019625,0.9991938089666046,0.0005720478868482639
-0.493472747242231,-0.493472747242231,1.0004911383201704,0.0006885258995184172
-0.49325475228904453,-0.49325475228904453,0.9999621169303147,0.0006476004862103462
-0.4929239376849637,-0.4929239376849637,1.0001333979972584,0.0007044394614633982
-0.49273440922388545,-0.49273440922388545,0.9998761146531308,0.0006540695062641822
-0.4924815506962659,-0.4924815506962659,1.0004588122727536,0.0007365886058480825
-0.49200450044204447,-0.49200450044204447,1.0001859677345915,0.0007722033763530229
-0.491578841927776,-0.491578841927776,0.9998973555933823,0.0006313541619418638
-0.4912087604157023,-0.4912087604157023,1.0000685104978089,0.0006281506813619557
-0.49094177864351424,-0.49094177864351424,0.9994834780330327,0.0006474666707879706
-0.4906829456733931,-0.4906829456733931,0.9997440064535882,0.0006002229455743917
-0.49049631121097265,-0.49049631121097265,0.9997029663938864,0.0006274125795228799
-0.4903188794369953,-0.4903188794369953,0.9992271070154258,0.0005915319478435424
-0.4901003794624785,-0.4901003794624785,0.9995845541498042,0.0005914634495229451
-0.4898718273653458,-0.4898718273653458,1.000169677789905,0.0006551191855214825
-0.48971400273517246,-0.48971400273517246,0.9992072436310986,0.0007087870523257731
-0.48954519641933986,-0.48954519641933986,0.9991317758517724,0.0006978942146557189
-0.4894329548119686,-0.4894329548119686,0.9997996599183704,0.0006041945573768106
-0.48925217849091496,-0.48925217849091496,1.0003302929235223,0.0006100897753571839
-0.48907305071495555,-0.48907305071495555,1.0002675924887865,0.0005914879661822936
-0.4888354797074044,-0.4888354797074044,0.999406397175312,0.0005933612132536354
-0.4884699170702106,-0.4884699170702106,0.9999435625172328,0.0006709048459419032
-0.4881832442775476,-0.4881832442775476,0.9997230002353131,0.0005990670251726626
-0.4879300308220536,-0.4879300308220536,0.9997666099999674,0.0007432674774544172
-0.4876651000430684,-0.4876651000430684,0.9997541516096069,0.00061111615059442
-0.4874489216112579,-0.4874489216112579,1.000318044749119,0.0006920032732816468
-0.48718368670506607,-0.48718368670506607,1.0003167973840204,0.0008136320635920262
-0.4866602010365568,-0.4866602010365568,1.000379541442744,0.0006949975748656072
-0.4863015710832997,-0.4863015710832997,1.000101512492539,0.0006558535980883383
-0.4859218729503027,-0.4859218729503027,0.9999580919902507,0.000650813387475316
-0.4856577056601964,-0.4856577056601964,0.9998144341964611,0.0006320684676994787
-0.48544335579970266,-0.48544335579970266,0.9986753487737001,0.0005957461869136533
-0.4852367955178124,-0.4852367955178124,1.000046307402623,0.0006220800472108266
-0.485043149742819,-0.485043149742819,1.0000907207109413,0.0005787783746168571
-0.48480094002759416,-0.48480094002759416,1.0004414689586132,0.0005928107328495663
-0.48460020170691676,-0.48460020170691676,1.0002987936052494,0.0007651464609398082
-0.48440527001801004,-0.48440527001801004,1.0006172509177547,0.000698362148572334
-0.4842807258029097,-0.4842807258029097,0.9997384532604187,0.0006159370652422968
-0.484066717104065,-0.484066717104065,0.9994642099369511,0.0006032830051578635
-0.4838916000266863,-0.4838916000266863,1.0007490354943438,0.0005967358237176391
-0.48368157635977693,-0.48368157635977693,1.000807031627392,0.0005845898788990302
-0.4833299911875429,-0.4833299911875429,0.9995263440263589,0.0006714509344999596
-0.4830418460224564,-0.4830418460224564,0.9998136946694351,0.0006624163148080511
-0.48279124940863766,-0.48279124940863766,1.0003204725113188,0.0006779201901102367
-0.48256479915689854,-0.48256479915689854,1.0000923075817685,0.0006102840428748614
-0.4823538520445709,-0.4823538520445709,1.0002075902597223,0.00063266568274678
-0.48213891572286227,-0.48213891572286227,0.9995016705018841,0.0008138461756354197
-0.4816005183760808,-0.4816005183760808,0.9993910616704517,0.0007710236466876837
-0.48122917803787,-0.48122917803787,1.0005015351375313,0.0006322757939604023
-0.4808509837425845,-0.4808509837425845,0.9996891135796806,0.0006726172983461196
-0.48057706105180387,-0.48057706105180387,1.00000098067309,0.0006094448236355394
-0.480333763535873,-0.480333763535873,0.9995265831916431,0.0005975568753242612
-0.4801369602134855,-0.4801369602134855,0.9994545208454337,0.0006206666327446715
-0.4799409073319566,-0.4799409073319566,1.000788209647464,0.0005870086360202972
-0.4796712357158867,-0.4796712357158867,0.9995259737751472,0.0005835992614971392
-0.4794980797037397,-0.4794980797037397,1.0001634826516632,0.000765041154965196
-0.4792944906734874,-0.4792944906734874,0.9995889612142204,0.0006563488742651436
-0.47917556465692995,-0.47917556465692995,1.0006332312752186,0.0006616609922955084
-0.4789722989460188,-0.4789722989460188,0.9999906769491949,0.0006094708017795914
-0.4787669976783263,-0.4787669976783263,0.9999137858915343,0.0006144005959616077
-0.4785023661010882,-0.4785023661010882,0.9994575631813547,0.0005710345190132064
-0.47818817170466443,-0.47818817170466443,1.0004611194990127,0.0006833307294400828
-0.4779019224793274,-0.4779019224793274,1.0010526344434947,0.0006620476565257486
-0.4776300238152317,-0.4776300238152317,0.9993862153820509,0.0006937385151223967
-0.4773853087483985,-0.4773853087483985,0.9995904010566076,0.0006110569068833308
-0.4771690543578643,-0.4771690543578643,1.00016348257553,0.0006971327552016772
-0.47671117237719046,-0.47671117237719046,0.9987345578246375,0.0007756185248442848
-0.47624170339624927,-0.47624170339624927,1.000348915264109,0.0006852983689784764
-0.47590062051092447,-0.47590062051092447,1.0001362750657488,0.0006656344930427029
-0.4756385287603052,-0.4756385287603052,1.0003968258908582,0.0006356653315469029
-0.4754063588057306,-0.4754063588057306,0.9999126331912743,0.0006753210525989315
-0.47519382457971915,-0.47519382457971915,0.9997910645284993,0.0005976401694826452
-0.47499701273252415,-0.47499701273252415,0.9999805151353289,0.0006207478296232188
-0.4748010284028169,-0.4748010284028169,0.9995638846453293,0.0005868918268576931
-0.4745068997262706,-0.4745068997262706,1.0000468951518766,0.000603109358055926
-0.4743415221288615,-0.4743415221288615,1.0004456958477124,0.0007498455644407946
-0.4741545617040856,-0.4741545617040856,1.0002497755235078,0.0006564931773253309
-0.4740357148915336,-0.4740357148915336,0.9998931699000211,0.0006617522820985957
-0.47383235917973254,-0.47383235917973254,1.000056157282027,0.0006096970897382568
-0.473627078053687,-0.473627078053687,0.9997698744711142,0.0006142727375690285
-0.4733623775110118,-0.4733623775110118,0.9996012770717584,0.0005710997652114168
-0.4730482504848396,-0.4730482504848396,1.000178299664649,0.000684298029067214
-0.472761998936312,-0.472761998936312,1.0004134873550714,0.0006624986606879092
-0.47249013288624153,-0.47249013288624153,1.0006481697403196,0.0006937234522431449
-0.47224541311056784,-0.47224541311056784,1.0005210551419257,0.0006108919697413644
-0.4720291207819173,-0.4720291207819173,0.9995007359764095,0.0006989739742465253
-0.4715713265297836,-0.4715713265297836,0.9999890258065264,0.0007757606936308419
-0.47110179587739365,-0.47110179587739365,1.000447094947491,0.0006851164046552071
-0.4707607375041107,-0.4707607375041107,0.999688114190645,0.0006654259752630022
-0.47049857412703205,-0.47049857412703205,1.0007185357866522,0.0006356738417819156
-0.47023809328400146,-0.47023809328400146,0.9993135099156953,0.0006312885527645269
-0.4700234871255816,-0.4700234871255816,1.0009179866155895,0.0005963622216161391
-0.46983363624190133,-0.46983363624190133,0.9993862327330112,0.0006667305110219443
-0.4696611495032812,-0.4696611495032812,1.0003878500246315,0.0005874381000345129
-0.4693497940694442,-0.4693497940694442,1.0002241489148074,0.0005983471484797193
-0.46918065322574876,-0.46918065322574876,1.0002573331288476,0.0007656274536678079
-0.46898549082966384,-0.46898549082966384,1.000751762441405,0.0006979903784127415
-0.4688611643277,-0.4688611643277,1.0003400768795578,0.0006160650533958764
-0.4686468109750194,-0.4686468109750194,0.9996776901199326,0.0006038564573424458
-0.4684531254721378,-0.4684531254721378,0.9992286122165253,0.0006023051665861748
-0.468222388943218,-0.468222388943218,1.0001915690113532,0.0005709103432981818
-0.46796373090267024,-0.46796373090267024,0.9991334831605551,0.0005889507093254892
-0.46767393544955665,-0.46767393544955665,0.9997004084219323,0.0006877459517519238
-0.4674226557695874,-0.4674226557695874,1.0005009243130503,0.00072737750805161
-0.46717652498191453,-0.46717652498191453,0.9989774179246755,0.000610244417602449
-0.4669867499807424,-0.4669867499807424,0.9997217454284624,0.0006543654693851479
-0.4665651521536347,-0.4665651521536347,1.00011905166029,0.0007588046162970713
-0.4660189223508041,-0.4660189223508041,1.000392939449845,0.0006998903235090385
-0.46572912111062126,-0.46572912111062126,0.9986102420906814,0.0007178007127808874
-0.4654746786364285,-0.4654746786364285,0.9998603792211874,0.0006106155426538148
-0.4652164430386165,-0.4652164430386165,1.0001206229601955,0.0006533196041706576
-0.4649395062180929,-0.4649395062180929,1.0002000099612112,0.0005990777922482957
-0.46475697018297524,-0.46475697018297524,1.000465406379558,0.0006222328820860954
-0.46457977210775425,-0.46457977210775425,0.9991638793832301,0.000585329254216085
-0.46425670249395806,-0.46425670249395806,1.0007644175394919,0.0006120957546490584
-0.4639991334847764,-0.4639991334847764,0.9990250517214159,0.0007100810288555631
-0.46382963855667186,-0.46382963855667186,1.0003969923167122,0.0007054399765295429
-0.46369611825066387,-0.46369611825066387,0.9999637412179047,0.0006612767367124776
-0.4635068422563563,-0.4635068422563563,1.0000421330557665,0.0006032684510087037
-0.46333783654636135,-0.46333783654636135,0.9997466241738303,0.0005923512785550797
-0.46313559614761746,-0.46313559614761746,1.0001351251047041,0.0005935717326306831
-0.46285478733443597,-0.46285478733443597,1.0005400163356883,0.0006562215253797325
-0.46258170598373455,-0.46258170598373455,0.9999628977691607,0.0006790440469556471
-0.4623441032592382,-0.4623441032592382,0.9994322695905309,0.0007335443504111092
-0.4620725998199532,-0.4620725998199532,1.0004345279929119,0.0006246771959467088
-0.4619060667241911,-0.4619060667241911,0.9998410738573128,0.0005968217511132637
-0.461655876439545,-0.461655876439545,0.9996946405261349,0.0006827537002906848
-0.4610410585397403,-0.4610410585397403,1.0000752058378048,0.0007697953019887043
-0.46069365592586564,-0.46069365592586564,0.9993032453541559,0.0007055334669849681
-0.46044357251962537,-0.46044357251962537,1.0002922520159048,0.000658907462536815
-0.46020120668031267,-0.46020120668031267,1.00002356907664,0.0006298646925334425
-0.45995835169246674,-0.45995835169246674,0.9999583347689338,0.0006304313762558536
-0.4597435746798283,-0.4597435746798283,1.0001831329617086,0.0005962894734575525
-0.45953721173202666,-0.45953721173202666,1.0009730911537709,0.0006225349941522723
-0.45932020898026166,-0.45932020898026166,1.0007028017563468,0.0005871066287848936
-0.4590111715463081,-0.4590111715463081,1.0000355820789326,0.0007142970027266649
-0.45877466922001986,-0.45877466922001986,1.0002915912963655,0.0006609441551362523
-0.45865003887847705,-0.45865003887847705,1.0009230315659736,0.0006561139459754512
-0.45845913298498997,-0.45845913298498997,1.0004405382527843,0.0006144683922776795
-0.4582526561273653,-0.4582526561273653,1.000995406788371,0.0005931620447160456
-0.458030039477012,-0.458030039477012,1.0010140949656865,0.0005864609069354766
-0.45774246459723145,-0.45774246459723145,0.9997289715355568,0.0006456352639952525
-0.45744172835654806,-0.45744172835654806,0.9994721431573407,0.0006796078055988574
-0.4572260453014906,-0.4572260453014906,0.9988933124670419,0.0006563869076778602
-0.456951929223851,-0.456951929223851,0.9994743781500688,0.0007517368122388378
-0.45680570618117144,-0.45680570618117144,1.0001412692284013,0.0006029397904682269
-0.456591387986964,-0.456591387986964,1.000821295103933,0.0006802433215843213
-0.4560255844774474,-0.4560255844774474,1.0000872735767905,0.0007722320400093544
-0.4556206139571032,-0.4556206139571032,0.9996852220454688,0.0007161539995969213
-0.45534108871806894,-0.45534108871806894,0.9995650720034892,0.0006653739929024906
-0.45506124437920337,-0.45506124437920337,0.9993883234291058,0.0006295947997840698
-0.45481848089932553,-0.45481848089932553,1.0004685159456312,0.0006301328043041077
-0.45460361844989167,-0.45460361844989167,1.0001929980199584,0.0005965537846385059
-0.45439729506801996,-0.45439729506801996,0.9998081929077859,0.0006229035717819039
-0.45421294892450986,-0.45421294892450986,1.000100621967071,0.0005684140165581192
-0.45391912823074565,-0.45391912823074565,0.999600298047082,0.0006558174796295702
-0.45367692118775266,-0.45367692118775266,1.0003866317576642,0.0006675204550221968
-0.45353043260474807,-0.45353043260474807,0.999682183792944,0.0007071909143799386
-0.45337808442200184,-0.45337808442200184,1.0000137414158246,0.0005666357176508526
-0.45317363736257904,-0.45317363736257904,0.9997465607812792,0.0006319550559192072
-0.4529863093088807,-0.4529863093088807,1.0002555154703303,0.0006015794201255697
-0.4527385300047172,-0.4527385300047172,0.9994517371746042,0.0005715326379305373
-0.45237748529191324,-0.45237748529191324,1.0000757073489916,0.0007331130064271369
-0.4521562864890029,-0.4521562864890029,1.0005000213624362,0.0006624824700485406
-0.45186797802714407,-0.45186797802714407,1.0013281053842107,0.0006950321153488911
-0.4516796979886749,-0.4516796979886749,0.9999361296743391,0.0006650668279069378
-0.451451470571601,-0.451451470571601,1.000180845245578,0.0006798324783123194
-0.45092068254962214,-0.45092068254962214,0.9994202399640049,0.0007268998854707404
-0.4505421660201591,-0.4505421660201591,1.0058700043442905,0.000685487885215166
-0.4502565161372331,-0.4502565161372331,0.9999387422401709,0.0007412318173971081
-0.4499723202403402,-0.4499723202403402,1.0003672922737301,0.0006501153405386601
-0.4496746552084005,-0.4496746552084005,1.0005444493513633,0.0005991448534712971
-0.4494198402764596,-0.4494198402764596,1.0004966959764434,0.000621871123857305
-0.4492255172396426,-0.4492255172396426,0.9997367856227104,0.0006004806074507349
-0.4490652086726641,-0.4490652086726641,0.9998918396584839,0.0005790940493678356
-0.4488371157968231,-0.4488371157968231,1.0003795244389162,0.000611486600652395
-0.4485612124529325,-0.4485612124529325,0.99899579866384,0.000643318681935552
-0.4484099653297108,-0.4484099653297108,0.9998295147544483,0.0007050388166697251
-0.4482710271167207,-0.4482710271167207,1.0002582048189463,0.0005922424319479777
-0.44807420409601945,-0.44807420409601945,1.0003649864173743,0.000608379581062654
-0.44789346957120413,-0.44789346957120413,1.0003128338483247,0.0006026761040764476
-0.4476991431625493,-0.4476991431625493,1.0012307798859685,0.0005826706866040167
-0.4473505101327646,-0.4473505101327646,1.0003547133605037,0.0006746038810489313
-0.4471088123295203,-0.4471088123295203,0.9999594529834257,0.0006624254217673641
-0.44685177327216935,-0.44685177327216935,0.9995880143626165,0.0007349844748705227
-0.4466009232503893,-0.4466009232503893,1.000637405520328,0.0006636256280535731
-0.4464272357078244,-0.4464272357078244,0.9999232428963069,0.0006544406708507285
-0.44600573208190325,-0.44600573208190325,1.0002375012534441,0.0007578799808059942
-0.44552790637501405,-0.44552790637501405,0.9992080223808715,0.0006455233673870249
-0.4452214368541945,-0.4452214368541945,1.0067136354220265,0.0007720204160177834
-0.44495871303493006,-0.44495871303493006,0.9998511438579587,0.0006053875716555659
-0.4446783508271892,-0.4446783508271892,0.9997292193008791,0.0006678020556151545
-0.44436062446800406,-0.44436062446800406,0.99978563247752,0.0006613010724055295
-0.4441972550195487,-0.4441972550195487,0.9998099564371998,0.0006223394091386899
-0.4440201396583234,-0.4440201396583234,1.0000383634427648,0.0005854613651448695
-0.44375760066614023,-0.44375760066614023,0.9992262729074021,0.0005924071001886873
-0.44347669618903185,-0.44347669618903185,1.0000007746674595,0.0006620253642242413
-0.44328585891457806,-0.44328585891457806,0.999739259047888,0.0006972958995707657
-0.44316189599887823,-0.44316189599887823,1.000478128719243,0.0006160513119833668
-0.44297600482730104,-0.44297600482730104,0.9998417578693894,0.0005914725659325888
-0.4427950120541482,-0.4427950120541482,0.9996115797821966,0.0005971294536393321
-0.4425861508967273,-0.4425861508967273,0.998710537366087,0.0005926807888883355
-0.44226700124859236,-0.44226700124859236,1.00001555726306,0.00059082754843005
-0.4420088747311638,-0.4420088747311638,1.0000734386680334,0.000731064704801759
-0.441833853636399,-0.441833853636399,1.0000051613592211,0.0006544923684155912
-0.4415323406995412,-0.4415323406995412,0.9999205856992635,0.0007517853291331151
-0.4413704329592747,-0.4413704329592747,0.9997080525088847,0.0006088540300841048
-0.441096326025081,-0.441096326025081,1.000117656593266,0.0006834339823977899
-0.4405974928409478,-0.4405974928409478,0.9994616895228855,0.0007611409613175934
-0.4402008414624333,-0.4402008414624333,1.0071657453899725,0.000724396600831185
-0.4399497993871819,-0.4399497993871819,1.0012428562785212,0.0006597608850620202
-0.4396924170254806,-0.4396924170254806,1.0005600585506282,0.0006502639609821294
-0.4393948227927467,-0.4393948227927467,1.0011140801076455,0.0005987832729631029
-0.43913997309950903,-0.43913997309950903,0.9996592155994353,0.000621335237204588
-0.4389456451736805,-0.4389456451736805,0.9999869558155708,0.0006007350315375973
-0.43873762863652244,-0.43873762863652244,0.999669470437811,0.0005920896864117684
-0.43844862193534484,-0.43844862193534484,1.0003814134245181,0.0006389603217212303
-0.4381961955223005,-0.4381961955223005,0.9997008795739173,0.000678240995612341
-0.43809061182314507,-0.43809061182314507,1.0000124891794488,0.0006564977692013193
-0.43792236100150606,-0.43792236100150606,0.999559875189958,0.0005460151420877102
-0.43769899567544146,-0.43769899567544146,0.9990089094310118,0.0006452755308748524
