time,time,flux,flux_err
-0.4998646362995108,-0.4998646362995108,0.9999997147624522,0.00012490412548275088
-0.499712757931411,-0.499712757931411,0.9999395060789749,0.00011951041892423223
-0.49959951668206487,-0.49959951668206487,0.999999425939467,0.00011320085772795215
-0.49941349443470245,-0.49941349443470245,0.9999318274713165,0.00011185617565535899
-0.4993086682196008,-0.4993086682196008,0.9999988479719664,0.00011936918551701823
-0.49918322656521924,-0.49918322656521924,1.0000298099969807,0.00011291653938806073
-0.4990643024400924,-0.4990643024400924,0.9999501504016386,0.00011564963851251066
-0.499009280030441,-0.499009280030441,1.0001383929423269,0.00011251081154473154
-0.49889184779895,-0.49889184779895,1.0000275812444717,0.0001201405616824315
-0.49871917716009195,-0.49871917716009195,1.0000286025287504,0.000113233739293835
-0.4985888928946224,-0.4985888928946224,0.9999854752395118,0.00011860992019721728
-0.49853342113201504,-0.49853342113201504,1.0001757981067896,0.0001134611408121496
-0.4983887262904318,-0.4983887262904318,0.999954053965722,0.000113594187125281
-0.4982517159507552,-0.4982517159507552,1.0000533216017684,0.0001213629174123855
-0.49816669047868345,-0.49816669047868345,0.9999492947918955,0.00011364680855073487
-0.49792751734494234,-0.49792751734494234,1.0000640670444738,0.00011355738018873811
-0.4977852177726163,-0.4977852177726163,1.00007280294018,0.0001184779577059226
-0.4976675291487481,-0.4976675291487481,0.9998894608354488,0.00012070579967166163
-0.4975317025448021,-0.4975317025448021,0.9998967926971914,0.0001142445466348583
-0.49739791490428614,-0.49739791490428614,1.0000042011467896,0.0001187866686778583
-0.49726230365922675,-0.49726230365922675,0.999967758882202,0.0001129808090254435
-0.4971296212053858,-0.4971296212053858,1.0000818218545984,0.00011981474883004459
-0.4969490570256312,-0.4969490570256312,0.9999534179419708,0.00011293543893213246
-0.49686913192417703,-0.49686913192417703,1.0000568623084418,0.00011965983542636554
-0.4967378340646974,-0.4967378340646974,0.9999494855619318,0.00012108753914646798
-0.4966297710008803,-0.4966297710008803,1.0000525536437395,0.0001125359700479457
-0.49647167959992655,-0.49647167959992655,1.0000384082708704,0.00011416040792948903
-0.49636132333689603,-0.49636132333689603,1.0002345528813525,0.00012541913614283384
-0.496196551038156,-0.496196551038156,1.000141907799998,0.00012029311530603881
-0.49608639747966665,-0.49608639747966665,0.999895931708869,0.00011330283189272085
-0.49592369277743276,-0.49592369277743276,0.9999576971013188,0.0001268658565550464
-0.49572601861800647,-0.49572601861800647,0.9998478851800137,0.0001203758756552758
-0.49560948526486753,-0.49560948526486753,1.0000155736011318,0.0001138542745660983
-0.4955032953352202,-0.4955032953352202,0.9999940094964769,0.00012535688818417275
-0.4954016678755579,-0.4954016678755579,1.000043698901458,0.00011483965946602918
-0.4952758299536072,-0.4952758299536072,0.9999206528353574,0.00011261880525151411
-0.4951950169663178,-0.4951950169663178,1.0001033894207674,0.0001201805016127578
-0.4949866795570415,-0.4949866795570415,1.0001400924675345,0.0001265546954527934
-0.49482609420010704,-0.49482609420010704,1.000006309392845,0.000118379130948661
-0.49473832293224407,-0.49473832293224407,0.9999044115491849,0.00011498755984691147
-0.4946260128854192,-0.4946260128854192,0.9999310733046812,0.00012170544412650422
-0.49447925869535536,-0.49447925869535536,0.9999279023765751,0.0001184245265408562
-0.4943785394971201,-0.4943785394971201,1.0001043821776139,0.00012020736096336057
-0.4942667455310584,-0.4942667455310584,0.9999085892824509,0.00011463591046844158
-0.4941118680813815,-0.4941118680813815,0.9998768400195258,0.00012116025947941462
-0.49400552934530423,-0.49400552934530423,0.9999891439140182,0.00011529676695860297
-0.4939263180087437,-0.4939263180087437,1.0000678999348045,0.000125572639385395
-0.49379364842752693,-0.49379364842752693,0.9999956224655142,0.00011990014151881155
-0.49371333516028243,-0.49371333516028243,1.000098576936007,0.00012063933741179831
-0.4935939652808884,-0.4935939652808884,1.000137109041915,0.0001223238121203951
-0.4934993136448611,-0.4934993136448611,0.999917960429627,0.00011352458381408859
-0.4933816874588956,-0.4933816874588956,0.9998927518869832,0.00012052569013292597
-0.4932594704456278,-0.4932594704456278,1.00009917828288,0.00012143230262619941
-0.49318220448767536,-0.49318220448767536,1.0000484665605975,0.00011970964746303267
-0.49308683989511337,-0.49308683989511337,0.9999508960502854,0.0001146639893076534
-0.4930053066978871,-0.4930053066978871,1.0000057102569362,0.000123455994508513
-0.4929230960864516,-0.4929230960864516,0.9998681696000744,0.00011954528405331705
-0.49277409247952164,-0.49277409247952164,0.9998657953449671,0.00011387650525097569
-0.4926658304830198,-0.4926658304830198,0.9998588725428517,0.0001176229817179244
-0.4925582334231876,-0.4925582334231876,0.9999732022820422,0.00012170850463989172
-0.49243961496686095,-0.49243961496686095,0.9998473961826644,0.00011298320516954226
-0.492278149905178,-0.492278149905178,1.000101784754605,0.00012025145487879377
-0.49220212600339436,-0.49220212600339436,0.9998628023405928,0.00011506185550159875
-0.4920854622083425,-0.4920854622083425,1.0001356424658354,0.00011602204402304192
-0.491967508327798,-0.491967508327798,0.9999992073201565,0.00012099062206497325
-0.4918384652264649,-0.4918384652264649,1.0000528037239587,0.00011417784963444367
-0.4917481890464842,-0.4917481890464842,1.0000096190272436,0.00011872672283510597
-0.49155019031531993,-0.49155019031531993,0.9998991445861052,0.00012091229214928459
-0.491451747888641,-0.491451747888641,0.9999631088843719,0.00011233517192119832
-0.49135686393638023,-0.49135686393638023,0.9999656850079564,0.00011595218917006598
-0.4912234465729853,-0.4912234465729853,1.0000612957107662,0.00012047580052551316
-0.4911032683179656,-0.4911032683179656,1.0001160647916223,0.0001216511076192698
-0.4910169511087588,-0.4910169511087588,0.999855934867939,0.00011998095758928423
-0.49086363445021564,-0.49086363445021564,0.9999455699857313,0.00011350284970263925
-0.49069506687374087,-0.49069506687374087,1.0001610574036632,0.00011895651898065842
-0.4906093301520741,-0.4906093301520741,1.0000498647973726,0.00011479845428931392
-0.4905365154678293,-0.4905365154678293,1.0000990419793436,0.00011366205585747772
-0.49040596701888717,-0.49040596701888717,1.0000949997331612,0.00012017134906540676
-0.4902866265598277,-0.4902866265598277,1.0000547129730784,0.0001220547101797922
-0.49007252521405464,-0.49007252521405464,1.0000955479636393,0.0001192887220676248
-0.48989175583046746,-0.48989175583046746,0.9998082654054228,0.00011670110632870377
-0.4898157461284427,-0.4898157461284427,0.9998419201364086,0.00011406381823412021
-0.4897106562078989,-0.4897106562078989,0.9999622366520018,0.00011902467212323495
-0.48967082852177557,-0.48967082852177557,1.0000640398327605,0.00011410768499482357
-0.4895037573318405,-0.4895037573318405,0.999965666356306,0.00012085928593218241
-0.48934790037747006,-0.48934790037747006,1.000038120480609,0.00011270033422480978
-0.48922314256051325,-0.48922314256051325,0.9999148754204304,0.00011297297711289418
-0.4890922051185044,-0.4890922051185044,0.9999283117970794,0.00011594624068171928
-0.48898704399107373,-0.48898704399107373,0.9999120408156008,0.00012047821903588322
-0.48892227889882633,-0.48892227889882633,0.9998840828794515,0.00011377072684948355
-0.4888608779852802,-0.4888608779852802,0.999969901097818,0.00011112892041056396
-0.48877625220411575,-0.48877625220411575,1.0001366320231544,0.00012071381124758598
-0.4885784959820739,-0.4885784959820739,0.9999340666094463,0.00011481418112169485
-0.4884699375113996,-0.4884699375113996,1.0000824281444367,0.00011947252209108931
-0.48838817928844946,-0.48838817928844946,0.9999607917753526,0.00011542935927118635
-0.4882470483593352,-0.4882470483593352,0.9999540537998209,0.00012092506814842288
-0.48819905866403135,-0.48819905866403135,1.0000605723650735,0.00011545799435798276
-0.488067804374441,-0.488067804374441,0.9997382064511886,0.0001141655176794331
-0.4878831359128526,-0.4878831359128526,0.999967234359562,0.00011548602293057415
-0.4877346173801925,-0.4877346173801925,0.9999530789264626,0.00011957741105218138
-0.48767927556982615,-0.48767927556982615,1.0001132372320911,0.0001131151105223006
-0.487566920282552,-0.487566920282552,1.00003383132116,0.00011448216080132037
-0.4874632511389791,-0.4874632511389791,0.999938026057527,0.00011548617237566454
-0.48736568595122665,-0.48736568595122665,1.0000533594987924,0.0001232186728193588
-0.4872167887653632,-0.4872167887653632,1.000009968705857,0.00011145385060864588
-0.48702497602498623,-0.48702497602498623,1.0001549735426278,0.00012237520817073223
-0.4869389540093835,-0.4869389540093835,0.9999636013069537,0.00011932190988977825
-0.4868247710284777,-0.4868247710284777,1.0002191915207068,0.00011317481444731947
-0.4867583287064917,-0.4867583287064917,0.9998291120266682,0.00011323271376779827
-0.48666671757018776,-0.48666671757018776,1.0004118608300931,0.00011537940266518473
-0.48647585712533326,-0.48647585712533326,0.9999939014267545,0.00011466989891517303
-0.486288294581027,-0.486288294581027,1.0002146248420214,0.00012111054120973557
-0.48618240690557285,-0.48618240690557285,0.9998904745935302,0.00012001937859393609
-0.48605159811268095,-0.48605159811268095,1.0001186276521223,0.00011401119486642373
-0.4859727654067683,-0.4859727654067683,0.999923979097461,0.00011310015809356054
-0.48587555357589735,-0.48587555357589735,1.0000534979589326,0.00011430631987565106
-0.48565095196754554,-0.48565095196754554,1.0000322384327396,0.0001207607803428752
-0.48545015870186037,-0.48545015870186037,1.0000140865368423,0.00011419174050810986
-0.4853048472221417,-0.4853048472221417,1.000093040985749,0.00011585416168582143
-0.48513249240349976,-0.48513249240349976,1.0000642278411,0.00011353501665355744
-0.4850492195575498,-0.4850492195575498,1.0000178264454282,0.00011281228454938826
-0.48483021851134256,-0.48483021851134256,1.0001111371620468,0.0001217623449414076
-0.4846432187310711,-0.4846432187310711,0.9999501050105879,0.00011470287826695954
-0.48444217377473253,-0.48444217377473253,0.9999970432425698,0.00011546032000632573
-0.48430517136584966,-0.48430517136584966,1.000060487614896,0.00011358876727177357
-0.4841920763697999,-0.4841920763697999,0.9998873717307362,0.00011483404345352305
-0.4840194221127604,-0.4840194221127604,1.000188529583499,0.00012110250478303181
-0.4837916901946301,-0.4837916901946301,1.000108750781632,0.00011663262110672206
-0.483503975973872,-0.483503975973872,1.000017256912958,0.00011588593448669123
-0.4833540635278041,-0.4833540635278041,1.000073773603024,0.00012138921749339904
-0.48317886139047916,-0.48317886139047916,0.9998965243697713,0.00011586670739852737
-0.48290261846850624,-0.48290261846850624,1.0000933285263158,0.00011282038560254235
-0.4826911306023248,-0.4826911306023248,1.0000338740600767,0.00011630338634357619
-0.48259098233829717,-0.48259098233829717,0.9997997719261349,0.00012140527160331043
-0.48246915202616947,-0.48246915202616947,1.0002239831953572,0.00011610451259319948
-0.48237329379917354,-0.48237329379917354,0.9999279886331884,0.00011230105108208979
-0.482006150840607,-0.482006150840607,0.9999156411175022,0.00011431852577498754
-0.48188699982129035,-0.48188699982129035,0.9998428835682069,0.00011500667237024958
-0.48184669152615245,-0.48184669152615245,1.0003351926787303,0.00011324198998535595
-0.4817164516505727,-0.4817164516505727,1.0000374560530259,0.00011621557296519231
-0.481597164109553,-0.481597164109553,1.0001885158113089,0.0001126830959212033
-0.4814466856652871,-0.4814466856652871,1.0000869113228346,0.00011222969471195649
-0.48125005468900783,-0.48125005468900783,1.0000060271389033,0.0001126580161091058
-0.48109864589132484,-0.48109864589132484,1.0001335548671269,0.00011498548149276681
-0.4810095687804278,-0.4810095687804278,0.9999128855505541,0.00011497349327482638
-0.4809570823526883,-0.4809570823526883,0.9998106279710391,0.00011516197101057192
-0.48078332930381296,-0.48078332930381296,1.0000516769252765,0.00011330602561315324
-0.48056609590203153,-0.48056609590203153,0.9999851409587006,0.00011151478225955172
-0.48043419298846857,-0.48043419298846857,0.9999246375911361,0.00011133212168506381
-0.4803077051539731,-0.4803077051539731,0.9999294011382288,0.0001159634271602909
-0.48022730532538843,-0.48022730532538843,0.9999171739538479,0.00011293107884651308
-0.48007530334507464,-0.48007530334507464,0.9999566354426281,0.00011337070717324225
-0.4797551140894939,-0.4797551140894939,0.9999507414471076,0.00011260573808442832
-0.47953851432175726,-0.47953851432175726,1.0001132881040107,0.00011465099555517028
-0.47943215534323824,-0.47943215534323824,1.0000279606244085,0.00011937771244095799
-0.4792933508695569,-0.4792933508695569,0.9999191304371321,0.00011861747562707948
-0.4791087301346124,-0.4791087301346124,1.0001172296872032,0.00011334054724208423
-0.4788385977881262,-0.4788385977881262,1.0000402486762694,0.00012058544593843506
-0.47870591027094633,-0.47870591027094633,1.0001496906223302,0.00012693014506214847
-0.4785400347420364,-0.4785400347420364,1.000116252120403,0.00011219332855404442
-0.4782895311320317,-0.4782895311320317,1.0000866716322274,0.00011353259186555626
-0.4780749403536902,-0.4780749403536902,0.9999745649942555,0.0001263634150874257
-0.47790248637320476,-0.47790248637320476,1.0000721808575754,0.0001141064605531637
-0.4777277856373985,-0.4777277856373985,0.9998769375579439,0.00011217331561590602
-0.4774758330648183,-0.4774758330648183,0.9998200261139394,0.00011241943537975134
-0.47728619079862256,-0.47728619079862256,0.9999508532640002,0.00012590372437257512
-0.4770791225113499,-0.4770791225113499,0.9999934179119874,0.00011273711413599074
-0.4770093711144,-0.4770093711144,1.000109542937913,0.00011314139596837311
-0.476848731739301,-0.476848731739301,1.000005955911916,0.00011228127760910804
-0.47666554510506104,-0.47666554510506104,1.000053519888597,0.0001195254308163191
-0.4763876151839213,-0.4763876151839213,1.0001420949581659,0.0001186612303341018
-0.47620911096673807,-0.47620911096673807,1.000073964596334,0.00011519977347717301
-0.4760586330819933,-0.4760586330819933,1.0000169673152666,0.00011889817737924413
-0.4758458794603939,-0.4758458794603939,1.000117603922882,0.00012533787883316195
-0.4756071197421988,-0.4756071197421988,1.0001137483233755,0.00011473604489610836
-0.47540277295993294,-0.47540277295993294,0.9999669989829559,0.0001149947884914685
-0.47529508653606173,-0.47529508653606173,0.9999245045455233,0.00011887294399573702
-0.4750689095497364,-0.4750689095497364,0.9999650734882864,0.00011866128744073648
-0.4747236554227129,-0.4747236554227129,0.9999670738245676,0.00012193854002063651
-0.47445995228044924,-0.47445995228044924,0.9999528995874716,0.0001241662662220235
-0.4742114605003735,-0.4742114605003735,1.0001220214943305,0.00011695436249224513
-0.4739694707132003,-0.4739694707132003,1.0000906845053898,0.00012503594793315413
-0.4737784345721593,-0.4737784345721593,0.9998842063322073,0.00011961997782125098
-0.47358941605561994,-0.47358941605561994,0.9998584428994339,0.00011817494161151304
-0.4732895744535199,-0.4732895744535199,0.9999247910532058,0.00011529534123414417
-0.4730486695509171,-0.4730486695509171,0.9999807914968523,0.00013162288974056792
-0.47289219037702424,-0.47289219037702424,0.9998522146149857,0.00011963298952110768
-0.4727857916041103,-0.4727857916041103,1.000011230299219,0.00011131786386060752
-0.47258158300901415,-0.47258158300901415,0.9999927807157011,0.00011451516086067326
-0.4722989013942424,-0.4722989013942424,0.999958855275494,0.00012063688397744925
-0.4721422643997357,-0.4721422643997357,1.0000145971951893,0.000118131772083922
-0.47192832032960724,-0.47192832032960724,1.0000221106057148,0.000113198892145541
-0.4716115113900742,-0.4716115113900742,0.9998530901662122,0.00011482103078103186
-0.47148140185454396,-0.47148140185454396,0.9999784565916416,0.00011921491029799679
-0.47124616291184795,-0.47124616291184795,0.9999189437100933,0.00011950988909545418
-0.4711486175940081,-0.4711486175940081,0.9999325672927177,0.0001182232701083097
-0.4708931757850223,-0.4708931757850223,0.9999911676238107,0.00011441055701692692
-0.4707755955729226,-0.4707755955729226,1.0003276922978723,0.00012673951684953936
-0.4705893611011561,-0.4705893611011561,1.000016720003051,0.00011876863785276143
-0.47041001814068295,-0.47041001814068295,1.0002042337882844,0.00011977909213249226
-0.4702776794991223,-0.4702776794991223,0.9998529805726506,0.00011323545733554713
-0.47008528866717825,-0.47008528866717825,1.0000030834304217,0.00012022424972169079
-0.46995664602436593,-0.46995664602436593,0.9999561927047631,0.00011405808017836533
-0.4697690769069595,-0.4697690769069595,0.9999065213117408,0.00011545427593620554
-0.46954669635015306,-0.46954669635015306,0.9999792640002709,0.00011960107151417817
-0.4694305314515077,-0.4694305314515077,0.9999985302118144,0.00011223351262041287
-0.4692943204223411,-0.4692943204223411,0.9999895473119238,0.000119338153073433
-0.4691163933064672,-0.4691163933064672,1.0001204100958874,0.0001130640931093883
-0.46891532659647056,-0.46891532659647056,1.0000897809435096,0.0001199893663784676
-0.46868285560703954,-0.46868285560703954,0.9999270917199448,0.00011291757693456016
-0.4685614166293817,-0.4685614166293817,0.9998816530313974,0.00012107785402762036
-0.4683826001630223,-0.4683826001630223,1.0000289403224591,0.00011334417878921567
-0.46823260133242,-0.46823260133242,1.0000389781240149,0.00011590434788133894
-0.4679501306411112,-0.4679501306411112,0.9999228701451939,0.00011742961123009763
-0.4678125867518247,-0.4678125867518247,1.0000288845008862,0.00011976326141924468
-0.46756323084846374,-0.46756323084846374,1.0000290559148255,0.00011316164326828348
-0.4674130906438222,-0.4674130906438222,1.0000063743823557,0.00011962957025280426
-0.46717395444284193,-0.46717395444284193,1.000053619067773,0.00011868629372587664
-0.4669309720273304,-0.4669309720273304,1.0001522876157,0.0001141155479357262
-0.46675298295376705,-0.46675298295376705,1.0002211627880795,0.00011490646034400525
-0.46663797061264634,-0.46663797061264634,1.0000452048108017,0.00012069936086691018
-0.46640967603598255,-0.46640967603598255,0.999989754622091,0.00011925573694947767
-0.46626558649004435,-0.46626558649004435,1.0001513936784479,0.00012090630026972881
-0.46608051944131146,-0.46608051944131146,0.9998548302870566,0.00011238570128657153
-0.4659302280917473,-0.4659302280917473,0.999928718188209,0.0001201400007625694
-0.4657087375817355,-0.4657087375817355,0.999935881841353,0.00011430659021287074
-0.46549362131845556,-0.46549362131845556,0.9999736603633653,0.00011875433237315663
-0.46529996510653293,-0.46529996510653293,1.0001488879551583,0.0001122090296062357
-0.4651645707570424,-0.4651645707570424,0.9999335359964766,0.00011392086167364118
-0.46500966289895584,-0.46500966289895584,1.000095107936676,0.00011944045510381318
-0.46486019019939706,-0.46486019019939706,1.000054637128138,0.00011347203175989663
-0.4647832161397673,-0.4647832161397673,1.0002627147365852,0.00011956327555931909
-0.4646494658467418,-0.4646494658467418,0.9999376242529877,0.00011412217218949015
-0.4644633054602309,-0.4644633054602309,1.0001310595827426,0.00011275960088922538
-0.4643344009578868,-0.4643344009578868,1.0000549133005472,0.00011895848749800337
-0.46421326216732267,-0.46421326216732267,1.000022617345754,0.0001122073749122124
-0.4641035996763094,-0.4641035996763094,0.9998358585136883,0.00011533141728706249
-0.46399635482157464,-0.46399635482157464,0.9999471601216132,0.00012024163053785228
-0.4639269552477344,-0.4639269552477344,1.0000280230548502,0.00011275893752476329
-0.4637190826724691,-0.4637190826724691,0.9998863711552646,0.00011337666987297689
-0.46358134475522095,-0.46358134475522095,1.000108109311697,0.00011846714580953783
-0.4634638795818319,-0.4634638795818319,1.0002339715566737,0.00011350802233390412
