time,time,flux,flux_err
-0.4996427942511218,-0.4996427942511218,1.0004732461147097,0.00024285745530218416
-0.4986935273875133,-0.4986935273875133,1.0001939929935928,0.00024429169685005774
-0.4973710596859746,-0.4973710596859746,0.9998260294953137,0.0002424194956861643
-0.49544575777908906,-0.49544575777908906,1.0002156368847612,0.0002443302354814008
-0.4938194722351909,-0.4938194722351909,1.0002028453029623,0.0002434408482348716
-0.49264952872035794,-0.49264952872035794,1.0004210800589017,0.00024237352320869086
-0.49142746713987434,-0.49142746713987434,0.9999492269018401,0.00024401045400538989
-0.4900661384031991,-0.4900661384031991,1.0001249030430648,0.00024510147234160524
-0.48822748261736704,-0.48822748261736704,1.000285875822808,0.0002434422749810655
-0.48718320804764514,-0.48718320804764514,1.0004284648142288,0.00024443279703758854
-0.48666517510573615,-0.48666517510573615,0.9998473204806231,0.00024356665228088883
-0.48572088958026144,-0.48572088958026144,1.0002571361650177,0.00024253264644131064
-0.48414769179944417,-0.48414769179944417,1.0002823716752967,0.00024450260334384663
-0.48316944514226634,-0.48316944514226634,1.0002653171865754,0.0002415362710558156
-0.4818737299858185,-0.4818737299858185,1.0000729665240236,0.00024331140394908492
-0.48078332098666576,-0.48078332098666576,1.0002756329726545,0.00024148185441588295
-0.47910173552663765,-0.47910173552663765,1.0001722648364366,0.00024483229790050727
-0.4781019926325826,-0.4781019926325826,0.9996776524653415,0.00024388231904411595
-0.47667449937580386,-0.47667449937580386,0.9998339839005205,0.00024280734409946663
-0.4754448590836546,-0.4754448590836546,1.0001447637817569,0.00024363781909660592
-0.47413526959353475,-0.47413526959353475,0.99972658198455,0.00024260109817845167
-0.4724919563741423,-0.4724919563741423,1.0001837415001442,0.00024580791098988174
-0.4701277153159026,-0.4701277153159026,1.0002087509816526,0.000244387288885023
-0.4691592056726222,-0.4691592056726222,0.9998656526064771,0.00024323975914662438
-0.46812115899010676,-0.46812115899010676,1.0001725481694679,0.00024153267720469635
-0.4665796179782774,-0.4665796179782774,1.0002807083574357,0.00024331913500888163
-0.4647211637093278,-0.4647211637093278,1.000491833096055,0.00024177392861683987
-0.4627476980902429,-0.4627476980902429,0.9996868220965682,0.00024360483194858776
-0.4616034639642749,-0.4616034639642749,1.0001258953421828,0.0002440057773481509
-0.46064301290680304,-0.46064301290680304,0.9997970198720261,0.0002441689498834089
-0.4588304717406572,-0.4588304717406572,0.9998450374566742,0.00024318887977533947
-0.4573746487949393,-0.4573746487949393,1.0000859432267015,0.00024307314932722242
-0.4560497250873595,-0.4560497250873595,1.0000148668665685,0.00024554098045805864
-0.45461484005645614,-0.45461484005645614,1.0000503595213464,0.0002440764747067328
-0.45301035718002824,-0.45301035718002824,1.000145665703161,0.0002444208794341707
-0.45221884344136926,-0.45221884344136926,0.9999737892022026,0.00024405850519538088
-0.45137534900859466,-0.45137534900859466,1.000063295241843,0.000243504091299737
-0.4503921553005057,-0.4503921553005057,1.0003734491709306,0.00024387149248635893
-0.44893402551679173,-0.44893402551679173,0.9999827305002229,0.00024438058746094587
-0.4474026967676764,-0.4474026967676764,1.0001597646843896,0.00024283124206119188
-0.445571926307457,-0.445571926307457,0.9998064382834801,0.0002423146080128671
-0.444038324207213,-0.444038324207213,0.9999665310517785,0.00024583250521210997
-0.44290712564325074,-0.44290712564325074,1.0003382290322627,0.00024288660305904472
-0.44105836399976395,-0.44105836399976395,1.0000472186441496,0.0002441783266808691
-0.44011849921225804,-0.44011849921225804,1.0002063579582894,0.0002447624135801768
-0.4392397295196133,-0.4392397295196133,1.0000864525397142,0.00024390059885437502
-0.4373183229516144,-0.4373183229516144,0.9999353906883771,0.00024517571382690485
-0.43537448958522873,-0.43537448958522873,0.9997850908599905,0.0002462640285210539
-0.4345936744401115,-0.4345936744401115,0.9998844917135947,0.00024245104518264452
-0.43364784360237535,-0.43364784360237535,1.0000477377567702,0.0002447435617911828
-0.43190333801467207,-0.43190333801467207,1.0002458417357807,0.0002415612739083424
-0.43033700588566715,-0.43033700588566715,1.0000298847439977,0.00024100604989755626
-0.42865191468517877,-0.42865191468517877,1.000206090645861,0.00024323768131434475
-0.42716237072017976,-0.42716237072017976,1.0001201421065427,0.00024466426544210234
-0.4261053371701564,-0.4261053371701564,1.0000975432435317,0.0002448021438155241
-0.4242302660044516,-0.4242302660044516,1.000347740960151,0.0002434908343941684
-0.42304026490746766,-0.42304026490746766,0.9997919322909233,0.00024388908498648756
-0.4215581445816497,-0.4215581445816497,0.9999831258318054,0.00024340256962776148
-0.4190654666723276,-0.4190654666723276,1.0003226375196428,0.00024307337505786178
-0.41811890887620395,-0.41811890887620395,0.9996442054163147,0.0002442916017168605
-0.41726448251574766,-0.41726448251574766,1.00000968431443,0.0002431519375425335
-0.41603559645882343,-0.41603559645882343,1.0005105849588394,0.00024086714232013948
-0.41414413584789145,-0.41414413584789145,1.0001163548005123,0.0002427847008501873
-0.4127594895515358,-0.4127594895515358,1.0004180565910166,0.00024373419757123819
-0.4111109835546813,-0.4111109835546813,0.9999704216258808,0.0002427570650454153
-0.4098222339664062,-0.4098222339664062,0.9998437290738499,0.00024492030945521203
-0.4082802406985138,-0.4082802406985138,1.0001949939384391,0.00024496089962665254
-0.40666920052608474,-0.40666920052608474,0.9999908469865542,0.00024367756760300743
-0.40551526055060094,-0.40551526055060094,0.9996049881719673,0.00024316094956367828
-0.40370645215007245,-0.40370645215007245,0.9999347024151624,0.0002450530036998042
-0.40178609183712977,-0.40178609183712977,1.0000214637466391,0.00024233662588055632
-0.4008142459453666,-0.4008142459453666,0.999896666269588,0.0002446614317114685
-0.3998480131689576,-0.3998480131689576,1.0002510037121184,0.00024178004204920082
-0.39761831147188786,-0.39761831147188786,1.0000495994338467,0.00024384691495581856
-0.39630424629431216,-0.39630424629431216,1.0003937616883973,0.00024342130037926127
-0.39443929275294065,-0.39443929275294065,0.9998373892209331,0.000242281403184757
-0.3928774726831762,-0.3928774726831762,1.0002358971849297,0.0002435624331532862
-0.39181457353624866,-0.39181457353624866,0.9995516365157295,0.0002452730387722512
-0.3903613535927434,-0.3903613535927434,1.0002361908591193,0.000244146230820052
-0.3890233016049024,-0.3890233016049024,0.9997372396278739,0.0002435472488455311
-0.38818103507801427,-0.38818103507801427,0.9998052112171483,0.00024350892155058758
-0.3868868072655459,-0.3868868072655459,0.9995351992502217,0.0002443282986124015
-0.38578962242172565,-0.38578962242172565,1.0004085797521731,0.00024371825315913789
-0.38512473073060394,-0.38512473073060394,1.000504821078501,0.00024198505530873845
-0.383819085147843,-0.383819085147843,1.0001394978282274,0.00024253524505519767
-0.38246739146343317,-0.38246739146343317,0.999757298942811,0.00024111422820615667
-0.3810860999888973,-0.3810860999888973,1.000173749159118,0.0002438007425330882
-0.37971326541446615,-0.37971326541446615,0.9998313248352135,0.00024390594638411204
-0.3786165820951283,-0.3786165820951283,0.9999612776268553,0.00024305934604953333
-0.37739724590792323,-0.37739724590792323,0.9998828955012196,0.00024278574698001623
-0.376146812652587,-0.376146812652587,0.9997318470926769,0.00024302316462400478
-0.3746678940107813,-0.3746678940107813,0.9999514428964658,0.00024439982267354025
-0.37303277844621335,-0.37303277844621335,0.9999213331242303,0.00024407722535699905
-0.3715596350215492,-0.3715596350215492,0.9997535703379473,0.00024371429076683248
-0.3708749466422887,-0.3708749466422887,1.0001794368885748,0.0002432757576619694
-0.3694790207846381,-0.3694790207846381,0.9997815727121381,0.0002429016829595541
-0.3680622832922381,-0.3680622832922381,0.9996862455702908,0.00024351720642042332
-0.3664381737362419,-0.3664381737362419,1.000109318877581,0.000241743392985945
-0.3640735308530566,-0.3640735308530566,0.9997283046128727,0.00024406467369925749
-0.36278110212952014,-0.36278110212952014,0.9999281901839228,0.000245549031365728
-0.3613710511410318,-0.3613710511410318,1.0003328379672074,0.00024291732961876058
-0.3596223384141922,-0.3596223384141922,1.0002751228860627,0.00024330265110483534
-0.3580777945193404,-0.3580777945193404,1.0000897821661447,0.00024482064855816115
-0.35685052550034013,-0.35685052550034013,1.0000557977118931,0.000245495669998887
-0.3555976094212383,-0.3555976094212383,1.000308603101924,0.00024273296486361967
-0.3543188619041757,-0.3543188619041757,0.9999718337884614,0.00024509274671787983
-0.353772377086716,-0.353772377086716,1.0001239205781403,0.00024259753283810436
-0.35300146467852755,-0.35300146467852755,1.0003292460872086,0.0002423770872334393
-0.35213114377038435,-0.35213114377038435,0.9999323165782744,0.00024469151354493965
-0.3513258001723443,-0.3513258001723443,0.9998816366444239,0.0002426343842537183
-0.35020146578390265,-0.35020146578390265,1.0000895815178885,0.0002435972360521503
-0.3482668444805313,-0.3482668444805313,1.000174920953447,0.00024178660899300668
-0.34685528883710504,-0.34685528883710504,0.9999826806098294,0.0002440823166103027
-0.3456180582579691,-0.3456180582579691,0.9999767903595131,0.00024564312012505436
-0.34423564668395557,-0.34423564668395557,1.0001446819436968,0.00024273153203018487
-0.3423073805315653,-0.3423073805315653,0.9997703624315186,0.0002451739127415804
-0.34158749532580257,-0.34158749532580257,1.0001067854868322,0.0002442803700155426
-0.3400301683097496,-0.3400301683097496,0.9999029600139163,0.0002461597428414072
-0.3376403471600497,-0.3376403471600497,1.000127401147979,0.0002444057744528864
-0.3368364699032099,-0.3368364699032099,0.9997555631370073,0.00024420569921436983
-0.33599514792003904,-0.33599514792003904,1.0002316655332528,0.00024305540383278795
-0.3340315319655929,-0.3340315319655929,1.0000733619229234,0.00024267705557224104
-0.3320945176659734,-0.3320945176659734,1.0002251941043523,0.00024119195162613632
-0.33058549547204163,-0.33058549547204163,0.9999553690605344,0.00024373593010651277
-0.3291213374759536,-0.3291213374759536,0.9999666245145431,0.0002432321907334885
-0.3282181429909542,-0.3282181429909542,1.0000865653672426,0.00024521410506781534
-0.32618663596513214,-0.32618663596513214,0.999655382998581,0.00024382376469344564
-0.32511779563501475,-0.32511779563501475,0.9999456753183982,0.0002453644520622863
-0.32406592841362,-0.32406592841362,0.999860308129638,0.0002434045839769785
-0.32198093747210804,-0.32198093747210804,1.0002441352169908,0.00024329912642808926
-0.32008237694972197,-0.32008237694972197,0.999898793557974,0.00024474859848829753
-0.3193409454805078,-0.3193409454805078,1.0000363873489602,0.0002430426170778297
-0.3184825756921782,-0.3184825756921782,1.0001547033415892,0.00024129285989567744
-0.31637637458261453,-0.31637637458261453,1.0000373837324863,0.00024257327232263736
-0.31519524896721124,-0.31519524896721124,1.0001218324434675,0.00024211261487238858
-0.3137384175526677,-0.3137384175526677,1.0003583275050354,0.00024384768491495616
-0.31251322488533334,-0.31251322488533334,1.000288268336729,0.00024286566653636054
-0.3111676623309904,-0.3111676623309904,1.00005117506759,0.00024470894198192194
-0.3095971547147201,-0.3095971547147201,1.0001787043319725,0.00024490029369230587
-0.30796770346569247,-0.30796770346569247,1.000110132884327,0.00024422086337803076
-0.3059890830947552,-0.3059890830947552,1.000002560264938,0.00024305670482995282
-0.30387585300559294,-0.30387585300559294,0.9999399533639053,0.00024261075733108414
-0.3028314595692791,-0.3028314595692791,1.0000216731276863,0.0002437334082839213
-0.3017099521952332,-0.3017099521952332,1.000039634163515,0.0002430111352753199
-0.29983967915468385,-0.29983967915468385,0.9997577905509344,0.00024282305859746217
-0.297920635304763,-0.297920635304763,1.0002934561347232,0.00024323836932513645
-0.2961431651194289,-0.2961431651194289,0.9994299153308317,0.00024358795033617526
-0.2946556613067514,-0.2946556613067514,1.0003009205460263,0.00024420936157514423
-0.29349886875061204,-0.29349886875061204,1.000575410099982,0.00024511220729151806
-0.2920245531022374,-0.2920245531022374,1.0000537924068547,0.00024380002322540255
-0.29075017006034615,-0.29075017006034615,0.9996582015601991,0.00024352907563747334
-0.290090779010643,-0.290090779010643,1.0000344098922167,0.00024334427551003343
-0.288551196573826,-0.288551196573826,0.9998838501434177,0.0002433365294072396
-0.2874787131462654,-0.2874787131462654,0.9999055570240115,0.00024419179433152703
-0.2866950469695439,-0.2866950469695439,0.9996944697994863,0.00024144701168456892
-0.28561958623686223,-0.28561958623686223,0.9997097452449802,0.00024314617359488515
-0.28438079453480897,-0.28438079453480897,1.0000393737029616,0.00024139083151571988
-0.28252533924605816,-0.28252533924605816,0.9997237334498988,0.00024371321126341012
-0.28126316026537096,-0.28126316026537096,1.000029749228768,0.00024305033576396546
-0.2796847881509166,-0.2796847881509166,1.000084097191663,0.00024452953104835926
-0.27863380122871606,-0.27863380122871606,1.000177190825493,0.00024274142949861683
-0.2770307074097218,-0.2770307074097218,1.0001145087538765,0.0002433940717295921
-0.27592433283934953,-0.27592433283934953,1.0000257202920737,0.0002457676714741424
-0.27356077230142545,-0.27356077230142545,1.0001366886542278,0.00024441985349627995
-0.27251979914435653,-0.27251979914435653,1.0000714161170905,0.00024280404317939057
-0.2708601656377141,-0.2708601656377141,1.0000546239291164,0.00024327360820807588
-0.26935670130769723,-0.26935670130769723,1.000352243726923,0.00024435219778637856
-0.2682061751103902,-0.2682061751103902,1.0001997483375504,0.0002426624050144831
-0.26623443801800023,-0.26623443801800023,0.9998223252349971,0.00024332402469429468
-0.26477452012040886,-0.26477452012040886,0.9997448839655828,0.00024341313379357387
-0.26344629953964616,-0.26344629953964616,1.000782870236268,0.00024296696822883086
-0.26170384197030216,-0.26170384197030216,0.9999168536782195,0.00024202468111189025
-0.2600731573496887,-0.2600731573496887,0.9995829781479552,0.00024380097441829021
-0.258802710242162,-0.258802710242162,1.0001753913725424,0.00024624420370172076
-0.2571999997504463,-0.2571999997504463,0.9998654293760921,0.00024282196108602275
-0.25580861371490754,-0.25580861371490754,1.000485478252275,0.00024514320983028565
-0.2550281968455238,-0.2550281968455238,0.9996579547427803,0.00024200458652152935
-0.25404887665863496,-0.25404887665863496,0.999938422362139,0.0002447966423131346
-0.25258265218217274,-0.25258265218217274,1.0001893197596743,0.00024205488639707936
-0.25169869168894365,-0.25169869168894365,0.9999616505877084,0.00024382010667517518
-0.2501046154902724,-0.2501046154902724,1.0000176270273584,0.0002412436145302846
-0.24907412789252703,-0.24907412789252703,0.9998941897784646,0.00024332200628214613
-0.24802056239786907,-0.24802056239786907,0.9998838233162857,0.0002459936389381641
-0.24691947535902728,-0.24691947535902728,1.000125957451715,0.0002445736797160649
-0.2458256754784088,-0.2458256754784088,1.0001517835430613,0.0002434444435113723
-0.24426928083921667,-0.24426928083921667,0.999745932409058,0.00024387240512774907
-0.24341713500834886,-0.24341713500834886,0.9999196951637825,0.00024407264558834723
-0.2420080497104209,-0.2420080497104209,1.0001994688200977,0.0002455777127880984
-0.2400771512395295,-0.2400771512395295,1.0001568553380398,0.0002436364006618657
-0.2387173344337498,-0.2387173344337498,1.0005549947027372,0.0002460634034504199
-0.2379693325878179,-0.2379693325878179,1.0003061559583453,0.00024217874502011693
-0.23625917751705855,-0.23625917751705855,1.0003810428226694,0.00024442019174629557
-0.23423552338790615,-0.23423552338790615,0.9999726707595873,0.00024116768177927464
-0.23222408792353236,-0.23222408792353236,0.9999734915340225,0.00024303033366551027
-0.2307146440303768,-0.2307146440303768,1.0001169403464698,0.00024456733064737835
-0.22991857378801797,-0.22991857378801797,1.0000428198280782,0.0002449356809852833
-0.22797713468389702,-0.22797713468389702,1.000026337195329,0.00024479921236735826
-0.2270368121971842,-0.2270368121971842,1.0002480628764356,0.00024423435716599575
-0.2260328282158298,-0.2260328282158298,1.000172004456535,0.00024382213056291035
-0.22493273604195566,-0.22493273604195566,1.0002606042547062,0.0002433920074257372
-0.22243100990017411,-0.22243100990017411,0.9997958070353388,0.00024290802878472093
-0.22155144954376738,-0.22155144954376738,0.999813830848671,0.0002442097062719834
-0.22069716523692479,-0.22069716523692479,0.9998023562786187,0.0002431105129914261
-0.21975996781911816,-0.21975996781911816,1.0000643014293327,0.00024073847634704725
-0.21790605596543172,-0.21790605596543172,1.0002434649679643,0.0002441776103614247
-0.21691229508069226,-0.21691229508069226,1.0002959190773857,0.0002421221249007645
-0.21548895963351242,-0.21548895963351242,1.000023029998746,0.0002434295908437191
-0.2142306506546447,-0.2142306506546447,1.0000806442521148,0.00024316036302585582
-0.21290794852538966,-0.21290794852538966,1.000128312784654,0.0002441938133195484
-0.21171199167583837,-0.21171199167583837,0.9997943968757455,0.0002450238309065824
-0.21021469358020112,-0.21021469358020112,1.0001955880354345,0.0002425438114401254
-0.20885997585137375,-0.20885997585137375,0.9994436270424112,0.00024357945186962612
-0.20592034009459895,-0.20592034009459895,1.0001057359324244,0.00024311024988295867
-0.20454789817376878,-0.20454789817376878,0.9999405156073415,0.0002437295453759461
-0.20342630134909995,-0.20342630134909995,1.0000594499835704,0.00024300862461012882
-0.2017424305748136,-0.2017424305748136,0.9999834098694256,0.00024277754435782331
-0.20018206586391898,-0.20018206586391898,0.9999182859312802,0.00024434835573408615
-0.19801525031653,-0.19801525031653,1.0002628073028774,0.00024296554526990577
-0.1962117858696729,-0.1962117858696729,1.0000230349237067,0.00024426548013443576
-0.19499234822651487,-0.19499234822651487,0.9998954778441542,0.0002451434289757256
-0.19337843242683447,-0.19337843242683447,0.9997677021985462,0.0002435851446965954
-0.19221744187379955,-0.19221744187379955,1.0002036234992246,0.0002446691046121659
-0.1910680348497408,-0.1910680348497408,1.000047118801842,0.00024187643474603342
-0.18949892691380227,-0.18949892691380227,0.9998771212031825,0.0002446071419337203
-0.18879982612343155,-0.18879982612343155,0.9999160293955907,0.00024212438560592387
-0.18798045748771983,-0.18798045748771983,1.0000418086827847,0.00024182753191855314
-0.1869970092258882,-0.1869970092258882,1.000214836562817,0.00024330475488540921
-0.18584503654928994,-0.18584503654928994,0.999784550233595,0.00024127147001104515
-0.18424168344863573,-0.18424168344863573,0.9998059704009895,0.00024370893683404077
-0.18297977023830753,-0.18297977023830753,0.9998515604155725,0.0002430382677366531
-0.18108275569757099,-0.18108275569757099,0.9998312934407663,0.00024306715499197528
-0.18004748329694847,-0.18004748329694847,1.0001502472687163,0.00024339402852943787
-0.17855364526985795,-0.17855364526985795,0.9999663245227115,0.00024467894786878565
-0.17731918026838683,-0.17731918026838683,1.000139858644577,0.0002447921107484576
-0.17527730211513698,-0.17527730211513698,1.000381018624648,0.00024445982892265256
-0.17423570130195004,-0.17423570130195004,1.000011683440745,0.00024278279960148686
-0.17257683323114179,-0.17257683323114179,0.9998180221748261,0.00024324034006200103
-0.1710675432725111,-0.1710675432725111,0.9996255206030635,0.0002424817445900953
-0.16883515767403878,-0.16883515767403878,1.0003860997098606,0.0002439097199051794
-0.1668765631126007,-0.1668765631126007,1.0000248097010498,0.00024308602743734737
-0.16592104770825244,-0.16592104770825244,0.9998006729095156,0.00024350137951935244
-0.16431280709730345,-0.16431280709730345,1.0000799569726122,0.00024481268415929065
