time,time,flux,flux_err
-0.4999710702219697,-0.4999710702219697,0.999863768719643,0.00013008240378489336
-0.499885056434141,-0.499885056434141,1.000078532520614,0.0001218928657185597
-0.49981440351548373,-0.49981440351548373,0.9997805496379814,0.00011663605600150129
-0.4996960824602866,-0.4996960824602866,0.9999997294313019,0.0001224176551355395
-0.49963522777179603,-0.49963522777179603,0.9999250673796937,0.00012054065528173466
-0.49958316987031137,-0.49958316987031137,1.0002064130444128,0.00011281451058198002
-0.4994526582544495,-0.4994526582544495,0.9999819941787018,0.00011466776761889688
-0.49931763854838207,-0.49931763854838207,0.9998500554357037,0.00011839868778979201
-0.49921178444928954,-0.49921178444928954,0.9997818935776331,0.00011723994650921066
-0.49910071549893475,-0.49910071549893475,0.9999923686468899,0.0001143398474931404
-0.4988886226390605,-0.4988886226390605,1.0002358934834947,0.00012028220469599968
-0.49880476859689227,-0.49880476859689227,1.0000802938377278,0.00011914523759816477
-0.49874426127353216,-0.49874426127353216,1.0001126316773383,0.00011388019920597688
-0.4985690986337431,-0.4985690986337431,0.9999298034661133,0.00012189047851910928
-0.498464014424826,-0.498464014424826,0.9998156577019252,0.00011616018724249408
-0.49832432631228585,-0.49832432631228585,1.0000610690695457,0.00011652054181867212
-0.4981787071978033,-0.4981787071978033,1.0000258931481705,0.00011876449285507487
-0.4980233344613225,-0.4980233344613225,0.9999271876285272,0.00011449214675392188
-0.49789739485277096,-0.49789739485277096,1.000004735929808,0.00012005820914309093
-0.49780661888726174,-0.49780661888726174,0.9997563921098047,0.00011489137426649629
-0.49771549025099376,-0.49771549025099376,0.9998774013971501,0.00011324395351473566
-0.49762907561744213,-0.49762907561744213,1.0000267136241,0.00011611154911048477
-0.4975541656531277,-0.4975541656531277,1.0001084201621513,0.00012761094620963534
-0.49741605939416333,-0.49741605939416333,1.0000056135631565,0.00011673935263251998
-0.49725424452117295,-0.49725424452117295,1.0000029897479015,0.00011099594246481321
-0.4971880510180199,-0.4971880510180199,0.9999715842629125,0.00011358995107192164
-0.49705609015218216,-0.49705609015218216,1.000027462086122,0.00011352532593585642
-0.49698112322657834,-0.49698112322657834,0.9998300830895686,0.0001204310949407191
-0.49688827931531704,-0.49688827931531704,1.0000699057040445,0.00011906693661192769
-0.49675075754130377,-0.49675075754130377,0.9999040853751382,0.00011910118815331617
-0.49664755980556946,-0.49664755980556946,0.9997586998489902,0.0001189967105598889
-0.4965217504061002,-0.4965217504061002,0.9999041027400664,0.0001141158802046211
-0.49639674239151643,-0.49639674239151643,1.0000620399721185,0.00012189042861575118
-0.49627589185984106,-0.49627589185984106,0.999920450988298,0.00011771727550324219
-0.4961069835626404,-0.4961069835626404,0.9998617466894537,0.00011636089044535604
-0.495828700306447,-0.495828700306447,1.0001246927051306,0.00011514355621058999
-0.49569931222285957,-0.49569931222285957,0.9998712702896014,0.00011597652870749744
-0.49557052576128624,-0.49557052576128624,1.000021501423762,0.00012619578637006228
-0.4954692221937876,-0.4954692221937876,0.9999752071054934,0.0001171340934217568
-0.4953111179798725,-0.4953111179798725,1.000061226569853,0.0001142112886660772
-0.4952040082178428,-0.4952040082178428,0.9999503641684374,0.00011084066120802739
-0.4951151276327437,-0.4951151276327437,0.9999151789318489,0.00012439120972422094
-0.49482637520777645,-0.49482637520777645,0.9998558353747455,0.00011977487020970773
-0.494672938092117,-0.494672938092117,1.0000959069088726,0.00011858531077928111
-0.49455568300036246,-0.49455568300036246,0.999963053329191,0.00011702289395797797
-0.49447780125628926,-0.49447780125628926,0.9999904298517615,0.00012242126911202772
-0.4944186220964184,-0.4944186220964184,1.0000113820411514,0.00011811242544538581
-0.49431397403750454,-0.49431397403750454,1.000017050232862,0.00011747379123399195
-0.4941694394205115,-0.4941694394205115,0.9999623237725433,0.00011700803061560902
-0.49401726987052824,-0.49401726987052824,0.999913108387043,0.00011385048558670378
-0.49390807163872524,-0.49390807163872524,0.9999198590041536,0.00011300414635406293
-0.49381272876053117,-0.49381272876053117,0.9999670852446236,0.00011508068218062301
-0.4937080708645226,-0.4937080708645226,0.9999775511009444,0.00011482163663431276
-0.4935657322195766,-0.4935657322195766,0.9999985700998133,0.00011144714325002914
-0.49342605035999443,-0.49342605035999443,0.9999423177322836,0.00012490886541637421
-0.49332325930008664,-0.49332325930008664,1.000036070022325,0.00012155505409862477
-0.4932444329911959,-0.4932444329911959,0.9998506164006138,0.0001207858239478821
-0.49303515067731496,-0.49303515067731496,1.0000376805051692,0.00011366741466994073
-0.49282879909442273,-0.49282879909442273,0.9999134101515535,0.00012027950553776712
-0.49270497393372353,-0.49270497393372353,1.0000283757869497,0.00011400375269355599
-0.49258923119632525,-0.49258923119632525,0.999932332215481,0.00011250391167619248
-0.49247905501179046,-0.49247905501179046,0.9999977656333104,0.00011965540044362221
-0.4923816827569681,-0.4923816827569681,0.9999703872786156,0.00012184254410416577
-0.49226202523641405,-0.49226202523641405,0.9998939385443555,0.0001120508546522781
-0.49218477541580796,-0.49218477541580796,1.0000842163695722,0.00011212101263506759
-0.49211190432179136,-0.49211190432179136,1.0000910678273482,0.00012316208391701538
-0.49198745136964134,-0.49198745136964134,0.999979446132293,0.00012746113433924336
-0.4918068420032796,-0.4918068420032796,0.9998169526908184,0.000114729312578531
-0.49171427889959884,-0.49171427889959884,0.9998558229869726,0.00011846175810435418
-0.4915788779777358,-0.4915788779777358,1.0000331829877707,0.00011523377514946766
-0.49150807169426114,-0.49150807169426114,0.9999926716819066,0.00011317826837067946
-0.49134468824850047,-0.49134468824850047,1.000015246234777,0.00011308306948524768
-0.49122243249730674,-0.49122243249730674,0.999909060953383,0.00012220633124175218
-0.49113544552528765,-0.49113544552528765,1.0001651192631025,0.0001154234621517012
-0.49106577735801693,-0.49106577735801693,1.000129344163619,0.00011826425910549452
-0.4910001441487111,-0.4910001441487111,0.999877851003818,0.0001163387171576889
-0.49091789710073497,-0.49091789710073497,0.9999753749748068,0.00011350913664091733
-0.49079789761817666,-0.49079789761817666,1.000185504642492,0.00011628442354312447
-0.4905592908886319,-0.4905592908886319,1.0001680476176231,0.00011915444413242052
-0.4903646315258811,-0.4903646315258811,0.9998181317356432,0.00011848231153248038
-0.4902462956371892,-0.4902462956371892,0.9999594115262852,0.00011454969043835568
-0.4901683591735491,-0.4901683591735491,1.000081406246901,0.00011411969517335749
-0.49000987372201055,-0.49000987372201055,0.9998706244709318,0.0001197595269617362
-0.489905750881735,-0.489905750881735,1.0001292888101045,0.00012331450487590236
-0.4897785409404605,-0.4897785409404605,1.0000128696884716,0.00011849344064772488
-0.4896507689314603,-0.4896507689314603,0.9998026119348467,0.00012022068534507961
-0.4895221300997946,-0.4895221300997946,0.9999431993879847,0.00011350671770086007
-0.4894490181693982,-0.4894490181693982,1.0001367077748404,0.00011242505576821876
-0.4892902068364492,-0.4892902068364492,0.9998904323407565,0.00011796971058534508
-0.48912025867321063,-0.48912025867321063,0.9999307817446853,0.00011964071228799458
-0.48896895812213187,-0.48896895812213187,1.0001076665287685,0.00011736305105064935
-0.48889801238183284,-0.48889801238183284,0.9999662999485354,0.00011901837588070914
-0.4888511860830477,-0.4888511860830477,0.9999957461497418,0.00011396607448846122
-0.48881821845207013,-0.48881821845207013,1.0001942391395982,0.00012295264019601104
-0.48870811057058744,-0.48870811057058744,0.9998602197190436,0.00011887122924764948
-0.48857011994259664,-0.48857011994259664,0.9998772006192367,0.00011645482563572382
-0.4883687039058714,-0.4883687039058714,1.0002078940916066,0.0001201934316541528
-0.4881555506210134,-0.4881555506210134,0.9999440395251955,0.00011550340721516818
-0.4879772228807269,-0.4879772228807269,1.0002197268228863,0.00011170817425044755
-0.48785400414199104,-0.48785400414199104,0.9999293086510145,0.00012028136716117578
-0.48776772489436554,-0.48776772489436554,1.0000558036571128,0.00011689558208822259
-0.48772784942848374,-0.48772784942848374,1.000083314357893,0.00011715900999313599
-0.48762464786705095,-0.48762464786705095,0.9999180673062904,0.00011990102831170842
-0.4874524475555518,-0.4874524475555518,0.9999563904326794,0.00011761239120241658
-0.48729847960494227,-0.48729847960494227,0.9997883902561917,0.00012373173284041926
-0.4870970355477766,-0.4870970355477766,0.9999855443142698,0.00011509246335856136
-0.48697480663613535,-0.48697480663613535,1.0000460864227474,0.00012037945069118443
-0.4868526640508207,-0.4868526640508207,0.9999778197545846,0.0001136540745722957
-0.4867850520342472,-0.4867850520342472,0.999886050761174,0.00011537599894988096
-0.48670344210695476,-0.48670344210695476,1.0001011347798274,0.0001126718953376243
-0.4866332843223063,-0.4866332843223063,0.9999252295887064,0.00012360689778401608
-0.4865478242565587,-0.4865478242565587,0.9999783903849655,0.00011668274625076067
-0.4864621285516478,-0.4864621285516478,0.9998811778372912,0.00012069151267134251
-0.4863670806880691,-0.4863670806880691,0.999812349358417,0.00011306393509291262
-0.4862682418446639,-0.4862682418446639,0.9999415926958631,0.0001140248804048203
-0.4861615849928057,-0.4861615849928057,0.999868399498696,0.0001109524888667461
-0.48611072939966105,-0.48611072939966105,1.0000576493966298,0.00011772178450311897
-0.48603664172551364,-0.48603664172551364,1.0000728229739761,0.00011263172289509615
-0.48594485622816136,-0.48594485622816136,0.9998734359859773,0.00012075320997579477
-0.4858691012021154,-0.4858691012021154,0.9999094105733738,0.0001139164752495795
-0.485789238079451,-0.485789238079451,1.0000075225825684,0.00011582451069172919
-0.48568743637151784,-0.48568743637151784,1.000061270032364,0.00011800993830681061
-0.48557259462686486,-0.48557259462686486,1.0000188375413648,0.00011996105842781155
-0.4854722103962558,-0.4854722103962558,1.000035999994083,0.00011816400402888331
-0.48535015361485423,-0.48535015361485423,1.0000051976332052,0.00011784026005730055
-0.4852936005554511,-0.4852936005554511,1.0000135696589123,0.00012160158054650374
-0.48517629511479754,-0.48517629511479754,0.9999691497254941,0.00011477268317606936
-0.48500849611955343,-0.48500849611955343,1.0001392612443596,0.00011285574521691471
-0.48477775532810485,-0.48477775532810485,1.0000236868808963,0.0001108386413509002
-0.48468197524925927,-0.48468197524925927,0.999962731525066,0.0001246147694077924
-0.48454457391853795,-0.48454457391853795,1.0000915862717403,0.00011441405097714294
-0.4844613870867761,-0.4844613870867761,1.0000187416582125,0.0001161716579155495
-0.4844149796437705,-0.4844149796437705,1.000101754865569,0.0001186655468414292
-0.48437695067405,-0.48437695067405,1.0000458175803597,0.00011197269123914596
-0.484249411062774,-0.484249411062774,0.9998385215575206,0.00011438215596896304
-0.48414782047839255,-0.48414782047839255,0.9999381749316653,0.00012272503447880372
-0.4839947389576992,-0.4839947389576992,1.0000676891783624,0.00012121775273163987
-0.4838426398440788,-0.4838426398440788,0.9999694640839858,0.00012021544286421482
-0.4836947877578496,-0.4836947877578496,0.9998942101812093,0.00011865037055915546
-0.4835643963822804,-0.4835643963822804,1.0000948649123758,0.00011965419734800736
-0.4834602781760623,-0.4834602781760623,0.9998689856749113,0.00011875189028390789
-0.48337696263115504,-0.48337696263115504,1.000159653155705,0.00011876859730516236
-0.48330083243708943,-0.48330083243708943,1.0000115309818967,0.00011699347368541549
-0.48321745082575945,-0.48321745082575945,0.9998920389017837,0.00012007569465656395
-0.48312327368548724,-0.48312327368548724,0.9999056551648599,0.00010997834772484734
-0.48300838516952355,-0.48300838516952355,0.999940415629491,0.00011984378481492447
-0.4828976838980452,-0.4828976838980452,0.9999535339687702,0.00011584516844854499
-0.48273144951017455,-0.48273144951017455,0.9999916778712412,0.00011395047795761713
-0.4826367704838049,-0.4826367704838049,1.0000801301659668,0.0001137900107846971
-0.48247391575423537,-0.48247391575423537,0.9999044746058114,0.00011976249346454194
-0.4823286391045258,-0.4823286391045258,0.9999701493047339,0.00012540769803445203
-0.4822650873749808,-0.4822650873749808,1.0001187948396846,0.00012322030604574344
-0.48218695209143336,-0.48218695209143336,0.999934380798936,0.00011492017766739369
-0.4819595659035258,-0.4819595659035258,1.000077575471068,0.0001225394180484017
-0.48180000351712804,-0.48180000351712804,0.9998581138603686,0.00011391931965814646
-0.4816509925753053,-0.4816509925753053,1.0000470183914136,0.00011066048531364863
-0.481563893963903,-0.481563893963903,1.0000671027218235,0.000124161552650083
-0.4814436116757861,-0.4814436116757861,1.0000940877244362,0.00011282461449708477
-0.4813123446598183,-0.4813123446598183,0.9998222456901915,0.00011924418323036023
-0.48122019775692026,-0.48122019775692026,1.0000387188563409,0.0001197891893965444
-0.4811578190296132,-0.4811578190296132,0.9998673020054278,0.00011688415341803172
-0.481056309556152,-0.481056309556152,0.9999204383413755,0.0001172146213417642
-0.48093629444701946,-0.48093629444701946,1.0000774576116922,0.00011749556289117817
-0.4807766076846747,-0.4807766076846747,1.0001603868183035,0.00012024586112670281
-0.48068346127620315,-0.48068346127620315,1.0000860506855884,0.00011115606963317008
-0.4805860054897494,-0.4805860054897494,0.9999182339497052,0.0001145113620031909
-0.4805037223704858,-0.4805037223704858,1.0002102483101791,0.00011267176836618718
-0.48039179575134766,-0.48039179575134766,1.0002146509744243,0.00012233320507095956
-0.48029814822875777,-0.48029814822875777,1.0000627244940925,0.00011250752323435092
-0.4801881627150578,-0.4801881627150578,1.0000138928282503,0.00012270598990185252
-0.4800518781878054,-0.4800518781878054,1.0001769435359844,0.00011858340269827407
-0.4799182721748366,-0.4799182721748366,0.9999033230817476,0.00011737746899822434
-0.47975549121474614,-0.47975549121474614,1.0000266728884695,0.00011997962379377317
-0.4795943122939207,-0.4795943122939207,1.000057877466159,0.00012100884718883684
-0.4793815018958412,-0.4793815018958412,1.000178817681755,0.00011054240405999258
-0.47918292546382873,-0.47918292546382873,0.999919242691967,0.00011874799499558798
-0.47904904432507467,-0.47904904432507467,1.0001971778346657,0.00011973223543765262
-0.47893231975394884,-0.47893231975394884,0.9998177999764402,0.00011657244693330161
-0.47887557603171443,-0.47887557603171443,1.0002067722859433,0.00012101440324008981
-0.4787397866610263,-0.4787397866610263,0.9999557449988508,0.0001137384591423437
-0.47859894474895553,-0.47859894474895553,1.000123725231348,0.00011480002572557839
-0.4785273317487736,-0.4785273317487736,0.9998337172862624,0.00011076175108089754
-0.4783196255782968,-0.4783196255782968,0.9999483409772718,0.00012196458871568078
-0.478098854952259,-0.478098854952259,1.0000798123072887,0.00011911371628918307
-0.47801720512943574,-0.47801720512943574,1.000057156978404,0.00011219065015607066
-0.4779247350488731,-0.4779247350488731,1.000099359648167,0.0001195051497427681
-0.4778731178063026,-0.4778731178063026,0.9999204031513443,0.00011643649383199993
-0.4778452513972297,-0.4778452513972297,1.0000507962811038,0.00011942115432471423
-0.4778056815419404,-0.4778056815419404,1.0001198616186162,0.00012086737488825642
-0.4776614719688951,-0.4776614719688951,1.0001472099104705,0.00011561281632069196
-0.4775438570242841,-0.4775438570242841,1.0000007872393277,0.00011894070290665212
-0.47736311969274536,-0.47736311969274536,0.9998566810778877,0.0001150249022956924
-0.4772612663182372,-0.4772612663182372,1.000169624288538,0.00011127236666746462
-0.47715553226444174,-0.47715553226444174,0.9999591230869587,0.00011686405811216181
-0.47706284189625875,-0.47706284189625875,0.9999747163772886,0.00011297831226250634
-0.4768811893482052,-0.4768811893482052,0.9998825631750193,0.00011569947629942205
-0.47679998013336444,-0.47679998013336444,0.9999421339745483,0.00011906772516685724
-0.47675377388877677,-0.47675377388877677,1.000033415788177,0.00012496220216917347
-0.4767050629707228,-0.4767050629707228,1.0001112331879323,0.0001194962195411021
-0.47660459324833937,-0.47660459324833937,0.9999067847328948,0.0001202606715860279
-0.47635942627166517,-0.47635942627166517,0.9999348204376355,0.00011197295461396258
-0.47613734425613075,-0.47613734425613075,0.9998514507520708,0.00012190150574439254
-0.4760373061013524,-0.4760373061013524,0.9998326464777254,0.00011509642096106911
-0.47587740665621825,-0.47587740665621825,1.0000011642835287,0.00011460474157572714
-0.47575953487757944,-0.47575953487757944,0.9999189962572175,0.00011854697148414703
-0.4756885982824315,-0.4756885982824315,0.9999253783605517,0.00011490790168403658
-0.4756082806190534,-0.4756082806190534,0.9999725401135905,0.0001124612211401074
-0.4755430431090645,-0.4755430431090645,1.0000860058904624,0.00011448930270665939
-0.47542453987916816,-0.47542453987916816,1.0001108284879503,0.00012040725237510627
-0.47536715586829814,-0.47536715586829814,1.0000964782694681,0.00011509925767046773
-0.475279849342769,-0.475279849342769,1.0002084967720168,0.00012239764164423105
-0.4751309634266363,-0.4751309634266363,0.9999991889893632,0.00012017265242725004
-0.4750682101759594,-0.4750682101759594,0.9999793484500676,0.00011941194333454229
-0.47500842929148346,-0.47500842929148346,1.0000580831060146,0.00011872535836760011
-0.4749234516035358,-0.4749234516035358,0.9999876705501249,0.00011601427189341733
-0.4748568805982359,-0.4748568805982359,0.9998440668596397,0.00011255014843626363
-0.474731347191846,-0.474731347191846,1.0000555953277321,0.00011107250537137627
-0.4745888895180542,-0.4745888895180542,0.9999012097420493,0.00011975276840329515
-0.47450217988953225,-0.47450217988953225,0.9998373238455548,0.0001241879209033042
-0.47442061060428387,-0.47442061060428387,0.9999803144166389,0.00011277296054415787
-0.4742929215331969,-0.4742929215331969,1.0001031946717773,0.0001184700600982584
-0.47411128416861176,-0.47411128416861176,0.9999969735245475,0.00011431514593963591
-0.473840928998834,-0.473840928998834,0.9999329406929407,0.00011991616477495478
-0.47365940078452695,-0.47365940078452695,0.9997816083721034,0.00011411645699263136
-0.4735897759877844,-0.4735897759877844,0.9999694768752718,0.0001152777484443117
-0.4735293938028917,-0.4735293938028917,0.9996372253016409,0.00011117094630931274
-0.47346157912470516,-0.47346157912470516,0.9999371565268312,0.00011649087232632541
-0.4733779203008453,-0.4733779203008453,0.9999758089220723,0.00011818759751300828
-0.47323393957849474,-0.47323393957849474,1.0000067316762942,0.00012171035692692077
-0.47304305853976986,-0.47304305853976986,1.0000131137077353,0.00012107357810446734
-0.47287956924556057,-0.47287956924556057,1.0001292042678291,0.00010957499798602893
-0.47279468052001905,-0.47279468052001905,0.999960163419918,0.000113780967244966
-0.4726598176188418,-0.4726598176188418,1.0001129562042657,0.00011803421218245771
-0.4725147354351066,-0.4725147354351066,0.9999419580692057,0.00011522522423560659
-0.47238613916633765,-0.47238613916633765,1.0000587605130655,0.00011688883776116375
-0.4723222707150853,-0.4723222707150853,1.00009373481559,0.0001228758587242861
-0.47226026527787324,-0.47226026527787324,0.9997466688863309,0.00011440610453111719
-0.47220932404961785,-0.47220932404961785,0.9999351997343933,0.00011713300873636648
-0.4720988214983663,-0.4720988214983663,0.999959751426092,0.00012374100078956012
-0.4719855188195652,-0.4719855188195652,0.9999076267156493,0.00011442632900225983
-0.4718597774328373,-0.4718597774328373,1.0001498408570464,0.00011425307084802388
-0.4716988443957234,-0.4716988443957234,1.0002032715614224,0.00011850085741653706
