time,time,flux,flux_err
-0.49985300040286046,-0.49985300040286046,1.000451982494802,0.0018197134272648174
-0.49956190510965826,-0.49956190510965826,0.9996783323791284,0.0015283409390385836
-0.4993579232443153,-0.4993579232443153,1.001380499964189,0.0016336004403194227
-0.4991012436537858,-0.4991012436537858,0.9992582274330299,0.0014155941048621331
-0.498803899660561,-0.498803899660561,0.9999959941418728,0.0014208400565193873
-0.49861610918123916,-0.49861610918123916,1.00133923424184,0.001623983897062704
-0.4982818797874643,-0.4982818797874643,0.9998245868914474,0.0017224982925037626
-0.4980374307917373,-0.4980374307917373,1.000182836100023,0.0016086124160884674
-0.49781308706915295,-0.49781308706915295,1.0006235266516819,0.0012693918174875045
-0.49763097712639137,-0.49763097712639137,1.0024050526052943,0.0017703615166416169
-0.49733797058142953,-0.49733797058142953,0.9998999834136573,0.00119077318458645
-0.4969684417392273,-0.4969684417392273,1.0013316934445373,0.0013356960963296668
-0.49661542718822604,-0.49661542718822604,1.0016320598527657,0.001473562972393754
-0.49630651230982037,-0.49630651230982037,0.9998346119242166,0.0017844368644308838
-0.49614185550635737,-0.49614185550635737,0.9995608566442489,0.0017255991911083244
-0.49582565886885277,-0.49582565886885277,1.0010587077640933,0.0014376858241342129
-0.49532513478443435,-0.49532513478443435,1.0003460220468496,0.001592488267731043
-0.4951528416993824,-0.4951528416993824,1.0017969891657512,0.0018918433784638985
-0.4950211998726445,-0.4950211998726445,1.0015013728341309,0.0016207622592469158
-0.49481639998557514,-0.49481639998557514,1.0004528744426289,0.0015640056040497855
-0.4945661923091393,-0.4945661923091393,1.003347545077326,0.0014843795748910671
-0.494263460775619,-0.494263460775619,0.9993896023629734,0.0014655558461493417
-0.494088791204922,-0.494088791204922,1.0011248208304875,0.0017642867193348964
-0.49365631467189813,-0.49365631467189813,1.001294099825274,0.001686549963262452
-0.49346558409160934,-0.49346558409160934,1.0006925785983707,0.001515648476352417
-0.4932421295274253,-0.4932421295274253,0.9993079613372207,0.0013345179204412192
-0.4930435189515265,-0.4930435189515265,1.0001676777749267,0.0013671828657182213
-0.4928705609509052,-0.4928705609509052,0.9989399267907111,0.001712526918067636
-0.49272046921760193,-0.49272046921760193,1.0006204160155465,0.0013658959362333007
-0.49249748733927845,-0.49249748733927845,1.0005632051322313,0.0015547030571483986
-0.4922705435768876,-0.4922705435768876,0.9995739321399301,0.001410032170727921
-0.4919339065836539,-0.4919339065836539,1.0006467365111882,0.0015910158614166141
-0.4917211866024445,-0.4917211866024445,1.0003287029490038,0.001724613667610361
-0.49153064089696274,-0.49153064089696274,1.0002222812504897,0.0013077229724884744
-0.4912763224630908,-0.4912763224630908,0.9996186760778766,0.001275384003778009
-0.4909357847685897,-0.4909357847685897,0.9980445391024286,0.0014178977998388017
-0.4907294121574523,-0.4907294121574523,0.9983985655669032,0.0015332682037213893
-0.4904892318416387,-0.4904892318416387,1.0001186468169674,0.0014656968837954267
-0.49018327199337364,-0.49018327199337364,1.000703944250179,0.001689575808699707
-0.4899521233743144,-0.4899521233743144,1.0013366146231708,0.001359495683610811
-0.48976818653172816,-0.48976818653172816,0.9990093165234744,0.0014188180505180815
-0.48965005720965565,-0.48965005720965565,0.9996994703456299,0.001330997916386621
-0.48936209578059786,-0.48936209578059786,1.0011831806651594,0.0014439483539484077
-0.4891194688520045,-0.4891194688520045,0.9992461605261074,0.0016102838267950934
-0.48894525672185407,-0.48894525672185407,1.0017743835165702,0.0014314547673697177
-0.48872834225694534,-0.48872834225694534,1.0005547470649439,0.001329276041341493
-0.4884627824594645,-0.4884627824594645,0.9953207530273925,0.0016226009079567214
-0.48823410722543487,-0.48823410722543487,1.000231139104761,0.0013711028036807688
-0.4880797783520393,-0.4880797783520393,1.0017357096953674,0.0021114632589039396
-0.48785823707330567,-0.48785823707330567,1.0002115863211505,0.0013912070436483054
-0.48765691989829063,-0.48765691989829063,1.0008981489536135,0.0014621244398485775
-0.48737205819161317,-0.48737205819161317,1.000751746057435,0.0016654115363073801
-0.48722190586486247,-0.48722190586486247,0.9995863933209534,0.0016246766774215854
-0.48700258581811795,-0.48700258581811795,1.001385078965075,0.001524232926130872
-0.4867721285612788,-0.4867721285612788,0.9990198703315233,0.0011937615670205948
-0.4864907743049116,-0.4864907743049116,0.9982804105079774,0.0014922418915047117
-0.4863198144677881,-0.4863198144677881,1.0004231024790964,0.0015182196497374755
-0.48599788794344934,-0.48599788794344934,1.0007536851660996,0.0015351592650421201
-0.4857791573020222,-0.4857791573020222,0.9998989492884931,0.001456774604297256
-0.4856229801214795,-0.4856229801214795,1.0001943430757034,0.0014507525025196425
-0.4853955340273387,-0.4853955340273387,0.9992569759925993,0.0015046055669497157
-0.4850810781328619,-0.4850810781328619,1.0017061990965634,0.0012517394002494332
-0.4848459797394753,-0.4848459797394753,1.001765214497118,0.001265520351831512
-0.48465135280457616,-0.48465135280457616,0.9993922516109477,0.001448917694186295
-0.4844481423468096,-0.4844481423468096,1.000669053654189,0.0012617952484940487
-0.4841479162063479,-0.4841479162063479,0.9980239806113481,0.0014347999519577275
-0.483899136652326,-0.483899136652326,0.9994200078398879,0.0017797511632958527
-0.4835515409235086,-0.4835515409235086,1.0027852884341433,0.0018919715505343563
-0.4829912443296053,-0.4829912443296053,0.9980693582693337,0.001616212668838132
-0.4827603878504306,-0.4827603878504306,0.9993262648190028,0.0017233035366519239
-0.48241049958305665,-0.48241049958305665,1.0019176903167026,0.0016057512269508727
-0.48212164710894284,-0.48212164710894284,1.0010504372585864,0.001551289703868286
-0.4818851671556331,-0.4818851671556331,1.0014176009499398,0.0015236702341640124
-0.4817452676961693,-0.4817452676961693,0.9999908167051663,0.0013420277464396494
-0.4814307250733691,-0.4814307250733691,0.9996002947930271,0.0017786234520855478
-0.4811544660351501,-0.4811544660351501,1.0012780429876975,0.0016053980560199739
-0.4809383640815213,-0.4809383640815213,0.9997817768370192,0.0012421274373389157
-0.480729418959163,-0.480729418959163,1.0009091884233168,0.0015825987261525892
-0.48044880292291053,-0.48044880292291053,1.0005879127207769,0.0015312482487706309
-0.48024002265083254,-0.48024002265083254,1.000087706394824,0.0014951375630174488
-0.4800446462544642,-0.4800446462544642,0.9969464745603887,0.0014255434838943652
-0.47978454432632134,-0.47978454432632134,1.0008539687678455,0.0014807719905286724
-0.4794974770855333,-0.4794974770855333,1.0006420245775267,0.0017494699381965801
-0.47933017597679284,-0.47933017597679284,0.9988711164033844,0.001589218651669571
-0.47912930913589663,-0.47912930913589663,0.9990538771151594,0.001520276236569104
-0.4788794597094238,-0.4788794597094238,1.0010572509091955,0.001276773773399563
-0.47844108609933755,-0.47844108609933755,1.0008895621776375,0.0015207199063358961
-0.4782709700601117,-0.4782709700601117,1.0007143143832233,0.0016355150780454116
-0.47780123371521765,-0.47780123371521765,0.9998317856128953,0.0017577859889019714
-0.4775407613338757,-0.4775407613338757,1.0000684927692671,0.0013567476560137326
-0.47738716666390246,-0.47738716666390246,1.0002637823884766,0.001482230912406879
-0.4770431553653907,-0.4770431553653907,1.0021486259636059,0.0012565629011669307
-0.47663255341722105,-0.47663255341722105,0.9995864121228898,0.0014358033686893551
-0.4763670000640559,-0.4763670000640559,1.000065079355387,0.0012664329979842496
-0.4759826551337028,-0.4759826551337028,0.9994382372679013,0.0015341820256584851
-0.47580821260453376,-0.47580821260453376,1.0010036648825031,0.0024309421673372753
-0.47553705738755525,-0.47553705738755525,1.0008482181948823,0.0013538482123763575
-0.47526816162753677,-0.47526816162753677,0.9988806896894313,0.0014600971996077791
-0.47494527161288713,-0.47494527161288713,1.0004293803606115,0.001831628514528136
-0.4747438022415736,-0.4747438022415736,0.999660750399476,0.0013772642975123969
-0.47464721965807255,-0.47464721965807255,0.9992581623368029,0.0014389646889456389
-0.4744662020671967,-0.4744662020671967,1.0009911892352292,0.0011822309805181424
-0.47419418533463614,-0.47419418533463614,0.9996807833079251,0.0014409492312523668
-0.47402579902227443,-0.47402579902227443,1.0030601739931537,0.001518717306269546
-0.47379188459344734,-0.47379188459344734,1.001351458926976,0.0014570287717609667
-0.4734597125428991,-0.4734597125428991,1.0008487906591124,0.0016216833932814854
-0.4733245275976515,-0.4733245275976515,0.9986737145222918,0.0016037903662904688
-0.47318278375278167,-0.47318278375278167,1.000418757459071,0.0013683097765264144
-0.47288046426911023,-0.47288046426911023,1.0007158432260277,0.0013361676590352791
-0.47255103516472446,-0.47255103516472446,1.0016965716718356,0.0020578516784079525
-0.47234095079438704,-0.47234095079438704,1.003215643556807,0.0015402600908885969
-0.4721366382738779,-0.4721366382738779,1.0097711972180394,0.0012302157494155541
-0.4718837022290245,-0.4718837022290245,1.0007079148308144,0.0012516009824441801
-0.4716023606721137,-0.4716023606721137,0.9988892960515786,0.0015331491800277572
-0.47135894152488617,-0.47135894152488617,1.0020936177083708,0.0018849716669723554
-0.4709269413149741,-0.4709269413149741,1.0008029581424558,0.0014409269274557783
-0.4705619150841812,-0.4705619150841812,0.9994371857070359,0.0016596313177412061
-0.4703477130133251,-0.4703477130133251,1.0011678786448417,0.001643513001706833
-0.4700114035476872,-0.4700114035476872,1.001512313861305,0.0015869058557025626
-0.46987887615541696,-0.46987887615541696,1.000155475116661,0.0014197314263498578
-0.4696512170852657,-0.4696512170852657,0.9994966918488976,0.001401760583762643
-0.4694702781209344,-0.4694702781209344,1.0021388906734132,0.0014989351175036295
-0.4691700197425234,-0.4691700197425234,1.0013983633889427,0.0021160896771014546
-0.4689619858767401,-0.4689619858767401,1.001588801998936,0.0014254405670587268
-0.46878604440826166,-0.46878604440826166,1.0024723115346272,0.0015419496009147682
-0.4685903271052666,-0.4685903271052666,1.0002515154493423,0.0013582690235148546
-0.4684330175743526,-0.4684330175743526,1.0005929349614893,0.0016003095451596415
-0.4681990599794517,-0.4681990599794517,1.0020984648199125,0.0016774672162897404
-0.46794838431596875,-0.46794838431596875,1.0017756840456093,0.0016104721498648121
-0.46769389674191186,-0.46769389674191186,0.9996405736094489,0.0014922428635755088
-0.46755751137752666,-0.46755751137752666,0.9992812755030549,0.0013542428200280278
-0.4672887756532873,-0.4672887756532873,1.0000823451473648,0.0016706935371384117
-0.4670334911013924,-0.4670334911013924,1.0016263638188119,0.0017777637307141055
-0.46677887844853105,-0.46677887844853105,1.0011310563452365,0.0013575581184538921
-0.4664572368343215,-0.4664572368343215,0.9998953141352726,0.001267602587860414
-0.46614113785908556,-0.46614113785908556,1.001399824917381,0.001417101417223364
-0.4659202273534902,-0.4659202273534902,1.0120550951451137,0.001638793892520879
-0.46550830228043194,-0.46550830228043194,0.9998780146184105,0.0017679342691322812
-0.46525743190613866,-0.46525743190613866,1.009501462970111,0.0012793966645980933
-0.46508453804235617,-0.46508453804235617,0.999724304137624,0.0020767132318163873
-0.4648014617236186,-0.4648014617236186,1.0001143130310184,0.0013988167676787851
-0.46452740422828354,-0.46452740422828354,0.9992807333769352,0.0015946338799883923
-0.46409219119777845,-0.46409219119777845,1.0016000932507252,0.00132248407664325
-0.4637414375993103,-0.4637414375993103,1.0017221053473193,0.0017014096793973523
-0.46354818264626374,-0.46354818264626374,0.9997784836689372,0.0017368956955382676
-0.46328421100952255,-0.46328421100952255,1.0009287745910789,0.0013638089374150278
-0.4629567119991407,-0.4629567119991407,1.000007578140481,0.001523367143977663
-0.462636573087002,-0.462636573087002,0.997339527783965,0.0019395715254846662
-0.4624968576707033,-0.4624968576707033,0.9992577313690122,0.0018419398962787148
-0.4623289422786911,-0.4623289422786911,1.000431863525334,0.0015886478309643875
-0.461914503396838,-0.461914503396838,0.9984912011695096,0.0013503624121378086
-0.46167779358220284,-0.46167779358220284,1.0026055488407177,0.0014588714250333042
-0.46149937120826506,-0.46149937120826506,0.9991447991250956,0.001579193988382908
-0.46111732856661547,-0.46111732856661547,1.000509310727865,0.001612828429511189
-0.4609327517238853,-0.4609327517238853,0.9998819347849913,0.0016771662126094198
-0.4607150856645603,-0.4607150856645603,0.9995523933313175,0.001424991661740647
-0.4605415960300888,-0.4605415960300888,1.0034112207746797,0.001247331758424483
-0.46024836812648573,-0.46024836812648573,0.9993724976736692,0.0014354264795223145
-0.4600468574561091,-0.4600468574561091,1.00103039450491,0.001487239122283794
-0.4598832242219942,-0.4598832242219942,1.0008560162737414,0.0012196773469160412
-0.45959851781044564,-0.45959851781044564,1.0013641092751338,0.0014854019167720388
-0.4592908163362154,-0.4592908163362154,1.0003506214599358,0.0016830856188316823
-0.45910475483506163,-0.45910475483506163,0.999918674570989,0.00167062024990674
-0.45876304739067564,-0.45876304739067564,0.998887214452064,0.0014427548027467992
-0.4583156049331592,-0.4583156049331592,0.999426475622305,0.0014740392453474673
-0.4581346143691917,-0.4581346143691917,0.9998808550340907,0.0016185353533661635
-0.45794483785284684,-0.45794483785284684,0.9997143256255544,0.001544458403731199
-0.457660124699396,-0.457660124699396,1.0011519576551042,0.0015851052679728508
-0.45741827494821335,-0.45741827494821335,0.9990782647538292,0.0015323140548416316
-0.45718126503816164,-0.45718126503816164,1.000688126649464,0.0015583722809903804
-0.45689821433334143,-0.45689821433334143,1.0022730969954818,0.001379367463112137
-0.45656160542312135,-0.45656160542312135,1.000314349380106,0.0016669463330938245
-0.45637408460170265,-0.45637408460170265,1.000232600426028,0.001369957560543557
-0.45616190087093855,-0.45616190087093855,0.9991852882562929,0.001318449293574607
-0.45596264675878045,-0.45596264675878045,1.0001040317443133,0.0015903493349653925
-0.45571714536927177,-0.45571714536927177,1.0014051478054187,0.0015605448977135384
-0.4554531243684323,-0.4554531243684323,0.9989196545868058,0.0017241101028471887
-0.4552153965028992,-0.4552153965028992,1.0016935925150583,0.0013571675158415438
-0.45505904753335924,-0.45505904753335924,0.9996107103638024,0.0014375811881975563
-0.45473545599852516,-0.45473545599852516,0.9992567356311154,0.001828102142938956
-0.4545371041574981,-0.4545371041574981,0.9976779231344555,0.001453840175103268
-0.4542468296524021,-0.4542468296524021,0.9998680818013286,0.0015114795794737145
-0.45390972956774933,-0.45390972956774933,0.9994037315878606,0.0014200630595045975
-0.45372218005504694,-0.45372218005504694,1.0030584860067902,0.0016235954418291718
-0.45343112180635214,-0.45343112180635214,1.0007200445899957,0.0017221108049859685
-0.4531883959607512,-0.4531883959607512,1.0000240516615297,0.0015374071997410156
-0.4529874771618779,-0.4529874771618779,1.0006451447019442,0.0013364653831517278
-0.45277593823557255,-0.45277593823557255,1.0022106309142338,0.0017192767921135985
-0.4525433493370656,-0.4525433493370656,0.9997547478051402,0.0013814563756795947
-0.4521600121082884,-0.4521600121082884,1.0005549796239226,0.0013356600619957254
-0.4517473915690061,-0.4517473915690061,1.0003509086813913,0.001332659332027242
-0.45138286645342307,-0.45138286645342307,0.9991745362030328,0.0016861306149589836
-0.45117995727378,-0.45117995727378,1.0009996263499343,0.0017922520960828002
-0.45080918205931086,-0.45080918205931086,1.0004917189834854,0.0014551455523012233
-0.45042291734825995,-0.45042291734825995,1.0018178812478864,0.001589827749574789
-0.4502595060359454,-0.4502595060359454,1.0009495864365685,0.0020013287966576332
-0.45014375632490555,-0.45014375632490555,1.000264673136959,0.0013907902426875452
-0.44997811795146847,-0.44997811795146847,1.001289015506281,0.0017802484307877728
-0.44968731529406797,-0.44968731529406797,1.001173595850932,0.0014981817779456195
-0.449396000550405,-0.449396000550405,0.9988890684842628,0.001460195846001946
-0.44930846141796793,-0.44930846141796793,0.999510165903961,0.001609135425291143
-0.44895999771579226,-0.44895999771579226,1.0005232967908073,0.0014337623913231396
-0.44871655195092897,-0.44871655195092897,0.9992972537327759,0.0017519504440440664
-0.4485330276987952,-0.4485330276987952,0.9998971465836286,0.0014493405294029712
-0.4483104426431964,-0.4483104426431964,0.9992920625333669,0.001401825767671835
-0.44808333763030533,-0.44808333763030533,1.0007485724725167,0.001437725801703159
-0.44789211630741194,-0.44789211630741194,0.9996876064632083,0.0015875804179961838
-0.4476846281701,-0.4476846281701,1.0014097100118509,0.0015617063956180064
-0.4475081815213343,-0.4475081815213343,1.0012550899673491,0.001232485102444371
-0.447273243276868,-0.447273243276868,1.0021936517688728,0.0014880237568829166
-0.44691885602987896,-0.44691885602987896,1.002266922727177,0.0016914127873017542
-0.44676129083200067,-0.44676129083200067,1.000424702094236,0.0016045348964738974
-0.44653147874814747,-0.44653147874814747,1.0012198108341501,0.0012790638976806388
-0.44626824137922083,-0.44626824137922083,1.001259165930351,0.0013331903016779883
-0.44592470929928824,-0.44592470929928824,1.0015992632265132,0.0014089608709567597
-0.4457834258395451,-0.4457834258395451,1.001057585708192,0.001582808106365178
-0.4454347260259965,-0.4454347260259965,1.0003169361026687,0.0016686868683400212
-0.4452063299973815,-0.4452063299973815,1.0017220244394665,0.0014556546405550936
-0.4449717833573231,-0.4449717833573231,1.0006170258235283,0.001361756490841367
-0.4448245061917987,-0.4448245061917987,0.9993442853096519,0.0014786301020322224
-0.4446697657705954,-0.4446697657705954,0.9996007403392643,0.0011458158907968307
-0.4443764087802265,-0.4443764087802265,0.9999579034459163,0.0016178987371514215
-0.4441828816394263,-0.4441828816394263,0.999525463538208,0.0015264052760660548
-0.4439517482162046,-0.4439517482162046,1.0008665004046313,0.0013348277148846227
-0.44375291017859125,-0.44375291017859125,1.000305991786823,0.001351435177333035
-0.44342818369295856,-0.44342818369295856,1.0003218509975411,0.0015330453767419619
-0.44331086478450743,-0.44331086478450743,0.9967944589368065,0.002186552481248993
-0.44307500049580995,-0.44307500049580995,1.0006490491070368,0.0014375646801675595
-0.4428971194120095,-0.4428971194120095,0.9993192985250765,0.001349833354507607
-0.4426909074558353,-0.4426909074558353,1.0028222837507081,0.0015188215331455768
-0.4424437473917351,-0.4424437473917351,0.9994930141383248,0.0017436668873320373
-0.4422791405329917,-0.4422791405329917,0.9996435722348627,0.0014668834027786568
-0.4420841323993955,-0.4420841323993955,0.9999095011024239,0.0015333886150206877
-0.4418303690021276,-0.4418303690021276,0.9995807426853025,0.0013289405745873077
-0.4415409654553514,-0.4415409654553514,0.998988840128375,0.0014340374303450612
-0.44138321487771465,-0.44138321487771465,0.9993428402044666,0.0014379556985417044
-0.4410530126238882,-0.4410530126238882,1.0015854201901675,0.001538600492241491
-0.4408746131808584,-0.4408746131808584,0.9991873412857701,0.001563135427594138
-0.44076265574658463,-0.44076265574658463,0.9999034209260577,0.0016310469746612319
-0.4406046169853653,-0.4406046169853653,1.0020740650514215,0.0013640178800807426
-0.4403172748829093,-0.4403172748829093,0.9978094349819069,0.001414271567249107
-0.44002327152520593,-0.44002327152520593,1.0000954434721716,0.00125437604850895
-0.4398092397488654,-0.4398092397488654,0.9994888884161867,0.0014654634355872034
-0.43955367962589664,-0.43955367962589664,0.9990937350703831,0.001260982910697248
-0.4392538369596878,-0.4392538369596878,1.0008093772650464,0.0014359453170885096
