time,time,flux,flux_err
-0.49971549631542683,-0.49971549631542683,1.0000069233549436,0.00023974215494744467
-0.49919249149813066,-0.49919249149813066,1.0001193512427842,0.00023921855283049349
-0.49869790452188073,-0.49869790452188073,0.9998798463998074,0.00024142874113358679
-0.4980440421568346,-0.4980440421568346,1.0000463902161119,0.00023974018147183426
-0.49731639481615275,-0.49731639481615275,0.9998576764418958,0.00021942521819589989
-0.4967928860853135,-0.4967928860853135,1.0000460212931084,0.00021803340412759244
-0.4960578617756255,-0.4960578617756255,0.9999467447738601,0.00021998844236080186
-0.4950838442353415,-0.4950838442353415,0.9997247666545055,0.00022506275546514259
-0.49447495733766117,-0.49447495733766117,0.999737691446232,0.00021998286553795185
-0.4941209025848366,-0.4941209025848366,1.0002971273028587,0.0002217981318545103
-0.49353575330605964,-0.49353575330605964,1.0000155562351711,0.00021804157340368533
-0.4931468415037671,-0.4931468415037671,0.9997967345476255,0.00021936746498874547
-0.4927287306745711,-0.4927287306745711,0.9997589045365709,0.0002487305548608118
-0.4923337723950681,-0.4923337723950681,1.0001452423588517,0.00021944632890686936
-0.4919674808108539,-0.4919674808108539,1.000170088887197,0.00021951980667193836
-0.49139831459178823,-0.49139831459178823,0.99982529178744,0.0002200668593636055
-0.4909865081019234,-0.4909865081019234,1.0002378366001765,0.00021896435057786517
-0.4905173593724612,-0.4905173593724612,0.9998418973354866,0.00021811171172193876
-0.4900036890838237,-0.4900036890838237,1.0002259240871232,0.00021812729778558412
-0.489698091964965,-0.489698091964965,1.0000435692783107,0.0002198842575001669
-0.4892271387529036,-0.4892271387529036,0.9999183211083501,0.0002194325419139213
-0.4885432164548547,-0.4885432164548547,0.9997193404162241,0.00021937316685860246
-0.48795650254396605,-0.48795650254396605,1.000271483296212,0.0002174274517258806
-0.4872750801354414,-0.4872750801354414,0.9997949908637288,0.00021993841164809051
-0.48676598162637674,-0.48676598162637674,1.0001263917623375,0.00022004297498234236
-0.48601877977125696,-0.48601877977125696,0.9999022068161139,0.00021936009776664524
-0.4853944039445196,-0.4853944039445196,0.999630037527052,0.00021924389149851096
-0.4848749845019483,-0.4848749845019483,1.0000627427431268,0.00022002942434666632
-0.48446023528304066,-0.48446023528304066,1.000130828480541,0.00022056971243182203
-0.4839528917946154,-0.4839528917946154,1.0000562513055882,0.0002193865919038816
-0.4836060035311675,-0.4836060035311675,1.0000183621005083,0.00021939666861552719
-0.4831353929417673,-0.4831353929417673,0.9998873302674888,0.00021877280456537485
-0.48264167155211907,-0.48264167155211907,0.9999774293994239,0.00022082416296921055
-0.48227705293829787,-0.48227705293829787,1.0000900284072745,0.000218112525963274
-0.48179744468507124,-0.48179744468507124,1.0000918243836725,0.00022012463804916234
-0.48129026778187833,-0.48129026778187833,1.0002982937873164,0.00021881310914523763
-0.4809449752996443,-0.4809449752996443,0.999702423099777,0.000218772025883879
-0.480490998843743,-0.480490998843743,0.9999447143134444,0.00021808497077556343
-0.4801406010577921,-0.4801406010577921,1.0002441195656975,0.00021808634494896315
-0.47953510358929635,-0.47953510358929635,1.0000111343147573,0.00021938617532758163
-0.4789225444488693,-0.4789225444488693,0.9998221742653879,0.00022431602003853698
-0.478466298856074,-0.478466298856074,0.9999694041975878,0.00022196635974805427
-0.4779512151631934,-0.4779512151631934,0.9999296849414531,0.00021997068054417177
-0.4773234695880092,-0.4773234695880092,0.9999415624052835,0.00021921085668202868
-0.47668930016370725,-0.47668930016370725,1.0003219527347347,0.00021943524741456673
-0.476132803013752,-0.476132803013752,1.0002023853021769,0.00021929098687349492
-0.47563391731600857,-0.47563391731600857,1.0002275158309568,0.00022060186247417022
-0.4750751759987907,-0.4750751759987907,1.0001016032222183,0.00021865480417685492
-0.4747278459697554,-0.4747278459697554,0.9996337964372184,0.0002206765146712031
-0.4743595558480592,-0.4743595558480592,0.9999498664156053,0.00021876036961734593
-0.4739884983158845,-0.4739884983158845,0.9999544468047361,0.00022002864915949614
-0.4735773535569024,-0.4735773535569024,0.9998946832269752,0.00021818493375189529
-0.47314728580458904,-0.47314728580458904,0.99984186466069,0.0002187795176043397
-0.4726003652322106,-0.4726003652322106,1.0000394471166998,0.00021944411221157077
-0.47217033628112404,-0.47217033628112404,0.9997180091787874,0.00021888973861398098
-0.47159269449912244,-0.47159269449912244,0.9998779640849722,0.00021875429374742546
-0.4712401526121539,-0.4712401526121539,0.9998529533265339,0.0002187227403347036
-0.4706923268618993,-0.4706923268618993,0.9999795202857232,0.00021871021552275402
-0.47018470780167265,-0.47018470780167265,1.0000214262180172,0.00021952762362395314
-0.46961949706746964,-0.46961949706746964,0.9998928693244136,0.00021748730791256048
-0.46897200707753656,-0.46897200707753656,1.0000263180621456,0.0002199624842318199
-0.4683707470765512,-0.4683707470765512,0.99954711692064,0.0002204738997011223
-0.4675837694063375,-0.4675837694063375,1.0000447890446942,0.00022085830446488385
-0.4669337994309899,-0.4669337994309899,0.9997623447302001,0.00021981992895368546
-0.46633470463348203,-0.46633470463348203,0.999953319826024,0.0002199613852114324
-0.46588803513077437,-0.46588803513077437,1.000052056784299,0.0002192668798544451
-0.46531004903008577,-0.46531004903008577,1.0001197650089817,0.00022003028861043722
-0.46491659551757036,-0.46491659551757036,1.0000266015587875,0.00021874318649021924
-0.4645432180346688,-0.4645432180346688,0.9997608187250779,0.0002389535588730875
-0.46410054738735196,-0.46410054738735196,1.000250131038032,0.00021943635946790953
-0.46363387139426776,-0.46363387139426776,1.0000525251498291,0.00021879782130356553
-0.46305327512382066,-0.46305327512382066,1.0000216927391983,0.00021943429733707666
-0.46266662005291437,-0.46266662005291437,0.9997809699997843,0.00021879237541171096
-0.46219317232244067,-0.46219317232244067,1.0002491117327643,0.00021997003116938546
-0.46181236816410093,-0.46181236816410093,0.9997245501836612,0.00021801790810026695
-0.4612380084923643,-0.4612380084923643,1.0000106983047996,0.00021944902380996496
-0.46066121295370976,-0.46066121295370976,0.999847955863369,0.00021813225953396225
-0.4601113603923295,-0.4601113603923295,0.9996866390901706,0.00021873032554334883
-0.45949571310848114,-0.45949571310848114,0.9999700256610256,0.00021867026059676473
-0.4588268652667466,-0.4588268652667466,1.000032036302187,0.00021794119294109667
-0.45804426515387603,-0.45804426515387603,1.000103726586265,0.00022065444526571032
-0.45715539553348206,-0.45715539553348206,0.9999060915125174,0.00022980810247674098
-0.4566074353999284,-0.4566074353999284,0.9998723111221697,0.00022119687273944116
-0.4562225765381299,-0.4562225765381299,1.0003680593036162,0.00022060525210156615
-0.4558059924835106,-0.4558059924835106,0.9999510711643527,0.00021938603531173546
-0.4553963121346897,-0.4553963121346897,1.0002315870149925,0.00021945546156050912
-0.45499479199570486,-0.45499479199570486,0.9999973679567736,0.000254588887570663
-0.4546335551305674,-0.4546335551305674,1.0001478029684623,0.0002200214080046898
-0.4541935695633583,-0.4541935695633583,0.9996679770579154,0.00021811605818545626
-0.4537645371274266,-0.4537645371274266,1.0003177693188696,0.0002204313327471078
-0.45320464661344884,-0.45320464661344884,0.999942189199794,0.00021882424019263965
-0.452805851566518,-0.452805851566518,0.999549583609876,0.000219448197030133
-0.45230143652370314,-0.45230143652370314,0.9998706947203541,0.00022162701776408744
-0.45201204048862564,-0.45201204048862564,1.0001210664590885,0.000218423699391159
-0.4514022261821083,-0.4514022261821083,1.0000047495891564,0.00021936751825067167
-0.4507212848999188,-0.4507212848999188,0.9999517462393559,0.00021934772739323711
-0.4501336266694125,-0.4501336266694125,0.9997386592023914,0.00021802729457004715
-0.4494560588282184,-0.4494560588282184,1.0000056831836122,0.0002193414729309543
-0.4489454162372567,-0.4489454162372567,1.000005157150298,0.00022001598741641762
-0.44819241140503435,-0.44819241140503435,0.999705772991794,0.0002193880959864201
-0.4476349039345223,-0.4476349039345223,0.999939433127113,0.00021982394746216413
-0.4470539485984773,-0.4470539485984773,0.9999433864801948,0.00021953874258341652
-0.446646261303249,-0.446646261303249,0.9995774801654267,0.00021925295410525438
-0.4462211404577829,-0.4462211404577829,1.0000945779192763,0.00022000294098357734
-0.4458468251898012,-0.4458468251898012,0.9998276293188326,0.00022004422577136316
-0.4454109482896456,-0.4454109482896456,1.000316684727795,0.00021882504895522967
-0.44494037336480685,-0.44494037336480685,1.0002433394596881,0.00021951315545607868
-0.44449106293104707,-0.44449106293104707,1.0001514831409377,0.0002181844055857046
-0.4440244419085502,-0.4440244419085502,0.9995650961185405,0.0002204374460516246
-0.4434641981009918,-0.4434641981009918,0.9999367888046917,0.00021880681331591548
-0.44312304919512824,-0.44312304919512824,1.0002333049029921,0.0002188160180216218
-0.4426656075578649,-0.4426656075578649,0.9998030312341804,0.00021809010478685136
-0.44231362210339287,-0.44231362210339287,1.0001946631377812,0.00021819427555555556
-0.4417678957004682,-0.4417678957004682,0.9998259341843946,0.0002206989266384244
-0.4412000592739787,-0.4412000592739787,0.9999072296139714,0.00021807021869780745
-0.44064084965357325,-0.44064084965357325,1.0001829291932562,0.00022076004042748788
-0.4398116445474443,-0.4398116445474443,0.9999948566833543,0.00021941915460935803
-0.43916006938088686,-0.43916006938088686,1.0000104194393473,0.0002199895303634424
-0.43842128071410114,-0.43842128071410114,0.9997985901349038,0.00021929225598152878
-0.43791159858446915,-0.43791159858446915,1.0002160239550526,0.00021987086083319346
-0.4373699122181279,-0.4373699122181279,0.9998445818245767,0.00021932507249778233
-0.4369748951132351,-0.4369748951132351,1.0001697368550313,0.00022005721810946442
-0.4365632476175961,-0.4365632476175961,0.9999626701205996,0.0002187154064719676
-0.4361684584051545,-0.4361684584051545,0.999823986376013,0.00022004192573780667
-0.43572393581271174,-0.43572393581271174,0.9998260602717899,0.00021872469789790695
-0.435178498604364,-0.435178498604364,0.9997702442749017,0.00021872691597787252
-0.43472024602233433,-0.43472024602233433,0.9998326212597324,0.00022008944755331675
-0.43427795438256,-0.43427795438256,0.9999558808331397,0.00021960379493960114
-0.4338373407117615,-0.4338373407117615,1.0000213837146086,0.00021809622725220266
-0.43352206187846604,-0.43352206187846604,0.9999021937623095,0.0002194426460423456
-0.4330052424767928,-0.4330052424767928,1.0001108935626453,0.0002194337670737416
-0.43261578425299374,-0.43261578425299374,0.9999584404248825,0.00021816164257490445
-0.4320192582519667,-0.4320192582519667,0.9999514589230554,0.0002193809221160185
-0.4314235753103276,-0.4314235753103276,0.9998009907004928,0.00021929951979624335
-0.4309756276285043,-0.4309756276285043,0.9997660002709576,0.0002186781292290562
-0.4304332578984031,-0.4304332578984031,1.0001680653795568,0.0002201437215374453
-0.42953962043247884,-0.42953962043247884,0.9999822454935661,0.000223147691937015
-0.4288777782188845,-0.4288777782188845,0.9997284571247158,0.00022281098013869207
-0.4283324118689052,-0.4283324118689052,0.9997775661410934,0.00021927913681185578
-0.42780794190330196,-0.42780794190330196,0.9999407777148626,0.0002193363318832239
-0.4272855140487081,-0.4272855140487081,0.9998774767881713,0.00022004789237081162
-0.4268218372919364,-0.4268218372919364,0.9998432041057661,0.00024323407434314503
-0.42649086373712636,-0.42649086373712636,0.9999967554796403,0.00022015075389039004
-0.42606802294758384,-0.42606802294758384,1.00006849855681,0.00021819627682403557
-0.4255770739131549,-0.4255770739131549,0.9996075268696958,0.00022004033666199433
-0.425078414374002,-0.425078414374002,0.9998385298638187,0.00021881999781643907
-0.42467594822810495,-0.42467594822810495,0.9996550726064999,0.00021941331722967835
-0.4241106579582265,-0.4241106579582265,1.0000966037693613,0.00021807203749878553
-0.42374628942125125,-0.42374628942125125,1.0001399199585634,0.00021934838549098404
-0.42326962540246316,-0.42326962540246316,0.9998858808092793,0.00021938238550206694
-0.4226950291893445,-0.4226950291893445,1.0001623506294837,0.00021807465016538408
-0.4222002577065723,-0.4222002577065723,0.9998049537066359,0.0002180507538700983
-0.42153701038187136,-0.42153701038187136,0.9999169232990415,0.00021924349231926943
-0.4209648060699692,-0.4209648060699692,0.9999920018389723,0.00021863793050486965
-0.4204061066142458,-0.4204061066142458,1.0001174297371425,0.0002206568588346669
-0.4195946892010397,-0.4195946892010397,1.0002801083084372,0.0002345954535288269
-0.4192416822130326,-0.4192416822130326,0.9999215906045122,0.00022694521182249007
-0.4186690107082541,-0.4186690107082541,0.999954843208531,0.00022009504064204516
-0.41830494085807,-0.41830494085807,1.000258428548836,0.00022002208062051683
-0.41783144727087346,-0.41783144727087346,0.9997660389374896,0.00022056372414368497
-0.4175040467060171,-0.4175040467060171,1.0000928236252837,0.0002194203199999926
-0.4171097794045636,-0.4171097794045636,1.0000732269163168,0.00025816052410408306
-0.41668300869714586,-0.41668300869714586,1.000193097666836,0.0002207969499571986
-0.41631977654469665,-0.41631977654469665,1.0000113715872074,0.0002181200482908742
-0.41587286457506706,-0.41587286457506706,0.999588485641765,0.00021980334758534334
-0.4153765095717972,-0.4153765095717972,1.0000914852862892,0.00021885701233562553
-0.4150498625531327,-0.4150498625531327,0.9999780563607341,0.00022003363157367548
-0.41464982650868476,-0.41464982650868476,0.999987138177198,0.00021816060511025223
-0.4142369428103848,-0.4142369428103848,1.0002990962864828,0.00021688043116300002
-0.41369219707121374,-0.41369219707121374,0.9999213038118924,0.0002200828890457834
-0.41306129156655513,-0.41306129156655513,0.9998637363330254,0.00021864244924185645
-0.41247261085591164,-0.41247261085591164,1.0001941235688598,0.00021871880656559785
-0.4117395623405173,-0.4117395623405173,0.9998551759550965,0.00021866699425418458
-0.411140261667606,-0.411140261667606,1.0001482573687257,0.0002212128185145293
-0.4105729744398559,-0.4105729744398559,1.0000178038441354,0.00022004495942539115
-0.40990867735163194,-0.40990867735163194,1.0000647843240096,0.00021931358691467529
-0.4094855008741433,-0.4094855008741433,0.9997910228548532,0.00021934640526522753
-0.4089527761694626,-0.4089527761694626,0.9995984641802919,0.0002192957605783117
-0.4086073116224725,-0.4086073116224725,0.9999569772739623,0.00022068313110127337
-0.40825786550340126,-0.40825786550340126,0.9998198034611125,0.0002194184352069993
-0.4078562789451098,-0.4078562789451098,0.9998607453761776,0.00021940997390270197
-0.4074220448361302,-0.4074220448361302,1.0000792980709472,0.00021877698878736322
-0.4069497804819548,-0.4069497804819548,0.9994623776017428,0.00022071306654471265
-0.40655499277781926,-0.40655499277781926,0.9997789649985858,0.00021829113064263792
-0.40597501932861635,-0.40597501932861635,0.9999559439505161,0.00022013994733162162
-0.40559739529708166,-0.40559739529708166,1.0000259216871341,0.00021812331202698197
-0.405151359258889,-0.405151359258889,1.0000135861621107,0.0002181757063333177
-0.40465869275358274,-0.40465869275358274,1.0001534863735375,0.0002187245479946238
-0.40409775378429913,-0.40409775378429913,0.9998295343181042,0.0002194839090489909
-0.403527297002438,-0.403527297002438,0.9999088823606469,0.00021803085742613947
-0.40291163958027026,-0.40291163958027026,0.9999055083095516,0.00021939053637933512
-0.4023771674008458,-0.4023771674008458,0.9999891639164524,0.00022142959387653121
-0.4017102241625253,-0.4017102241625253,0.9999401555210838,0.00021934010516914235
-0.4010487525993085,-0.4010487525993085,1.0001056120262193,0.00022001999125949894
-0.40037363774390544,-0.40037363774390544,1.0002848355705252,0.00022005946605050926
-0.39992412481879,-0.39992412481879,1.0000168013051565,0.00021935182965169336
-0.3993396993515489,-0.3993396993515489,1.000323766711351,0.0002199159345475141
-0.3990031028079102,-0.3990031028079102,1.0000157490730524,0.0002194992294831803
-0.3985929327638587,-0.3985929327638587,1.0001390110277015,0.0002194096247169324
-0.39814784790432894,-0.39814784790432894,0.99986940763215,0.00021947549356664047
-0.39767177281173643,-0.39767177281173643,0.9999903117031689,0.00021880419309442287
-0.39699007267699926,-0.39699007267699926,0.9997532054683548,0.00021937682860485985
-0.39663227161727266,-0.39663227161727266,0.9996947384447228,0.00021880959187416333
-0.39611648981954206,-0.39611648981954206,1.000294359894418,0.0002187489158447798
-0.3957915363418579,-0.3957915363418579,0.9999697413872077,0.0002194229012188046
-0.3952488034534326,-0.3952488034534326,0.9999445196493202,0.00021816660560655264
-0.3947890836665465,-0.3947890836665465,0.9999385440483849,0.00021875633622348185
-0.39425672222059804,-0.39425672222059804,0.9997636370236723,0.00021995904744508588
-0.39367843022628224,-0.39367843022628224,0.9995821156306197,0.00021801969857347135
-0.3930111486763053,-0.3930111486763053,1.0001590821051356,0.00021804763509214946
-0.3922760027657205,-0.3922760027657205,0.9998399979554662,0.00021991971950517374
-0.39130193003948077,-0.39130193003948077,0.9998779863745769,0.0002254142114392379
-0.39069287403399355,-0.39069287403399355,1.0002632153054658,0.00021998714491235083
-0.3903397422458511,-0.3903397422458511,0.9999476651002108,0.00022169102282159717
-0.3897535581891134,-0.3897535581891134,0.9999404310305551,0.00021802435859934232
-0.3893639930858626,-0.3893639930858626,1.0002677567364402,0.00021945948184673745
-0.38894696535353435,-0.38894696535353435,0.9999676573472724,0.00024931972982411956
-0.38855105070615537,-0.38855105070615537,1.0000909056567762,0.00021942944265131696
-0.38818526045724866,-0.38818526045724866,1.0001674433841372,0.00021942079313538935
-0.3876161543885246,-0.3876161543885246,0.9995168043298476,0.00022001404844018647
-0.3872038636385696,-0.3872038636385696,0.9998646586464103,0.00021881345189411397
-0.38679213920768235,-0.38679213920768235,1.0001041433030653,0.0002194811430307008
-0.3862879987609631,-0.3862879987609631,0.9999788715835232,0.00021806061056225384
-0.3860201212213724,-0.3860201212213724,0.9998694744176259,0.00021916873024612073
-0.38551316839293576,-0.38551316839293576,1.0002179387295034,0.0002194508498334414
-0.38491792372005873,-0.38491792372005873,0.9997637425553135,0.00021869012801594784
-0.3843321080203168,-0.3843321080203168,0.9999822279050964,0.00021869601126959902
-0.383595793715358,-0.383595793715358,0.9999503637019801,0.00021863663986637681
-0.38305935159442017,-0.38305935159442017,1.000125825305638,0.00022000554618468418
-0.382411213015439,-0.382411213015439,1.0001817625781395,0.000219431705945736
-0.3817035186875728,-0.3817035186875728,0.9998319703707523,0.00021996132014251083
-0.3812341331205971,-0.3812341331205971,1.0002375744032146,0.00021966872137688353
-0.3807523101990228,-0.3807523101990228,1.000089658120498,0.00022027603000461497
-0.38025941719097317,-0.38025941719097317,0.9998455050800936,0.00022000937289196623
-0.3798850944716833,-0.3798850944716833,1.0001243513326212,0.0002200230963795949
-0.37945189740130447,-0.37945189740130447,0.9998488634472148,0.0002187563254148638
-0.37898351953481324,-0.37898351953481324,1.0003715548199719,0.00021951781590637227
-0.37853658976382576,-0.37853658976382576,0.9998853280605356,0.0002181132857528774
-0.3781655753795349,-0.3781655753795349,0.9996887301907919,0.00021999685778003046
-0.3775484850608336,-0.3775484850608336,0.9997923519665759,0.00021878418496021462
-0.3772313958412269,-0.3772313958412269,1.000021157531211,0.00021999831703172515
-0.37682260760921055,-0.37682260760921055,1.000059638646232,0.0002181156830580711
