time,time,flux,flux_err
-0.49993336412141315,-0.49993336412141315,0.9999523089560753,0.00019062624127632173
-0.4998054615055783,-0.4998054615055783,1.0000591247000168,0.0002150555934377608
-0.49961869477495685,-0.49961869477495685,0.9999834439121248,0.0002076285682089429
-0.4994200525979977,-0.4994200525979977,1.0001168247519046,0.00017465633754713426
-0.49931411337602183,-0.49931411337602183,1.0000806785539254,0.00018109839946978953
-0.49920823911743356,-0.49920823911743356,1.000225033199613,0.00018552966222050763
-0.4990733329635987,-0.4990733329635987,1.0000336116806037,0.00017953680154881858
-0.4989403802828747,-0.4989403802828747,0.999882352493892,0.00020203784255599838
-0.4987742769750184,-0.4987742769750184,1.000096245171666,0.0001813602350463726
-0.49860767144491547,-0.49860767144491547,1.0001485808074038,0.00017947294741211086
-0.49851854004882623,-0.49851854004882623,0.9998009619991131,0.00018121209194097728
-0.49842510514426974,-0.49842510514426974,1.0002102105042319,0.00018472570159237974
-0.4983400671968411,-0.4983400671968411,0.9999758537298457,0.00017206112710513834
-0.49819514650516794,-0.49819514650516794,1.00000746606193,0.00018973551923342298
-0.4980464948937879,-0.4980464948937879,1.0000146737432276,0.00020247807319672588
-0.4979556869948283,-0.4979556869948283,0.9999667261524638,0.00018273400337053016
-0.49779389719988104,-0.49779389719988104,0.9999363139313644,0.00018252620300680654
-0.4976879461064527,-0.4976879461064527,1.0000107376600647,0.00018120925982331842
-0.497596708357014,-0.497596708357014,1.0001378843272333,0.0001846440455584407
-0.4975153333012713,-0.4975153333012713,1.0002459048319572,0.00017201250289791621
-0.4973767440584197,-0.4973767440584197,1.0001567801293625,0.00018992602325472455
-0.49721958895897844,-0.49721958895897844,0.9999901276204219,0.00020377713514893996
-0.4971190591902996,-0.4971190591902996,0.9996637053115467,0.00018383064259003956
-0.496959352795966,-0.496959352795966,0.999950718208385,0.0001766406679742438
-0.4968620643267059,-0.4968620643267059,0.9998110061383612,0.0001778894981741993
-0.4967656353823259,-0.4967656353823259,0.9997741971714674,0.00017797991068626114
-0.4966848420466704,-0.4966848420466704,1.00007529346499,0.00018824846308279332
-0.4965224948253308,-0.4965224948253308,1.0000897271241491,0.00018770648058420242
-0.49636702964271534,-0.49636702964271534,1.000204527115862,0.0002081318256882347
-0.49623553232158885,-0.49623553232158885,0.9999506589784645,0.00018383403693028374
-0.49607025312579933,-0.49607025312579933,1.000196618644205,0.00017373071086852263
-0.4960236718005035,-0.4960236718005035,1.000065181841334,0.00017786376079164182
-0.49591768985483214,-0.49591768985483214,0.9997256956046426,0.00019202954690810255
-0.49584593756299,-0.49584593756299,1.0003389737034518,0.00018705359146465366
-0.4957033307749953,-0.4957033307749953,1.0002057304700094,0.00018787303062322896
-0.4955285155076126,-0.4955285155076126,1.000030629193105,0.0002105959039390773
-0.49538233140410737,-0.49538233140410737,1.000165129374164,0.00018436212845047588
-0.4952325579200988,-0.4952325579200988,0.999886110154056,0.00017326129762551174
-0.4951682599996275,-0.4951682599996275,0.9997065110568542,0.00018517409621341606
-0.4950523147475906,-0.4950523147475906,0.9999066178639413,0.00018576391133964636
-0.49496528184681665,-0.49496528184681665,1.0002665229278203,0.00019222484717519762
-0.49472384227628935,-0.49472384227628935,1.0003787039072676,0.00020871905661579718
-0.49459544876153816,-0.49459544876153816,1.000125629103137,0.00019392805146261678
-0.4944351136531623,-0.4944351136531623,0.9998002650272939,0.00016714474080020502
-0.4943682658129546,-0.4943682658129546,1.0000466781442379,0.00018405240467837765
-0.4942451284026902,-0.4942451284026902,0.9999445359126671,0.00017504060776478393
-0.494202450649027,-0.494202450649027,0.9997929308433917,0.00019159827850267916
-0.4940731088827306,-0.4940731088827306,0.9999383927581313,0.00017395540397129885
-0.4938900970126269,-0.4938900970126269,0.9999230611808937,0.00018638393715207082
-0.49372797495743725,-0.49372797495743725,1.0002126662488109,0.00018810213530317637
-0.49355040648661086,-0.49355040648661086,0.9995923210751834,0.0001811042440179222
-0.49344028197810985,-0.49344028197810985,0.9999539471771509,0.000180907293595282
-0.4933735064776556,-0.4933735064776556,0.9999151730894088,0.0001896949947561048
-0.49325309396954253,-0.49325309396954253,0.9997819475979819,0.00018407093812221174
-0.4931211478760815,-0.4931211478760815,1.000046545947942,0.0001869152388769073
-0.4929907134872337,-0.4929907134872337,1.0000700219702447,0.00018968133033710552
-0.4928603609841957,-0.4928603609841957,0.9998422192241264,0.0001782990025462771
-0.4927064715884626,-0.4927064715884626,0.9997712417664208,0.0001808972124601996
-0.4926168801219319,-0.4926168801219319,0.9998892248394853,0.0001808092886245053
-0.49251889920778924,-0.49251889920778924,1.000585698323931,0.00018996924070921673
-0.4923890211248363,-0.4923890211248363,0.9999436462317937,0.00019114305281767052
-0.4922218533669366,-0.4922218533669366,0.9998715823705006,0.00018431803474191246
-0.4921082380329608,-0.4921082380329608,0.9997968308896803,0.00019205862407911995
-0.4919736531985109,-0.4919736531985109,1.0000881098680556,0.00018118029969381818
-0.4918517567195522,-0.4918517567195522,0.9998096408117018,0.00018407882156089552
-0.49176784154551567,-0.49176784154551567,1.000209537476148,0.0001820596754819167
-0.4916503958120302,-0.4916503958120302,1.0001215525530143,0.00019870701237366468
-0.4914942831346707,-0.4914942831346707,1.000026584722295,0.00018795268483824546
-0.49128862073484925,-0.49128862073484925,0.9999840350627787,0.00018773007178470873
-0.4911431796841498,-0.4911431796841498,0.999981695963369,0.00017708240083027618
-0.4909984375553904,-0.4909984375553904,1.0000631744067872,0.0001877688183746467
-0.4908960663502512,-0.4908960663502512,1.0001122236447626,0.00018689086032593728
-0.4907738708403485,-0.4907738708403485,0.9998567413943101,0.00019143835704239998
-0.4905695961388119,-0.4905695961388119,1.0002120574453888,0.00018782295144829318
-0.4904139881116862,-0.4904139881116862,1.0000868302213082,0.00018484394860723152
-0.4902936432408751,-0.4902936432408751,1.0003082680093602,0.00017369667071172464
-0.4901656259011361,-0.4901656259011361,0.9999925321243174,0.00018790714081870223
-0.49003009565058164,-0.49003009565058164,0.9998636892074169,0.00018297695608315967
-0.48989763224017224,-0.48989763224017224,0.9998512823774801,0.00018814911080095216
-0.48969998195389053,-0.48969998195389053,1.000052450767388,0.00018367596742442237
-0.48955318891312344,-0.48955318891312344,1.0000508267489607,0.00018811002912117733
-0.4893678430875298,-0.4893678430875298,0.9999187667475364,0.0001868577804014819
-0.48927497908371154,-0.48927497908371154,0.999891330649619,0.00018343842011050583
-0.4891626954151434,-0.4891626954151434,1.0000682089940833,0.000181982192371796
-0.4890204800874926,-0.4890204800874926,1.0000710331204736,0.00019499851086657083
-0.4887849574712163,-0.4887849574712163,1.0000102738929564,0.00018651656931049638
-0.4886738419707399,-0.4886738419707399,0.9999592970048934,0.0001791487904503779
-0.488495552920358,-0.488495552920358,1.000066139049644,0.00018683608806864153
-0.48841843855771006,-0.48841843855771006,1.0000322287192336,0.00018623565057075144
-0.4882912993496575,-0.4882912993496575,1.000034372728397,0.0001859473235005838
-0.4881231226150703,-0.4881231226150703,0.9999688112275015,0.00019076163439039925
-0.4879037736187456,-0.4879037736187456,1.0000371922714855,0.0001873703635617246
-0.4877921423460066,-0.4877921423460066,0.9996488292831682,0.00017877981747731298
-0.4876536729447253,-0.4876536729447253,0.9999972419733651,0.00018005370093994826
-0.48761474362909213,-0.48761474362909213,1.0000790499588825,0.0001921687474869359
-0.48750092946283985,-0.48750092946283985,0.999884444005396,0.00018229154874879503
-0.4873754889253178,-0.4873754889253178,1.0000143741854433,0.00020277603886271418
-0.4872093267797027,-0.4872093267797027,1.0001224607598758,0.00018807540879921296
-0.4870702471729601,-0.4870702471729601,0.9997720755368285,0.00018667832929990133
-0.48690970658062727,-0.48690970658062727,0.9997919474850055,0.00017855495806109027
-0.4868077897655894,-0.4868077897655894,0.9998896864656455,0.00018371919331886067
-0.4867349799722433,-0.4867349799722433,1.000247617048901,0.00019244366900534005
-0.4866093953438394,-0.4866093953438394,0.9999446293974934,0.00018983974268346572
-0.4864407639797719,-0.4864407639797719,0.9999429370898655,0.0001868831622879898
-0.48626014820329144,-0.48626014820329144,1.0001072822429165,0.0001933817464271147
-0.48616072576842273,-0.48616072576842273,0.9998948843022099,0.00017866682908404815
-0.4859972939280851,-0.4859972939280851,0.9999039032629904,0.00018103702315042412
-0.4859510776848765,-0.4859510776848765,1.0001209080557034,0.00019126583741388192
-0.48582343064408634,-0.48582343064408634,1.000039005537027,0.00018678168508034514
-0.4857181542138278,-0.4857181542138278,1.0003036654100947,0.0001907499044121785
-0.4854725787328789,-0.4854725787328789,0.9997747944034995,0.00018740975217503144
-0.4853775717099779,-0.4853775717099779,1.0000850363482614,0.0001838554874146301
-0.4852308528410504,-0.4852308528410504,0.9998817321813537,0.00018372235042785954
-0.48513064263534034,-0.48513064263534034,0.9998179977215264,0.00018403485727369793
-0.48506467157858424,-0.48506467157858424,1.000342010609378,0.00018864919026725832
-0.4849635624581424,-0.4849635624581424,0.9998031575495496,0.0001895021671983529
-0.4847976906785334,-0.4847976906785334,1.0001348104843502,0.00019458694492895058
-0.4846495786398009,-0.4846495786398009,0.99982173578155,0.00018426741113441438
-0.4845437318967015,-0.4845437318967015,0.9999713318397891,0.00018698692489227988
-0.48446515371906573,-0.48446515371906573,1.0001269137973945,0.00018034383230926019
-0.4843663749677944,-0.4843663749677944,0.9996887845362241,0.00018183862266784128
-0.4842981068555673,-0.4842981068555673,1.0001145980969777,0.0001833191251358912
-0.4842120689158037,-0.4842120689158037,0.9999664314278783,0.0001924343704088637
-0.48412034301582024,-0.48412034301582024,1.0001613817832449,0.0001841483281551508
-0.4839055705931969,-0.4839055705931969,1.0000608705189036,0.00018770596033589076
-0.4837460478185676,-0.4837460478185676,1.0000322571293998,0.00019025804639822614
-0.4836868555023102,-0.4836868555023102,1.0002920701762177,0.00018451191288175304
-0.483604388092499,-0.483604388092499,1.0001039389203963,0.00017686174527155234
-0.4834937891930167,-0.4834937891930167,0.9999969289123978,0.00018441188156319245
-0.48341888811046374,-0.48341888811046374,1.000212693027392,0.00019972697888478373
-0.48332135823729916,-0.48332135823729916,0.9998313731819255,0.00018276484469148215
-0.4832152522278193,-0.4832152522278193,1.000101518600062,0.00019111188817373936
-0.48299661363780616,-0.48299661363780616,1.000067945067735,0.00018750931900564288
-0.48286456798668953,-0.48286456798668953,0.9998901863450357,0.0001878043962156627
-0.4827694028623227,-0.4827694028623227,0.9999928417753304,0.0001719198386026006
-0.4826670141897921,-0.4826670141897921,0.9997960933142341,0.00018481824007193011
-0.4825831471127458,-0.4825831471127458,0.9998334227349371,0.00019998484712993058
-0.482482170266303,-0.482482170266303,1.0000196923551647,0.0001852867095185362
-0.48233988469510225,-0.48233988469510225,1.0000781293592795,0.00018691471981133068
-0.48219689797842874,-0.48219689797842874,1.0000121018902415,0.00019297552535752993
-0.48203668988207937,-0.48203668988207937,0.9999873573615978,0.0001905957758715073
-0.4819449298505788,-0.4819449298505788,0.9997653170700384,0.0001786484131617953
-0.48184026799353885,-0.48184026799353885,0.9999784061678039,0.00018526805891763018
-0.4817474280600436,-0.4817474280600436,0.9999731321017116,0.00020060845089361884
-0.4816704611519526,-0.4816704611519526,0.9998049322645036,0.00017848045800988228
-0.48160111338074785,-0.48160111338074785,0.9999645348350821,0.00017864604618968513
-0.4814643573598005,-0.4814643573598005,1.00004465253769,0.0001918369202243431
-0.4813305818286608,-0.4813305818286608,0.9999269303987663,0.00019136929021129528
-0.4812047627041466,-0.4812047627041466,0.9999134961972718,0.00018089027761005299
-0.4811216356465593,-0.4811216356465593,0.9999765038109272,0.00018577486634453622
-0.48098907690509807,-0.48098907690509807,1.0000243787089353,0.00018655470181964473
-0.4808945788383426,-0.4808945788383426,1.0001297055225056,0.00019970691611903625
-0.4808134934028203,-0.4808134934028203,0.9998904928893154,0.00017759475028661847
-0.48074170994077575,-0.48074170994077575,0.9999164757556132,0.00018034969645240825
-0.4805746036225173,-0.4805746036225173,0.9997322272835604,0.00019318931656650624
-0.4804239784432866,-0.4804239784432866,1.000202029460133,0.00018470562359703592
-0.4803389116357721,-0.4803389116357721,0.9999709577421335,0.00018406245463848173
-0.48022356920482706,-0.48022356920482706,0.9996968912444484,0.00018567040715011552
-0.4800687248061877,-0.4800687248061877,1.000034241756993,0.00019570191999036048
-0.48001316877416683,-0.48001316877416683,1.0000047980202444,0.0001891431546262945
-0.4799484787406982,-0.4799484787406982,0.9999839856909641,0.0001829195290517359
-0.47983950106427076,-0.47983950106427076,0.999817085248196,0.0001874507296917574
-0.47969210629671577,-0.47969210629671577,1.0001565675450785,0.00018343746969545075
-0.47956328724321795,-0.47956328724321795,1.0002586766622534,0.0001842160491410396
-0.479474651820783,-0.479474651820783,1.0001735515212464,0.00018087310753454666
-0.4793963076830551,-0.4793963076830551,0.9998704104841115,0.00018570599149883644
-0.47922198042142555,-0.47922198042142555,0.9999327561812036,0.00018676200721429902
-0.47915506866556823,-0.47915506866556823,0.9997702441563323,0.00018520798042472437
-0.47910833982605255,-0.47910833982605255,1.0000648809867123,0.00018236127880715157
-0.47897622499149295,-0.47897622499149295,0.9999873165235508,0.00018731983388978188
-0.4788065611843194,-0.4788065611843194,0.9999850817190771,0.0001794109737692077
-0.4787081904934894,-0.4787081904934894,0.9999581861845522,0.00018085525809617573
-0.47863883842073845,-0.47863883842073845,0.9998896844617733,0.0001883014747524983
-0.4784912864190119,-0.4784912864190119,0.9996178108506528,0.0001817114490521925
-0.4783796115334553,-0.4783796115334553,0.9999836661333699,0.00018388926878519632
-0.4783123113498732,-0.4783123113498732,0.9998581176714962,0.00018753904085693504
-0.47825366861434304,-0.47825366861434304,1.0001178224910139,0.00018439456328986936
-0.47809837576787684,-0.47809837576787684,1.0000094294438546,0.00018777564613834527
-0.47795324313265153,-0.47795324313265153,1.0002899030598684,0.00017965580280463302
-0.47786954615366994,-0.47786954615366994,1.0000358845594577,0.0001810682618273077
-0.47779484500060787,-0.47779484500060787,1.0001326107975728,0.00019231119327512507
-0.4776461293484317,-0.4776461293484317,1.0000286239237917,0.00017707366611801906
-0.47754294449696316,-0.47754294449696316,1.0001939201631749,0.00018504835677886144
-0.4774672635736351,-0.4774672635736351,1.0000283216535049,0.00018371124187581655
-0.47739353745710106,-0.47739353745710106,0.9998980985774537,0.00018814209796054094
-0.477246903096966,-0.477246903096966,1.0003541991949276,0.00018961818591855108
-0.4770886753460218,-0.4770886753460218,0.9999157825360756,0.0001741283943391888
-0.47702077815920346,-0.47702077815920346,0.9999288979148989,0.00018541643294797135
-0.4769023239328817,-0.4769023239328817,1.0000847470420617,0.00019641134403963143
-0.47675921308400576,-0.47675921308400576,1.0000678844958544,0.0001881467640610256
-0.476670688395825,-0.476670688395825,0.9998332689494338,0.00017387393585850702
-0.4766166950648767,-0.4766166950648767,1.0001079653421114,0.00018630910463627448
-0.47649287804888446,-0.47649287804888446,0.9999233311703188,0.00017707585419646753
-0.47637275480883545,-0.47637275480883545,1.0000952292093541,0.00019002861299521144
-0.4762480825687817,-0.4762480825687817,0.9998692905173764,0.0001776941518686691
-0.47615399062269714,-0.47615399062269714,0.9998128845012293,0.00019431512693319087
-0.47601887627824907,-0.47601887627824907,1.000078552212294,0.00019011906489159344
-0.4758722249061975,-0.4758722249061975,0.9998350613484648,0.00018009323764889775
-0.475800485079526,-0.475800485079526,1.0000476727971928,0.00018433123655101815
-0.47566270758543394,-0.47566270758543394,0.9998372217109139,0.00018060132430046115
-0.4755007898529584,-0.4755007898529584,0.9997495120156445,0.00018318183606516006
-0.47540339537590626,-0.47540339537590626,0.9998771022955986,0.0001767873124008204
-0.47529027474811303,-0.47529027474811303,1.0001340880410052,0.00019787906649115444
-0.47519326442634335,-0.47519326442634335,0.9998005581327648,0.000190120805206547
-0.4750315266850521,-0.4750315266850521,0.9999268234125266,0.00017984478047297362
-0.47490037885218045,-0.47490037885218045,1.0000667503633653,0.00018208178673384943
-0.47471317582239864,-0.47471317582239864,0.9999775283846397,0.00018921458003463024
-0.4745705703891872,-0.4745705703891872,0.9997463540718947,0.00018097103350103692
-0.47442537530587287,-0.47442537530587287,0.9997553094653118,0.00020172461224198597
-0.4743004994568764,-0.4743004994568764,1.0000875278950534,0.00018407023261614932
-0.47417616608945534,-0.47417616608945534,0.9998832227049992,0.00017900503280959866
-0.4740639227173233,-0.4740639227173233,1.0000235016761234,0.00018791640143462723
-0.4738815997385245,-0.4738815997385245,0.9999023462562396,0.00018942197211126884
-0.47372586558703916,-0.47372586558703916,1.0000290994789536,0.00018696109568436896
-0.47356523938360623,-0.47356523938360623,1.0001431413562003,0.00018828840387251987
-0.4734865254766191,-0.4734865254766191,0.9999376977432662,0.00017366441743534068
-0.473353188821784,-0.473353188821784,0.9998680215808256,0.0001787726578769979
-0.47322342405386736,-0.47322342405386736,1.00006414232024,0.00018659309146566548
-0.47306926240562464,-0.47306926240562464,0.9999411765664338,0.00018277103989019288
-0.47293104902346383,-0.47293104902346383,0.9999237809485815,0.00018707041614045059
-0.4728093421275844,-0.4728093421275844,1.0000438576055193,0.00018915678670412454
-0.4727165961478022,-0.4727165961478022,0.9997330832189583,0.00018815305186961905
-0.4725986263627419,-0.4725986263627419,0.999805549378771,0.00017450193522665044
-0.4724401975166984,-0.4724401975166984,1.000100513290498,0.00018794430314609444
-0.4723026426989236,-0.4723026426989236,1.000236804800852,0.0001827724739339357
-0.47216489024431213,-0.47216489024431213,0.9999469494462623,0.0001838271780534337
-0.47206030555462347,-0.47206030555462347,0.9999535395156537,0.00018482552200415361
-0.4719692778358876,-0.4719692778358876,1.0001619450032784,0.00019683649130819545
-0.47185905761361935,-0.47185905761361935,0.9999982528138724,0.00019086567374271615
-0.47168303589642163,-0.47168303589642163,0.9999457069643991,0.00018212022734164155
-0.4715177507889166,-0.4715177507889166,0.9999658504853194,0.00018663164127684362
-0.4713755511584168,-0.4713755511584168,0.9998776024277417,0.00018935350685044957
-0.4712486997639644,-0.4712486997639644,1.0002321182843115,0.00019265623459383406
-0.47112298101274064,-0.47112298101274064,1.0002223204327874,0.0001904202563833782
-0.47100441911097735,-0.47100441911097735,1.0001045652060097,0.00018798435529878338
-0.4707261111696425,-0.4707261111696425,0.9998838871334017,0.00018948855642700736
-0.47056567846884717,-0.47056567846884717,0.9998752687473311,0.00019174803432217972
-0.47041786682821113,-0.47041786682821113,0.9999758487266577,0.00019275239165740752
-0.47029045780218437,-0.47029045780218437,0.9999272055619661,0.00019045108850938503
-0.4701724997590645,-0.4701724997590645,0.9998573158252035,0.00018799090640267055
-0.469937258324353,-0.469937258324353,1.0001095853588435,0.0001806116194876359
-0.46981874183329636,-0.46981874183329636,0.9999390977269108,0.00018362004393964604
