time,time,flux,flux_err
-0.4996101492943126,-0.4996101492943126,1.0001612531034414,0.00025588328867469547
-0.49933132121259405,-0.49933132121259405,0.9999275033702563,0.0002848554255406268
-0.499151688956772,-0.499151688956772,0.9997795172998991,0.0002530162252003482
-0.4988556135023828,-0.4988556135023828,0.9999660562370055,0.00024074426321639577
-0.49844702444024735,-0.49844702444024735,0.9999911601916557,0.00024029748021547076
-0.498303713669884,-0.498303713669884,1.0003564097035853,0.0002368163785110101
-0.49807810866404906,-0.49807810866404906,0.9998820166042239,0.00023143681705868965
-0.4978167133005627,-0.4978167133005627,1.0000987538620534,0.00023451884136772315
-0.4976261846786656,-0.4976261846786656,0.9999028380676958,0.0002542645289001589
-0.4973953994674957,-0.4973953994674957,0.9998865708189376,0.0002455932651285363
-0.49719009751061094,-0.49719009751061094,1.000120059362287,0.00024071999825651838
-0.49698117037914924,-0.49698117037914924,0.9998811807764346,0.000258358708405008
-0.49651736286250525,-0.49651736286250525,0.999945842589782,0.00025851547083514546
-0.49610843246991865,-0.49610843246991865,0.9998026264517884,0.0002464060411394012
-0.49591746464720926,-0.49591746464720926,0.9998114900017233,0.0002597116911081434
-0.49574786079610933,-0.49574786079610933,1.0000070329433977,0.00023285084652216096
-0.4955017172556836,-0.4955017172556836,0.9997238671007894,0.00024245598729733756
-0.4953737937627011,-0.4953737937627011,1.000251917313892,0.0002563486021061506
-0.495065913353028,-0.495065913353028,1.0000188885705028,0.00023642956806834196
-0.49481989990745207,-0.49481989990745207,0.9999398655520004,0.00024700688030513513
-0.4946681582165183,-0.4946681582165183,0.9997817461753298,0.00026627514885971205
-0.4942411853844533,-0.4942411853844533,0.9997959916582643,0.0002612761762189802
-0.4938468005231698,-0.4938468005231698,1.0000004999684955,0.00023682391800267823
-0.4936246118406416,-0.4936246118406416,0.9996633774286131,0.000228026074300415
-0.493426314995304,-0.493426314995304,1.000178143975249,0.00024627304438527375
-0.49303165631790763,-0.49303165631790763,0.9998575865661815,0.00024378105973487453
-0.49276158668799325,-0.49276158668799325,1.000214260588497,0.0002419279974424478
-0.49244930908098467,-0.49244930908098467,1.0000626287326482,0.00025562050984322804
-0.492148203105171,-0.492148203105171,0.9999837534706033,0.00024801290016640044
-0.49177778816083445,-0.49177778816083445,1.0000688540767784,0.0002470204776914665
-0.49163647761088214,-0.49163647761088214,0.9997865575111631,0.0002492593130694428
-0.49146530132566113,-0.49146530132566113,0.9999699823245608,0.0002340780460919097
-0.49106555244070477,-0.49106555244070477,1.0000603808377186,0.0002457361010660335
-0.490696314204979,-0.490696314204979,1.0003661512200528,0.0002514308207063725
-0.49054884016150024,-0.49054884016150024,0.9997993752500939,0.0002296426252689331
-0.49026988542755134,-0.49026988542755134,1.0001458688774703,0.00023773505831327845
-0.49014689435935,-0.49014689435935,0.9996764608188007,0.00022962040697631177
-0.48988836413191167,-0.48988836413191167,1.0001104369486398,0.00026854655004081513
-0.4896914665681834,-0.4896914665681834,1.0002782237198569,0.00022628883987373737
-0.4894298731283925,-0.4894298731283925,0.9996405389101927,0.0002412398716820911
-0.48916479296894977,-0.48916479296894977,1.0001207996381316,0.00026283770599949425
-0.48888877748613596,-0.48888877748613596,0.9997508319192949,0.00025385094378333747
-0.48849844945361837,-0.48849844945361837,0.9999885102759845,0.00024491544955077633
-0.48825059129303555,-0.48825059129303555,0.9999817076952262,0.0002479068459501198
-0.48809894410951526,-0.48809894410951526,0.9999734129593743,0.0002337757447517136
-0.48784961456549353,-0.48784961456549353,0.9999320445677562,0.0002385487590136487
-0.4876936349515745,-0.4876936349515745,0.9999972561349798,0.0002645696899608293
-0.4874166926885664,-0.4874166926885664,1.0003589569884643,0.00024211532032631682
-0.4871678977906413,-0.4871678977906413,0.9997964629872147,0.00024446576308694305
-0.48702057101982066,-0.48702057101982066,0.9998349912775307,0.00027200758082397155
-0.48653099731745897,-0.48653099731745897,1.0001196194950261,0.00024216023683977728
-0.48625266798771916,-0.48625266798771916,1.0002248352602152,0.00022638429265718933
-0.48605195705167714,-0.48605195705167714,0.999822616794787,0.00024090974582363238
-0.4858242494643491,-0.4858242494643491,0.9997849958903368,0.00024324553960280507
-0.4853873022751941,-0.4853873022751941,1.0004988532750247,0.00024669967488139764
-0.4851105945643212,-0.4851105945643212,0.999707804081344,0.00024186379293235973
-0.48478810133165096,-0.48478810133165096,0.9999590030704086,0.000270268030661292
-0.4845230072365666,-0.4845230072365666,0.9999070250781573,0.00023353032031938058
-0.4840995078229753,-0.4840995078229753,0.9998402520132774,0.00024943892831648265
-0.48390888998110315,-0.48390888998110315,0.9999831099015208,0.00025840316975157633
-0.48339125188140314,-0.48339125188140314,1.0000318199752751,0.0002484580195176423
-0.483015897351288,-0.483015897351288,1.0000946795045098,0.00023939462354781137
-0.482742798786785,-0.482742798786785,0.9998171316080262,0.0002304108514016149
-0.48242751876750845,-0.48242751876750845,1.0001726918358897,0.0002553526869826952
-0.482146273933904,-0.482146273933904,1.0000687589891997,0.00023674940797190706
-0.48192483752718546,-0.48192483752718546,1.0003049513754054,0.0002255323243614194
-0.4817465021616954,-0.4817465021616954,0.9999191736429145,0.00024168509081058128
-0.48156872666368145,-0.48156872666368145,0.9998739562501004,0.0002644483022918309
-0.4812555602824432,-0.4812555602824432,0.9999457437618725,0.0002467511426517873
-0.48085537884398943,-0.48085537884398943,1.0000326112670426,0.0002334173942117095
-0.48058276025331,-0.48058276025331,0.999908320864518,0.0002639774861710996
-0.4803080318590219,-0.4803080318590219,1.0002703073338732,0.00023736240110984805
-0.48011973453540124,-0.48011973453540124,1.0000768860395486,0.0002596702943743393
-0.479866811921238,-0.479866811921238,1.0003068207179058,0.00023419523736086415
-0.47956491668228407,-0.47956491668228407,1.0001837983159012,0.00024039074070058756
-0.4793895311806409,-0.4793895311806409,1.0002846487829917,0.0002794261302105847
-0.4791380446658877,-0.4791380446658877,0.9996428729367841,0.0002306732373926666
-0.47877473456101144,-0.47877473456101144,1.0001397492795054,0.00025337605370052095
-0.4786306409718236,-0.4786306409718236,1.0000594948148445,0.00023065615823390133
-0.47850280046550325,-0.47850280046550325,1.0004170712454108,0.0002334486400385815
-0.47830769741194673,-0.47830769741194673,1.0001376270246942,0.0002470512026346726
-0.4779679212042538,-0.4779679212042538,0.9999981090895854,0.0002289447925090444
-0.47762812720538933,-0.47762812720538933,1.000224944778195,0.0002529431314361035
-0.4772925844445126,-0.4772925844445126,0.9997264812786415,0.0002538737468447987
-0.4770804124964343,-0.4770804124964343,0.9997929846529618,0.000262767079861879
-0.47669080196210417,-0.47669080196210417,1.0002266372709543,0.0002265835553924149
-0.47638022467435803,-0.47638022467435803,0.9999265794214687,0.0002699595245723996
-0.4758838937530527,-0.4758838937530527,1.0000055604658311,0.0002530761876879477
-0.4753240890764573,-0.4753240890764573,1.0002855895074918,0.00023503214722899536
-0.4749535032911808,-0.4749535032911808,1.0000248294881215,0.0002261465380339551
-0.47466360332909974,-0.47466360332909974,1.000115366814096,0.0002620883268978739
-0.4744718406735046,-0.4744718406735046,0.9999935222356461,0.0002408255587135287
-0.4741885773735703,-0.4741885773735703,0.9996054111996422,0.00024594113178053577
-0.47384548844493113,-0.47384548844493113,1.0001995589454986,0.0002911361500188633
-0.4734344163276546,-0.4734344163276546,1.0002873779476122,0.00023325528646143566
-0.47304229735964326,-0.47304229735964326,1.0000069924445436,0.0002337365265346883
-0.4729033234732924,-0.4729033234732924,1.0001909240022608,0.00026033647426241386
-0.47271627417212586,-0.47271627417212586,0.9998196881796652,0.00021954318476654716
-0.4724610903103894,-0.4724610903103894,1.0001258950943717,0.0002621138154498668
-0.472177569258929,-0.472177569258929,0.9999594773698941,0.00023287734463468446
-0.4719539402598457,-0.4719539402598457,1.000049226966479,0.00023549749368459617
-0.47174071565750636,-0.47174071565750636,1.0001505204344556,0.00026260200892794564
-0.471434366851463,-0.471434366851463,0.9999350107558754,0.00023428252039778825
-0.47116960036728417,-0.47116960036728417,1.0001634847578456,0.0002564025460148554
-0.4710056784504559,-0.4710056784504559,0.9999082279585574,0.00022243634383256207
-0.4709017301684071,-0.4709017301684071,0.9997386194673415,0.0002308180582801288
-0.47072928903944555,-0.47072928903944555,1.0001878896692462,0.0002503884987883935
-0.47035288880797455,-0.47035288880797455,0.9997950879151979,0.0002536475045550342
-0.4699758754031791,-0.4699758754031791,1.0001718173001475,0.00025288348517657
-0.4696443654866016,-0.4696443654866016,1.0000361121579855,0.000241461437010048
-0.46941334381044725,-0.46941334381044725,0.9998893897426026,0.00027000546901281884
-0.46905537539787473,-0.46905537539787473,0.9998593857157191,0.00022702770971766645
-0.4687282615581353,-0.4687282615581353,1.0001553014083187,0.00026984012663410097
-0.46841669461282437,-0.46841669461282437,0.9998714739160592,0.0002529198219171153
-0.46794778100666007,-0.46794778100666007,0.9998727812193178,0.0002190844078862755
-0.4676239177308162,-0.4676239177308162,1.0000630906687342,0.0002326893474050179
-0.4673257585753163,-0.4673257585753163,0.9998814909822226,0.00023361629156526804
-0.4670874374292907,-0.4670874374292907,0.9997830557175664,0.0002555063846377428
-0.4668259666956146,-0.4668259666956146,1.0000794621008582,0.0002405093515154725
-0.4665673994633835,-0.4665673994633835,0.9998466809461147,0.00023983428873899535
-0.46624772719078467,-0.46624772719078467,1.0000915698901998,0.0002815635726012674
-0.4658992150827544,-0.4658992150827544,1.000110999506213,0.00025370464210368543
-0.4654818435512425,-0.4654818435512425,0.9999711804725223,0.00027378984077594743
-0.4653222767716215,-0.4653222767716215,0.9999600090699025,0.0002467659787670308
-0.46516840214899274,-0.46516840214899274,1.0002145648024698,0.00024289216632946553
-0.46494538983606615,-0.46494538983606615,1.0000231690448935,0.00025227089258328254
-0.46471756183891555,-0.46471756183891555,1.0000725304234128,0.0002473160776082621
-0.4645316875190474,-0.4645316875190474,0.9999404405069285,0.0002244305364277623
-0.464333522340894,-0.464333522340894,0.9998484271873762,0.00023289824519172423
-0.46414259407974895,-0.46414259407974895,1.0004082585704437,0.0002570290311841002
-0.46387880901747847,-0.46387880901747847,1.000193890227023,0.0002428156895102368
-0.46357058554858666,-0.46357058554858666,1.0004972952815727,0.000245287177236336
-0.4634043944264704,-0.4634043944264704,0.9999057843529922,0.00024045717194321725
-0.4633152367394359,-0.4633152367394359,0.9997599580825067,0.00024269258788379525
-0.46312296603937286,-0.46312296603937286,1.0001773143467125,0.00024607514832105157
-0.4627153575325792,-0.4627153575325792,0.9998933410485394,0.00023935376421563493
-0.4623685581042082,-0.4623685581042082,1.0000053765372319,0.00024871541765370393
-0.4620851771222078,-0.4620851771222078,0.9999375072670953,0.00024232892913935176
-0.46185705575408065,-0.46185705575408065,0.9996738253702147,0.00025857881180111215
-0.4616621574823512,-0.4616621574823512,1.000094312313762,0.00024001545863458216
-0.4613485188885534,-0.4613485188885534,0.9998952473705343,0.00022470632734615282
-0.4610978810174856,-0.4610978810174856,0.9999480882073721,0.00025553974602507835
-0.46084535340050936,-0.46084535340050936,0.9998669888619478,0.0002549149711691431
-0.46059001649991843,-0.46059001649991843,0.9999289336879693,0.0002566545152384384
-0.4601391500327736,-0.4601391500327736,0.9999342067265694,0.00023128232873341064
-0.4598620038952504,-0.4598620038952504,0.9998705429677365,0.00022558420251838853
-0.45957449976049247,-0.45957449976049247,1.0000419289768048,0.00023384898619685886
-0.4593162696248328,-0.4593162696248328,1.0002110431731057,0.0002520008480216798
-0.4591318281076383,-0.4591318281076383,0.9995861865161331,0.00024401204770134048
-0.45890338215685916,-0.45890338215685916,0.9999804020618326,0.00024229969008567515
-0.4585900828540616,-0.4585900828540616,1.0003229085941467,0.00028428967771454894
-0.4581941939482931,-0.4581941939482931,1.000001104481078,0.00025023324668077394
-0.45778281717284697,-0.45778281717284697,1.0000017552359215,0.000255544776687667
-0.4576394406183681,-0.4576394406183681,0.9999065230026011,0.00024736310347794855
-0.4575154743892199,-0.4575154743892199,0.999890422869399,0.0002576616948430196
-0.457288302048255,-0.457288302048255,1.0001739693013785,0.00024108530778847416
-0.45699297797109467,-0.45699297797109467,1.0003230940483456,0.0002444811537185418
-0.45679067232777015,-0.45679067232777015,0.9999196589574224,0.0002360152292472978
-0.4565732566603401,-0.4565732566603401,0.9999562972215628,0.0002372682070042802
-0.45637978871600354,-0.45637978871600354,1.0001406058263367,0.00025556190542173646
-0.45609215746226256,-0.45609215746226256,0.9993470302725953,0.00023693222212673197
-0.4558865580584097,-0.4558865580584097,1.0001767406347377,0.00025620346042444904
-0.4557146314487909,-0.4557146314487909,0.9997592833387644,0.00023896282612046135
-0.45557593240228017,-0.45557593240228017,1.0000315287783832,0.0002283919142258513
-0.4553047428838909,-0.4553047428838909,0.9999839415060903,0.00026707547479767234
-0.45491344367110287,-0.45491344367110287,0.9994864425276303,0.00023040199769877237
-0.45466383864404636,-0.45466383864404636,0.9997613629914627,0.00025425046747197435
-0.45438131719856756,-0.45438131719856756,1.0001749570941907,0.00023890292890105664
-0.4541054085784708,-0.4541054085784708,1.0000659499562203,0.0002713263028434108
-0.45390590579045237,-0.45390590579045237,1.0001718303486022,0.000222399623432378
-0.45348865022169776,-0.45348865022169776,1.0001658554870418,0.00025387200013191015
-0.45328555577507357,-0.45328555577507357,1.0000623794618226,0.00024499015177174095
-0.4530716380664671,-0.4530716380664671,1.0001310929477678,0.00025092187754404565
-0.4526176110841334,-0.4526176110841334,1.0000629569057513,0.00022646602484846504
-0.45237023178342495,-0.45237023178342495,1.0004728760297545,0.00023265809297895926
-0.4521552091857302,-0.4521552091857302,0.9998030989723488,0.0002234036364526674
-0.4517868527866085,-0.4517868527866085,0.999803884291223,0.0002466597319085999
-0.45154600928217403,-0.45154600928217403,1.0003826751409952,0.00023085096581912409
-0.4513969211096992,-0.4513969211096992,0.9999762731263196,0.0002442771966568808
-0.4511730634192645,-0.4511730634192645,1.0000446334593414,0.00025283055883517736
-0.45088918787078003,-0.45088918787078003,1.0000470844250269,0.0002860975262840776
-0.4505575653653068,-0.4505575653653068,1.0003439889343675,0.00024506358974574064
-0.4502689652312256,-0.4502689652312256,0.9998950230913612,0.00023750899742427028
-0.450062373594119,-0.450062373594119,0.9998314341825317,0.0002561073739510466
-0.4499140413114219,-0.4499140413114219,1.0001532068820187,0.0002472328550735919
-0.4497805059305392,-0.4497805059305392,1.0000496657359172,0.00023560170492858203
-0.4494950790940493,-0.4494950790940493,1.000171262725496,0.000261608922232221
-0.4492640239572211,-0.4492640239572211,0.9994760512982044,0.00022907774997117414
-0.4489481269949465,-0.4489481269949465,0.9996191863091995,0.00023774601175199366
-0.4487278616958065,-0.4487278616958065,1.000058553324477,0.0002614909938048998
-0.44844184784960817,-0.44844184784960817,0.9996909062804334,0.00023467889804957822
-0.44824241076712495,-0.44824241076712495,0.9998572833924545,0.00025418663935041863
-0.4480801406745741,-0.4480801406745741,0.999978984031736,0.00023847524474029285
-0.4479006147143082,-0.4479006147143082,1.000100355537636,0.00023298215223040898
-0.44757873823618866,-0.44757873823618866,1.0002299128150933,0.00026328710679415323
-0.4472116171993548,-0.4472116171993548,1.0000265523216167,0.00023738955133501926
-0.4469745536116534,-0.4469745536116534,0.9999917465202058,0.00024686244291623487
-0.44671537604735934,-0.44671537604735934,0.9999642251883747,0.0002367938424000156
-0.4464493923602276,-0.4464493923602276,1.0000490175950096,0.0002702049298818004
-0.4463740160077577,-0.4463740160077577,1.000135597203947,0.00022385387558307863
-0.4459964772904641,-0.4459964772904641,1.0000079351596292,0.0002324346855485139
-0.4457868279365357,-0.4457868279365357,0.9997934415922218,0.0002570648609089131
-0.445589066993125,-0.445589066993125,0.9997930198305947,0.0002471454798599735
-0.44526470598430024,-0.44526470598430024,1.0000647006075423,0.0002448565121641151
-0.4449105718442297,-0.4449105718442297,1.0002899918433534,0.0002297697018965871
-0.4447413833004248,-0.4447413833004248,0.9997213919136001,0.00022556610730067474
-0.4445759416390501,-0.4445759416390501,0.9998776460009292,0.0002304383150650889
-0.44419460429562607,-0.44419460429562607,0.9999704873315846,0.00023317649910862726
-0.44388435024302453,-0.44388435024302453,1.0000671167767823,0.00026145787138046674
-0.4436956794357684,-0.4436956794357684,0.9997334171998373,0.0002304167871750491
-0.4434386394197645,-0.4434386394197645,1.0000407670656244,0.00025777962238457695
-0.44299409230443415,-0.44299409230443415,0.9997153166635073,0.0002470451202347975
-0.44263557617523475,-0.44263557617523475,0.9998117466702109,0.00024104579636043843
-0.4423771835550724,-0.4423771835550724,1.0000467766929422,0.00025009008503752543
-0.442204573869094,-0.442204573869094,0.9997553685503038,0.00025828517234275023
-0.4419798364309827,-0.4419798364309827,0.999973966974929,0.0002390077257838702
-0.4417398328783747,-0.4417398328783747,0.9999523942442519,0.0002476965504235324
-0.4414674188301433,-0.4414674188301433,0.999802558659276,0.00022883512757717085
-0.4411669292348961,-0.4411669292348961,1.000193194531978,0.00023983292819163858
-0.4409245019996888,-0.4409245019996888,1.0002163082878723,0.00025790464532116574
-0.4407808529271279,-0.4407808529271279,0.9997662885570382,0.0002502709100189012
-0.4406367916781164,-0.4406367916781164,1.0001243730621279,0.00024064611880468306
-0.44042444179358425,-0.44042444179358425,1.0001449229412664,0.000255597508254523
-0.44018345637814493,-0.44018345637814493,1.0000088433305947,0.00024710978187722813
-0.43982519313649393,-0.43982519313649393,1.0001403921130831,0.0002329425593675833
-0.43954956962697905,-0.43954956962697905,0.9998106033602872,0.0002354261678574325
-0.43932623789442005,-0.43932623789442005,1.0004266858861626,0.00025315612712592647
-0.43904932074729003,-0.43904932074729003,0.99967686362962,0.00023440820669520178
-0.43880169461335755,-0.43880169461335755,0.9997469897429092,0.00023948063716550133
-0.4387406649882905,-0.4387406649882905,0.9999456609138193,0.0002550720486286551
-0.4384137603090494,-0.4384137603090494,1.0000121521863479,0.0002273595279331888
-0.4381196721449669,-0.4381196721449669,1.0004265252126652,0.00025658070692259345
-0.4379796221801371,-0.4379796221801371,0.9999675083889494,0.00024206026632371162
-0.4378051549596421,-0.4378051549596421,1.0000074787459294,0.0002396424912848545
-0.43739223491502344,-0.43739223491502344,0.999872932508999,0.0002437808565198974
-0.43711046623502625,-0.43711046623502625,1.0001408149157414,0.0002328082151653355
-0.43687310982277267,-0.43687310982277267,0.9994381184559528,0.00022797959146151435
-0.43660203262916186,-0.43660203262916186,0.9999773953776089,0.0002335699385294108
-0.43632157634638136,-0.43632157634638136,1.0005180013878614,0.00024216497377973944
-0.4361167033748643,-0.4361167033748643,0.9999326209652759,0.00024408650298897105
-0.4360003039626463,-0.4360003039626463,1.0002500993399892,0.0002259485878209293
-0.4356944684281189,-0.4356944684281189,1.0001109344633472,0.0002573930099734192
-0.4352864066248003,-0.4352864066248003,0.9998281514565633,0.0002464014703026282
