time,time,flux,flux_err
-0.49995712715463014,-0.49995712715463014,1.0000889045142958,0.00020451039270643302
-0.4997954975275206,-0.4997954975275206,1.0000254907476207,0.0001860412274410118
-0.49956436203065097,-0.49956436203065097,0.999989094739216,0.00018103886642004653
-0.4993465741878026,-0.4993465741878026,1.0002331709149619,0.00018420858508396245
-0.4990766062823241,-0.4990766062823241,0.9997561999957861,0.0002250912355750908
-0.4988129630582989,-0.4988129630582989,0.9998130335180546,0.00020709343664658542
-0.4985793210551492,-0.4985793210551492,0.9999964660743487,0.00020720993999432625
-0.4983722320248489,-0.4983722320248489,0.9999424108745811,0.00020730781101236496
-0.4981864083049004,-0.4981864083049004,1.0000142738431506,0.00020753668052119612
-0.49799962924298596,-0.49799962924298596,0.9998547979218362,0.00020711402844362728
-0.49779658881307115,-0.49779658881307115,1.0001524809249231,0.0001847403937615451
-0.49762655739323236,-0.49762655739323236,0.9998718641768847,0.00020735623088622896
-0.4974549933962408,-0.4974549933962408,1.0000418889380476,0.00020443500710675108
-0.49725575894262874,-0.49725575894262874,1.000218076556278,0.0002072648373894505
-0.497088174604869,-0.497088174604869,1.0001994054483778,0.00019928950661714977
-0.49699144595506367,-0.49699144595506367,1.000158066655998,0.00018485013892998435
-0.4968455748050474,-0.4968455748050474,0.9998657135790646,0.00021761833701597837
-0.49668889865424715,-0.49668889865424715,1.0001412528529667,0.00020552044647452662
-0.49652522752294315,-0.49652522752294315,1.0001427230112032,0.00020425583670052598
-0.4964079709854559,-0.4964079709854559,1.0003610438049335,0.0001823184214968916
-0.4962749031736166,-0.4962749031736166,0.999919729546645,0.00021140573572200867
-0.4961791167341289,-0.4961791167341289,0.9999396573818066,0.0001778611411736769
-0.49607098072738154,-0.49607098072738154,0.9999993684008608,0.00021910374159395913
-0.49596546554093945,-0.49596546554093945,1.000316959537257,0.00018167732680422096
-0.49586562773474724,-0.49586562773474724,1.0000641807764041,0.0002184462853511638
-0.49577090572711313,-0.49577090572711313,1.0000204248867124,0.0001876786626297242
-0.49564689351973357,-0.49564689351973357,1.000096965066059,0.00022093811176534853
-0.49549466101889267,-0.49549466101889267,1.000004418451595,0.00020533932572836867
-0.49538789474754596,-0.49538789474754596,1.0002657062890439,0.0002000091763148803
-0.495259652963432,-0.495259652963432,0.9998203378178481,0.00021575558844434873
-0.4951339966748492,-0.4951339966748492,1.0000732817741897,0.0001905894324091161
-0.49503167808579746,-0.49503167808579746,1.0000543562922999,0.0002087076185055394
-0.4948500722690369,-0.4948500722690369,1.0001146518906625,0.0002086024389648682
-0.4946785864100093,-0.4946785864100093,1.0002869439038526,0.00021409035059114773
-0.4945712673375965,-0.4945712673375965,1.0004259007204466,0.00020767348157026594
-0.4944369613644085,-0.4944369613644085,0.9999719554601642,0.0002087336555894606
-0.49428734039101985,-0.49428734039101985,1.000004499680264,0.00020827907616927734
-0.49415282886329803,-0.49415282886329803,1.000159922353943,0.0002297921496602383
-0.4939989771301043,-0.4939989771301043,1.0002135189372925,0.00024045823497514506
-0.4938430613154196,-0.4938430613154196,1.0000267516636618,0.0002051757593942764
-0.4936841986753279,-0.4936841986753279,0.9999164789210777,0.0002358651600515548
-0.4935351846157573,-0.4935351846157573,0.9999666432529122,0.00021030469995070436
-0.4933827921093325,-0.4933827921093325,0.9996222589807896,0.00020276085156376638
-0.4932681202873937,-0.4932681202873937,1.0003356684079663,0.00021026933542384212
-0.49313457469979766,-0.49313457469979766,1.0001865590183352,0.00020445978905259368
-0.49302762672014067,-0.49302762672014067,1.000192429298354,0.00022550863735267668
-0.4928952622562065,-0.4928952622562065,1.0000977268315645,0.0002059366278800033
-0.49280817242106423,-0.49280817242106423,0.9998321310334578,0.0002229853947910378
-0.4927157290818286,-0.4927157290818286,1.000018753505056,0.00019315223534052312
-0.49258722183003556,-0.49258722183003556,0.9999565198673455,0.00022144628653136207
-0.49247028628597034,-0.49247028628597034,0.9999858278786219,0.00017956746949518245
-0.49236628357466544,-0.49236628357466544,1.0003509879254238,0.0002202356085186813
-0.4922271967079723,-0.4922271967079723,0.9998526678649526,0.00020570313828351385
-0.4920795635000104,-0.4920795635000104,1.000176030520686,0.0001826832508282252
-0.491933529797825,-0.491933529797825,1.000005728760227,0.0002027141045441807
-0.49180478094640423,-0.49180478094640423,1.0000353556967925,0.00020563371981818795
-0.49164844384504247,-0.49164844384504247,1.0001352982588962,0.00018258994769001707
-0.49150629771174864,-0.49150629771174864,1.0000424243288002,0.00020230077992934416
-0.4914071952633094,-0.4914071952633094,0.9999576462539966,0.00020838864118548922
-0.4912449220442795,-0.4912449220442795,1.0001334202861893,0.00018606259695174403
-0.49109482805652077,-0.49109482805652077,0.9999921077827952,0.00020605100300654763
-0.49097906190290813,-0.49097906190290813,0.9997828647911311,0.0002011522141324318
-0.490837914844451,-0.490837914844451,0.9998370754915953,0.00018682281808015495
-0.4907318993791705,-0.4907318993791705,0.9999459877159061,0.00020289465783666813
-0.490596882099635,-0.490596882099635,1.0000442721340206,0.00021042769083619268
-0.49044688514841256,-0.49044688514841256,0.9997790652094233,0.00018270840500291463
-0.4903558838064782,-0.4903558838064782,1.000330699688662,0.00020501516324548624
-0.4902236039226409,-0.4902236039226409,0.9999445703982033,0.0001889609456330481
-0.4901433497609105,-0.4901433497609105,1.0001187494882136,0.00022123059455514301
-0.4900466550461715,-0.4900466550461715,1.0002113139017943,0.000188899225826665
-0.4899453042962705,-0.4899453042962705,1.0000287058959674,0.0002081065941193035
-0.4898497527712607,-0.4898497527712607,0.999930949686792,0.00018272170907084707
-0.4897591392887989,-0.4897591392887989,0.9999840098683114,0.00020211113129860823
-0.48964109323715094,-0.48964109323715094,1.0001819989865868,0.00018271097035163372
-0.48953994395851624,-0.48953994395851624,1.0003674124868034,0.00020214510860854141
-0.48943244839902034,-0.48943244839902034,1.0001430786999503,0.0001827609889477803
-0.4893091188307153,-0.4893091188307153,1.0001802946930636,0.00022404766158343946
-0.4892227055737749,-0.4892227055737749,0.9997873217573876,0.00018311105428648976
-0.48909735691267997,-0.48909735691267997,0.9997997444967487,0.00020216800220863428
-0.48900838826521065,-0.48900838826521065,0.9999474819430716,0.0001830729768071259
-0.48887953729426953,-0.48887953729426953,1.0002935942835467,0.0002084042326087867
-0.4887331071455264,-0.4887331071455264,1.0002881129502357,0.00019963199580671863
-0.48866081526794003,-0.48866081526794003,1.0000079651585865,0.0001919080436786225
-0.48852555022604066,-0.48852555022604066,1.0000461284581683,0.00020172029748506733
-0.4884766035393113,-0.4884766035393113,0.9999354142182092,0.00017986377102143834
-0.4883736230927752,-0.4883736230927752,1.0000767889294466,0.00021059900324731125
-0.48826567843789237,-0.48826567843789237,1.0001057317036781,0.00018563011649768823
-0.48821889949467734,-0.48821889949467734,0.9998884215155549,0.00018318474005109414
-0.4880877372866962,-0.4880877372866962,1.0000643257172772,0.0002055185668800839
-0.48800106093403883,-0.48800106093403883,0.9999861614572216,0.00017959009056294991
-0.4878874024550896,-0.4878874024550896,0.9998243473835634,0.00020552023023326602
-0.4877819811081281,-0.4877819811081281,1.0000686658847253,0.00017924610888218835
-0.48768442858272465,-0.48768442858272465,0.9997703170376842,0.00020583716286841133
-0.4875659625962726,-0.4875659625962726,0.9998196794790646,0.00017924851310334948
-0.48747841760196026,-0.48747841760196026,1.000073785406166,0.00020578068970624505
-0.48735168334824264,-0.48735168334824264,0.999943368165076,0.0001787356177470424
-0.4872706934096641,-0.4872706934096641,1.000120010791053,0.00020628871172474931
-0.48714206089643997,-0.48714206089643997,1.0001593810531009,0.00020186183387379958
-0.48705886411771643,-0.48705886411771643,1.0000494374864772,0.00018400633921286842
-0.4869298234130838,-0.4869298234130838,0.9999557368582049,0.0002048591015104399
-0.4868257493013516,-0.4868257493013516,1.000109668393923,0.00018081525600157754
-0.48669975443335717,-0.48669975443335717,1.0000946329373008,0.00020849624822285863
-0.48659688364859904,-0.48659688364859904,0.9999844355801256,0.00017974419038862378
-0.4865090310035157,-0.4865090310035157,0.9999459523838231,0.00020856289484486954
-0.4864047727925936,-0.4864047727925936,1.000248426038349,0.0001831877089350841
-0.4863470893309568,-0.4863470893309568,0.9999651864595448,0.0001996242659254199
-0.48620298303139864,-0.48620298303139864,1.0000695171756377,0.00018690681208998437
-0.48616105310065905,-0.48616105310065905,0.9999858937841015,0.0001764822333253013
-0.48602569949871394,-0.48602569949871394,0.9999524604618031,0.00020590654865175825
-0.4859575046109967,-0.4859575046109967,0.9998809730610132,0.00017969646190454008
-0.4859350140206516,-0.4859350140206516,0.9999008618255099,0.0002029847176342726
-0.4858202032453846,-0.4858202032453846,1.0001021502015426,0.00020534035751087953
-0.4857477818528423,-0.4857477818528423,1.0000132786002631,0.00020352920193769542
-0.4857137444007094,-0.4857137444007094,1.0000446852827434,0.000197160892689697
-0.4855951183490106,-0.4855951183490106,1.0000483994829823,0.00018270204450712146
-0.48552535232010996,-0.48552535232010996,1.0000386974835656,0.00018000329626821797
-0.48545018273289314,-0.48545018273289314,1.000060842354045,0.00020252582792507353
-0.48534550552722067,-0.48534550552722067,1.0001311870067857,0.00017641348509857916
-0.48528624862228753,-0.48528624862228753,1.0000485117811748,0.0001999489309017075
-0.485190154906013,-0.485190154906013,0.9998583579543758,0.00017888664655700697
-0.4850949680316262,-0.4850949680316262,1.0001978315800204,0.00017999679160556517
-0.4850304761406733,-0.4850304761406733,0.9997233316706892,0.0002025446712063709
-0.4848955823312281,-0.4848955823312281,0.9998851915368677,0.0001763042400547487
-0.4848342736833729,-0.4848342736833729,0.999967942678993,0.00020509104115064305
-0.4847170899098273,-0.4847170899098273,0.9999294063878317,0.00017326716890716411
-0.48464955026574896,-0.48464955026574896,0.999826962944141,0.00020532707098671392
-0.48455478972318816,-0.48455478972318816,0.9999794365457209,0.0001766629438871748
-0.48446280258503976,-0.48446280258503976,0.9997654741530593,0.00020227131324947572
-0.4843847242707852,-0.4843847242707852,0.9998961232680234,0.00017945040272491125
-0.484240473654063,-0.484240473654063,1.000027855718447,0.00020502061237099418
-0.4841648430476198,-0.4841648430476198,0.9998631489422699,0.00017626712750937992
-0.4840396125000552,-0.4840396125000552,0.9997877176056171,0.0002017624246936391
-0.4839685181766981,-0.4839685181766981,0.9999491687669098,0.00018210428544662306
-0.4838636685235542,-0.4838636685235542,0.9999892495956327,0.00020250639822099757
-0.4837760569382226,-0.4837760569382226,1.0002013195084543,0.00017923486793348207
-0.4836539089636062,-0.4836539089636062,1.000140679446766,0.00020259078467021988
-0.4835570603157976,-0.4835570603157976,1.0004677494295524,0.00017924251910295938
-0.4834491362445988,-0.4834491362445988,0.9999080529854851,0.00020192098843755334
-0.48335792340367334,-0.48335792340367334,1.0000078987644998,0.00017973902750714307
-0.48326078607788076,-0.48326078607788076,0.9997246944656613,0.00020212615541840678
-0.4831634332265821,-0.4831634332265821,0.9999345324322825,0.00017604949993132795
-0.4830832566702156,-0.4830832566702156,0.999978537037171,0.0001822693181163845
-0.4829735910068848,-0.4829735910068848,1.0002039337011603,0.00019972634184345847
-0.4828625744936289,-0.4828625744936289,1.0000524493879268,0.00020513464530487542
-0.48273068031994626,-0.48273068031994626,0.999878382574995,0.00017897886710870872
-0.48260988665279003,-0.48260988665279003,0.9998520810619999,0.00020248006914723432
-0.4824800496600801,-0.4824800496600801,1.0001349518166402,0.00018256891328362966
-0.482378762231383,-0.482378762231383,1.0001398429752624,0.00020239948605193579
-0.48224325000774115,-0.48224325000774115,1.0000086596638809,0.00020256058185479526
-0.4821436185986386,-0.4821436185986386,0.9999435506881813,0.00018200367541351694
-0.4820098769487231,-0.4820098769487231,0.9999342548458949,0.00020829644973911348
-0.4819202216414851,-0.4819202216414851,0.999978535605005,0.00018300312909870335
-0.481799826680799,-0.481799826680799,0.999893364806589,0.00020312579154434213
-0.48172049048007465,-0.48172049048007465,1.0000452063239234,0.0001783941608437604
-0.4815696764315362,-0.4815696764315362,1.0000040613706076,0.00020591990833428246
-0.481496064797102,-0.481496064797102,1.0000533340062503,0.00017808468559473014
-0.48137500592129073,-0.48137500592129073,0.9998559027045031,0.00022627537547526702
-0.4813012142665684,-0.4813012142665684,1.0001501365499736,0.00017906300524424295
-0.4811883702583145,-0.4811883702583145,1.0001812844450453,0.00020195490088090843
-0.48111007261031774,-0.48111007261031774,1.0000896184167276,0.00018570564581311873
-0.48101946465903894,-0.48101946465903894,1.0000399233052122,0.00020238441036503357
-0.4808835131494561,-0.4808835131494561,1.0000308433939895,0.0001826575368793363
-0.4807886567621608,-0.4807886567621608,0.9999864486584311,0.00020471539108193822
-0.48066869522444905,-0.48066869522444905,0.9997457228152988,0.00019525205769036798
-0.4805921173276147,-0.4805921173276147,0.9999260682614313,0.0002063869808091539
-0.4804720463784179,-0.4804720463784179,1.0002397272093675,0.00019411901097812965
-0.48041343853547,-0.48041343853547,1.0001220896356762,0.00020287599344419506
-0.48028875139571026,-0.48028875139571026,0.9998924516683723,0.00019341476278873028
-0.4801987696948345,-0.4801987696948345,0.9998044187888168,0.00020513711132896746
-0.4800996815029066,-0.4800996815029066,1.00013515969209,0.00019016127826058528
-0.48000719999836294,-0.48000719999836294,1.0002615197283151,0.00018973986852727806
-0.47996371211047517,-0.47996371211047517,0.99989042635053,0.00020189131751350734
-0.47981026746856514,-0.47981026746856514,0.9997568649823941,0.0002028131321783385
-0.4797631208522944,-0.4797631208522944,0.9998994470973533,0.0001852712991756215
-0.47962820113025373,-0.47962820113025373,0.9997761863479221,0.00020000508467375085
-0.4795680679788347,-0.4795680679788347,0.9998685133604927,0.00020813239820977706
-0.479486132049351,-0.479486132049351,1.0001620444722452,0.0001800313632091002
-0.4793629429972498,-0.4793629429972498,0.999968098924698,0.00018519582271955072
-0.4792958738587913,-0.4792958738587913,0.9995717174763724,0.00018300055064220905
-0.4791634205073933,-0.4791634205073933,1.0000877348307848,0.00018558928349111264
-0.4790712262984016,-0.4790712262984016,0.9999057658988839,0.0001795695595722321
-0.4789617880844162,-0.4789617880844162,1.0001391218685858,0.0001858434194338754
-0.4788663989093038,-0.4788663989093038,1.0001330479085095,0.0001787921614766699
-0.4787819713310455,-0.4787819713310455,1.0000237560922325,0.00020533427831233848
-0.4786943752711522,-0.4786943752711522,1.0000570931032242,0.00018276469460226622
-0.47859361330920364,-0.47859361330920364,1.0000121183024748,0.00018193570994788847
-0.4785045061216806,-0.4785045061216806,1.0000624118369819,0.000183386079158322
-0.4783979952117079,-0.4783979952117079,0.9999284726777974,0.0001819549480414578
-0.47830359110957943,-0.47830359110957943,1.0000493683342595,0.0002033497040813058
-0.47821605118806476,-0.47821605118806476,0.9998994051844544,0.00018491519161453307
-0.4781392450619023,-0.4781392450619023,0.9998296011276956,0.00018046208893027048
-0.4780200564331608,-0.4780200564331608,1.000119279650231,0.0002082824554081229
-0.4779644108653883,-0.4779644108653883,1.0000753553893307,0.00017971081743802208
-0.47781340134242783,-0.47781340134242783,0.999981125144416,0.00018633980797050855
-0.47769755679619263,-0.47769755679619263,0.9999850747668868,0.00020272970949868947
-0.4775729300439707,-0.4775729300439707,0.9999396467772321,0.0002027033215338143
-0.4774039091906161,-0.4774039091906161,1.0001628814335946,0.0001826778054615939
-0.4772477188045741,-0.4772477188045741,0.9997226750469096,0.00019979600260530591
-0.47708759388624455,-0.47708759388624455,1.000203020820137,0.00018204635587191483
-0.47695529896736844,-0.47695529896736844,1.0002544851228883,0.00018387966197519376
-0.47687370198837015,-0.47687370198837015,1.0000418135498914,0.0001849645416849688
-0.47674972987297226,-0.47674972987297226,0.9997221402945098,0.00017993129634489655
-0.47666244718420786,-0.47666244718420786,1.00020203890946,0.00018535785252400038
-0.4765378644093289,-0.4765378644093289,1.000032488944648,0.00017466555224919273
-0.47645331290113974,-0.47645331290113974,1.000077461433598,0.0001828601749188039
-0.4763112630666001,-0.4763112630666001,0.9998086493605955,0.00017838224476448105
-0.4762004180025542,-0.4762004180025542,1.000038312092105,0.00019990784186503025
-0.4760458015196491,-0.4760458015196491,0.9996906195976152,0.00020592118954978274
-0.47585600292222807,-0.47585600292222807,0.9998434164199705,0.00020537485866197312
-0.47569052394101163,-0.47569052394101163,1.0001837188107914,0.0002054595813719343
-0.475544805311074,-0.475544805311074,0.9999201502925239,0.000185815980511462
-0.4754051814423292,-0.4754051814423292,0.9998942384286847,0.00022376481134741972
-0.47528529756673377,-0.47528529756673377,1.0000318425976495,0.000203290402098957
-0.47511780586646635,-0.47511780586646635,0.999932849171917,0.0002060904425154085
-0.47502125289320246,-0.47502125289320246,0.999893320056548,0.00018638090428558805
-0.47489504265686266,-0.47489504265686266,1.0000508171014608,0.00020989897646313808
-0.4748114914924372,-0.4748114914924372,1.0000934147148033,0.00017920815297040924
-0.47468139394477477,-0.47468139394477477,1.0000489170033338,0.00020657511169370688
-0.47458867800160076,-0.47458867800160076,1.0003704018219461,0.00020532965126071628
-0.4744695349785616,-0.4744695349785616,0.9997898848441358,0.00018616644589236533
-0.47434349958202804,-0.47434349958202804,1.0001638179679155,0.00020723778514834687
-0.47424264263827354,-0.47424264263827354,1.0000127923352167,0.0001858980621744222
-0.4741438844386721,-0.4741438844386721,1.0001407241855687,0.00020285740615731755
-0.47403157565859144,-0.47403157565859144,1.000117853938947,0.0001836954410775838
-0.47390158704074564,-0.47390158704074564,0.9999070785703215,0.000204472707210804
-0.47379145602317296,-0.47379145602317296,1.0002616876240171,0.00020727316618125003
-0.47364600260625594,-0.47364600260625594,1.0000091923050438,0.0001767911659061195
-0.4735235265790834,-0.4735235265790834,1.0001209541489768,0.00020478210409064908
-0.4733922108876868,-0.4733922108876868,0.9998406548572356,0.0001829707391075905
-0.4733008453476941,-0.4733008453476941,1.0001007942315794,0.00020049291971844648
-0.473139372865262,-0.473139372865262,1.0001577602093839,0.00020081330077449173
-0.47297256067540727,-0.47297256067540727,0.9997822778576143,0.00019939305199206844
-0.4728208523432841,-0.4728208523432841,1.0001840638237764,0.00020105009107513022
-0.4726653788544354,-0.4726653788544354,1.0000615126368309,0.00017677222315957443
-0.4725175648491131,-0.4725175648491131,0.9997688815686185,0.00020350713012764582
-0.4723476866231067,-0.4723476866231067,0.999931223395054,0.00020033838358694947
-0.472203053101839,-0.472203053101839,0.9996305889943733,0.000203272394054197
-0.47201929529692277,-0.47201929529692277,0.9998571643657856,0.00020087142551366194
-0.4719050763247651,-0.4719050763247651,0.9999052955242093,0.0001880597911575645
-0.4717869298066944,-0.4717869298066944,1.0000555731917835,0.00020349336220615747
-0.4716317337501096,-0.4716317337501096,0.9999253908989999,0.00018178248605941685
-0.4715264379425207,-0.4715264379425207,1.0002158423718253,0.00020997527383374007
-0.4713895834589493,-0.4713895834589493,1.0000601287497175,0.00017925588418118215
