time,time,flux,flux_err
-0.4999596537760185,-0.4999596537760185,0.99993627946168,0.00011748482482101385
-0.49988988246322563,-0.49988988246322563,1.0000513538531015,0.00011748853455723493
-0.49982592542644444,-0.49982592542644444,1.0000419080382639,0.00010724525498249301
-0.49976778266568217,-0.49976778266568217,1.000020292222818,0.00010722904757017649
-0.49970963990488054,-0.49970963990488054,0.9999810951656241,0.00010725116501746227
-0.49965149714405205,-0.49965149714405205,1.0000168996508028,0.00010726665436153861
-0.49959335438319236,-0.49959335438319236,1.0000431033956303,0.00010726671741331137
-0.4995352116223133,-0.4995352116223133,0.9999718006161107,0.00010724794813406763
-0.4994770688614031,-0.4994770688614031,0.9999802658606356,0.00010728249263059061
-0.4994189261005076,-0.4994189261005076,1.0001562881811665,0.000107297032303958
-0.4993607833395699,-0.4993607833395699,0.9998974984860508,0.00010728813268755324
-0.49930264057863233,-0.49930264057863233,1.0000633904918215,0.00010730577349923503
-0.49924449781769076,-0.49924449781769076,0.9999697397718441,0.00010729236920092523
-0.49918635505675324,-0.49918635505675324,0.9999859222583583,0.00010727749689477184
-0.4991282122958111,-0.4991282122958111,1.0000462051398238,0.00010728412638236016
-0.49907006953487343,-0.49907006953487343,0.9999590908457442,0.00010727159586303683
-0.4990119267739317,-0.4990119267739317,1.000035544928572,0.0001072719721651908
-0.4989537840129941,-0.4989537840129941,0.999959902882144,0.00010728676579680008
-0.49889564125205277,-0.49889564125205277,1.0001601935895497,0.00010729343417361299
-0.4988374984911503,-0.4988374984911503,0.99990425950648,0.00010729058920782711
-0.49877935573023907,-0.49877935573023907,0.9999935990114999,0.00010728996794336994
-0.4987212129693484,-0.4987212129693484,0.999981357816735,0.00010729223867942205
-0.49866307020846523,-0.49866307020846523,1.0000330613119288,0.00010727378544813715
-0.4986049274476018,-0.4986049274476018,1.0000021562958288,0.00010728920365035872
-0.4985467846867498,-0.4985467846867498,1.0000823762900772,0.00010727717963095941
-0.49848864192591763,-0.49848864192591763,1.0000245967745431,0.00010729606041584767
-0.49843049916510773,-0.49843049916510773,0.9999634706623631,0.00010728903135305955
-0.49837235640430666,-0.49837235640430666,1.000095049736339,0.00010729492286034131
-0.49831421364352113,-0.49831421364352113,0.9998314877657541,0.00010727993219540672
-0.4982560708827669,-0.4982560708827669,1.0000903520391629,0.0001072738045850206
-0.4981979281220282,-0.4981979281220282,1.0000113932704822,0.0001072951464213203
-0.4981397853613048,-0.4981397853613048,1.0000079824263188,0.00010728768408642899
-0.4980816426006086,-0.4980816426006086,1.000146627965053,0.00010729696768965644
-0.4980234998399241,-0.4980234998399241,0.9998730977823689,0.00010729636846304317
-0.49796535707927125,-0.49796535707927125,1.0000664870452105,0.00010729410401678788
-0.4979072143186336,-0.4979072143186336,1.0000217621457783,0.0001073098072521712
-0.4978490715580196,-0.4978490715580196,0.9999197165698431,0.00010728001065389869
-0.49779092879742526,-0.49779092879742526,0.9999542797989749,0.00010729891855079906
-0.49773278603685406,-0.49773278603685406,1.0001175476399171,0.00010728454773154938
-0.49767464327630967,-0.49767464327630967,0.9999472775719376,0.00010728896095985677
-0.49761650051577355,-0.49761650051577355,1.0000979704192514,0.00010729971743480475
-0.49755835775527635,-0.49755835775527635,0.9999704485160258,0.00010729007572481643
-0.497500214994791,-0.497500214994791,0.9999503534023833,0.00010728197684106805
-0.49744207223433295,-0.49744207223433295,1.00004660464832,0.00010732398740719404
-0.4973839294738906,-0.4973839294738906,1.000041518702635,0.00010728688320107878
-0.49732578671347555,-0.49732578671347555,1.0000447780337345,0.00010729732502215254
-0.4972676439530838,-0.4972676439530838,0.9999886965791258,0.0001073050949229361
-0.4972095011927068,-0.4972095011927068,1.0000245135686499,0.00010729413146427292
-0.49715135843235403,-0.49715135843235403,0.9999532942711996,0.00010728890548900313
-0.4970932156720246,-0.4970932156720246,1.000062746594471,0.00010729060938607694
-0.4970350729117185,-0.4970350729117185,0.9999734941181806,0.00010729020123707306
-0.49697693015143196,-0.49697693015143196,0.9999968288490301,0.00010728606648573258
-0.49691488019767294,-0.49691488019767294,1.000028930383751,0.00010728140702228153
-0.49684287620339085,-0.49684287620339085,0.9999865320608251,0.00010727078500234397
-0.4967838961874305,-0.4967838961874305,0.9999957696434603,0.00010727553069234632
-0.49672575342722985,-0.49672575342722985,1.000066021344953,0.00010727023586251745
-0.49666761066705184,-0.49666761066705184,0.9999662931420368,0.00010725772512120972
-0.4966094679068938,-0.4966094679068938,1.0000514641191056,0.00010726902937643853
-0.49655132514675565,-0.49655132514675565,0.9999331902351472,0.00010727482731969805
-0.4964931823866408,-0.4964931823866408,1.0000144068051708,0.00010727653195884248
-0.4964350396265493,-0.4964350396265493,0.9999569971085631,0.0001072739091156936
-0.4963768968664654,-0.4963768968664654,1.0000369331290926,0.00010731811157175504
-0.4963187541064129,-0.4963187541064129,1.0000872314097211,0.00010729758291090578
-0.4962606113463722,-0.4962606113463722,0.9999379400370877,0.00010729098183209798
-0.49620246858635453,-0.49620246858635453,1.0000503198336703,0.00010729256259094254
-0.4961443258263526,-0.4961443258263526,1.0001717764841334,0.00010727515529135453
-0.496086183066366,-0.496086183066366,0.9998492535909342,0.00010730536714239924
-0.49602804030640657,-0.49602804030640657,1.0000616777298654,0.00010728949253179608
-0.49596989754646315,-0.49596989754646315,0.99994783652687,0.00010731124635303857
-0.4959117547865313,-0.4959117547865313,1.0000480472492421,0.00010729361389606407
-0.4958536120266196,-0.4958536120266196,0.9999338649340042,0.00010726686035866198
-0.4957954692667344,-0.4957954692667344,1.0000886537702338,0.00010729487285395665
-0.495737326506869,-0.495737326506869,0.9999696167479769,0.00010729915116743155
-0.49567918374700365,-0.49567918374700365,1.0000052242626019,0.00010728634280848833
-0.49562104098716936,-0.49562104098716936,0.9999419162226957,0.00010730994130121589
-0.4955628982273545,-0.4955628982273545,1.0000631673626066,0.00010727709927986248
-0.49550475546755945,-0.49550475546755945,1.0000650523371184,0.00010729085639302591
-0.49544661270774853,-0.49544661270774853,0.9998872681078822,0.00010730595625537368
-0.4953884699480196,-0.4953884699480196,1.0000399163764195,0.0001072879067743021
-0.49533032718825165,-0.49533032718825165,0.999957643514378,0.00010728983307493247
-0.4952721844284797,-0.4952721844284797,1.000015446504284,0.00010728971715983802
-0.4952140416687937,-0.4952140416687937,1.0000091553177712,0.00010730472920533315
-0.49515589890913436,-0.49515589890913436,1.0000154183876853,0.00010730594001267133
-0.49509775614941287,-0.49509775614941287,0.9999796623822178,0.00010729471566654654
-0.4950396133897814,-0.4950396133897814,0.9999635261216857,0.00010731391962664572
-0.4949814706301228,-0.4949814706301228,1.0000713226981224,0.0001073256772053719
-0.4949233278704951,-0.4949233278704951,0.9999818879442571,0.00010729609984498408
-0.49486518511088307,-0.49486518511088307,1.0000575647399108,0.00010728964939990338
-0.4948070423512986,-0.4948070423512986,0.9999560746097815,0.00010728378397092967
-0.4947488995917215,-0.4947488995917215,1.0001885994899538,0.0001073031995160866
-0.4946907568321719,-0.4946907568321719,0.9998628485318772,0.00010730528665312594
-0.49463261407263026,-0.49463261407263026,1.0000482132809656,0.00010728777830093839
-0.4945744713131117,-0.4945744713131117,1.0000295050751267,0.00010728893708419451
-0.4945163285536126,-0.4945163285536126,0.9999731820353703,0.0001072865559912771
-0.49445818579413336,-0.49445818579413336,0.9999745705645342,0.00010729621038588011
-0.49440004303466545,-0.49440004303466545,1.0000039337639217,0.00010731363846905458
-0.4943419002752213,-0.4943419002752213,1.0000875358373111,0.00010731863724688
-0.4942837575157963,-0.4942837575157963,0.9999141521317446,0.00010728389135567771
-0.49422561475638727,-0.49422561475638727,1.0000352081715538,0.00010730523997316416
-0.49416747199700894,-0.49416747199700894,1.0000268833182662,0.00010729152211278931
-0.49410932923763884,-0.49410932923763884,0.9999830405671825,0.00010729983667500948
-0.4940511864782959,-0.4940511864782959,0.9999711549008256,0.00010728701182224662
-0.4939930437189761,-0.4939930437189761,1.0000479996040472,0.00010728876183735216
-0.4939349009596645,-0.4939349009596645,0.9999809086862796,0.00010729712267191981
-0.4938767582003799,-0.4938767582003799,1.0000993536342555,0.00010728206927637308
-0.49381861544112277,-0.49381861544112277,0.9999825460088788,0.00010730742099982477
-0.49376047268188905,-0.49376047268188905,1.000105260026054,0.00010731794564347594
-0.49370232992266294,-0.49370232992266294,0.9998966015046962,0.00010731209292738927
-0.49364418716346803,-0.49364418716346803,1.0001014295816766,0.00010729081477990638
-0.4935860444043044,-0.4935860444043044,1.0000457818442494,0.00010726589142755914
-0.4935279016451525,-0.4935279016451525,0.9999339873042794,0.00010729984491601549
-0.49346975888602806,-0.49346975888602806,1.0000020283974895,0.00010729947927327556
-0.49340994161547425,-0.49340994161547425,1.0000216169877187,0.00010731539886634624
-0.49335114765749877,-0.49335114765749877,1.000046392702219,0.00010730056339680071
-0.4932930048984602,-0.4932930048984602,1.0000146466012878,0.00010731544484282578
-0.49323486213943707,-0.49323486213943707,0.9999563010633944,0.00010729844539699694
-0.4931767193804487,-0.4931767193804487,0.9999635062829458,0.00010729083151593067
-0.4931185766214837,-0.4931185766214837,1.000055919205675,0.00010730436423987695
-0.4930604338625583,-0.4930604338625583,0.9999713263982726,0.00010730702514884279
-0.49300229110365174,-0.49300229110365174,0.9999905727001124,0.00010730776744057053
-0.49294414834476885,-0.49294414834476885,1.0000061354746321,0.0001073151500848954
-0.4928860055859253,-0.4928860055859253,0.9999822633916639,0.00010729749257720647
-0.4928278628271093,-0.4928278628271093,0.9999869886405044,0.00010729469706311878
-0.49276972006833153,-0.49276972006833153,1.0000354594110012,0.0001073199079770269
-0.4927115773095811,-0.4927115773095811,1.0001023993500522,0.0001073195899003899
-0.49265343455086974,-0.49265343455086974,0.9998941010401194,0.00010731028479155208
-0.4925952917921858,-0.4925952917921858,1.0001112134849677,0.0001073204995314453
-0.49253714903354473,-0.49253714903354473,0.9999815779296013,0.00010734147854277346
-0.4924790062749345,-0.4924790062749345,0.9999676626903984,0.0001073149011570345
-0.4924208635163635,-0.4924208635163635,1.0000575102171936,0.00010729363803913446
-0.4923627207578396,-0.4923627207578396,1.000007200380813,0.00010733053136947124
-0.49230457799933847,-0.49230457799933847,0.9999067702064961,0.00010731279567677617
-0.49224643524089606,-0.49224643524089606,1.0001384987349176,0.00010733356210710534
-0.4921882924824774,-0.4921882924824774,0.9998588082773837,0.00010729418275276273
-0.4921301497241092,-0.4921301497241092,1.0000376548581371,0.00010733410553450126
-0.49207200696578346,-0.49207200696578346,0.9999859398335975,0.00010731964717201682
-0.49201386420750975,-0.49201386420750975,1.000019331743567,0.00010732829617595275
-0.49195572144927385,-0.49195572144927385,0.9999184962982699,0.00010730711385863359
-0.49189757869108525,-0.49189757869108525,1.0000863683350891,0.00010731479045120275
-0.4918394359329469,-0.4918394359329469,0.9999348197050066,0.00010731339021902313
-0.49178129317485925,-0.49178129317485925,1.000082176660784,0.00010731045978110457
-0.4917231504168186,-0.4917231504168186,0.9998570259993297,0.00010731818971556947
-0.4916552396754996,-0.4916552396754996,1.0000757010088166,0.00010730870167473922
-0.4915905849286856,-0.4915905849286856,1.0000443163751966,0.00010731969643189855
-0.49153244217082837,-0.49153244217082837,0.9999861716246358,0.00010730661168495032
-0.4914742994130298,-0.4914742994130298,0.9998726955207099,0.00010730960215061686
-0.4914161566552779,-0.4914161566552779,1.000210125717945,0.00010733222960325002
-0.49135801389759165,-0.49135801389759165,0.9999166795554512,0.00010730969244446735
-0.4912998711399642,-0.4912998711399642,1.0000070377129966,0.00010731325066231749
-0.49124172838240304,-0.49124172838240304,1.0000164439434627,0.00010731718810253886
-0.49118358562490033,-0.49118358562490033,0.9999654529432094,0.0001073284568018187
-0.4911254428674757,-0.4911254428674757,1.0000390770612544,0.00010729720352070735
-0.4910673001100977,-0.4910673001100977,1.0000477495431284,0.00010729943808362855
-0.4910091573527865,-0.4910091573527865,0.9999426552063779,0.00010730288984116035
-0.49095101459559976,-0.49095101459559976,1.0000073414188289,0.00010731483021235668
-0.4908928718384521,-0.4908928718384521,1.000010467181149,0.00010729657709034606
-0.49083472908137427,-0.49083472908137427,1.0000268631704292,0.00010729667608415502
-0.49077658632437854,-0.49077658632437854,0.999988717845971,0.00010729778644239416
-0.4907184435674604,-0.4907184435674604,1.0000103783803174,0.0001073072557071393
-0.49066030081062084,-0.49066030081062084,0.9999774223128854,0.00010730439600703631
-0.4906021580538673,-0.4906021580538673,1.0000147399654646,0.00010732106355101395
-0.49054401529719893,-0.49054401529719893,1.0000804723787553,0.00010730832718124586
-0.49048587254062015,-0.49048587254062015,0.9999795491117471,0.00010730604635590306
-0.4904277297841351,-0.4904277297841351,0.9999781655092932,0.00010730929317376003
-0.49036958702772787,-0.49036958702772787,0.9999903315625472,0.00010730633853671342
-0.49031144427142215,-0.49031144427142215,0.9999241340987657,0.00010732096929950624
-0.4902533015152145,-0.4902533015152145,1.0000902240637886,0.00010730038956816761
-0.49019515875911557,-0.49019515875911557,0.9999568764129064,0.00010730728592115799
-0.4901370160030944,-0.4901370160030944,1.000054463257173,0.0001072922167787935
-0.490078873247186,-0.490078873247186,0.9999969853274363,0.00010731811527972903
-0.4900207304913911,-0.4900207304913911,0.9999501559523963,0.00010731609870340886
-0.48996258773570595,-0.48996258773570595,1.0000372034924663,0.00010729222071752945
-0.4899044449801256,-0.4899044449801256,0.9999298163294839,0.00010728968919445313
-0.4898463022246579,-0.4898463022246579,0.9999890161986829,0.00010729168114403873
-0.4897881594693114,-0.4897881594693114,1.0000580286128673,0.00010732469695245178
-0.4897300167140856,-0.4897300167140856,0.9999498389091677,0.00010729774194870934
-0.4896718739589853,-0.4896718739589853,1.0001699398552641,0.00010730640475969582
-0.48961373120399737,-0.48961373120399737,0.9999284123860951,0.00010731480869091254
-0.48955558844914593,-0.48955558844914593,0.9999500032457057,0.00010730408302829869
-0.48949744569443865,-0.48949744569443865,1.0000195942930676,0.00010731336397500821
-0.48943930293985644,-0.48943930293985644,0.9999830059288584,0.00010733080948524929
-0.4893811601854071,-0.4893811601854071,0.999972728758409,0.0001073065445156668
-0.4893230174311053,-0.4893230174311053,1.0000789289674912,0.00010730749532302037
-0.48926487467695556,-0.48926487467695556,0.9999394893075809,0.00010729079345184875
-0.4892067319229426,-0.4892067319229426,1.0000740676598576,0.00010731230198976363
-0.4891485891690858,-0.4891485891690858,0.9999215471620051,0.00010730266047438369
-0.4890904464153845,-0.4890904464153845,1.0000915659864087,0.00010729998896010949
-0.48903230366183925,-0.48903230366183925,0.9998619643866975,0.0001073214666689707
-0.48897416090846146,-0.48897416090846146,1.000095415531725,0.00010731992722771948
-0.4889160181552518,-0.4889160181552518,0.9999659004110221,0.00010731046815071156
-0.4888578754022134,-0.4888578754022134,1.000051573273302,0.00010732375152535305
-0.48879973264934656,-0.48879973264934656,0.9999586219597472,0.0001073016888744942
-0.48874158989665883,-0.48874158989665883,0.999943791970864,0.00010728425490555214
-0.48868344714417083,-0.48868344714417083,1.0001209931101056,0.00010729154209395623
-0.48862530439183793,-0.48862530439183793,0.999966119925646,0.00010730395312874689
-0.48856716163971986,-0.48856716163971986,0.9999657116631561,0.00010732603495436873
-0.48850901888779247,-0.48850901888779247,1.0000483664990596,0.00010731742936854766
-0.4884508761360647,-0.4884508761360647,1.000024366613166,0.00010729614516353447
-0.4883927333845503,-0.4883927333845503,1.0000478051191197,0.00010732642020404449
-0.48833459063323936,-0.48833459063323936,0.9999113841136541,0.00010734979727670211
-0.48827644788214275,-0.48827644788214275,1.0001552268447917,0.00010733889073197195
-0.4882183051312682,-0.4882183051312682,0.9998382395185066,0.00010730389056290504
-0.48816016238062393,-0.48816016238062393,1.000178865828509,0.0001073316006511021
-0.48810201963021305,-0.48810201963021305,0.999983701774435,0.00010731272381793538
-0.48804387688004097,-0.48804387688004097,0.9999946793934751,0.00010731598928801502
-0.48798573413009805,-0.48798573413009805,0.9999284076681395,0.0001073126306503605
-0.48792759138042446,-0.48792759138042446,1.00004599618819,0.00010733920548979361
-0.48786944863098913,-0.48786944863098913,0.9999858873810916,0.00010732470642176573
-0.4878113058818105,-0.4878113058818105,1.0000147177115966,0.00010730990290802017
-0.4877531631329006,-0.4877531631329006,0.99999760392841,0.00010732876311852012
-0.48769502038426077,-0.48769502038426077,1.0000615561218265,0.00010731803704606032
-0.487636877635901,-0.487636877635901,1.0000035953181758,0.00010732892570739752
-0.4875787348878179,-0.4875787348878179,1.0000435400812413,0.00010734408795986104
-0.4875205921400356,-0.4875205921400356,0.9999746585521748,0.00010734360336018934
-0.48746244939254524,-0.48746244939254524,1.000009701619697,0.00010732653922318917
-0.4874043066453667,-0.4874043066453667,0.9999840420612897,0.00010732461750038015
-0.4873461638984892,-0.4873461638984892,1.0000176248270587,0.00010732861835637694
-0.48728802115195,-0.48728802115195,0.9999142849940659,0.00010732917614620541
-0.48722987840571497,-0.48722987840571497,1.000013299047773,0.00010734375569137852
-0.48717173565982386,-0.48717173565982386,0.999934277010977,0.00010733456383545989
-0.48711359291427503,-0.48711359291427503,0.999965107500833,0.0001073382290342464
-0.4870554501690849,-0.4870554501690849,1.0000243236828728,0.00010733858529505805
-0.48699730742424235,-0.48699730742424235,1.0000793128223708,0.0001073520902783377
-0.4869391646797657,-0.4869391646797657,0.9999313599220688,0.00010732901974901411
-0.4868810219356715,-0.4868810219356715,0.9999681795284403,0.00010734627196372041
-0.48682287919196743,-0.48682287919196743,1.0000675513344492,0.00010731614967908793
-0.4867647364486447,-0.4867647364486447,0.9999777531028758,0.00010733526407339
-0.48670659370571673,-0.48670659370571673,1.0000385074970644,0.00010733093459754702
-0.4866484509632364,-0.4866484509632364,0.9999789818500174,0.00010734902545537887
-0.4865903082211574,-0.4865903082211574,1.0000708524317927,0.00010734046203951198
-0.4865321654795043,-0.4865321654795043,1.0000362743854532,0.00010734484106479438
-0.48647402273830664,-0.48647402273830664,1.0000166005843236,0.00010733883512679654
-0.4864015536263152,-0.4864015536263152,0.99999985181698,0.00010733318117451247
-0.4863414572900793,-0.4863414572900793,0.9999967100217416,0.00010731419508327306
-0.48628331455042195,-0.48628331455042195,1.0000276774666426,0.00010732580026074961
-0.4862251718112443,-0.4862251718112443,1.000003591924925,0.00010730731195064448
-0.48616702907256515,-0.48616702907256515,0.99998069523377,0.00010732359847121184
-0.486108886334421,-0.486108886334421,1.0000197819731407,0.00010730978431754837
-0.4860507435967752,-0.4860507435967752,1.0000074168856419,0.00010730925781626661
-0.4859926008596876,-0.4859926008596876,0.9999574372980178,0.00010733554828513463
-0.48593445812315295,-0.48593445812315295,1.0000093040197369,0.00010731529736239423
-0.48587631538718,-0.48587631538718,0.9999707930887748,0.0001073328470909312
