time,time,flux,flux_err
-0.4322668317769853,-0.4322668317769853,1.0000184266022343,1.1022048981132681e-05
-0.4320985972528145,-0.4320985972528145,0.9999002799350487,9.448142127991246e-06
-0.4319527291702688,-0.4319527291702688,0.999964721800672,9.447751030103067e-06
-0.4318068610892885,-0.4318068610892885,0.9999482231072261,9.448783555282962e-06
-0.43166099300909105,-0.43166099300909105,0.9998219602758937,9.449847824284101e-06
-0.43151512492967486,-0.43151512492967486,0.9999988949452747,9.450279837338703e-06
-0.43136925685057237,-0.43136925685057237,1.0000154453190568,9.449859980884187e-06
-0.4312233887714692,-0.4312233887714692,0.9999766329295834,9.449450981388507e-06
-0.43107752069228944,-0.43107752069228944,0.9999265971926661,9.449557617871093e-06
-0.4309316526127951,-0.4309316526127951,1.0000546662896255,9.449777475441624e-06
-0.4307857845330666,-0.4307857845330666,0.9998596471827007,9.448823228273622e-06
-0.43063991645263366,-0.43063991645263366,0.9999762039172866,9.449208337991451e-06
-0.4304940483717319,-0.4304940483717319,0.9999111076569029,9.44885392704987e-06
-0.4303481802901247,-0.4303481802901247,1.0000215142518714,9.44998249858628e-06
-0.4302023122079703,-0.4302023122079703,0.9998990763494376,9.449656445868206e-06
-0.43005644412526856,-0.43005644412526856,0.9999374909939919,9.450382461365198e-06
-0.4299105760415488,-0.4299105760415488,1.000068390296257,9.451129895416712e-06
-0.42976470795720356,-0.42976470795720356,0.9998612857379335,9.450528160760138e-06
-0.4296179063170392,-0.4296179063170392,1.000029919809584,9.450844471460215e-06
-0.42946713706408063,-0.42946713706408063,0.9999231993692389,9.45086734980884e-06
-0.42932126897824807,-0.42932126897824807,0.9999323719253429,9.451197589768059e-06
-0.4291754008919469,-0.4291754008919469,1.0000461593267496,9.451580229740433e-06
-0.429029532805175,-0.429029532805175,0.999986573456305,9.451721851331948e-06
-0.4288836647180913,-0.4288836647180913,0.9998928119473316,9.451006923402977e-06
-0.4287377966308501,-0.4287377966308501,1.0000844334533545,9.452276629458422e-06
-0.4285919285432966,-0.4285919285432966,0.9998663837449783,9.45071980670876e-06
-0.4284460604555086,-0.4284460604555086,1.0000679833424693,9.451516276942375e-06
-0.4283001923677189,-0.4283001923677189,0.9999691529321725,9.451094910616314e-06
-0.42815432428008704,-0.42815432428008704,0.9999755972110126,9.451981965499705e-06
-0.4280075226366371,-0.4280075226366371,0.9999335239965458,9.451900724058483e-06
-0.4278509186579164,-0.4278509186579164,1.000036106895522,9.453018021408827e-06
-0.4277050505705965,-0.4277050505705965,0.999949575704357,9.452845272340905e-06
-0.4275591824838257,-0.4275591824838257,1.0000453216893597,9.452282797608715e-06
-0.42741331439728897,-0.42741331439728897,0.9999392010486348,9.451395969204126e-06
-0.4272674463111429,-0.4272674463111429,0.9999070398524719,9.451585944048413e-06
-0.42712157822593666,-0.42712157822593666,1.0000599801956918,9.452311042411225e-06
-0.4269757101407306,-0.4269757101407306,0.9999081412819532,9.452303602395423e-06
-0.42682984205693286,-0.42682984205693286,1.0000644645159977,9.453482345225316e-06
-0.42668397397352625,-0.42668397397352625,0.9999424784952107,9.453739331743937e-06
-0.42653577200186454,-0.42653577200186454,0.9997487959084654,9.452347809689204e-06
-0.42638220208551925,-0.42638220208551925,1.000026471208169,9.452336202145197e-06
-0.4262347002826591,-0.4262347002826591,0.9999510848130015,9.451398274251176e-06
-0.4260888322032427,-0.4260888322032427,0.9999730215823615,9.451695722633812e-06
-0.4259429641250012,-0.4259429641250012,1.0000278013333186,9.452133408525006e-06
-0.42579709604808913,-0.42579709604808913,1.000016924279312,9.452358003764473e-06
-0.42565122797219423,-0.42565122797219423,0.9998031275218338,9.45146646595686e-06
-0.4255053598978645,-0.4255053598978645,0.999921104193119,9.451126107959409e-06
-0.425359491824708,-0.425359491824708,1.000021316659828,9.451270939397638e-06
-0.4252136237532739,-0.4252136237532739,0.9998350842157319,9.450442132809503e-06
-0.42506775568317,-0.42506775568317,1.0000379041376104,9.451249234061959e-06
-0.4249174532255305,-0.4249174532255305,1.0000222644162957,9.451817305413858e-06
-0.4247643501027831,-0.4247643501027831,0.9999363202115438,9.450576595686816e-06
-0.42458907503610066,-0.42458907503610066,0.9999364611285759,9.449674539127815e-06
-0.42440049680477826,-0.42440049680477826,0.9999721934020016,9.451167874314134e-06
-0.42424926079922437,-0.42424926079922437,0.999830943295786,9.451343579179796e-06
-0.42409639107476255,-0.42409639107476255,1.0000006500471899,9.451677804928678e-06
-0.42394748896247164,-0.42394748896247164,1.0000187576552606,9.451491720361306e-06
-0.4237857504639567,-0.4237857504639567,1.0001420989697019,9.452623901441801e-06
-0.4236265792454885,-0.4236265792454885,0.9997651280171423,9.451346042630163e-06
-0.4234802444178598,-0.4234802444178598,1.0000346124282875,9.451675598167457e-06
-0.4233231737042276,-0.4233231737042276,0.9998882403976623,9.450192556948755e-06
-0.4231773056590072,-0.4231773056590072,1.0000029094354743,9.450520837575928e-06
-0.4230314376158987,-0.4230314376158987,0.999962561255224,9.450269235387437e-06
-0.4228855695750605,-0.4228855695750605,0.9999157800785998,9.451271830594605e-06
-0.4227338668152676,-0.4227338668152676,0.9999926537316736,9.450894497726915e-06
-0.42258799877920195,-0.42258799877920195,0.9998131303338285,9.450303655125729e-06
-0.4224397968573076,-0.4224397968573076,0.9999840658999076,9.45181101449966e-06
-0.42228506005000577,-0.42228506005000577,0.9999898820625746,9.451821511055393e-06
-0.4221368581331982,-0.4221368581331982,1.0000652498467142,9.453076967996113e-06
-0.4219828214979833,-0.4219828214979833,0.9999998243791856,9.453054860122339e-06
-0.42182318353380577,-0.42182318353380577,1.000185638344907,9.453389782426126e-06
-0.42161383375225314,-0.42161383375225314,0.999871987459005,9.450188442079967e-06
-0.4214502281849839,-0.4214502281849839,0.9998195316172429,9.449102367629678e-06
-0.4213043601716894,-0.4213043601716894,0.9999310150514618,9.44959595392806e-06
-0.4211584921613678,-0.4211584921613678,1.0000379832945892,9.449343777026722e-06
-0.4210126241534729,-0.4210126241534729,0.9999876969230523,9.44939734357289e-06
-0.42086675614847235,-0.42086675614847235,0.9999250497747998,9.449057462668081e-06
-0.4207208881462897,-0.4207208881462897,1.0000312487910734,9.450343339919025e-06
-0.4205750201471581,-0.4205750201471581,1.0000016833782874,9.450619973682827e-06
-0.4204291521507656,-0.4204291521507656,0.9998444811428155,9.450031047187513e-06
-0.42028328415726773,-0.42028328415726773,1.0000357444737007,9.45035965971007e-06
-0.4201374161669008,-0.4201374161669008,0.9999497624287829,9.449263945071077e-06
-0.4199915481795067,-0.4199915481795067,1.000025946969232,9.450108964507669e-06
-0.41984568019516466,-0.41984568019516466,0.9998459834436764,9.448693767484811e-06
-0.41969981221379643,-0.41969981221379643,1.000021013055931,9.4492748917544e-06
-0.41955394423547876,-0.41955394423547876,0.9998468269865046,9.448359177565142e-06
-0.4194080762603704,-0.4194080762603704,1.0000393766602973,9.449665461786147e-06
-0.419262208288235,-0.419262208288235,0.9999947475188357,9.448983402518707e-06
-0.41911634031946543,-0.41911634031946543,1.0000443609296161,9.44885712679307e-06
-0.41896487102376645,-0.41896487102376645,0.9998880196574585,9.448010144835013e-06
-0.4188129349543452,-0.4188129349543452,1.000001110698736,9.449358998116804e-06
-0.4186670669952777,-0.4186670669952777,1.0000036481403491,9.44901353356055e-06
-0.4185211990396532,-0.4185211990396532,0.9999477663813415,9.448845095830143e-06
-0.4183753310871593,-0.4183753310871593,0.9999898756954039,9.448743795454166e-06
-0.41822946313810777,-0.41822946313810777,1.000027648670531,9.449095635688558e-06
-0.41808359519165916,-0.41808359519165916,1.0000206450446427,9.44951741427895e-06
-0.4179377271093177,-0.4179377271093177,0.9998133328749137,9.448548918244377e-06
-0.41779185892264686,-0.41779185892264686,1.0001066611244027,9.450057121440052e-06
-0.41764108956859136,-0.41764108956859136,0.9999883285919318,9.449701490713406e-06
-0.41749428783242093,-0.41749428783242093,0.9999144844715232,9.44972062290495e-06
-0.4173465525434638,-0.4173465525434638,0.9999557878180022,9.449259544916982e-06
-0.4171967167563567,-0.4171967167563567,0.9999687134974369,9.449140473897177e-06
-0.41705084858721336,-0.41705084858721336,0.9999029533038388,9.447771333338844e-06
-0.41690498042143515,-0.41690498042143515,1.000042954867705,9.448196829377482e-06
-0.41675911225980367,-0.41675911225980367,0.9999327754385732,9.447964142831654e-06
-0.4166132441005194,-0.4166132441005194,0.999938344373988,9.448723548497867e-06
-0.41646667577828983,-0.41646667577828983,0.9999139361658695,9.447900888320597e-06
-0.41631567306772777,-0.41631567306772777,1.0000220106641722,9.44897994442472e-06
-0.4161660706954226,-0.4161660706954226,0.9998997326208245,9.448758313690568e-06
-0.4159905621449633,-0.4159905621449633,1.0000298442135138,9.449058774049535e-06
-0.4158164539333852,-0.4158164539333852,0.9998863926240056,9.447591602435458e-06
-0.4156621837935511,-0.4156621837935511,0.9998835490742985,9.44814218493646e-06
-0.41551374838296395,-0.41551374838296395,0.9999385119688637,9.449335150991609e-06
-0.4153646128090399,-0.4153646128090399,0.9997603780949808,9.448548476043471e-06
-0.41521734435086,-0.41521734435086,0.9999150118645925,9.44919889889509e-06
-0.41506704183978743,-0.41506704183978743,0.9999598260220169,9.44879496610943e-06
-0.41491277171975066,-0.41491277171975066,0.999923908726647,9.448260371475748e-06
-0.41473446253941704,-0.41473446253941704,1.0001249851175005,9.449260330071296e-06
-0.4145827597073824,-0.4145827597073824,0.9998073952841727,9.448253533754202e-06
-0.41443105687918147,-0.41443105687918147,1.0000057338306834,9.449536419047277e-06
-0.41428518877913323,-0.41428518877913323,1.0000275607001607,9.449377840422214e-06
-0.4141386205159819,-0.4141386205159819,0.9998885813635281,9.448785798578955e-06
-0.4139810829762176,-0.4139810829762176,0.9999749403347031,9.450023805915365e-06
-0.41382891338649125,-0.41382891338649125,0.9999274936178212,9.449945796561145e-06
-0.4136783775235305,-0.4136783775235305,0.9999449557068921,9.449918617813082e-06
-0.41353250944304476,-0.41353250944304476,0.9999638831455737,9.45035523114883e-06
-0.41338664136662795,-0.41338664136662795,1.0000090373788164,9.451078410623592e-06
-0.41324077329396725,-0.41324077329396725,0.999993774782552,9.450771710416499e-06
-0.4130949052252184,-0.4130949052252184,0.999998877792555,9.450535326866267e-06
-0.4129434358266867,-0.4129434358266867,0.9999661221872591,9.449310570733936e-06
-0.4127849647657502,-0.4127849647657502,0.99993493479498,9.44872121347659e-06
-0.41258401693254854,-0.41258401693254854,0.9997671965658513,9.449521029341302e-06
-0.4123945051608812,-0.4123945051608812,0.9999623979670564,9.450638784089275e-06
-0.412216196062006,-0.412216196062006,0.9999187852106084,9.449995713944297e-06
-0.4120623927994284,-0.4120623927994284,0.9999562055038345,9.448897121707507e-06
-0.41191232376341186,-0.41191232376341186,0.9998904717713725,9.448654242241764e-06
-0.41175011851105003,-0.41175011851105003,0.9999607300693516,9.449610897748361e-06
-0.4115841790424584,-0.4115841790424584,0.999838252049158,9.448879678810655e-06
-0.4114275751321658,-0.4114275751321658,0.9998589715570297,9.448021118898739e-06
-0.4112537004539384,-0.4112537004539384,0.9998919222489168,9.445793555659955e-06
-0.4110235790753622,-0.4110235790753622,0.999909441192651,9.446754654821095e-06
-0.4108777110671797,-0.4108777110671797,0.9999962185884247,9.44756957299424e-06
-0.4107318430629096,-0.4107318430629096,0.9999649592987371,9.447764131459635e-06
-0.41058597506278594,-0.41058597506278594,1.000050256147255,9.448258498897072e-06
-0.41044010706681056,-0.41044010706681056,0.9999678113294674,9.448100296972772e-06
-0.41029423907521706,-0.41029423907521706,0.9999002613338771,9.447883694322473e-06
-0.4101483710869882,-0.4101483710869882,0.9999716712712103,9.447846962222786e-06
-0.4100025031033757,-0.4100025031033757,0.9999841417549666,9.447412828656813e-06
-0.40985663512375436,-0.40985663512375436,0.9999784037381417,9.447590559124128e-06
-0.409710767148202,-0.409710767148202,0.9998039088217624,9.446827554079343e-06
-0.4095648991768755,-0.4095648991768755,1.0000130237815157,9.44781844776515e-06
-0.40941903121047807,-0.40941903121047807,0.9999709877148387,9.447042828311003e-06
-0.40927316324666324,-0.40927316324666324,1.0000721561939925,9.44762801579593e-06
-0.4091272952876997,-0.4091272952876997,0.9999024752213745,9.447334026664961e-06
-0.40898142733304166,-0.40898142733304166,0.9999790742400212,9.44695441804419e-06
-0.40883555938260746,-0.40883555938260746,1.0000163607419599,9.447237904654465e-06
-0.4086896914361642,-0.4086896914361642,0.9999822921418676,9.447525821889497e-06
-0.40854382349379004,-0.40854382349379004,0.9999060269483147,9.447622153238874e-06
-0.40839795555595354,-0.40839795555595354,1.000007411279544,9.448171187163744e-06
-0.4082520876222654,-0.4082520876222654,1.0000647373430982,9.448124409513627e-06
-0.40810621969288013,-0.40810621969288013,0.9999005465917209,9.447490752819954e-06
-0.4079603517674082,-0.4079603517674082,0.9999171987065957,9.447016121566182e-06
-0.40781448384655317,-0.40781448384655317,0.9999847297950353,9.446846341429415e-06
-0.40766861592953096,-0.40766861592953096,0.9999569402095817,9.446867499660386e-06
-0.4075169133003991,-0.4075169133003991,1.0000006517862237,9.447085625562484e-06
-0.4073652106759617,-0.4073652106759617,1.0000162684632543,9.447046047989977e-06
-0.4072193427721652,-0.4072193427721652,0.9999318756257685,9.446828089888059e-06
-0.4070730080954176,-0.4070730080954176,1.000007711998802,9.447075308017083e-06
-0.4069203719300104,-0.4069203719300104,0.999890631676999,9.446312600867183e-06
-0.4067642349398565,-0.4067642349398565,1.000078961042365,9.447117669783701e-06
-0.4066183670538219,-0.4066183670538219,0.9999031030193836,9.446327167957753e-06
-0.4064724991717782,-0.4064724991717782,0.9997242938317829,9.446174123492869e-06
-0.4063259311285107,-0.4063259311285107,0.999818284084496,9.446591869336874e-06
-0.40616909399121626,-0.40616909399121626,0.9998359476664426,9.446705689845902e-06
-0.4059991870983312,-0.4059991870983312,0.9999749657929519,9.448485660604375e-06
-0.40584818468606,-0.40584818468606,0.9999121189070616,9.448083245292724e-06
-0.40569671550122965,-0.40569671550122965,0.999950869497822,9.448317790987041e-06
-0.4055389448300074,-0.4055389448300074,0.9999976271768484,9.447855791900408e-06
-0.4053872422660577,-0.4053872422660577,0.9999232520448548,9.447582497382956e-06
-0.4052413744205575,-0.4052413744205575,0.9999747379533165,9.447422338328683e-06
-0.40508687120364845,-0.40508687120364845,0.9998551187567832,9.4468566313035e-06
-0.40492980071744056,-0.40492980071744056,1.0000033844785128,9.44833061674458e-06
-0.40477459734462756,-0.40477459734462756,0.9999517501015891,9.4486799831534e-06
-0.40462872951735934,-0.40462872951735934,0.9999990954582888,9.44892765878408e-06
-0.40447329276558436,-0.40447329276558436,0.9998644093641328,9.447905176912833e-06
-0.4043204232924218,-0.4043204232924218,0.9999657186728982,9.448336190625597e-06
-0.4041605521692174,-0.4041605521692174,0.9998359303056205,9.447422099356213e-06
-0.4040058155978382,-0.4040058155978382,1.0000218286030684,9.448124154565614e-06
-0.40385854746302685,-0.40385854746302685,0.9999622920957277,9.447497144387217e-06
-0.4037070783399752,-0.4037070783399752,0.9999817206342282,9.447541212138764e-06
-0.4035609771567493,-0.4035609771567493,1.0000233495601147,9.448268070270717e-06
-0.4034127754813589,-0.4034127754813589,0.9998257905864609,9.44715587810745e-06
-0.40325477149569233,-0.40325477149569233,1.0000459893570144,9.448204759033573e-06
-0.40310003495338353,-0.40310003495338353,0.9999760995044029,9.447484805874097e-06
-0.4029485658542381,-0.4029485658542381,1.0000120336553884,9.448923540452782e-06
-0.40277959262760044,-0.40277959262760044,0.9999425999013114,9.447984788426336e-06
-0.4026236891585507,-0.4026236891585507,0.9999916417992368,9.448259506582772e-06
-0.402449348009889,-0.402449348009889,1.0000562834071145,9.448468390123708e-06
-0.40228200851956347,-0.40228200851956347,0.9999300100541095,9.447950689914908e-06
-0.40212563828984893,-0.40212563828984893,1.0000649492050158,9.447946239611239e-06
-0.4019744026099641,-0.4019744026099641,0.9998549165319417,9.447317358313468e-06
-0.4018276013141463,-0.4018276013141463,1.0000163241543556,9.448534584218367e-06
-0.40167636564365183,-0.40167636564365183,0.9999937521617415,9.448538556845358e-06
-0.4015304979105183,-0.4015304979105183,0.9999471751536563,9.448161773156975e-06
-0.40137716175431476,-0.40137716175431476,0.9999812085244295,9.448038028111469e-06
-0.40122709304006127,-0.40122709304006127,0.999911539878017,9.447962963891913e-06
-0.40107819127207217,-0.40107819127207217,0.9999243910727994,9.448058566104545e-06
-0.40092952289720996,-0.40092952289720996,1.0000164510074236,9.448455493320079e-06
-0.40073884462773035,-0.40073884462773035,0.99997867121973,9.447923751537461e-06
-0.4005210933200651,-0.4005210933200651,1.0000190768173525,9.447329695773427e-06
-0.4003752256223006,-0.4003752256223006,0.9998972497206884,9.446738929286927e-06
-0.4002293579293493,-0.4002293579293493,0.9999763273611182,9.447369988155129e-06
-0.4000834902408588,-0.4000834902408588,0.9999537510890969,9.446489689592702e-06
-0.3999376225568275,-0.3999376225568275,0.999959824052862,9.446463316979586e-06
-0.39979175487733476,-0.39979175487733476,0.9999384320163109,9.44652614990892e-06
-0.399645887202224,-0.399645887202224,1.0000316155188826,9.447555820621314e-06
-0.3995000195319644,-0.3995000195319644,0.9999436203338312,9.447346923929415e-06
-0.399354151866009,-0.399354151866009,0.9998807839536863,9.44636699700463e-06
-0.39920828420470933,-0.39920828420470933,1.0000536412352097,9.44717853416637e-06
-0.3990624165523881,-0.3990624165523881,0.9999976306896354,9.447003999009841e-06
-0.3989165492807894,-0.3989165492807894,1.000002483348021,9.446924830180554e-06
-0.39877068225405327,-0.39877068225405327,0.9999295779316878,9.447013189746276e-06
-0.3986248152318156,-0.3986248152318156,0.9999613441245202,9.447121015507083e-06
-0.3984789482142331,-0.3984789482142331,1.0000054501086417,9.447158853057982e-06
-0.3983293470057873,-0.3983293470057873,0.9999346711056804,9.446351739531972e-06
-0.3981755448323067,-0.3981755448323067,1.0000636095780489,9.446339880313034e-06
-0.3980296778289668,-0.3980296778289668,0.9998446205851732,9.445730655252879e-06
-0.39788381082992996,-0.39788381082992996,1.000028660863705,9.446642975765675e-06
-0.39773794383558914,-0.39773794383558914,0.9999617417240202,9.446874613493607e-06
-0.39759207684586445,-0.39759207684586445,0.9999169862859236,9.446739867540078e-06
-0.397446209860718,-0.397446209860718,1.0000170740051753,9.4470288657717e-06
-0.39730034287999205,-0.39730034287999205,1.0000014670400819,9.447026409433916e-06
-0.39715447590427466,-0.39715447590427466,0.9999734273841911,9.44703862925995e-06
-0.39700860893286105,-0.39700860893286105,0.9998812474380019,9.446706748874812e-06
-0.3968627419661427,-0.3968627419661427,1.0000646238837514,9.447185824814874e-06
-0.3967168750040795,-0.3967168750040795,0.9999225083821006,9.446638431231845e-06
-0.39657100804659307,-0.39657100804659307,1.0000086724926773,9.446756774582684e-06
-0.39642514109376475,-0.39642514109376475,0.9998899542057043,9.445322319628375e-06
-0.39627927414555175,-0.39627927414555175,0.9999892421675544,9.447032343242492e-06
-0.3961334072019952,-0.3961334072019952,0.9999323903135242,9.44700731648754e-06
-0.39598217235985284,-0.39598217235985284,1.0000292346680086,9.447878217656764e-06
-0.3958358386515542,-0.3958358386515542,0.9999723128800617,9.448168502193728e-06
-0.3956899717219654,-0.3956899717219654,0.999977651453819,9.44820340562661e-06
-0.3955441047973055,-0.3955441047973055,1.0000564448541844,9.449131855196794e-06
-0.3953982378772631,-0.3953982378772631,0.9999426236909692,9.447914071909573e-06
