time,time,flux,flux_err
-0.4994104219786095,-0.4994104219786095,0.999910876979167,0.00014541962614584826
-0.498725182472117,-0.498725182472117,1.0000827402557633,0.0001344484956265964
-0.49796852426443367,-0.49796852426443367,0.9999480590373432,0.00013336339061357757
-0.497226008328289,-0.497226008328289,0.9999177272615063,0.00013203603599574567
-0.4965251774992794,-0.4965251774992794,0.9999492728157279,0.00013418576641150033
-0.4955963751686795,-0.4955963751686795,0.9998973109383489,0.00013194996705611443
-0.49478860288654686,-0.49478860288654686,1.0001515926257607,0.0001305704736413516
-0.49368637734514775,-0.49368637734514775,0.9999913785255939,0.00013349393657996527
-0.49281696003163233,-0.49281696003163233,1.0000144472423274,0.00013052630152392172
-0.49178970419015966,-0.49178970419015966,1.0000283789842226,0.00013205299271017254
-0.4908462451196101,-0.4908462451196101,1.0000483416214219,0.00013205320402106242
-0.4901039492739073,-0.4901039492739073,1.0002191231143522,0.00013053159082002233
-0.4890537116785708,-0.4890537116785708,1.0000145910543443,0.00013194731072746008
-0.4883155717972841,-0.4883155717972841,0.9999525408748259,0.00013048113380948124
-0.4871077522650012,-0.4871077522650012,0.9998294630585848,0.0001320762873807117
-0.4861910164836445,-0.4861910164836445,0.9998585650128966,0.00013048610682866484
-0.48498233181380784,-0.48498233181380784,1.0000388528848938,0.00013205828185093317
-0.48406654225618695,-0.48406654225618695,0.9998430679140388,0.00013049284327331436
-0.48285993520839837,-0.48285993520839837,1.0001226876349054,0.00013204853715093555
-0.4819421507556399,-0.4819421507556399,0.999959631152451,0.00013047671327278342
-0.48073600693023766,-0.48073600693023766,0.9999839708777408,0.00013204548985329707
-0.4799274256132776,-0.4799274256132776,0.9999052454099893,0.0001309032861740575
-0.478908090369805,-0.478908090369805,0.9999752526865219,0.00013203903800225447
-0.47788857634586746,-0.47788857634586746,1.000093106484774,0.00013077697695193402
-0.47734288937208474,-0.47734288937208474,0.9999329559327581,0.00013201208880123002
-0.47599230949490445,-0.47599230949490445,0.9998784780051638,0.0001321740259468859
-0.47551063296050416,-0.47551063296050416,0.9998418774714839,0.0001304102242337864
-0.4743647531933675,-0.4743647531933675,0.9998480683704575,0.00013203543284203337
-0.47355069820041534,-0.47355069820041534,0.9998806660151255,0.00013057840673056574
-0.4728821461110783,-0.4728821461110783,1.000158192571077,0.00013406660279928148
-0.4717935207823757,-0.4717935207823757,0.9999947988717153,0.00013200266652459085
-0.47135951201125864,-0.47135951201125864,1.0000439791984546,0.00013200109838747552
-0.47051844081797756,-0.47051844081797756,0.9999182291298478,0.0001339686228051388
-0.4695031469593232,-0.4695031469593232,0.9999885299615018,0.00013206656367835802
-0.46880801446095577,-0.46880801446095577,0.9999514283506661,0.0001338162582748302
-0.46752167015220036,-0.46752167015220036,1.0000515664434162,0.00013357948168510195
-0.46693103664292723,-0.46693103664292723,0.9999201495482559,0.00013200138166348735
-0.465563554995606,-0.465563554995606,1.0002081793410666,0.0001351990357018649
-0.4649402631293924,-0.4649402631293924,1.0000762213773053,0.00013051066175071813
-0.4642843054345576,-0.4642843054345576,0.9999537452695544,0.00013510178406932197
-0.4631280044988671,-0.4631280044988671,0.9999525790685899,0.0001321209478189328
-0.4626826074520068,-0.4626826074520068,0.9998680605311805,0.0001334521713026179
-0.46178203927265715,-0.46178203927265715,1.0001680174798273,0.0001336140588224115
-0.4607785502179468,-0.4607785502179468,0.999803361464223,0.00013200879696630678
-0.4604572393596754,-0.4604572393596754,0.9999770063985695,0.00013349143694721004
-0.45903399196322425,-0.45903399196322425,1.000021967412295,0.00013362830052218396
-0.45849683326887314,-0.45849683326887314,1.000065450324837,0.00013199052889912902
-0.4580179767850495,-0.4580179767850495,1.0000495436986463,0.0001486336915054581
-0.4566459838184528,-0.4566459838184528,0.9999176877262513,0.00013206534672877482
-0.4562113011961628,-0.4562113011961628,0.9997595926267646,0.00013349937976018167
-0.45471375120105223,-0.45471375120105223,0.9997781753165332,0.00013205651424504642
-0.4541360039220308,-0.4541360039220308,1.000012188939697,0.0001349700997864014
-0.45294938490260395,-0.45294938490260395,0.999807341098192,0.00013204238032001536
-0.45207648822906776,-0.45207648822906776,1.0000052847174845,0.00013342711000992698
-0.45146826776763194,-0.45146826776763194,0.9998697353075958,0.00013503409345087054
-0.4501370795194816,-0.4501370795194816,0.9999547789402422,0.00013195423649925772
-0.44982629945734515,-0.44982629945734515,0.9996553466834168,0.00013346598231877362
-0.4483407984065707,-0.4483407984065707,1.0000646040479466,0.0001320796841440366
-0.4477885261716438,-0.4477885261716438,1.0000394677923663,0.00013493729600912461
-0.4471835977579758,-0.4471835977579758,1.0000199068218663,0.0001322643950546887
-0.4460258028899261,-0.4460258028899261,0.9999998398703205,0.00013207989471427362
-0.44563060237996976,-0.44563060237996976,1.000148021296214,0.00013497221947841466
-0.44465457363039607,-0.44465457363039607,0.9997974706108913,0.00013202868759825984
-0.4436014337130473,-0.4436014337130473,1.0000156701778182,0.00013490452464918887
-0.44315382895656513,-0.44315382895656513,0.9999532064387914,0.00013048454059672338
-0.44181367683922873,-0.44181367683922873,0.9999963127913922,0.00013343071468561546
-0.4413304847839754,-0.4413304847839754,1.000024022416468,0.00013346829753592513
-0.4401929677092994,-0.4401929677092994,0.9998245391733713,0.00013040782903527833
-0.4393443172397383,-0.4393443172397383,0.9998949742873029,0.00013642484851188928
-0.4389036466644029,-0.4389036466644029,0.9999731733070274,0.00013047270084882767
-0.437563615525869,-0.437563615525869,0.9998130205109337,0.00013343659326358744
-0.43708295223041205,-0.43708295223041205,0.9997961342316237,0.00013345558768275393
-0.43593913377990245,-0.43593913377990245,0.9999602867259035,0.00013043186685868317
-0.4350504583067959,-0.4350504583067959,1.0001120311481206,0.0001349746952256012
-0.43431380319962043,-0.43431380319962043,1.0000012737336674,0.0001304465187129003
-0.4330982548650354,-0.4330982548650354,1.0002079690290693,0.0001334569281107297
-0.4325387489014247,-0.4325387489014247,1.000194935937091,0.00013052694823805262
-0.43143040991635645,-0.43143040991635645,0.9998422187302415,0.00013195456623636706
-0.4307281475863419,-0.4307281475863419,0.9999204952046699,0.00013344786912182212
-0.4297969614031899,-0.4297969614031899,0.9998699070327349,0.00013042460346259453
-0.4287380836540251,-0.4287380836540251,1.0001678578014195,0.00013498670220492946
-0.42811062679538736,-0.42811062679538736,0.9999175690023755,0.00012890811731531803
-0.42693316896038597,-0.42693316896038597,1.0000299881908723,0.00013349506843403111
-0.42615445163537513,-0.42615445163537513,0.9998279090766864,0.0001304252435019785
-0.4251427477189281,-0.4251427477189281,0.9999948445321865,0.00013345823795454578
-0.42436126899410737,-0.42436126899410737,0.9999605765601658,0.0001320178809876994
-0.4234144920985273,-0.4234144920985273,1.0000590569056655,0.00013201301391168547
-0.4224686300731264,-0.4224686300731264,1.000085184911882,0.0001334854632238945
-0.4217211853429035,-0.4217211853429035,1.0000526203136788,0.00012890681759134437
-0.4209020760339627,-0.4209020760339627,1.0000748135636226,0.00013351036632234072
-0.42010774189038785,-0.42010774189038785,1.0000733252161738,0.00013202122756299903
-0.4193036083808693,-0.4193036083808693,0.9998278925856716,0.00013199850802387092
-0.41833567423091156,-0.41833567423091156,0.9999293897984431,0.0001319968580081115
-0.41764334471590703,-0.41764334471590703,1.0003281130255997,0.00013042971638582522
-0.41686794352935974,-0.41686794352935974,0.9998851064884902,0.00013199819800457826
-0.4159543593232229,-0.4159543593232229,1.0000414471531118,0.0001334825243223095
-0.41519775465349085,-0.41519775465349085,0.9999073963693726,0.00013052077711968855
-0.41453828309677193,-0.41453828309677193,1.0002374690018125,0.00013354566140709136
-0.41372358318621993,-0.41372358318621993,1.000044317733564,0.00013203763604496016
-0.41293881816163774,-0.41293881816163774,1.0000909307793204,0.0001319671829520625
-0.4119659131349181,-0.4119659131349181,0.9999585936155085,0.0001334819374789572
-0.411259426518518,-0.411259426518518,1.000049945286193,0.0001294711062236748
-0.4106474662774417,-0.4106474662774417,1.0001125307498095,0.00013199908429762812
-0.4097316699801013,-0.4097316699801013,1.0001317288179972,0.00013347895046389034
-0.4089629297188367,-0.4089629297188367,0.9996181795170213,0.00013047863299280838
-0.4083704020806181,-0.4083704020806181,1.0000281722582276,0.00013088049738585667
-0.40746056194693664,-0.40746056194693664,1.0001174010741292,0.00013349753940688014
-0.40671212434026527,-0.40671212434026527,0.9998831120074627,0.00013080273256985177
-0.40612765463301914,-0.40612765463301914,1.0000943142932788,0.00013048540904682517
-0.40523579375003466,-0.40523579375003466,1.0000687078534098,0.00013200248718803618
-0.4044724842358846,-0.4044724842358846,1.0000517409792773,0.00013067217952740572
-0.4039961565438716,-0.4039961565438716,1.000033895246461,0.00013204375261257554
-0.4031077524094144,-0.4031077524094144,1.0000449851185096,0.00013202013432369995
-0.4023528714205895,-0.4023528714205895,1.000217120656449,0.00014055545532570796
-0.4018735823970928,-0.4018735823970928,0.9999160915700868,0.00013228595295866776
-0.40097978999256156,-0.40097978999256156,1.0000487863367264,0.00013200100352524807
-0.400230413475947,-0.400230413475947,1.0000437483467954,0.00013933424862834005
-0.39974843087111367,-0.39974843087111367,0.999883986238118,0.00013107589335174634
-0.39885190701970713,-0.39885190701970713,1.0000770619995312,0.00013204210799675617
-0.3981085302810243,-0.3981085302810243,1.0001757335138293,0.0001377421099600604
-0.3975595588424767,-0.3975595588424767,0.9999280079674788,0.00013288202306256555
-0.39672410475759534,-0.39672410475759534,0.9998886711867495,0.0001319854976866796
-0.39597814342414495,-0.39597814342414495,0.9998762441630437,0.000136642612021047
-0.39526956222834997,-0.39526956222834997,0.9998669846175977,0.000133096469173786
-0.3943886103879777,-0.3943886103879777,0.9999841424336756,0.00013045797779469634
-0.39374780005018695,-0.39374780005018695,1.0003481623814585,0.00013749975309562272
-0.39298470525754964,-0.39298470525754964,1.0000566709534158,0.00013314370080912125
-0.392106558818341,-0.392106558818341,1.000042748476812,0.00013052453760439226
-0.39149695958622033,-0.39149695958622033,0.9998975205868297,0.00013658264705937196
-0.3907541610496992,-0.3907541610496992,1.0000863243829314,0.00013349100545533476
-0.3901317400770495,-0.3901317400770495,0.9999043756385412,0.0001320530284838072
-0.38950206209628957,-0.38950206209628957,0.9997997198620079,0.00013476939245166987
-0.38874265017875587,-0.38874265017875587,0.9999123085917196,0.00013331913147554775
-0.38800514343893155,-0.38800514343893155,1.000161397946235,0.00013203469819180434
-0.3873780746216653,-0.3873780746216653,1.0000814030083314,0.00013441339518923922
-0.3866217639028037,-0.3866217639028037,0.999960691828311,0.00013338189072674764
-0.385878620789299,-0.385878620789299,0.9999914026354408,0.00013202471244501602
-0.38517824757582275,-0.38517824757582275,1.0002432663300609,0.0001341843036037908
-0.38424898949233466,-0.38424898949233466,1.0000730964861275,0.00013199533362806776
-0.3834526767321222,-0.3834526767321222,1.000010247293195,0.0001320520394110678
-0.38256656807425315,-0.38256656807425315,1.0000027008821752,0.00013205910730157666
-0.3816254057637707,-0.3816254057637707,1.0001496704742192,0.0001320920665388675
-0.3808808662572119,-0.3808808662572119,1.0000850156554741,0.00013054844597883147
-0.3798332166807086,-0.3798332166807086,0.999930461982844,0.00013195452476021382
-0.37909302188490984,-0.37909302188490984,1.0001241916270462,0.00013053090872810122
-0.37809572656988166,-0.37809572656988166,0.9999192501268095,0.00013348961327956245
-0.37721520390114166,-0.37721520390114166,0.9999132656455119,0.00013053412260855658
-0.37636697221023496,-0.37636697221023496,1.0000401229624065,0.00013204452830062235
-0.37508818009664535,-0.37508818009664535,0.9998803660382679,0.00013053335911478848
-0.3742440096495557,-0.3742440096495557,1.0000037317040797,0.0001320291807880694
-0.37296123678097504,-0.37296123678097504,1.0000805668871726,0.00013056663420462673
-0.3721211331030645,-0.3721211331030645,1.000019511744509,0.00013204835719280103
-0.37083746096250253,-0.37083746096250253,1.0000151608642625,0.00013049309114701813
-0.3699983439153584,-0.3699983439153584,1.0001924817886758,0.0001320155703417879
-0.3687695832180907,-0.3687695832180907,1.000062217468043,0.00013092044557402212
-0.3681380160363915,-0.3681380160363915,1.000069382497586,0.00013051605663447351
-0.3667702299542725,-0.3667702299542725,1.0001195633472288,0.00013230598132126602
-0.36629061441562955,-0.36629061441562955,0.9999314581843812,0.00013044445807534156
-0.36514133663949905,-0.36514133663949905,1.0000923352112547,0.0001320920798690703
-0.36432892308366716,-0.36432892308366716,0.999936393971175,0.000130643574613116
-0.36362072821793845,-0.36362072821793845,0.999921338970087,0.00013352319423848337
-0.36238506415538724,-0.36238506415538724,0.9998565613160663,0.00013062612324338116
-0.36193023411760805,-0.36193023411760805,0.999696031075076,0.00013195340156460137
-0.3607720279047498,-0.3607720279047498,0.9999165669245578,0.0001339774615651022
-0.3601600403439079,-0.3601600403439079,0.9999461120622609,0.00013052847112128322
-0.3596251728180505,-0.3596251728180505,1.0000934134587662,0.00013204707947901434
-0.3584558444134018,-0.3584558444134018,0.9998414540598859,0.0001354050566353048
-0.35782418904782387,-0.35782418904782387,1.0002425962366608,0.0001305018264565909
-0.35663609664625257,-0.35663609664625257,1.0000293051434495,0.00013530414772807824
-0.35580740893419716,-0.35580740893419716,0.99983753061913,0.00013202376692650168
-0.3547860242986644,-0.3547860242986644,0.9999011817753907,0.00013526193209558503
-0.3537959018998663,-0.3537959018998663,0.9998625452654382,0.0001305169941515344
-0.3533636670843407,-0.3533636670843407,0.9998735272508938,0.0001335100183344625
-0.3520976212574169,-0.3520976212574169,0.9999464021330317,0.00013516263816972264
-0.35147119449684394,-0.35147119449684394,1.0000308385475718,0.00013198635436616936
-0.35100407754725893,-0.35100407754725893,1.0000146263422682,0.00013352320141030825
-0.3496558897102659,-0.3496558897102659,1.0000785464151456,0.00013210632871280844
-0.3492120873343083,-0.3492120873343083,1.000069925496534,0.00013343022676776524
-0.3483136975177331,-0.3483136975177331,1.0000984608474617,0.00013356600999755143
-0.3472169007138291,-0.3472169007138291,1.0001307985009444,0.00013198537479819095
-0.3467571091561695,-0.3467571091561695,0.9998933346495331,0.00013351121864003054
-0.34529869214675274,-0.34529869214675274,0.9998748808364117,0.00013206662725785863
-0.3448643123585498,-0.3448643123585498,1.0000363097573417,0.00013352318584955125
-0.34336659303080524,-0.34336659303080524,1.000075837540665,0.00013207700846247627
-0.34278915484974276,-0.34278915484974276,0.9998884991852378,0.0001349679603803268
-0.341602015580429,-0.341602015580429,1.0001881785430822,0.00013207639162687499
-0.34072942099010106,-0.34072942099010106,1.0001083576984693,0.00013340970133522294
-0.34012163701554526,-0.34012163701554526,1.0001142638367118,0.00013508041139282902
-0.3387897788903501,-0.3387897788903501,1.0000048176605623,0.00013194235692124553
-0.33847918010287686,-0.33847918010287686,1.0002291805598826,0.0001334730467842623
-0.33699366480286697,-0.33699366480286697,1.0002113382270743,0.00013207307176928346
-0.33644147087470627,-0.33644147087470627,1.0002745315705368,0.00013488491941789112
-0.33571972917634413,-0.33571972917634413,0.9998437314835631,0.00013357347540725857
-0.3345385339714994,-0.3345385339714994,0.9999116182114897,0.00013193069002329736
-0.3342311622262059,-0.3342311622262059,1.000168654894543,0.0001335128301692573
-0.33296521275260604,-0.33296521275260604,1.0000861143182693,0.00013205206728222505
-0.33219938424008433,-0.33219938424008433,0.9999890988336387,0.0001364037364366375
-0.33160684303875315,-0.33160684303875315,0.9999967260309756,0.00013041264023339944
-0.33025436598909436,-0.33025436598909436,0.9999694345929324,0.0001334057295621452
-0.32984592329739826,-0.32984592329739826,0.999955268247352,0.0001319716920738767
-0.32858649199697537,-0.32858649199697537,0.999923754506742,0.00013205948815915399
-0.3279606774638523,-0.3279606774638523,1.0001009916052659,0.00013641276280190496
-0.3273543614304799,-0.3273543614304799,1.0000255287898918,0.0001304238561803714
-0.32600252630873,-0.32600252630873,0.9998780867194176,0.00013347377784385045
-0.3255970442194666,-0.3255970442194666,0.9998473579456512,0.00013197482282100006
-0.32433252640403226,-0.32433252640403226,1.000012127493099,0.00013196310352128242
-0.3236296444752952,-0.3236296444752952,1.0000735796235707,0.0001334651561854499
-0.32270159449763014,-0.32270159449763014,1.000084989963462,0.0001304120205488855
-0.3216361560902442,-0.3216361560902442,1.0001567425735878,0.00013495365695166832
-0.3210211037003319,-0.3210211037003319,0.9999825933600587,0.00012893560587064394
-0.3199164799421851,-0.3199164799421851,1.0000730148493866,0.00014630197880302766
-0.3193810077762464,-0.3193810077762464,1.0000497523211451,0.00013343645711248048
-0.31844963756084327,-0.31844963756084327,1.0001779441885732,0.0001304326854867587
-0.317350241868553,-0.317350241868553,0.9999904893223388,0.0001335303271950228
-0.3165874507460103,-0.3165874507460103,0.9999242660397047,0.00013041810460093058
-0.3153678535658401,-0.3153678535658401,1.0000022264499986,0.00013346162160667916
-0.31461832715795024,-0.31461832715795024,1.0000024176346067,0.00013049593413776167
-0.3135750672292488,-0.3135750672292488,0.9999286662851394,0.00013195723681412553
-0.3128558680160495,-0.3128558680160495,0.999961916204175,0.00013199141483092027
-0.31189277244120606,-0.31189277244120606,1.0000297908620894,0.00013201768639386192
-0.3109784298321756,-0.3109784298321756,1.000200130172043,0.00013350788431220844
-0.3102258375576639,-0.3102258375576639,1.0001275526429922,0.00013047993610516717
-0.3093248762226722,-0.3093248762226722,1.0000316141243517,0.00013347834747501924
-0.3086060729336168,-0.3086060729336168,1.0001316727896357,0.00013047081373319345
-0.3077893353482068,-0.3077893353482068,0.9998071691440809,0.00013197177656610899
-0.30687568851717517,-0.30687568851717517,1.00003669879634,0.00013354341356277974
-0.3061171779729193,-0.3061171779729193,0.9999372105535572,0.0001289251474133591
-0.3053150751737121,-0.3053150751737121,0.9998966541218527,0.00013347838967565182
-0.30450390038677144,-0.30450390038677144,0.999930372507527,0.0001320385830193604
-0.30373310363429484,-0.30373310363429484,1.0001656137589474,0.00013208757270826498
-0.3029640751447005,-0.3029640751447005,0.9999210029153781,0.00013350672798628451
-0.3022135077546409,-0.3022135077546409,0.99976953386684,0.0001304650608428966
-0.30156853896405666,-0.30156853896405666,0.9999291634756456,0.00013268311919334292
-0.3006191370150191,-0.3006191370150191,1.000037287352888,0.0001335048569338826
-0.29991137903052734,-0.29991137903052734,0.9999326719422686,0.00012946550413124906
-0.2993005783187982,-0.2993005783187982,0.9999156061650799,0.0001320368695524265
-0.2983847148163477,-0.2983847148163477,0.999941492188326,0.0001334998008413717
-0.2976157560296997,-0.2976157560296997,1.00013198800035,0.0001305147895074316
-0.29702287275649725,-0.29702287275649725,0.9998507597768109,0.00013087880079409544
-0.2961135301004106,-0.2961135301004106,1.0001585546567773,0.00013354338220501673
-0.2953649493771081,-0.2953649493771081,1.0000291472747471,0.00013078056283924916
-0.2949077051263885,-0.2949077051263885,0.999944834423873,0.00013202546447652983
