time,time,flux,flux_err
-0.4999784041677458,-0.4999784041677458,1.000426277357429,0.00018210812032011083
-0.4998820646770241,-0.4998820646770241,1.0000629152095606,0.00020042121628813947
-0.49978706877661805,-0.49978706877661805,0.99994146307791,0.00018087633575649862
-0.49968492803008074,-0.49968492803008074,1.000088582689078,0.0001864315127891476
-0.49957730283438195,-0.49957730283438195,0.9999138663193188,0.00017713070700012235
-0.49942426509712734,-0.49942426509712734,1.000064780696162,0.00017022997561667066
-0.4993078144113611,-0.4993078144113611,1.0000471501643946,0.00015805433250405942
-0.49917238352035154,-0.49917238352035154,0.9999996762010948,0.00017201927385331793
-0.4990695773891957,-0.4990695773891957,1.0000693462128736,0.00016464196265119773
-0.49892349566415534,-0.49892349566415534,1.0001088533999338,0.0001648324088475228
-0.4988046918978853,-0.4988046918978853,0.9998731786825242,0.0001691238703870606
-0.4987077917718466,-0.4987077917718466,1.000071240002262,0.00016310885581546596
-0.49854252175481406,-0.49854252175481406,0.9999216293134063,0.00019301671725210776
-0.49840984730307125,-0.49840984730307125,1.000176515988262,0.000170576301238041
-0.49823469045602453,-0.49823469045602453,1.0000838687262288,0.00018672785813533713
-0.4980720237849141,-0.4980720237849141,0.9997352334412598,0.00016164594933574356
-0.49787629297073865,-0.49787629297073865,1.0001441901745056,0.00017228594616211163
-0.49776051687674683,-0.49776051687674683,0.9997102857410262,0.00016528192868682712
-0.4976241768576301,-0.4976241768576301,1.000224106347798,0.00017656958326026022
-0.49753377373523333,-0.49753377373523333,1.0003850674245285,0.00017854087074955483
-0.49744480479030245,-0.49744480479030245,0.9999730630479832,0.00020067526370610606
-0.4973454337403041,-0.4973454337403041,0.9998656310961849,0.0001869283731240566
-0.4972537419071614,-0.4972537419071614,0.9999194468213176,0.00017194636607301342
-0.49716267441665424,-0.49716267441665424,1.0001142952519824,0.0001877562381182665
-0.4970248743215507,-0.4970248743215507,1.0002858006315656,0.0001730435603542155
-0.4968696273609908,-0.4968696273609908,0.9999883103087803,0.00016075203663406347
-0.4967257638432329,-0.4967257638432329,1.000120342502959,0.000172179498002745
-0.4966289871208346,-0.4966289871208346,1.0001862872292626,0.00016221342287839552
-0.49649057405773644,-0.49649057405773644,0.9999060494901594,0.00016485158338125347
-0.49638560489155453,-0.49638560489155453,0.9998232376957855,0.0001675256163447621
-0.49629103345448583,-0.49629103345448583,0.9997477111587394,0.00016564453190307053
-0.49613380328208906,-0.49613380328208906,0.999883922290994,0.00019310312585719836
-0.49599794575871103,-0.49599794575871103,1.0001079560703898,0.00016462147244175756
-0.4958391179923183,-0.4958391179923183,1.0001788449011721,0.00018304696496954852
-0.4956514741472461,-0.4956514741472461,0.9999779493579373,0.00017012765004654072
-0.4954445058286865,-0.4954445058286865,0.9998058251037353,0.00017413251712435643
-0.49532031855206926,-0.49532031855206926,0.9998267795766086,0.00016546148575808482
-0.49519003360477426,-0.49519003360477426,1.0000967921671333,0.00016920624056682875
-0.4950900139196506,-0.4950900139196506,1.0001021516041426,0.00016939675892911618
-0.4950146181424088,-0.4950146181424088,0.9998928522680955,0.00019967983419870227
-0.49492029234053236,-0.49492029234053236,1.0000368376858775,0.00019560873550221277
-0.49482989800717403,-0.49482989800717403,1.0001829464548024,0.00016346282465616013
-0.4947239440963358,-0.4947239440963358,1.0000937033722752,0.0001878390988830269
-0.49459297505623,-0.49459297505623,1.0001201596320841,0.00018227961280563263
-0.4944490349372813,-0.4944490349372813,0.999526649435223,0.00016523300364142555
-0.4942765376060606,-0.4942765376060606,1.0000408416491222,0.00017483866365400927
-0.4941490989108274,-0.4941490989108274,0.9999787944462707,0.00016339056834606202
-0.49402431564373045,-0.49402431564373045,1.000075492014657,0.000162529119811415
-0.4939089235510892,-0.4939089235510892,1.0001217578626762,0.00017086349126390376
-0.49382028635367303,-0.49382028635367303,1.0002008345525055,0.00016248115765485796
-0.4936734612837199,-0.4936734612837199,1.0001670490272372,0.00019310462788530447
-0.4935210342604023,-0.4935210342604023,1.000309798593817,0.0001658888633208281
-0.4933577196889473,-0.4933577196889473,1.0000904572311247,0.000181689387033144
-0.49319645702455545,-0.49319645702455545,0.999829927733118,0.00016787347738600976
-0.49302378530103397,-0.49302378530103397,0.9999709981573176,0.0001682161678163485
-0.49285101380497737,-0.49285101380497737,0.9998551743341977,0.00016448073717301973
-0.49270355049243336,-0.49270355049243336,1.0002749894024128,0.00017655151380213641
-0.49262106034371983,-0.49262106034371983,1.0003982120950419,0.0001696004599299281
-0.49255428556854214,-0.49255428556854214,0.9998441283921213,0.00019958486002221972
-0.49245996185640023,-0.49245996185640023,0.9999527963364245,0.00019555259512920095
-0.4923695537322601,-0.4923695537322601,0.9999628131863266,0.0001633971158881367
-0.49226358411742693,-0.49226358411742693,1.0000112054852723,0.0001878554023358188
-0.4921326405358741,-0.4921326405358741,1.0000884943799835,0.00018232548830382375
-0.4919887030505265,-0.4919887030505265,1.0002243333891345,0.00016523953246966541
-0.49181622939086084,-0.49181622939086084,1.0000065942082474,0.00017485705056809062
-0.49168876771821035,-0.49168876771821035,0.9997660837740172,0.00016334070010812644
-0.49154256606043417,-0.49154256606043417,0.9997931151358366,0.00016483841709229887
-0.49142366201754156,-0.49142366201754156,0.999954523455744,0.00016908962682756363
-0.49133954579516514,-0.49133954579516514,1.0000554490958975,0.00016205651119353254
-0.4911767768774894,-0.4911767768774894,1.0000810322022915,0.00019394801615029578
-0.49102886015132297,-0.49102886015132297,1.0000228749037705,0.00017049913532685664
-0.4908601491042077,-0.4908601491042077,1.0000494861754727,0.0001861279200189026
-0.4907378670838057,-0.4907378670838057,0.9996677841518835,0.00015840325688067124
-0.4906037852865552,-0.4906037852865552,1.0003064046438523,0.0001610479164663824
-0.4904195338652698,-0.4904195338652698,1.0001407066225798,0.00017112088303286143
-0.4902693827074131,-0.4902693827074131,0.9999372536507269,0.0001692102069339386
-0.49016937470848915,-0.49016937470848915,1.0004822771105057,0.00016941901120204659
-0.4900939530062146,-0.4900939530062146,1.0000351959925777,0.0001995894045505609
-0.49000072305016146,-0.49000072305016146,1.0001645623443556,0.00018750166062077046
-0.489928768958282,-0.489928768958282,0.9996917562036616,0.00018021782804800553
-0.4898241311840138,-0.4898241311840138,1.000072219288108,0.00018526263154382657
-0.4897014562362642,-0.4897014562362642,0.9999895981895273,0.0001780416709650686
-0.48955568791457155,-0.48955568791457155,1.000436833687187,0.0001725818065921965
-0.489388017760416,-0.489388017760416,1.0002544053922424,0.00016709694369508317
-0.4892556069501097,-0.4892556069501097,1.0000725037925537,0.0001690115237035418
-0.48910964715064437,-0.48910964715064437,1.000021835271409,0.00016494583133290944
-0.4889882625968994,-0.4889882625968994,1.000475462191212,0.00017088839137934154
-0.4888936245616719,-0.4888936245616719,0.9997841125993002,0.00016262134807320047
-0.48875277727439653,-0.48875277727439653,1.0000071600393858,0.00019297624116577336
-0.4886003775796894,-0.4886003775796894,1.0004613349789988,0.00016584088735681796
-0.48843703880181694,-0.48843703880181694,1.000042699961668,0.00018171167327447614
-0.4882901000958668,-0.4882901000958668,1.000123676699334,0.0001680522209907646
-0.4881343676762754,-0.4881343676762754,0.999981800607555,0.0001649592506071171
-0.48791067932238547,-0.48791067932238547,1.0002874536555202,0.0001645243062385726
-0.48778795695577626,-0.48778795695577626,1.0001556477054598,0.00017185405783594522
-0.4877090551214337,-0.4877090551214337,1.0006687937812977,0.00016938124071145283
-0.48763362045883696,-0.48763362045883696,0.9999692107240994,0.0001996196296144412
-0.4875404005590326,-0.4875404005590326,0.9998588853881879,0.00018748824878453855
-0.4874684276851326,-0.4874684276851326,0.9998828088922773,0.00018029115772870885
-0.4873637621625221,-0.4873637621625221,1.0000419077947655,0.00018525359702782168
-0.48724112192101077,-0.48724112192101077,0.9997920513001164,0.0001780043611585256
-0.4870953641151686,-0.4870953641151686,0.9997921226526879,0.00017260907913146082
-0.4869276974980835,-0.4869276974980835,1.000108822250633,0.00016712616788290725
-0.4867830354424427,-0.4867830354424427,1.0000588584728658,0.00017120026142091038
-0.4866219463944731,-0.4866219463944731,0.9999474076932777,0.00016482971848175496
-0.4864848542382106,-0.4864848542382106,0.9999972668503571,0.0001640083477248377
-0.48639761996316794,-0.48639761996316794,0.9999850854261545,0.00016714821209357222
-0.48627302880057643,-0.48627302880057643,1.0001791872031334,0.0001930229315895049
-0.486140049245364,-0.486140049245364,1.0003104276025416,0.000165830393660201
-0.48597669837704416,-0.48597669837704416,0.9999820501839803,0.00018168210835902595
-0.4858221567583655,-0.4858221567583655,1.0001862171870446,0.0001693786441055287
-0.4856740512595252,-0.4856740512595252,1.0000448084120834,0.00016489686302948136
-0.48546374957608124,-0.48546374957608124,0.9998176632465064,0.00016018343978721768
-0.4853226110073138,-0.4853226110073138,1.00038867890052,0.0001765191188056569
-0.48523211180736325,-0.48523211180736325,1.0003362497496284,0.00017850291714598286
-0.48515556733037785,-0.48515556733037785,1.0000151574004406,0.0001871625321473263
-0.4850800780729287,-0.4850800780729287,1.000151140151655,0.00018744049016258026
-0.4850101734024861,-0.4850101734024861,0.9999730565200927,0.00018284714299529446
-0.48492274527960716,-0.48492274527960716,1.0000705459121906,0.0001863776580539237
-0.48481528836927057,-0.48481528836927057,1.0001158435054553,0.00017714062016177247
-0.48465735070403754,-0.48465735070403754,0.999849278428355,0.0001729102180903507
-0.48450535476450796,-0.48450535476450796,0.9999113637405689,0.0001654369332728526
-0.48435052915006055,-0.48435052915006055,0.9999277892104128,0.00017124723164493587
-0.48418902928624447,-0.48418902928624447,0.9997457570147024,0.00016492866858135993
-0.48405156515227643,-0.48405156515227643,1.000290287952771,0.00016405156846077256
-0.48395852310777626,-0.48395852310777626,1.0000001525625657,0.00016201460163397797
-0.48379578425364117,-0.48379578425364117,0.9997357557253558,0.00019376591091065833
-0.4836480799277524,-0.4836480799277524,1.000054501363469,0.00017189678173104832
-0.48353073950906944,-0.48353073950906944,1.0000541087515042,0.0001755601351807537
-0.4833869630324557,-0.4833869630324557,1.000198927046641,0.00017450598204107263
-0.4832410564747988,-0.4832410564747988,1.0000683487481148,0.00015930308124222181
-0.4830275411640855,-0.4830275411640855,1.0000594462967962,0.0001670938235331444
-0.4828734663400951,-0.4828734663400951,1.0000717416128029,0.0001689166954027112
-0.4827884159894097,-0.4827884159894097,1.0005456757267563,0.00016938580452102137
-0.4827129553820669,-0.4827129553820669,1.0004849495819943,0.00019957705872762147
-0.4826334217133194,-0.4826334217133194,0.9999935756898981,0.0001829277510105372
-0.4825630766389395,-0.4825630766389395,1.0001114348219113,0.00018626671735751395
-0.4824826788895848,-0.4824826788895848,0.9999572171399727,0.00017449280242035238
-0.4823872034997521,-0.4823872034997521,1.0001577995278275,0.00019000997026810684
-0.4822019566782615,-0.4822019566782615,1.0000563054936573,0.00016844922219506832
-0.4820070570075359,-0.4820070570075359,0.9999663985410365,0.0001670475979338346
-0.48188991102226736,-0.48188991102226736,1.000077742750345,0.0001759884631114155
-0.48172872037138176,-0.48172872037138176,1.0001057915775047,0.00016489474313557647
-0.48159122859017317,-0.48159122859017317,0.9999336928441902,0.0001640771203477882
-0.48148547978181566,-0.48148547978181566,0.9997398180620912,0.0001630561142852722
-0.4813284728684494,-0.4813284728684494,1.0002615868411031,0.00019294722476189568
-0.48118775006956865,-0.48118775006956865,0.9999600657543093,0.00017184938481877625
-0.48105601755888755,-0.48105601755888755,0.9999015880960567,0.0001815978919973424
-0.48090163479098463,-0.48090163479098463,1.000101617063012,0.0001681519379092107
-0.4807534184558676,-0.4807534184558676,0.999755314631664,0.00016484210100578664
-0.48052967187252305,-0.48052967187252305,1.0002745731274965,0.0001623392644570957
-0.48038810695007894,-0.48038810695007894,0.9999609705535416,0.0001758478151218784
-0.4803114471719482,-0.4803114471719482,1.0003567256599166,0.0001784862596335686
-0.4802410574602959,-0.4802410574602959,0.999926419205021,0.00018444038208880985
-0.48018599962033476,-0.48018599962033476,1.0000440704411209,0.00018030634807551365
-0.4801148549364257,-0.4801148549364257,0.9999649852732005,0.00018712697044933257
-0.480044990330282,-0.480044990330282,0.9999413260969044,0.00017571115739401885
-0.47994015172333776,-0.47994015172333776,0.9999299719071093,0.00018771417929068284
-0.4797847309339659,-0.4797847309339659,0.9998356470402567,0.00016786581429140227
-0.47958668375587193,-0.47958668375587193,1.0004034824867776,0.000167518063652208
-0.4794298942674686,-0.4794298942674686,0.9996767123068102,0.00017117424329219098
-0.4792820938353657,-0.4792820938353657,1.0001445092530807,0.00016807561910871395
-0.47915773943442447,-0.47915773943442447,1.000074647555589,0.00016789962073130533
-0.4790505439884555,-0.4790505439884555,1.0002185801796604,0.00016257135260410217
-0.4788751224999146,-0.4788751224999146,1.0000637991684287,0.00019374372629758473
-0.47872742021348813,-0.47872742021348813,1.0001640775065397,0.00017186440396481915
-0.47860456931165346,-0.47860456931165346,0.9998978703344108,0.00017620767629887088
-0.4784885171359747,-0.4784885171359747,1.000073003263851,0.0001744556099551859
-0.47837076641670817,-0.47837076641670817,1.0001352823053342,0.00015584178370379892
-0.4781513067463493,-0.4781513067463493,0.9999097275468067,0.0001689742085923583
-0.4779685674813322,-0.4779685674813322,1.0002235203937075,0.00016396542793239605
-0.47788556766862483,-0.47788556766862483,1.0001702647150141,0.00017461124059490858
-0.4778048371744944,-0.4778048371744944,1.0005028032908512,0.00020028433562943934
-0.4777377559865954,-0.4777377559865954,0.9999538815400019,0.0001732101195633201
-0.47766977016700596,-0.47766977016700596,1.0002134050742193,0.00018615107362452568
-0.4776007995582404,-0.4776007995582404,1.0001021066107891,0.0001674444127408407
-0.47750374472859675,-0.47750374472859675,1.0002766564949794,0.00018526860496969328
-0.47739978475005956,-0.47739978475005956,0.9999032763393444,0.00017798826508269285
-0.47720538755701225,-0.47720538755701225,0.9999473663866768,0.00016728477497443924
-0.4770295618847172,-0.4770295618847172,0.9998542618087904,0.0001720621247016317
-0.4768521097018038,-0.4768521097018038,0.999931648889955,0.0001723493635250206
-0.4767271891234145,-0.4767271891234145,0.9999860855910143,0.00016898189093568844
-0.47660836102666054,-0.47660836102666054,1.0000751629815556,0.0001656647944599985
-0.47645106722835634,-0.47645106722835634,0.9999012021176771,0.00019284580268330782
-0.476298735985074,-0.476298735985074,1.0001485720864367,0.00016577460854790658
-0.47616022191914453,-0.47616022191914453,0.9999764655851167,0.0001822462594026257
-0.4760070494719798,-0.4760070494719798,1.0001438111848742,0.00017451025862531862
-0.4758386021212345,-0.4758386021212345,0.9999208093672944,0.00016512620677529437
-0.4756360884816104,-0.4756360884816104,0.9997638452321912,0.00016022651190162498
-0.4754848947868823,-0.4754848947868823,0.9998833876046159,0.0001701920594007778
-0.4754192976120407,-0.4754192976120407,0.9997581155111266,0.00016810906048103075
-0.47534451201822775,-0.47534451201822775,1.0002891824259723,0.0002002146712232798
-0.4752773979439553,-0.4752773979439553,0.9998868307509537,0.0001731934021919892
-0.4752228877706557,-0.4752228877706557,0.9999640904825512,0.00018683638735024559
-0.4751546366710045,-0.4751546366710045,0.9999255991689433,0.00016749410866710498
-0.47506191717133106,-0.47506191717133106,0.9999542074874681,0.00018530595401976057
-0.4749694021341725,-0.4749694021341725,1.0000268091449602,0.00017685292678174284
-0.47478869061532125,-0.47478869061532125,1.0000050274894625,0.00016555877291985426
-0.4745940721100169,-0.4745940721100169,1.0000947448329163,0.0001748498215771443
-0.47442918224406866,-0.47442918224406866,1.000184773559138,0.00017251105835561366
-0.47429421377535164,-0.47429421377535164,1.0001222544487938,0.0001626811742391014
-0.4741621108557979,-0.4741621108557979,1.0000047442389914,0.0001640144262880802
-0.47402887744370903,-0.47402887744370903,1.0003136098150052,0.00019406589336039872
-0.4738703972172402,-0.4738703972172402,0.9998590062701782,0.00017094193255195206
-0.4737210140742718,-0.4737210140742718,1.0003389917747252,0.00018346251785888876
-0.4735809049383192,-0.4735809049383192,0.9999666475818534,0.00017409129165455698
-0.47342539665457933,-0.47342539665457933,1.0000177204799685,0.0001582534015952413
-0.4731862342575937,-0.4731862342575937,1.0000295444425435,0.00016704284899772876
-0.4730245687755314,-0.4730245687755314,1.0002412353316181,0.0001702211975121687
-0.4729589679005244,-0.4729589679005244,0.9999973439553418,0.00016818209750957502
-0.4728841868768541,-0.4728841868768541,1.0004141142404013,0.0002002636673882775
-0.472810427871832,-0.472810427871832,0.9999222251999897,0.00017297642613497397
-0.4727625649291326,-0.4727625649291326,0.9999732794269098,0.00018678438305110606
-0.47269430757546615,-0.47269430757546615,0.9999948397798211,0.00016749957137559456
-0.4726015481946547,-0.4726015481946547,0.9999305963753773,0.00018531711878852527
-0.47250906387110947,-0.47250906387110947,1.0000063925743106,0.0001768696506187939
-0.4723484551434467,-0.4723484551434467,1.0000085677792783,0.0001658134123266231
-0.47216577616160293,-0.47216577616160293,0.9999775673920125,0.00016704140499072923
-0.4720079014323801,-0.4720079014323801,1.0002031670409368,0.0001729809138559032
-0.47184754905364346,-0.47184754905364346,0.9998772106001474,0.00016588122592038965
-0.4717017726591507,-0.4717017726591507,0.9999008079275518,0.00016397256025553223
-0.4715978497943297,-0.4715978497943297,0.9996894275778005,0.0001820194231626871
-0.47144391790429835,-0.47144391790429835,0.9998779481411686,0.0001865708741127029
-0.4712830441524716,-0.4712830441524716,1.0000151298034878,0.0001834644733361577
-0.47114962933713966,-0.47114962933713966,0.9999009150065428,0.0001751115199879405
-0.47100184367917564,-0.47100184367917564,0.9998101204153296,0.00015600144660187024
-0.4707703597672321,-0.4707703597672321,1.000059175656593,0.00016894200780453848
-0.47058756898425147,-0.47058756898425147,1.000166927681415,0.0001639456909170598
-0.4705191874103889,-0.4705191874103889,1.0000384410695562,0.00017064576095818717
-0.4704544200248506,-0.4704544200248506,1.0005996739988459,0.0001817545180960165
-0.47036868241643787,-0.47036868241643787,1.0000436520376563,0.00018045762453459285
-0.47031265126455535,-0.47031265126455535,0.9997833187283481,0.0001866213920134057
-0.4702481726615929,-0.4702481726615929,0.999936955565981,0.00018282164034883575
-0.47016857551424207,-0.47016857551424207,1.0000983928854854,0.0001704448863974716
-0.47009259390960095,-0.47009259390960095,1.000101218095559,0.00018797853616073324
-0.4699434719752844,-0.4699434719752844,0.999885055950515,0.00016782432209800748
-0.46975172198883686,-0.46975172198883686,1.0000248703326406,0.00016011270677062668
-0.46961971894590987,-0.46961971894590987,0.9995570834816924,0.00017802461703781623
-0.4694408286212706,-0.4694408286212706,0.9998898700126043,0.00016809866319027422
-0.4692895459112606,-0.4692895459112606,0.999811708440473,0.0001640138275391594
-0.46918382862676256,-0.46918382862676256,0.9999971287198519,0.00016299743602515848
-0.46898358595370837,-0.46898358595370837,0.9998707078838418,0.00018654460212835553
