time,time,flux,flux_err
-0.4991765871702228,-0.4991765871702228,1.000098237319039,0.0007451639292852546
-0.49759898555930704,-0.49759898555930704,1.0007854422223033,0.0007453312867580349
-0.496433207768132,-0.496433207768132,1.0000922786833706,0.0007450720709723018
-0.49537283668178134,-0.49537283668178134,1.0004486979575602,0.0007537223220339268
-0.4945340887119528,-0.4945340887119528,0.9997988010004801,0.0007571698083619178
-0.4937668596248841,-0.4937668596248841,1.000046222760789,0.0008013112617753374
-0.4929053757514339,-0.4929053757514339,1.0000394521356548,0.0007448708470806388
-0.4918243449967122,-0.4918243449967122,1.0003020062473982,0.0007451009710386058
-0.4902614041231573,-0.4902614041231573,1.000450143972647,0.0007449124596190454
-0.48849140118691137,-0.48849140118691137,0.9997413720093627,0.0007452052443303314
-0.4853817956056446,-0.4853817956056446,0.9999677128626603,0.0007449147724685417
-0.47997761732549404,-0.47997761732549404,1.001024241463738,0.0007650870434675035
-0.4783019664871972,-0.4783019664871972,1.0007733920198008,0.0007599938587566961
-0.47722474606707693,-0.47722474606707693,1.0008408083273899,0.0007538686221725259
-0.47621617816039363,-0.47621617816039363,1.0001036852374772,0.000763470944639273
-0.47502531271020415,-0.47502531271020415,0.999723424566364,0.0007547447501800063
-0.474178669298999,-0.474178669298999,1.0018600354674987,0.0007652754092807646
-0.4733847403462278,-0.4733847403462278,1.0002056171833447,0.0007575550695525711
-0.4724993126757909,-0.4724993126757909,0.9997418493751308,0.0007606309194005429
-0.47148426473431754,-0.47148426473431754,0.9996161362462128,0.0007747180184550529
-0.47064867010049055,-0.47064867010049055,0.9995277183094047,0.0007629734159480021
-0.4696887462079758,-0.4696887462079758,1.0000738145359178,0.0007720023535346711
-0.4685608416359173,-0.4685608416359173,0.9991171592321434,0.0007927174029936656
-0.4674913673341507,-0.4674913673341507,1.0001173152908944,0.0007811538417864101
-0.4660253368783742,-0.4660253368783742,1.0008298294335898,0.0007453065493971398
-0.4643390897545032,-0.4643390897545032,0.9998097076743507,0.0007451138127466674
-0.46289838489028623,-0.46289838489028623,1.00084317300574,0.000744998502012217
-0.461769093334442,-0.461769093334442,1.0006222237992386,0.0007450580508523862
-0.4606401384604396,-0.4606401384604396,0.999398333797137,0.0007449325521288012
-0.4595441492710961,-0.4595441492710961,1.0015233434647448,0.0007457086780735708
-0.4584105979243759,-0.4584105979243759,1.0000992930415014,0.0007448254450337874
-0.45699856489372903,-0.45699856489372903,1.0001282082297132,0.0007458579699721401
-0.45524158027255907,-0.45524158027255907,1.0014463504576854,0.0007457416222148105
-0.4534327856003074,-0.4534327856003074,0.9999526050572444,0.0007454738712143154
-0.45044640587584583,-0.45044640587584583,1.0009247302162645,0.0007479565309304663
-0.4470452257170109,-0.4470452257170109,0.9996441082018664,0.00075363438063935
-0.44445657640171704,-0.44445657640171704,0.9996843479393952,0.0007479785496697733
-0.44203688396664803,-0.44203688396664803,1.0006852263650594,0.0007452063957360174
-0.44041778189421166,-0.44041778189421166,1.000819272594169,0.0007450885254759021
-0.4388116659625666,-0.4388116659625666,1.0004001463448273,0.0007450094106843096
-0.43725236718310045,-0.43725236718310045,1.0002372749023714,0.000745196557016391
-0.4357139340951107,-0.4357139340951107,0.9996611103802561,0.0007449725646194829
-0.4343909731687745,-0.4343909731687745,0.9995695959478283,0.0007447944733440202
-0.43334496710449455,-0.43334496710449455,1.0019496151539538,0.0007452718967507747
-0.43231547726027203,-0.43231547726027203,0.9999788919411584,0.0007550757034248989
-0.43153862839681095,-0.43153862839681095,1.0003105706622244,0.0007908740178472911
-0.4306790841103066,-0.4306790841103066,1.0003984522830514,0.0007447451269778848
-0.42962166073266417,-0.42962166073266417,1.001233221673165,0.0007455170119928241
-0.4280636784853414,-0.4280636784853414,1.0000082645907131,0.0007447549506128602
-0.42630190374620724,-0.42630190374620724,1.0005216136230282,0.0007448115331346319
-0.42395999397849665,-0.42395999397849665,1.0009676675436119,0.0007451769487278912
-0.4185082694515586,-0.4185082694515586,1.000088712676836,0.0007601069028377398
-0.41575165481190196,-0.41575165481190196,0.9998696774060065,0.0007590129558247245
-0.41462520129280167,-0.41462520129280167,0.9997568288002421,0.0007619702219661164
-0.41350188069045546,-0.41350188069045546,0.9997014071990644,0.0007637043752369789
-0.4123125195532339,-0.4123125195532339,0.9996367720055754,0.0007549810097825647
-0.41146555338054897,-0.41146555338054897,0.9993915241793955,0.0007657029617018674
-0.41068360502831636,-0.41068360502831636,0.9990813185721216,0.0007576625345017392
-0.40982575112138875,-0.40982575112138875,1.0004115539907432,0.0007581881431062492
-0.408862383486121,-0.408862383486121,1.0001958098684685,0.0007745907488071035
-0.40789901109819765,-0.40789901109819765,0.9991649510452429,0.0007630249206020272
-0.4068689793726662,-0.4068689793726662,0.9997772591528298,0.0007619140270067188
-0.4059536526212469,-0.4059536526212469,1.001042735468997,0.0007878513007183903
-0.40474468223110305,-0.40474468223110305,0.9989322920347874,0.0007766830778488433
-0.40315351289464163,-0.40315351289464163,0.9989538198839382,0.0007454543537409207
-0.4014714818418724,-0.4014714818418724,1.0000743568773043,0.0007453845574157648
-0.400261970385327,-0.400261970385327,0.9998481455527303,0.0007448582545335873
-0.3990977345558349,-0.3990977345558349,1.0004050126798247,0.0007451816881141018
-0.39800517331750596,-0.39800517331750596,1.0000067757381303,0.0007445745832713993
-0.3968621318519581,-0.3968621318519581,0.9994281423349216,0.0007451523221637805
-0.39573042990232354,-0.39573042990232354,0.9989289296211036,0.0007450408770513469
-0.3941012995230267,-0.3941012995230267,1.000451015908372,0.0007452670481023396
-0.392348454502644,-0.392348454502644,1.0012200111121001,0.0007457470853304075
-0.3902170746034244,-0.3902170746034244,0.999673295867981,0.0007462892465426085
-0.38688067652983593,-0.38688067652983593,1.0010334387554125,0.0007496607690024362
-0.38353515837807206,-0.38353515837807206,1.0003731128928546,0.0007533876341693873
-0.38113868302316406,-0.38113868302316406,1.0005880280430066,0.0007487309200729017
-0.3791573641472496,-0.3791573641472496,1.0006292382937203,0.000745502971260094
-0.37756368036789356,-0.37756368036789356,0.9999882207152554,0.0007450429938860103
-0.37596056060283445,-0.37596056060283445,1.0003777048916649,0.0007454670522012109
-0.37439342495345046,-0.37439342495345046,1.0001324378343004,0.0007453035403620725
-0.3728684860659996,-0.3728684860659996,0.999666314599283,0.000745161503896316
-0.37151659825467503,-0.37151659825467503,1.0001201066210146,0.0007452763906098715
-0.37047260876279325,-0.37047260876279325,1.0010356600044132,0.0007452726124293539
-0.3696631949424045,-0.3696631949424045,1.0009217969361073,0.0007668730830654817
-0.36896420186094475,-0.36896420186094475,0.9996349001181738,0.0007720980077915883
-0.36805250113538934,-0.36805250113538934,0.9994660067649722,0.0007447399694501115
-0.36692538011993747,-0.36692538011993747,0.9995091924356633,0.0007449479783860943
-0.3655391206004424,-0.3655391206004424,1.0003801997043174,0.0007452498961289581
-0.3637987293797778,-0.3637987293797778,1.0005107748923394,0.000745075225460805
-0.36103767293388955,-0.36103767293388955,0.9999435646145163,0.0007450125566984136
-0.35589494651649145,-0.35589494651649145,1.0000891751655687,0.0007656418969653125
-0.35326198838010897,-0.35326198838010897,0.9991835042153088,0.0007599392935402768
-0.3521461556316353,-0.3521461556316353,1.0013231003487024,0.0007537446640675979
-0.3510539031296503,-0.3510539031296503,1.0000121289252075,0.0007634354072775173
-0.34975962883036116,-0.34975962883036116,0.9999064326339034,0.0007644678802352963
-0.34894574162899517,-0.34894574162899517,0.9992530417412475,0.000756119819215051
-0.34810692778846714,-0.34810692778846714,1.0012168250633067,0.0007566137940901382
-0.3472417311859317,-0.3472417311859317,0.9988762569399906,0.0007709718334350779
-0.3462134771165438,-0.3462134771165438,1.0007093680339856,0.000765087983639922
-0.34539681230089625,-0.34539681230089625,1.0009031941189652,0.0007635520747682039
-0.3444013824861031,-0.3444013824861031,0.9991942995924031,0.0007727774990728684
-0.34323675943305715,-0.34323675943305715,1.0005796814680405,0.0007946186917083215
-0.34197395710507406,-0.34197395710507406,1.0009703290614058,0.0007449864799657796
-0.34028213770361615,-0.34028213770361615,1.000620662249878,0.0007450104661709575
-0.3385999046557117,-0.3385999046557117,1.0006747228260822,0.0007449873273155027
-0.33737447166931817,-0.33737447166931817,1.0006718426541448,0.0007450793766695925
-0.3362227143283235,-0.3362227143283235,0.9999649423776346,0.0007448647741004485
-0.33512880489288366,-0.33512880489288366,1.0007856449935395,0.000745046975355292
-0.3339894900156651,-0.3339894900156651,1.0000176443951598,0.0007448835951343295
-0.33284543846384623,-0.33284543846384623,0.9996202017315319,0.0007451319986974259
-0.3312044272228377,-0.3312044272228377,1.0004115863632088,0.0007454647696547425
-0.32945570068550295,-0.32945570068550295,0.9998637889290372,0.0007459233113081322
-0.32732868392195086,-0.32732868392195086,0.9988368624655584,0.0007460083445760267
-0.32399765514419415,-0.32399765514419415,1.0010634130298302,0.0007501063888879901
-0.3207830130122602,-0.3207830130122602,1.0005800591001976,0.0007543045571176083
-0.31835254847828764,-0.31835254847828764,1.0001689323518836,0.0007453508277428572
-0.3162879332812736,-0.3162879332812736,0.9992820669206995,0.0007449831150427678
-0.31471033331181386,-0.31471033331181386,0.9987050724643367,0.0007450070027229378
-0.31311015513492746,-0.31311015513492746,1.000960339009687,0.0007454393128098395
-0.31153524953115264,-0.31153524953115264,0.9994019465196562,0.0007450546737481259
-0.3100523374887416,-0.3100523374887416,1.000194247879477,0.0007454571751279277
-0.3089148635743186,-0.3089148635743186,1.0008562404644488,0.0007449064852444656
-0.30777073242061304,-0.30777073242061304,0.9997987322917534,0.000744941023612918
-0.30696869028324725,-0.30696869028324725,0.9996834568585953,0.0007732087535238942
-0.30614379291655497,-0.30614379291655497,1.0000525797915434,0.0007770828905223715
-0.30519162870768923,-0.30519162870768923,1.0001549525889597,0.000745244868989101
-0.30397112130594905,-0.30397112130594905,0.9999780458480553,0.0007450850493517772
-0.3022871976281749,-0.3022871976281749,1.0005554250020114,0.0007451112996343913
-0.3005042355332989,-0.3005042355332989,1.0007154763417496,0.0007450855310958246
-0.29685245103028135,-0.29685245103028135,1.0005203171961325,0.0007494776296208166
-0.2915234918356873,-0.2915234918356873,0.9998578681950301,0.0007622134555647995
-0.2901794957084348,-0.2901794957084348,1.0004855991291588,0.0007609390992921197
-0.2890593767660903,-0.2890593767660903,0.9999026276755789,0.0007543358760669675
-0.2879569353914121,-0.2879569353914121,1.000779723205342,0.0007637794989802774
-0.28688601195754015,-0.28688601195754015,0.9993737857630398,0.0007649585692637733
-0.2860849577700719,-0.2860849577700719,1.001023446986403,0.0007572848011591646
-0.28523897999548353,-0.28523897999548353,0.9997999573931843,0.0007570073938628763
-0.28439744827046526,-0.28439744827046526,0.9992213779862213,0.0007722937467351284
-0.28348592918191573,-0.28348592918191573,1.0004804343527092,0.0007673722546887297
-0.2826081265491666,-0.2826081265491666,0.9999248243181071,0.0007573568985537283
-0.28153028363885824,-0.28153028363885824,1.000518193859751,0.0007772405456014885
-0.280360687544453,-0.280360687544453,0.9991944802459489,0.0008023586047013686
-0.27909346936212387,-0.27909346936212387,0.998928259365378,0.0007448636407799697
-0.27741120311548,-0.27741120311548,1.000292570570973,0.000745697675448699
-0.27585213495476635,-0.27585213495476635,1.000485910222199,0.0007454946612703735
-0.27468189973151313,-0.27468189973151313,1.0002266571872274,0.0007445463728595061
-0.2735914434917504,-0.2735914434917504,0.9996232288198874,0.0007450602525661923
-0.27244257103302516,-0.27244257103302516,1.0007024960695399,0.0007456333687159863
-0.27134594117233063,-0.27134594117233063,0.9998314138852914,0.0007451232707389525
-0.27006438289245127,-0.27006438289245127,1.0000067148850795,0.000745493578669736
-0.26830794622946996,-0.26830794622946996,0.9997766490253198,0.0007452657873717688
-0.2665633241063915,-0.2665633241063915,0.9996045105862393,0.0007451176571829927
-0.2638436632667435,-0.2638436632667435,1.0005576958049793,0.0007472345343821326
-0.26043547051667704,-0.26043547051667704,1.0001872040546658,0.0007521384032712784
-0.2574371280934429,-0.2574371280934429,0.9999845375035065,0.0007533649299849106
-0.25513861209910826,-0.25513861209910826,0.9995454504614998,0.0007453241909979489
-0.2534194370120531,-0.2534194370120531,1.0001847927832865,0.00074506622894681
-0.25185772780678234,-0.25185772780678234,1.0010317905202908,0.0007451792953466179
-0.2502604337525554,-0.2502604337525554,1.0001489136652837,0.0007450817238382701
-0.2486778215301456,-0.2486778215301456,0.999425437911384,0.0007450441608168125
-0.24719403062481432,-0.24719403062481432,1.0005905235834747,0.0007446919720338303
-0.24604831152246334,-0.24604831152246334,0.9995308400127589,0.0007451067587876183
-0.24501668087905273,-0.24501668087905273,1.0004737629290643,0.0007538515334653973
-0.24426349688146728,-0.24426349688146728,1.0004547214365451,0.0007620302349621295
-0.243605436742655,-0.243605436742655,1.000818251165405,0.000770356612657263
-0.24248524496215396,-0.24248524496215396,0.9998820333807747,0.0007449159797082598
-0.24139635748870206,-0.24139635748870206,0.9999992200446746,0.0007447689243820547
-0.23973576451826376,-0.23973576451826376,0.9996856476680993,0.000745144381729287
-0.23786100851430092,-0.23786100851430092,0.999789756926482,0.0007451903300300643
-0.23341902790707536,-0.23341902790707536,0.9999539947446188,0.0007542177917602901
-0.22882743950467557,-0.22882743950467557,1.0007398296380736,0.0007639568562801565
-0.22748818677209784,-0.22748818677209784,1.0000914121638023,0.0007612319074188545
-0.22645797934383155,-0.22645797934383155,0.999916813332667,0.0007543571883784323
-0.22511007049179171,-0.22511007049179171,1.0009280977732888,0.0007646333092599699
-0.22417287433636374,-0.22417287433636374,0.9994499529194293,0.0007651777133033097
-0.22338380602304825,-0.22338380602304825,1.0001611842380262,0.0007575334964496067
-0.2225298875477165,-0.2225298875477165,1.0004422117702958,0.0007579409574160998
-0.2215534123388352,-0.2215534123388352,1.000193201867639,0.0007735013285614788
-0.22063300388399512,-0.22063300388399512,1.0001140066290275,0.0007694183717382903
-0.21972708054818213,-0.21972708054818213,1.0002325096903888,0.000758092727679182
-0.21865950394712855,-0.21865950394712855,1.0001078080204289,0.0007834825480601649
-0.21745483155536932,-0.21745483155536932,0.9996655782152166,0.000773603896724823
-0.21586002772965002,-0.21586002772965002,1.0002672334032774,0.0007453326395026971
-0.21417467529245188,-0.21417467529245188,0.9999796258825702,0.0007448539275607323
-0.21272989416320343,-0.21272989416320343,0.9996885670786039,0.0007449201330489235
-0.21159630988549907,-0.21159630988549907,0.9991718944532793,0.0007448124518256782
-0.21047386365244164,-0.21047386365244164,1.0005481471020812,0.0007449373043917938
-0.20937728658609558,-0.20937728658609558,1.0003013444171558,0.0007451129791729292
-0.2082453709037509,-0.2082453709037509,1.0011289394376333,0.0007451784524725087
-0.20682195454428437,-0.20682195454428437,1.0000516769029923,0.0007452583827508662
-0.2050668097275775,-0.2050668097275775,0.9988353476074707,0.000745661097982719
-0.20293300098564943,-0.20293300098564943,1.0001382512444825,0.000746204430188343
-0.19959361202490983,-0.19959361202490983,0.9992832386900812,0.0007490115784094451
-0.19624156294739806,-0.19624156294739806,0.9995589241734646,0.0007530516960165904
-0.19382903836958576,-0.19382903836958576,1.0006919769351654,0.0007478678475199822
-0.1918629912979668,-0.1918629912979668,0.9996545924316779,0.0007452171223337803
-0.19026030905661173,-0.19026030905661173,0.999956142800464,0.0007451866775087248
-0.18865553190698847,-0.18865553190698847,0.9997803572948772,0.0007454000972337045
-0.1870927417970961,-0.1870927417970961,0.999195488248016,0.0007454600009983072
-0.18556033155764454,-0.18556033155764454,0.9997770008552666,0.0007450504864274603
-0.18422143700590823,-0.18422143700590823,0.9998381580111737,0.0007452638115970941
-0.1831824417808093,-0.1831824417808093,0.9992846447182323,0.0007450020503409859
-0.18215464097738732,-0.18215464097738732,1.0005765829266984,0.000756552068687847
-0.18138330455985852,-0.18138330455985852,0.9998118334182682,0.0007966074186097202
-0.18052264203724916,-0.18052264203724916,0.999160200189887,0.0007448792785676796
-0.17945171681640204,-0.17945171681640204,0.9993648931379745,0.0007450828008944328
-0.17789090150617995,-0.17789090150617995,1.0000205659481365,0.0007447742128986512
-0.17613029168569483,-0.17613029168569483,1.0001365922660401,0.0007446843384955658
-0.17377227623655928,-0.17377227623655928,0.9996490333599451,0.0007448643129955802
-0.16860931407427415,-0.16860931407427415,1.0019869994760269,0.0007646584503656809
-0.1659604270127602,-0.1659604270127602,1.0005500164576495,0.0007594548071394044
-0.16504733867186588,-0.16504733867186588,0.9991371116493648,0.0007614776387541514
-0.16397937368019483,-0.16397937368019483,0.9995208574913669,0.000753887657358251
-0.16287982463254594,-0.16287982463254594,0.9995722809230297,0.0007635928551456534
-0.1618030555313453,-0.1618030555313453,1.0003688376218842,0.0007649215525274408
-0.161004852046608,-0.161004852046608,0.9993149717239781,0.0007572298460903486
-0.16015728906495497,-0.16015728906495497,0.9995559964169332,0.0007570510508473694
-0.1593209752405528,-0.1593209752405528,0.9997096978857127,0.0007723548500315421
-0.1584074778773356,-0.1584074778773356,0.9999788012720545,0.0007674275148564608
-0.15752341126208194,-0.15752341126208194,0.9993594755953019,0.0007577017249999825
-0.1564478587533813,-0.1564478587533813,0.9992822358292752,0.000778463847490728
-0.15527846388868055,-0.15527846388868055,1.0007922297111487,0.0008044110956229487
-0.15400767224782613,-0.15400767224782613,0.9995251741444967,0.0007449214749729804
-0.15232883280841633,-0.15232883280841633,1.0011361618309205,0.0007452220429657519
-0.15076776168425568,-0.15076776168425568,0.999934069240773,0.0007455161378852771
-0.14959838712238707,-0.14959838712238707,0.9992938661489263,0.0007449225144178616
-0.1485076305194525,-0.1485076305194525,0.9994464078935621,0.0007450225892252953
-0.14735959231329615,-0.14735959231329615,0.9991748166335807,0.000745218626058717
-0.14626266734849197,-0.14626266734849197,1.000380389127475,0.0007452846701334893
-0.14497648781398312,-0.14497648781398312,0.9991896470065109,0.0007452146635693993
-0.14321989273303187,-0.14321989273303187,0.9999655406663519,0.0007456312796696762
-0.14147618114657234,-0.14147618114657234,0.9999676358630161,0.0007454890550961101
-0.1387581283808686,-0.1387581283808686,0.9997438289089924,0.0007468297557204704
-0.13535060797294135,-0.13535060797294135,0.999761614340183,0.0007520452535461519
-0.13259492994693572,-0.13259492994693572,0.999608638493821,0.000753659017271415
-0.130535281370976,-0.130535281370976,1.0001137444977455,0.0007453288943425726
-0.1286678307078546,-0.1286678307078546,0.9997828200279504,0.0007450974980692975
-0.12705525603087153,-0.12705525603087153,0.9988190862038554,0.0007453070469746336
-0.12551275326986797,-0.12551275326986797,0.999888551241775,0.0007451489763396675
-0.12394512881874106,-0.12394512881874106,1.0002952376024896,0.0007451091103952207
-0.12236916522379034,-0.12236916522379034,1.0003572731853256,0.0007447740771524737
-0.12117292937473394,-0.12117292937473394,1.0005628073720862,0.0007451841617328637
