time,time,flux,flux_err
-0.4999692501978643,-0.4999692501978643,0.9999722650930655,4.513500254886215e-05
-0.4998425823056702,-0.4998425823056702,0.9999189367959707,4.552991827913551e-05
-0.4997639948035915,-0.4997639948035915,0.9999624782817111,4.490991429696724e-05
-0.4996042232185573,-0.4996042232185573,0.999954628399968,4.081829056906011e-05
-0.4995290315026068,-0.4995290315026068,1.0000166441297096,4.1689137970995726e-05
-0.49945243945185214,-0.49945243945185214,1.0000383691110055,4.0585983463069315e-05
-0.4993069072337676,-0.4993069072337676,1.0000642825995136,4.0880021569613156e-05
-0.4991292581893504,-0.4991292581893504,0.999981877379731,4.1675434070385216e-05
-0.49898840556343205,-0.49898840556343205,0.9999781233610443,4.082139312174437e-05
-0.49892634011448533,-0.49892634011448533,0.9999857634488993,4.122525304817816e-05
-0.49878018766430615,-0.49878018766430615,0.999948552993174,4.0861498796768985e-05
-0.4986792527954094,-0.4986792527954094,0.9999848489600556,4.105557299885403e-05
-0.49854661803947237,-0.49854661803947237,0.9999497012962891,4.106037229981854e-05
-0.4984245865929552,-0.4984245865929552,0.9999980839392071,4.1883723864146275e-05
-0.49833332432535826,-0.49833332432535826,1.0000327197627656,4.1090242228699346e-05
-0.49823481911589623,-0.49823481911589623,1.000115253955201,4.192479831046819e-05
-0.49797944485544576,-0.49797944485544576,1.000070555910282,4.0929134888668385e-05
-0.4978249465344561,-0.4978249465344561,0.9999960601644584,4.210656189935165e-05
-0.49773024903261104,-0.49773024903261104,1.0000332871969404,4.1702069133153115e-05
-0.4975828316324623,-0.4975828316324623,0.9999287052391171,4.172435877523013e-05
-0.49744797894527437,-0.49744797894527437,0.9999911101351351,4.172374805182363e-05
-0.49733149688108824,-0.49733149688108824,0.9999895370775779,4.246407032617164e-05
-0.497266913720523,-0.497266913720523,1.000012344116059,4.077639696441786e-05
-0.49715611496867496,-0.49715611496867496,1.0000361762683614,4.176197741783694e-05
-0.4970665520508192,-0.4970665520508192,1.000003304668801,4.0698461444472296e-05
-0.4969957864206663,-0.4969957864206663,0.9999813329685278,4.080142918064766e-05
-0.49693777777538345,-0.49693777777538345,0.9999776410281719,4.1162832365593094e-05
-0.49684294526778106,-0.49684294526778106,0.999943553347365,4.104272763584339e-05
-0.4967118472792208,-0.4967118472792208,1.0000339294701615,4.2191509866895574e-05
-0.49663458106297187,-0.49663458106297187,0.9999362577946682,4.1147717263137086e-05
-0.4964848110808816,-0.4964848110808816,0.9999278820474977,4.0719832924070706e-05
-0.49625331319693944,-0.49625331319693944,0.9999051026856502,4.118292280234119e-05
-0.4960777355965547,-0.4960777355965547,1.0000400847418731,4.0943072563572695e-05
-0.495988476839193,-0.495988476839193,0.9999749384367813,4.1416396843109824e-05
-0.49583113145708924,-0.49583113145708924,0.999969162670924,4.093414423807897e-05
-0.49574611709685995,-0.49574611709685995,1.0000197894020233,4.165055562352266e-05
-0.4956745681956818,-0.4956745681956818,1.0000132891558446,4.093325532928705e-05
-0.4955696410754172,-0.4955696410754172,1.0000316764408852,4.1085153595073696e-05
-0.49548225357721093,-0.49548225357721093,0.9999940019995194,4.180097897080477e-05
-0.4953835139007424,-0.4953835139007424,1.0000009118300799,4.091395536913901e-05
-0.4952298467258515,-0.4952298467258515,0.999984009756081,4.109903029783988e-05
-0.4951187069549633,-0.4951187069549633,1.0000156219790433,4.1076508806807265e-05
-0.4950425476727105,-0.4950425476727105,1.000062427922815,4.094019362160183e-05
-0.4948309647697897,-0.4948309647697897,1.0000443801172005,4.074880080709118e-05
-0.49473885463266926,-0.49473885463266926,1.0000565500782617,4.080587113115264e-05
-0.4946122588018625,-0.4946122588018625,1.0001031108615628,4.103654243919799e-05
-0.49447476144450775,-0.49447476144450775,0.9999840777008739,4.072624445534516e-05
-0.49436571965998155,-0.49436571965998155,1.000010457317412,4.0885231486346644e-05
-0.4942481858255633,-0.4942481858255633,1.0000092868288213,4.157095008156872e-05
-0.49413395981973735,-0.49413395981973735,1.0000208710127296,4.101125467804548e-05
-0.4940541917450901,-0.4940541917450901,1.0000234695853667,4.144300331585859e-05
-0.49395876771268377,-0.49395876771268377,1.0000531596075537,4.094797572306274e-05
-0.4937988157467771,-0.4937988157467771,0.9999262833879412,4.212579911450102e-05
-0.493718718227683,-0.493718718227683,1.0000107265628992,4.0692390812559895e-05
-0.49359812989277996,-0.49359812989277996,1.0001009126519382,4.136802575116677e-05
-0.49354667883526415,-0.49354667883526415,1.000035268607971,4.115025989587949e-05
-0.49347804001663464,-0.49347804001663464,1.0000684001086213,4.0813461984952915e-05
-0.4933672283143096,-0.4933672283143096,0.9999443493463515,4.087932696940059e-05
-0.4932731996734219,-0.4932731996734219,1.0001083979873333,4.089545150715831e-05
-0.49311287079690375,-0.49311287079690375,0.9999412224887637,4.142602343929427e-05
-0.49302566372934964,-0.49302566372934964,0.9999713079791954,4.0781851316917705e-05
-0.4928864559420617,-0.4928864559420617,1.0000435995412216,4.067442846095356e-05
-0.49273484111981813,-0.49273484111981813,1.0000258646805478,4.1822396407744846e-05
-0.4926234175734862,-0.4926234175734862,1.0000394781837814,4.060154905282559e-05
-0.4925218222339026,-0.4925218222339026,0.999948475131221,4.15912463666817e-05
-0.49243080587039,-0.49243080587039,1.0000013018401237,4.315472304480121e-05
-0.49234713506884875,-0.49234713506884875,0.9999796195515585,4.098786533677338e-05
-0.4922860134127404,-0.4922860134127404,1.0000382803408459,4.160414218859578e-05
-0.49220998267555843,-0.49220998267555843,0.9999428076065946,4.088612860980631e-05
-0.4920572789713333,-0.4920572789713333,1.0000911240247985,4.222915768502279e-05
-0.4919502265460324,-0.4919502265460324,0.9999338331867718,4.1111450652462457e-05
-0.4919016048170306,-0.4919016048170306,1.0000101761386428,4.120627277500648e-05
-0.49186442602876923,-0.49186442602876923,0.9999838421293437,4.117145979704999e-05
-0.4917748486597702,-0.4917748486597702,1.0001053884818067,4.156093446797228e-05
-0.49170648264007466,-0.49170648264007466,1.0000745864377818,4.1605383783889426e-05
-0.491655078491749,-0.491655078491749,1.0000795615231661,4.120952377350746e-05
-0.49156318116474723,-0.49156318116474723,1.0000040682562321,4.1089509305063e-05
-0.4914556766882015,-0.4914556766882015,1.0000620587718394,4.086145446284478e-05
-0.4913116699237435,-0.4913116699237435,1.0000643267685843,4.067553383218978e-05
-0.4911742507782037,-0.4911742507782037,0.9999580377299087,4.159830608561637e-05
-0.4910648686636705,-0.4910648686636705,1.0000803632819373,4.143731471048509e-05
-0.49088702206208834,-0.49088702206208834,1.0000568395111122,4.070250185936454e-05
-0.4907529512343899,-0.4907529512343899,1.000031150944983,4.1548202684100964e-05
-0.49063244551216484,-0.49063244551216484,0.9999495857866816,4.07224682261076e-05
-0.49047294954980314,-0.49047294954980314,1.0000431027581391,4.0634791870795455e-05
-0.4903596738055057,-0.4903596738055057,1.0000741437302705,4.1859734083872255e-05
-0.4902540410555957,-0.4902540410555957,0.9999884205653181,4.084883805161608e-05
-0.490171674938756,-0.490171674938756,1.0000075466127616,4.1049150390485445e-05
-0.4900675275752292,-0.4900675275752292,1.0001776143582515,4.111032169152591e-05
-0.4899157417297829,-0.4899157417297829,0.9998912224948876,4.17658251810628e-05
-0.48975745796997217,-0.48975745796997217,1.0000487290958602,4.156419249142495e-05
-0.4896416480296466,-0.4896416480296466,1.0001169942771302,4.15537936160968e-05
-0.48951288436910545,-0.48951288436910545,1.0000095282719397,4.092314626652538e-05
-0.48925868539445216,-0.48925868539445216,0.9999990649882836,4.166759102399558e-05
-0.48913499235204655,-0.48913499235204655,0.9999773928257957,4.057940510354488e-05
-0.48904939407439085,-0.48904939407439085,0.9999931552567386,4.128219357731798e-05
-0.48894692505746207,-0.48894692505746207,0.9999530082197172,4.10498291090867e-05
-0.48878780394952626,-0.48878780394952626,0.9999953804358807,4.1058865377934776e-05
-0.4886782375564508,-0.4886782375564508,0.9999978158773917,4.1670330708395116e-05
-0.4885735899300926,-0.4885735899300926,1.000085208294088,4.117578771975019e-05
-0.4884600012250303,-0.4884600012250303,0.9999419283309179,4.129008452262294e-05
-0.4882774774461723,-0.4882774774461723,1.0000388133520244,4.171420844495903e-05
-0.4881209796614712,-0.4881209796614712,1.0000104223469886,4.161563592608912e-05
-0.4879934889395372,-0.4879934889395372,0.9999933251400124,4.220203842033069e-05
-0.48783104286558227,-0.48783104286558227,1.0000082477025352,4.1773322770147234e-05
-0.4876791970851627,-0.4876791970851627,1.0000113093965521,4.1735304527935034e-05
-0.48753517268305585,-0.48753517268305585,1.0000706989724577,4.074982063600283e-05
-0.4874725152629253,-0.4874725152629253,0.9999578155347819,4.095206500258869e-05
-0.4873955341627152,-0.4873955341627152,0.9999256211860008,4.0976208575998224e-05
-0.487323686880336,-0.487323686880336,0.9999624136955386,4.146997496492599e-05
-0.48724662111380895,-0.48724662111380895,0.9999784196239574,4.092762385603461e-05
-0.4871696182410233,-0.4871696182410233,1.0000556402102596,4.0905707645288425e-05
-0.48703795484107104,-0.48703795484107104,1.0000647596569565,4.102243593608423e-05
-0.4869396216294263,-0.4869396216294263,1.0000717071874097,4.0921170693241744e-05
-0.4868476051295147,-0.4868476051295147,1.0000920272360099,4.117301572037423e-05
-0.48668586272542597,-0.48668586272542597,1.0000001232005655,4.059279544592794e-05
-0.486501140357359,-0.486501140357359,0.9999907248971805,4.091616391514254e-05
-0.48632978197529153,-0.48632978197529153,0.9999287718744194,4.1066055136989276e-05
-0.4862100546488364,-0.4862100546488364,0.9999123011436286,4.137339336652576e-05
-0.4860464141525881,-0.4860464141525881,1.000007345165061,4.099479503917884e-05
-0.4859394830662495,-0.4859394830662495,0.999951235122904,4.153382562765499e-05
-0.4858808410674101,-0.4858808410674101,1.0000866526813148,4.0929234244268955e-05
-0.4857106982399273,-0.4857106982399273,0.9999820836541513,4.1285339807063396e-05
-0.4855666963812837,-0.4855666963812837,0.9999723184688214,4.090264307910458e-05
-0.4854317994628218,-0.4854317994628218,0.9999975287529557,4.142138128702528e-05
-0.485347559411457,-0.485347559411457,0.9999968890637477,4.101465573474241e-05
-0.485275403122796,-0.485275403122796,1.0000403250276038,4.0910690539654246e-05
-0.4851585494063329,-0.4851585494063329,0.9999682966471436,4.076001457258e-05
-0.485093991942631,-0.485093991942631,0.9999663569852084,4.0609811389806685e-05
-0.4849672555083089,-0.4849672555083089,1.0000630615736281,4.0667451250623547e-05
-0.4848634093064902,-0.4848634093064902,1.0000554773111057,4.105422520928808e-05
-0.484733440540731,-0.484733440540731,0.999978894113769,4.100168192707437e-05
-0.4846180543187074,-0.4846180543187074,1.000011383119876,4.1415201403310224e-05
-0.48438421665232456,-0.48438421665232456,0.9999970319249117,4.08059922341232e-05
-0.48425543730700155,-0.48425543730700155,0.9999992388474801,4.159980122993007e-05
-0.4841722052020486,-0.4841722052020486,1.0000340557626497,4.150620785693428e-05
-0.484012733745476,-0.484012733745476,0.9999777628138048,4.1594794196218815e-05
-0.48390525483628155,-0.48390525483628155,1.0000301234759301,4.210690900768842e-05
-0.48379576175866534,-0.48379576175866534,0.9999945183535826,4.0750748419219754e-05
-0.4837364203936886,-0.4837364203936886,1.000038032644564,4.117788070389775e-05
-0.48365104630247513,-0.48365104630247513,1.0000482216441153,4.099277941276293e-05
-0.48353405287562057,-0.48353405287562057,1.0001111584158464,4.160161491631978e-05
-0.483465205111861,-0.483465205111861,1.0000168506033507,4.102942089673904e-05
-0.4833145814409363,-0.4833145814409363,0.9999848635953678,4.0873707541201395e-05
-0.48317031598853644,-0.48317031598853644,0.9999496699733509,4.127948755956727e-05
-0.4830729789904581,-0.4830729789904581,1.0000056459325442,4.066980499662893e-05
-0.482895489875591,-0.482895489875591,0.999978555496757,4.164202018046803e-05
-0.4828392013158009,-0.4828392013158009,0.999991371663597,4.0527509849963314e-05
-0.48268179877777584,-0.48268179877777584,0.9999740898085149,4.063448204752364e-05
-0.48253498986014165,-0.48253498986014165,0.9999943194331438,4.1632663712042923e-05
-0.48245225852078877,-0.48245225852078877,0.9999652947113227,4.2079662083500764e-05
-0.48234499752870763,-0.48234499752870763,0.9999593385413663,4.0909276778649056e-05
-0.482191647743457,-0.482191647743457,1.0000095322847706,4.161185960748074e-05
-0.48208786524119207,-0.48208786524119207,1.0000937661262206,4.099466214813975e-05
-0.4819978751867893,-0.4819978751867893,1.0000147848285699,4.119455129159456e-05
-0.48191537931270434,-0.48191537931270434,0.9999930100650609,4.1380271974898034e-05
-0.4818177103508788,-0.4818177103508788,1.0000296674712394,4.176867941239989e-05
-0.4817568845144706,-0.4817568845144706,0.9999456185943991,4.0893559720632645e-05
-0.4816250570860575,-0.4816250570860575,1.0000130368811555,4.101324383152582e-05
-0.4815127643163578,-0.4815127643163578,0.9999322799971452,4.084907847598874e-05
-0.48136168286582687,-0.48136168286582687,0.9999782313559796,4.081254183751536e-05
-0.4812391942545219,-0.4812391942545219,0.9999761938422687,4.0711683997773226e-05
-0.4811262914539839,-0.4811262914539839,0.9999697697110701,4.147442029017275e-05
-0.48098485698392324,-0.48098485698392324,0.9999794228633838,4.0774891085511856e-05
-0.4808836736396188,-0.4808836736396188,1.0000297913745417,4.1483052331556076e-05
-0.48074159400021016,-0.48074159400021016,0.9999743379158688,4.0641669322313725e-05
-0.4806207677036582,-0.4806207677036582,0.9998538591885264,4.101522518880999e-05
-0.4805187473510159,-0.4805187473510159,0.9999385097015783,4.112919923271716e-05
-0.48040302722438355,-0.48040302722438355,1.0000031534159013,4.172020030406565e-05
-0.4803074217954418,-0.4803074217954418,0.9999366605003341,4.1154849133734564e-05
-0.4802169219008647,-0.4802169219008647,0.9999904868480073,4.121223779267543e-05
-0.4800510454821051,-0.4800510454821051,1.0000393379929169,4.1673781207498856e-05
-0.47990096316934794,-0.47990096316934794,1.0000316883213212,4.153613048336292e-05
-0.47981125413098197,-0.47981125413098197,1.000008817948727,4.146200512916961e-05
-0.4797351553810586,-0.4797351553810586,1.000036392903012,4.160346023381291e-05
-0.4795387996877253,-0.4795387996877253,1.0000732334049325,4.1794903582974055e-05
-0.4793735691710026,-0.4793735691710026,1.0000366392625164,4.095229376836716e-05
-0.4792774266323249,-0.4792774266323249,0.9999674862977326,4.166920747937326e-05
-0.47920097868991435,-0.47920097868991435,1.0000397082826233,4.1084960956190694e-05
-0.47909394127018456,-0.47909394127018456,0.9999539083866044,4.129555162609482e-05
-0.47900402325903996,-0.47900402325903996,1.0000117429926592,4.0957836867791544e-05
-0.47890763693831107,-0.47890763693831107,0.9999997067913098,4.0606042496606e-05
-0.4787673871138395,-0.4787673871138395,0.9999685046750164,4.1655476880894345e-05
-0.4786866357746476,-0.4786866357746476,0.999999440309048,4.155030938447649e-05
-0.478614479542739,-0.478614479542739,0.9999675531099186,4.162312171615499e-05
-0.47843553412312756,-0.47843553412312756,0.9999858235278252,4.1025967742328914e-05
-0.47820622298022497,-0.47820622298022497,1.0000052577647982,4.127263395286909e-05
-0.4780740273839911,-0.4780740273839911,1.0000972848551601,4.2325147893408456e-05
-0.4779383031542238,-0.4779383031542238,0.9999911144089314,4.1096793384584674e-05
-0.4777714525986084,-0.4777714525986084,1.0000387866321778,4.1761625563999875e-05
-0.4776944812903821,-0.4776944812903821,0.9999876755076794,4.096495262037601e-05
-0.47759974265536587,-0.47759974265536587,1.0000402198630698,4.106123421073939e-05
-0.47750572364275284,-0.47750572364275284,0.9999895826598195,4.106651863891612e-05
-0.4774143356349668,-0.4774143356349668,1.0000529234823112,4.151602917810983e-05
-0.47728163163774295,-0.47728163163774295,0.9999555888775014,4.108662236525831e-05
-0.4771448094885272,-0.4771448094885272,0.999962519850188,4.106797553095054e-05
-0.4770339689683169,-0.4770339689683169,1.0001007424925412,4.109128597087467e-05
-0.4768195028154878,-0.4768195028154878,0.9999873106987888,4.081181211223875e-05
-0.476655454478896,-0.476655454478896,0.9999670200206593,4.101975568143395e-05
-0.47647341152878653,-0.47647341152878653,1.0000375533588495,4.072555981513969e-05
-0.47639186722080923,-0.47639186722080923,1.0000149346049618,4.1721702578691076e-05
-0.47621623630548127,-0.47621623630548127,1.0000414943212577,4.1064665210025374e-05
-0.4761100677918876,-0.4761100677918876,0.9999965239888713,4.08011269415663e-05
-0.4760500239834073,-0.4760500239834073,1.0000705799310274,4.140471444217654e-05
-0.4759184282283968,-0.4759184282283968,1.0000206515953571,4.095652685023223e-05
-0.47577068827304175,-0.47577068827304175,1.000100984520508,4.222088272747567e-05
-0.47568562984088203,-0.47568562984088203,1.0000208228635266,4.0820432729761216e-05
-0.475555489587714,-0.475555489587714,0.9999752009025846,4.115582074736753e-05
-0.4754848002863582,-0.4754848002863582,1.0000268217227701,4.091036852443758e-05
-0.4753707936084538,-0.4753707936084538,1.0000081250987,4.082287831250092e-05
-0.4752756448069704,-0.4752756448069704,1.00000235805113,4.095218273598938e-05
-0.47509257070560124,-0.47509257070560124,1.0001423243591603,4.153523592541796e-05
-0.4749898697366007,-0.4749898697366007,1.0000069108449303,4.090450860006299e-05
-0.47485268976306544,-0.47485268976306544,1.0000304198952112,4.084036403376015e-05
-0.4747570705232647,-0.4747570705232647,0.9999884815809648,4.164359988818345e-05
-0.47463012819316647,-0.47463012819316647,1.0000578300058476,4.090777298522982e-05
-0.4745603957751882,-0.4745603957751882,0.9999536957342059,4.072340840651645e-05
-0.4744686170535715,-0.4744686170535715,1.0000526832824783,4.139201356302424e-05
-0.4743908465083223,-0.4743908465083223,0.999943977776265,4.1571592922569657e-05
-0.4743016332078696,-0.4743016332078696,0.9999458819489977,4.152379589562228e-05
-0.4742187171326805,-0.4742187171326805,0.9999995619775925,4.1109046504967014e-05
-0.47408787014210246,-0.47408787014210246,1.0000168940325442,4.2136308604922905e-05
-0.4739763879799284,-0.4739763879799284,0.9999582614038174,4.090342920063788e-05
-0.4739100503957161,-0.4739100503957161,1.0000517422985276,4.112937890300894e-05
-0.4738530324706517,-0.4738530324706517,0.9999874896648734,4.1905100484048226e-05
-0.4737542483551806,-0.4737542483551806,1.000110878695784,4.1048828461202205e-05
-0.4736808109249978,-0.4736808109249978,1.0000606990160326,4.184281970959935e-05
-0.47362853042213826,-0.47362853042213826,0.9999786377561847,4.088710565106072e-05
-0.47353271773463346,-0.47353271773463346,1.0000319976983365,4.1007854909394506e-05
-0.47345162542369507,-0.47345162542369507,0.9999227067137509,4.155309782858446e-05
-0.4732784048770554,-0.4732784048770554,1.0000131368798413,4.07773415438399e-05
-0.47314375782443674,-0.47314375782443674,1.0000611620853417,4.174751602335938e-05
-0.4730621152481035,-0.4730621152481035,0.9999581684904515,4.072781872556064e-05
-0.4729569767627254,-0.4729569767627254,0.9999558869056484,4.161240791199213e-05
-0.4727893880670308,-0.4727893880670308,0.9998875273431386,4.208352356292233e-05
-0.47263695656583876,-0.47263695656583876,1.000003737968672,4.098204993730353e-05
-0.47252423141399047,-0.47252423141399047,1.0000082986322194,4.140142973398704e-05
-0.47239196679438467,-0.47239196679438467,1.000014183850031,4.148218442862444e-05
-0.47232031195235324,-0.47232031195235324,1.00000867424373,4.093352002212195e-05
-0.4722169606910029,-0.4722169606910029,1.0000731701386663,4.109493160801711e-05
-0.472134310376714,-0.472134310376714,1.0000221700293659,4.121026124410261e-05
-0.47199119657525446,-0.47199119657525446,1.0001264694932168,4.1671310760795956e-05
-0.47187400887778497,-0.47187400887778497,1.0000106021424287,4.1113102645835236e-05
-0.4717059582555521,-0.4717059582555521,0.9999658241083631,4.1427168136801636e-05
