time,time,flux,flux_err
-0.49988810438953807,-0.49988810438953807,0.9998443433122091,6.936744414373725e-05
-0.4996484837734897,-0.4996484837734897,1.000028999705433,6.974561060212816e-05
-0.49952054931563905,-0.49952054931563905,0.999924056506712,6.813401803493189e-05
-0.4994021885606344,-0.4994021885606344,0.999933455697913,7.014850522256609e-05
-0.4992475380357064,-0.4992475380357064,1.000020550255699,7.171655558606067e-05
-0.4989821883042168,-0.4989821883042168,0.9998478533876419,7.159028375452445e-05
-0.4987561168418324,-0.4987561168418324,0.9999750273095254,6.952751375362872e-05
-0.4985808066870959,-0.4985808066870959,1.0000087218062859,6.933928210731195e-05
-0.4984752573305741,-0.4984752573305741,0.9999310120928886,6.887401850814699e-05
-0.4983768958649307,-0.4983768958649307,0.9999871904061217,6.984052361874507e-05
-0.49822041075094603,-0.49822041075094603,1.0000664668535009,6.88173156559545e-05
-0.49803042643034134,-0.49803042643034134,1.0000261997160036,7.148034782888931e-05
-0.49790661370716405,-0.49790661370716405,1.000045169423252,7.309192823007436e-05
-0.4978460548329167,-0.4978460548329167,0.9999528865525262,7.178941829923474e-05
-0.49777061622735347,-0.49777061622735347,0.999934054550053,7.328756634004079e-05
-0.4976804191923293,-0.4976804191923293,0.9999808960132549,6.985319928117835e-05
-0.49758396106117286,-0.49758396106117286,0.9998939087503503,7.09774690580377e-05
-0.4974474423826905,-0.4974474423826905,1.0000281403365894,7.033245756249152e-05
-0.49724658641862335,-0.49724658641862335,0.9999555000734016,6.97722689089055e-05
-0.497135115009587,-0.497135115009587,1.0000598230012183,6.878253254433511e-05
-0.4970226291450672,-0.4970226291450672,1.0000005019926679,7.200234067778722e-05
-0.496849865787226,-0.496849865787226,0.9999467642244729,7.411424612463947e-05
-0.49672081483731745,-0.49672081483731745,1.0000757304911683,7.195415377449464e-05
-0.4966273583493603,-0.4966273583493603,0.9999970832056861,7.033723089833279e-05
-0.49658611920458495,-0.49658611920458495,1.0000206796649196,7.030230953056281e-05
-0.49648319580301176,-0.49648319580301176,1.0000277931833756,7.034707202732079e-05
-0.4962339229627105,-0.4962339229627105,1.0000252048454576,6.946748457113944e-05
-0.4960201060093823,-0.4960201060093823,1.0002408144235722,6.953377403675228e-05
-0.49592569405940595,-0.49592569405940595,0.9999111403529704,6.884863961834542e-05
-0.4958735875050479,-0.4958735875050479,1.0000282907553202,6.90695559000744e-05
-0.49577628399420065,-0.49577628399420065,0.9999131485422371,6.927520733744537e-05
-0.49567868676094806,-0.49567868676094806,0.9999060841840702,6.829562611594203e-05
-0.49556671315804124,-0.49556671315804124,0.9999341282996832,6.838762270237878e-05
-0.4953981850128912,-0.4953981850128912,0.9999338076484626,6.902682210598196e-05
-0.4952351832362183,-0.4952351832362183,1.0000034042837227,6.884940926458077e-05
-0.49511119852249974,-0.49511119852249974,0.999940591057042,6.856468706629732e-05
-0.4949465663929004,-0.4949465663929004,1.0000238917871525,6.97828816539746e-05
-0.4948308621533215,-0.4948308621533215,0.9999755313356158,6.832294946346839e-05
-0.49473666740668704,-0.49473666740668704,1.0000187499517543,6.861231183714619e-05
-0.4945989812833432,-0.4945989812833432,0.9999694571556226,6.924384086717271e-05
-0.4945119198258908,-0.4945119198258908,1.0000077407133463,7.201181580572525e-05
-0.4944610226928489,-0.4944610226928489,0.9999846704607052,7.028183114446388e-05
-0.4943794028607954,-0.4943794028607954,0.9999353836460714,7.418726878258217e-05
-0.4942827140657755,-0.4942827140657755,0.9999810644953833,7.131787600867845e-05
-0.4942099429681548,-0.4942099429681548,0.999892010076558,7.341259940599457e-05
-0.49409144704477514,-0.49409144704477514,1.0000616622482894,6.944049693316732e-05
-0.4940196208757698,-0.4940196208757698,1.0001244145281822,6.771566156758144e-05
-0.49394406644278205,-0.49394406644278205,0.9999790308310275,6.87549607277124e-05
-0.493805564824288,-0.493805564824288,1.0000083028141455,6.964294528922928e-05
-0.49367341618781213,-0.49367341618781213,1.0000928891357816,6.83809096038767e-05
-0.4935311213484965,-0.4935311213484965,1.0000159462316298,6.959427213997727e-05
-0.4934142267935385,-0.4934142267935385,1.0000922820799136,7.183466138686317e-05
-0.4933166684641037,-0.4933166684641037,1.000026568966499,7.067067084892125e-05
-0.49324598316452467,-0.49324598316452467,1.0000530134128747,7.408006906949204e-05
-0.4931544033293903,-0.4931544033293903,1.0000231265191166,7.17860047598897e-05
-0.49306229509893457,-0.49306229509893457,0.999983161611822,7.602389072859746e-05
-0.49298511435481485,-0.49298511435481485,0.9998897142530504,6.984840871676081e-05
-0.4927960800974688,-0.4927960800974688,0.9999405722403786,6.964646336463436e-05
-0.4924987571481324,-0.4924987571481324,1.0000907426609735,7.039760378379497e-05
-0.49216478897069466,-0.49216478897069466,1.0000354371674538,7.053411936818923e-05
-0.4920749572193017,-0.4920749572193017,0.9999683288069395,6.83373640263469e-05
-0.49191795497390556,-0.49191795497390556,0.9999980067977152,6.850890303218197e-05
-0.4918452600861201,-0.4918452600861201,1.0000028463448558,6.885437012073934e-05
-0.4917190909392957,-0.4917190909392957,1.0000336971516182,6.920169672794188e-05
-0.4914799721307645,-0.4914799721307645,0.9999606716553604,6.979407130878874e-05
-0.49135976049146846,-0.49135976049146846,1.0000475321037663,7.040771540869312e-05
-0.4912637877940142,-0.4912637877940142,1.000118546685521,6.766264614073546e-05
-0.49119325458668756,-0.49119325458668756,0.9999549529157339,6.894874116280483e-05
-0.4910552937835746,-0.4910552937835746,1.0000007202098153,6.998726618582632e-05
-0.49092103543662235,-0.49092103543662235,0.99995927026085,6.95473530191468e-05
-0.49079061246739003,-0.49079061246739003,1.0000705663286897,6.951663454778472e-05
-0.4906649220742111,-0.4906649220742111,1.000009338168802,7.036378856122401e-05
-0.4905476593623462,-0.4905476593623462,1.0000198083137701,6.873462791439901e-05
-0.49046261959592813,-0.49046261959592813,0.9999313702970992,6.952828880167999e-05
-0.49039300407966946,-0.49039300407966946,1.0000715072928414,6.806377907293361e-05
-0.49035523479251425,-0.49035523479251425,0.9999640964315288,6.816131799120707e-05
-0.4902437137781817,-0.4902437137781817,0.9999241217898336,6.98433550540082e-05
-0.49012650121367185,-0.49012650121367185,1.0000769042365942,6.873297432376557e-05
-0.49007511540330595,-0.49007511540330595,0.9999203881581928,6.834262218635069e-05
-0.4899811335169943,-0.4899811335169943,1.0000917649333223,6.94891462728892e-05
-0.48988572428570476,-0.48988572428570476,0.9999758834177946,6.898909087784999e-05
-0.4898472280256101,-0.4898472280256101,1.0000098167588274,7.078140885490788e-05
-0.4897286395498668,-0.4897286395498668,0.9999927948812555,7.366625151850432e-05
-0.48966760625335154,-0.48966760625335154,0.9999718960684623,6.883462869177416e-05
-0.4895855221337115,-0.4895855221337115,1.0001131200943114,7.124134578065082e-05
-0.4894906266592443,-0.4894906266592443,0.9999635044355248,7.147274560759218e-05
-0.4894215951608203,-0.4894215951608203,1.0000578186363407,7.200949922279007e-05
-0.4893414945319819,-0.4893414945319819,1.0000131421519558,7.063051625065154e-05
-0.4892902414045238,-0.4892902414045238,0.9999155475137232,6.90193321717862e-05
-0.4892102975631133,-0.4892102975631133,0.9999121961059416,7.182809673618649e-05
-0.4891272169923468,-0.4891272169923468,1.0000236588236069,6.978170120704725e-05
-0.48904526697224354,-0.48904526697224354,1.0001187588561635,6.858596612620949e-05
-0.48896586920527624,-0.48896586920527624,1.000015147386511,6.89829612008253e-05
-0.4888964511497761,-0.4888964511497761,1.000085825396589,6.926757043653026e-05
-0.48883155464209266,-0.48883155464209266,0.999953975062944,7.105161596567759e-05
-0.4887820636642573,-0.4887820636642573,1.0000033808431632,6.959472453881458e-05
-0.48868129728580245,-0.48868129728580245,0.9998670025799175,6.954651668953336e-05
-0.4885440246442158,-0.4885440246442158,0.9999593222036356,6.904624083510127e-05
-0.4884637261668104,-0.4884637261668104,0.9998516434104772,6.878444718130198e-05
-0.4884011004272907,-0.4884011004272907,1.0000255284104294,6.885661956473283e-05
-0.4882223763946968,-0.4882223763946968,0.9999235889468171,6.952105857703839e-05
-0.48795314260860323,-0.48795314260860323,0.9999018425371797,6.8989346701835e-05
-0.48782841140782696,-0.48782841140782696,1.000041114734635,6.772529396138409e-05
-0.48780305650507216,-0.48780305650507216,1.0000839568105913,6.890572626785803e-05
-0.4877302524255356,-0.4877302524255356,0.999929348049785,6.794410604343452e-05
-0.48750620660648564,-0.48750620660648564,0.9999627593488654,7.033316550184338e-05
-0.48724643058158107,-0.48724643058158107,1.0000240202878625,6.786607717742435e-05
-0.4871568504662719,-0.4871568504662719,0.9999554799000985,6.881481864750263e-05
-0.48704403931697016,-0.48704403931697016,1.0000568942610268,6.905835605316333e-05
-0.48692540110132543,-0.48692540110132543,0.9999495542895401,7.24710533578601e-05
-0.4868380198146042,-0.4868380198146042,1.0000748591337696,6.827305886967937e-05
-0.48675560553674585,-0.48675560553674585,1.0000569597745723,7.293755233801254e-05
-0.4867039867218409,-0.4867039867218409,0.9999794190971262,7.1340721540493e-05
-0.4866282673443493,-0.4866282673443493,0.9999843560012824,7.358291669830568e-05
-0.48651286229869584,-0.48651286229869584,1.0000222453480845,7.077481726480495e-05
-0.48644723272664125,-0.48644723272664125,1.0000522798842468,7.550109789758498e-05
-0.4863493852084503,-0.4863493852084503,1.0000814018963589,7.293620624265938e-05
-0.48625315873214275,-0.48625315873214275,1.0000038707761565,6.915605555640533e-05
-0.4861434993974399,-0.4861434993974399,0.9999579031577884,6.900915967950383e-05
-0.48607943952665666,-0.48607943952665666,1.0000481264239034,7.083698498063599e-05
-0.48603110027688673,-0.48603110027688673,1.0000083961357953,6.916533040986694e-05
-0.48598322433390423,-0.48598322433390423,1.000077311566934,6.950281600417458e-05
-0.48590729392817594,-0.48590729392817594,1.0000565064034075,7.164738777182164e-05
-0.4857993229961721,-0.4857993229961721,1.0000826948547714,7.322580783337492e-05
-0.48563315778810645,-0.48563315778810645,0.9998253029017841,7.346121835950255e-05
-0.48555726872873495,-0.48555726872873495,1.0000557035588904,6.968576743840701e-05
-0.4854445856050006,-0.4854445856050006,1.0000030785727139,6.860739488762458e-05
-0.48534790938501826,-0.48534790938501826,1.0000554634273149,6.862117470447898e-05
-0.4852495275772526,-0.4852495275772526,0.9999645777155621,6.844546704280038e-05
-0.4850719892689085,-0.4850719892689085,1.000046990295282,6.858757108069399e-05
-0.4849474262235162,-0.4849474262235162,1.0000990164296377,6.865404725265972e-05
-0.4848857939388836,-0.4848857939388836,0.9999682366003535,6.71034233452649e-05
-0.4847663718552212,-0.4847663718552212,0.999920326146159,6.961429534283854e-05
-0.48469022622157354,-0.48469022622157354,1.0001471536538513,6.780997040579981e-05
-0.4845585503069742,-0.4845585503069742,0.9999950804500741,6.875571678596632e-05
-0.4843413243193936,-0.4843413243193936,1.0000260062648723,6.883378618633391e-05
-0.48409975856775417,-0.48409975856775417,1.0000484285768425,6.921333706442068e-05
-0.4839242152222141,-0.4839242152222141,1.0001023170891892,6.933455766883944e-05
-0.48378826968037175,-0.48378826968037175,0.9999974387534113,6.84554432704341e-05
-0.48366140051512047,-0.48366140051512047,0.9999872351187566,6.871032772448868e-05
-0.48339937656346593,-0.48339937656346593,1.000103351577063,7.17750545754421e-05
-0.4831930309483141,-0.4831930309483141,1.0000458506748162,6.855859020229972e-05
-0.483002546026546,-0.483002546026546,0.9999029455266951,7.041503921904434e-05
-0.48288840435343444,-0.48288840435343444,0.9999553522799778,6.816127961320183e-05
-0.4827512589457911,-0.4827512589457911,0.9999517828817487,6.938920151786953e-05
-0.48260815571702553,-0.48260815571702553,1.0001294216399526,6.920533048252696e-05
-0.4824150547625322,-0.4824150547625322,1.0000858031575697,7.130012465909503e-05
-0.4823349824117031,-0.4823349824117031,1.0000138167523984,7.182223804197507e-05
-0.48223119323884023,-0.48223119323884023,0.9999405135475186,7.383148557819596e-05
-0.48217374951564124,-0.48217374951564124,1.0000162570781213,7.102360546655001e-05
-0.4820931355279754,-0.4820931355279754,1.0000994910205925,7.27505250563138e-05
-0.48201065322646175,-0.48201065322646175,0.9999266547102925,6.945481447082053e-05
-0.4818533029188984,-0.4818533029188984,1.0000212890363696,7.051865669005283e-05
-0.4817295916378498,-0.4817295916378498,0.9999657755047974,6.901452330405409e-05
-0.4815714738782845,-0.4815714738782845,1.0000464927238326,6.864907403788135e-05
-0.48150298017499155,-0.48150298017499155,1.000106137682197,6.87725112778452e-05
-0.48134141289483523,-0.48134141289483523,1.0000106866222953,7.250457571348258e-05
-0.48116604788228867,-0.48116604788228867,1.0000499301732235,7.411571662004796e-05
-0.4810559156634554,-0.4810559156634554,1.0000121505365134,7.146650531857072e-05
-0.48098968535705355,-0.48098968535705355,1.000032654116169,7.03455374830314e-05
-0.48088855767127825,-0.48088855767127825,0.9998696867577601,7.162780198159701e-05
-0.4805751948071702,-0.4805751948071702,1.0000516763486917,6.983239976237207e-05
-0.4804220576203079,-0.4804220576203079,1.000051972761971,6.930682577549904e-05
-0.4803272907003702,-0.4803272907003702,1.0000007913904563,6.973655358102565e-05
-0.48024285991996296,-0.48024285991996296,0.9999605815566751,6.872782479223272e-05
-0.4801573433258454,-0.4801573433258454,1.0000071262374315,6.886232639110203e-05
-0.48006668500675004,-0.48006668500675004,0.9999527333762306,6.803738108501257e-05
-0.4799964670077316,-0.4799964670077316,0.9999472814351739,6.784099786757052e-05
-0.4798919295637461,-0.4798919295637461,0.9999698433006865,6.855806995705769e-05
-0.4797356814968225,-0.4797356814968225,0.999948019248506,6.931176342960351e-05
-0.4796006809221581,-0.4796006809221581,0.9998585265508597,6.927318470925009e-05
-0.4794970861672482,-0.4794970861672482,0.999926903737034,6.876247739661001e-05
-0.47932947634253653,-0.47932947634253653,1.0000183553318915,6.951053886736146e-05
-0.4792208807040879,-0.4792208807040879,0.9998695855480355,6.787842677381148e-05
-0.47911821807865634,-0.47911821807865634,1.0000079650161147,6.921964672309525e-05
-0.4790136860247003,-0.4790136860247003,0.9999402363815578,7.04972835010248e-05
-0.47891704180365197,-0.47891704180365197,1.0000352105927488,6.804707695664049e-05
-0.4788499623791722,-0.4788499623791722,1.0000182858937232,7.444141038328707e-05
-0.4788093729985121,-0.4788093729985121,0.9999754436905789,6.754690223105065e-05
-0.478728976338607,-0.478728976338607,1.0000077049376714,7.419611671658074e-05
-0.47863336737864304,-0.47863336737864304,0.9999264039324673,7.391877327383836e-05
-0.478548931399564,-0.478548931399564,0.999850876941341,7.081542344202474e-05
-0.4784434836896253,-0.4784434836896253,1.0000790640740314,6.85680353835852e-05
-0.4783820304022811,-0.4783820304022811,1.0000218219450014,6.869184187567145e-05
-0.47826273822938675,-0.47826273822938675,0.9999958211397424,6.87808690547311e-05
-0.4781307545701566,-0.4781307545701566,1.0000642450752684,6.914598870273207e-05
-0.47798574575645036,-0.47798574575645036,1.0000251165701388,6.793968566683996e-05
-0.47786753937834875,-0.47786753937834875,0.9999419166735672,6.928461398881725e-05
-0.47777243548916887,-0.47777243548916887,1.000028480857032,7.091886891852347e-05
-0.4776600013174175,-0.4776600013174175,1.0000671472534663,7.143342988730371e-05
-0.4776019318836916,-0.4776019318836916,0.9999684658083332,7.35498729419281e-05
-0.4775097970748902,-0.4775097970748902,1.0000502385136048,7.182431914888029e-05
-0.4774021329059906,-0.4774021329059906,1.000016011710032,7.437634855095318e-05
-0.47727686885773435,-0.47727686885773435,1.0000315999514684,6.906034590575378e-05
-0.47702100036549383,-0.47702100036549383,0.9998547282774043,7.020313611897702e-05
-0.47660271296117573,-0.47660271296117573,1.000071086893135,6.794417775122811e-05
-0.4764506307205011,-0.4764506307205011,0.9999670840290513,6.935557791701877e-05
-0.47627767959129413,-0.47627767959129413,0.9999857559532644,6.846287276957456e-05
-0.4761999254929833,-0.4761999254929833,1.0001249808588661,6.946490362096032e-05
-0.4761115217479528,-0.4761115217479528,1.0001003209384418,6.830698192426783e-05
-0.47590090573648924,-0.47590090573648924,1.000089711289102,6.899920233139951e-05
-0.47572514429120927,-0.47572514429120927,0.9999489641262557,7.01045969498176e-05
-0.47562760281653027,-0.47562760281653027,1.0000026733963714,6.761597219882617e-05
-0.47554513118884645,-0.47554513118884645,0.9999078834314726,6.892107053033365e-05
-0.4754092072667845,-0.4754092072667845,1.0000883087076697,7.032966875058672e-05
-0.47527514028770385,-0.47527514028770385,0.9999370318648355,6.86835928036584e-05
-0.4751848144143878,-0.4751848144143878,0.9999666740201303,6.984968224329983e-05
-0.4750333274612785,-0.4750333274612785,1.000154331490735,7.053022428433067e-05
-0.47491137299584807,-0.47491137299584807,0.999967464066749,6.899610382442305e-05
-0.4747922021211707,-0.4747922021211707,1.0000446507411627,6.992702210538946e-05
-0.4747394018988416,-0.4747394018988416,0.9999840379589781,6.780285282789259e-05
-0.47466382493439596,-0.47466382493439596,0.9999527703641975,7.03661135815609e-05
-0.47451126465166454,-0.47451126465166454,0.9999997783747917,6.929787748497322e-05
-0.4744551302101172,-0.4744551302101172,1.0000597169971017,6.840755036070982e-05
-0.4744045909756096,-0.4744045909756096,0.9999454683012597,6.936138633647892e-05
-0.4742812273369054,-0.4742812273369054,0.9999194080317306,6.952516358046196e-05
-0.4742295967807877,-0.4742295967807877,1.0000063525388967,6.822881901808985e-05
-0.47417366427980595,-0.47417366427980595,1.0000075554039638,7.127861826310005e-05
-0.47403203456269694,-0.47403203456269694,1.0000402416360294,7.2259842502604e-05
-0.47392239064138264,-0.47392239064138264,1.0000540062107661,7.175266492389886e-05
-0.4738361308940512,-0.4738361308940512,0.9999753782317754,7.175369289453242e-05
-0.4737768803941435,-0.4737768803941435,1.0000630608249357,7.100437168884528e-05
-0.4737156375493214,-0.4737156375493214,0.999985254391872,7.163565577853563e-05
-0.4736543533108488,-0.4736543533108488,0.9998613272543222,6.902436072792127e-05
-0.47357549808075416,-0.47357549808075416,1.0000991774299195,6.81536211432409e-05
-0.473487636140635,-0.473487636140635,1.000012299518975,7.047606379519781e-05
-0.47343250662597713,-0.47343250662597713,1.0000766617697785,6.789985520359346e-05
-0.47335553461671226,-0.47335553461671226,1.0001366237170142,6.950150310930516e-05
-0.4732757897596457,-0.4732757897596457,0.9999402969828471,6.902159187965225e-05
-0.47319541187462166,-0.47319541187462166,0.9998754004153453,6.959406685840302e-05
-0.4731417007649725,-0.4731417007649725,0.9999310874312309,6.93369002155275e-05
-0.4730403254521661,-0.4730403254521661,0.99985426156233,6.981569416999108e-05
-0.47291005722727275,-0.47291005722727275,0.9999335259612643,6.893264860606652e-05
-0.4728395275058574,-0.4728395275058574,0.9999842708278038,6.786880524747114e-05
-0.47276130469545025,-0.47276130469545025,0.9998305812306404,6.927478658412273e-05
-0.47261671081869283,-0.47261671081869283,0.9999518680780037,6.964912701347202e-05
-0.47234037104790333,-0.47234037104790333,1.0000957147388523,6.944504381399496e-05
-0.47221070171071916,-0.47221070171071916,0.9999699637989895,6.738214181065279e-05
-0.47215947828663046,-0.47215947828663046,0.9999749477874686,6.873900164062448e-05
-0.4720513219937857,-0.4720513219937857,1.0000754942090715,6.946359607340111e-05
-0.4718367510395183,-0.4718367510395183,0.9999565839741674,6.955447158869478e-05
-0.471621912340197,-0.471621912340197,1.0001383787885758,6.708750833353658e-05
-0.47152906478368095,-0.47152906478368095,0.9999585335542667,6.853566542547395e-05
-0.4714375116425799,-0.4714375116425799,1.000198284890517,7.051290443617456e-05
-0.47127896617748777,-0.47127896617748777,1.000011310753099,6.832183227127376e-05
