time,time,flux,flux_err
-0.49891006820034817,-0.49891006820034817,1.0003000027202777,0.0003450695331610541
-0.49757856255819205,-0.49757856255819205,0.9999659487014924,0.00032582713405325547
-0.49602117722897676,-0.49602117722897676,0.9994583998467708,0.0003451676712949382
-0.4945087403728394,-0.4945087403728394,1.0001333512285107,0.0003255552870881541
-0.4927993848170445,-0.4927993848170445,0.9994835149266466,0.00034238949242930015
-0.49116747436637526,-0.49116747436637526,0.9999988532249446,0.0003256322991024954
-0.48964602810374347,-0.48964602810374347,0.9994682643965778,0.0003254744929193958
-0.48836230463493846,-0.48836230463493846,1.0002911691755894,0.0003258753282270789
-0.4872142093379807,-0.4872142093379807,0.9996820450272079,0.00032591737235361225
-0.48518375130879576,-0.48518375130879576,0.9998741304794514,0.00032564076518987824
-0.48421829740909744,-0.48421829740909744,1.0002076552202903,0.00033040226680375887
-0.48256474309964686,-0.48256474309964686,1.0001761708928734,0.00032568850603568154
-0.4809275411607814,-0.4809275411607814,1.00071337775276,0.00034518849267934764
-0.47954772316516026,-0.47954772316516026,1.000334491913005,0.0003258438614520116
-0.4781442377687199,-0.4781442377687199,0.9997381897850197,0.0003443176101047021
-0.4761594498020713,-0.4761594498020713,0.999553454878854,0.0003258494360091542
-0.4744281192339258,-0.4744281192339258,1.0001820003232516,0.00032603254741903206
-0.47280714321241246,-0.47280714321241246,0.9998918732239856,0.0003259922269605956
-0.4717224759675446,-0.4717224759675446,0.9998538992535828,0.00032543488286682147
-0.4702118166445871,-0.4702118166445871,0.9998501130967075,0.0003254692034907514
-0.46906029334131744,-0.46906029334131744,0.999867038085011,0.00033004657360025385
-0.46764379689775526,-0.46764379689775526,1.000528538430411,0.00032584469570577467
-0.4657843572626007,-0.4657843572626007,1.0000738610445858,0.0003256992098373845
-0.46440861835581015,-0.46440861835581015,0.9995116014059795,0.0003252901781863488
-0.4629729723317723,-0.4629729723317723,0.999923060614662,0.0003447572648984562
-0.4613272579605109,-0.4613272579605109,1.0001265655166207,0.00032533658667292613
-0.4596711066871649,-0.4596711066871649,1.000216252875521,0.0003265264167593222
-0.45834361252709643,-0.45834361252709643,0.9992759878042519,0.00034373186712236806
-0.4571248624677537,-0.4571248624677537,1.0000480872317827,0.0003254323138979696
-0.45548970309610015,-0.45548970309610015,0.9996168314166841,0.00032558940309671263
-0.45410449736373265,-0.45410449736373265,0.9995002252878613,0.00033595080718417487
-0.4528672506916337,-0.4528672506916337,0.9997166279278424,0.0003288598416975518
-0.45087854378216435,-0.45087854378216435,1.0000259077230076,0.0003255908090793594
-0.44943344390485435,-0.44943344390485435,1.000127201181458,0.00034507064180524914
-0.4466119492419239,-0.4466119492419239,1.0004475823940162,0.0003257646877952936
-0.44375917127763387,-0.44375917127763387,0.9998067568107393,0.00032586911891439077
-0.4419353919889545,-0.4419353919889545,1.0002877840076156,0.0003270846693233559
-0.43947231490528793,-0.43947231490528793,1.000135781983234,0.00033520226986211296
-0.4376748281014443,-0.4376748281014443,0.9996860155155514,0.0003283913404052297
-0.43560620387943344,-0.43560620387943344,1.000231702977438,0.0003377136921982114
-0.4342315820671502,-0.4342315820671502,0.9998588628694245,0.0003253883371682692
-0.4321171437877638,-0.4321171437877638,0.9998572554969861,0.00032724225742661463
-0.42845755842645306,-0.42845755842645306,1.000026483659808,0.00032517188446941185
-0.42732661569534686,-0.42732661569534686,0.9995528259366813,0.00034256604633851233
-0.4245363181522407,-0.4245363181522407,1.0000565856439771,0.000334845143245543
-0.4218590644595679,-0.4218590644595679,0.9998345102417462,0.0003261683976176452
-0.4195598942322249,-0.4195598942322249,0.999783386690598,0.0003254664639183862
-0.4177170548668073,-0.4177170548668073,1.0002645598647901,0.0003255405795116376
-0.4148113525916415,-0.4148113525916415,1.0001984755908135,0.00033813195416326715
-0.4128076262641116,-0.4128076262641116,0.9998348304879064,0.00032522939241099764
-0.41156994122356994,-0.41156994122356994,1.000122880738898,0.0003392187365248668
-0.40944603984899003,-0.40944603984899003,0.9995854471254887,0.0003422082143621737
-0.40767199552137756,-0.40767199552137756,1.0000972294688384,0.0003332108490427404
-0.40559986758744343,-0.40559986758744343,1.0001228779922902,0.00032580039135194174
-0.40354022081010044,-0.40354022081010044,1.0002772410921665,0.00032545841916098596
-0.4016805774561362,-0.4016805774561362,0.9999335218609696,0.00034040539780752944
-0.3989351341922884,-0.3989351341922884,0.9997951630590352,0.0003255125293582029
-0.39695997480666845,-0.39695997480666845,0.9998617316225505,0.0003254569774075551
-0.3935952102430747,-0.3935952102430747,0.9997611399906934,0.0003316942792509543
-0.3913078147503256,-0.3913078147503256,0.9990848755378948,0.0003256523772271922
-0.3895777498888492,-0.3895777498888492,1.000164064781566,0.0003259020037679456
-0.38699337710786497,-0.38699337710786497,1.000162778655227,0.00032566288939942813
-0.38375110126653456,-0.38375110126653456,1.0004933051428357,0.00032574376496821375
-0.3819146204710705,-0.3819146204710705,0.9994169035623545,0.0003253440645782148
-0.3802601420691644,-0.3802601420691644,1.0001261449873269,0.0003256426702425457
-0.3790078174068185,-0.3790078174068185,0.999855402513378,0.00032575610551297977
-0.37685242400984864,-0.37685242400984864,1.0003991820921407,0.00033099674884208774
-0.37532178119508897,-0.37532178119508897,0.9999859058361167,0.00032538879152515984
-0.37428837388943065,-0.37428837388943065,0.9999897627541827,0.0003257754798755618
-0.3723687050616718,-0.3723687050616718,0.9998305006193788,0.0003453115641553849
-0.37089696761759117,-0.37089696761759117,0.9998232857452667,0.00032566927506594946
-0.36884803073335204,-0.36884803073335204,0.9998533085568075,0.00034237251695164086
-0.3671373164790566,-0.3671373164790566,1.000467007895864,0.00032548169594476056
-0.36589190345839595,-0.36589190345839595,1.0003070687717348,0.0003453160750677537
-0.36448930511251093,-0.36448930511251093,1.0004795252609753,0.00032590499105498907
-0.36239112551120345,-0.36239112551120345,1.0000607310967389,0.00032558403744417815
-0.36138459173889714,-0.36138459173889714,0.9999778406659461,0.00033054061525058387
-0.359871610058326,-0.359871610058326,0.9999598331161554,0.00032554616112631917
-0.35818833335506495,-0.35818833335506495,1.000448972142771,0.0003257372160843954
-0.35693239393440307,-0.35693239393440307,1.0001996460658522,0.00034525193281356996
-0.3556091006990755,-0.3556091006990755,0.9998014736848008,0.00032588423993543873
-0.3539649763930356,-0.3539649763930356,0.9993346463254861,0.00034454109845835716
-0.3525167978135869,-0.3525167978135869,1.00040869545289,0.0003259890217026543
-0.3508049701085838,-0.3508049701085838,0.9999583591891336,0.00032571168497118124
-0.3492589301153203,-0.3492589301153203,0.9996870421438887,0.00032570829698542764
-0.34807402370861384,-0.34807402370861384,1.0004109683523483,0.000325504981647928
-0.34644303930908793,-0.34644303930908793,1.0000638537359958,0.0003258244937167221
-0.3454147445772833,-0.3454147445772833,0.9998825316551299,0.0003301203734021159
-0.34371989743303855,-0.34371989743303855,1.0002602601519144,0.00032587917308267314
-0.341940582251118,-0.341940582251118,0.9994746663036873,0.00032553307315467137
-0.340453355351201,-0.340453355351201,1.0003063072474232,0.0003259509042301162
-0.33800757456265274,-0.33800757456265274,1.0003468424091033,0.00034499515096123067
-0.3359312374450383,-0.3359312374450383,0.9998891949006292,0.0003267237043562788
-0.3346142160546151,-0.3346142160546151,0.9998330126187671,0.00032529206149010877
-0.33306622182644785,-0.33306622182644785,0.999206983689952,0.00032557962438505646
-0.3313954457567888,-0.3313954457567888,1.000215737371093,0.00032533906030136623
-0.3296010266560188,-0.3296010266560188,0.9995783901435716,0.0003291557328968849
-0.3278235681093065,-0.3278235681093065,0.9998736419504255,0.00032537732087391957
-0.32654280990027473,-0.32654280990027473,0.9998666912325407,0.0003449507708314918
-0.32552761033803107,-0.32552761033803107,0.9999208144714238,0.00032533070892328165
-0.32207895628453115,-0.32207895628453115,0.9999544013544959,0.0003259091614063414
-0.3199628975657106,-0.3199628975657106,0.9995719082083682,0.00032588412629669475
-0.31860738066170596,-0.31860738066170596,0.9997959675769206,0.0003253925139518895
-0.317009874645737,-0.317009874645737,0.9993409346749834,0.0003377542251879382
-0.3153588176093763,-0.3153588176093763,0.9995309727401984,0.00035555191426377977
-0.31351322548580357,-0.31351322548580357,1.0002995630049685,0.00032578383766855665
-0.3116101761625032,-0.3116101761625032,0.9996559368200835,0.00032539066392569014
-0.31078422548234813,-0.31078422548234813,0.9996802772969324,0.00032550753199984907
-0.30740720772737407,-0.30740720772737407,0.9999930597819537,0.00032705161843685356
-0.3047851031311438,-0.3047851031311438,0.9999129881534611,0.00032540731900397254
-0.30210459128720685,-0.30210459128720685,0.9997347237984295,0.00033504225970779143
-0.2990892571680888,-0.2990892571680888,0.9995245137434573,0.0003279382202350684
-0.29717276511728413,-0.29717276511728413,0.9998874194481029,0.00033797737874468974
-0.2954628550091002,-0.2954628550091002,1.000021256625773,0.00032572231774483296
-0.2936462354773539,-0.2936462354773539,0.999738743150561,0.0003380382031489812
-0.2909900216043752,-0.2909900216043752,0.9995770670711913,0.0003253440192682479
-0.28952258443823664,-0.28952258443823664,0.9999741260058613,0.00032518403857696905
-0.2878537740354659,-0.2878537740354659,0.9996358848161193,0.0003418967695922461
-0.28478143103275216,-0.28478143103275216,1.0002008952602937,0.0003333426757432711
-0.28254152713125225,-0.28254152713125225,0.9999097005380166,0.00032588128450135155
-0.2805151784188638,-0.2805151784188638,0.9997575718317565,0.00034078711176301155
-0.2786347609573568,-0.2786347609573568,1.0001856710708483,0.0003398934886205625
-0.2757555892443634,-0.2757555892443634,0.9996754559439506,0.0003255580143165345
-0.2735777413807227,-0.2735777413807227,1.0002234005218313,0.00032532370430201013
-0.27023493112283176,-0.27023493112283176,1.00016312544719,0.00033183524974953155
-0.26824973438488087,-0.26824973438488087,1.0001645498574852,0.00032584315625630046
-0.26668525164277523,-0.26668525164277523,1.0002054566238392,0.00032579265158246565
-0.26466085817155544,-0.26466085817155544,0.9997788974036853,0.0003259596928381481
-0.2620448584930273,-0.2620448584930273,1.0002260377866206,0.0003257468530551247
-0.25938538953414536,-0.25938538953414536,0.9993447155952998,0.0003254655200324351
-0.257776902797923,-0.257776902797923,1.0005928478303818,0.00032569066254371966
-0.2562721338646952,-0.2562721338646952,1.000080871435324,0.00032573141593009717
-0.25379327785776695,-0.25379327785776695,1.0005361067732204,0.00033122100403018843
-0.2522640384915576,-0.2522640384915576,1.000354402394666,0.0003254452477046218
-0.2512300175825658,-0.2512300175825658,1.0003803737733818,0.00032587149107795655
-0.24923694557583076,-0.24923694557583076,0.9999963411719953,0.00032561612555213947
-0.2471989996804041,-0.2471989996804041,0.99970479291615,0.000342732229512833
-0.24524570510038757,-0.24524570510038757,1.0003962372841488,0.00033932602212109167
-0.24366558574402006,-0.24366558574402006,1.0003744521621918,0.0003451475864005022
-0.24220191935019103,-0.24220191935019103,1.0000089082195762,0.0003258645621704711
-0.24084225897895523,-0.24084225897895523,0.9997953757677578,0.0003256337074745919
-0.23897713046389982,-0.23897713046389982,1.000275943654033,0.00032557245753731163
-0.23785787577799056,-0.23785787577799056,1.0006146840178807,0.00033061652002831733
-0.23633604611532064,-0.23633604611532064,0.9997268048794179,0.00032565583120287725
-0.23497688267525518,-0.23497688267525518,1.0005595925122024,0.0003256731955923889
-0.23387390461430185,-0.23387390461430185,1.0000079854819122,0.00035116411672586704
-0.23281393342476803,-0.23281393342476803,1.0002344317399539,0.0003258694855017597
-0.23102263273394782,-0.23102263273394782,0.9999302783414402,0.00034411193008920647
-0.22935245257467612,-0.22935245257467612,0.9993483235096567,0.00032569530717826734
-0.22794110497125075,-0.22794110497125075,0.9997710466574581,0.00032556344130373695
-0.22645885795282084,-0.22645885795282084,0.9999656702796704,0.0003258861361395485
-0.2253988659911556,-0.2253988659911556,1.0003175765444305,0.0003255344485571404
-0.2238060363517434,-0.2238060363517434,1.0013025030571963,0.0003259560434291331
-0.22273955704149556,-0.22273955704149556,1.0000127127559393,0.00033021537262767906
-0.22139287089012213,-0.22139287089012213,0.9999102168110692,0.00032606095365278107
-0.2197925743959786,-0.2197925743959786,1.0005649608998468,0.000326122855438181
-0.21824329994269648,-0.21824329994269648,1.000244258178752,0.0003255474870520811
-0.21654623009235366,-0.21654623009235366,1.000299118741387,0.0003450015151358692
-0.21390636572541552,-0.21390636572541552,0.9999272660322853,0.00032605354851145634
-0.21209611989543192,-0.21209611989543192,0.999995349586104,0.0003255080966484321
-0.2107556721835863,-0.2107556721835863,1.0005136994594988,0.0003451155317463157
-0.20936808624246622,-0.20936808624246622,1.0014538970046056,0.000325518477090269
-0.20755134564678884,-0.20755134564678884,0.9994284989607903,0.0003291499068631176
-0.20576858663989697,-0.20576858663989697,0.99973292919973,0.000325718336776032
-0.20391455685894472,-0.20391455685894472,0.999801361773789,0.00032533920397798604
-0.20301701549324208,-0.20301701549324208,0.9996153777383018,0.0003452629152180956
-0.2004941424645949,-0.2004941424645949,1.0002268430662955,0.00032584183274149707
-0.19740232713884326,-0.19740232713884326,1.0001908815288203,0.0003261382175943385
-0.1955864278374065,-0.1955864278374065,1.00018054639337,0.0003255570743386658
-0.19380571012588915,-0.19380571012588915,1.0000560456402419,0.0003270886676402868
-0.19201706704479876,-0.19201706704479876,0.9994536415494016,0.0003381199052113531
-0.19018792923889122,-0.19018792923889122,1.0002964595389596,0.000325453758517185
-0.18833021422979074,-0.18833021422979074,0.999807441623871,0.00032534008345241384
-0.18741092432392178,-0.18741092432392178,1.0004007371943182,0.0003448658050313057
-0.18386311085050694,-0.18386311085050694,0.9998844421920421,0.00033799645009904746
-0.18172608900567866,-0.18172608900567866,1.0002272894873347,0.000325474436133276
-0.1796665563924762,-0.1796665563924762,1.0001795626694494,0.0003267781289858533
-0.17685461789296825,-0.17685461789296825,0.999998106537759,0.0003365739998700553
-0.1749095070415933,-0.1749095070415933,0.999790366084971,0.0003382992286897055
-0.1731244384092861,-0.1731244384092861,0.9999362150580208,0.0003256082221842834
-0.17182579431173509,-0.17182579431173509,1.000127790787173,0.0003255542215620331
-0.16922894545496092,-0.16922894545496092,1.0004219088211108,0.0003378781202425038
-0.16646391687900178,-0.16646391687900178,0.999812150533194,0.0003252062184782291
-0.1647943945201405,-0.1647943945201405,1.0004661425462125,0.00034184208603258256
-0.16129138749383856,-0.16129138749383856,0.9997064160803728,0.00033334437237651505
-0.1587567839946132,-0.1587567839946132,1.0005855182760777,0.00032561081637125125
-0.1564170520287007,-0.1564170520287007,0.9998599396251528,0.0003255265219102452
-0.1545404853313812,-0.1545404853313812,0.9996897887625218,0.00033961009601983885
-0.15188326525021695,-0.15188326525021695,1.0003979130351262,0.00032538422291238957
-0.15008314700098707,-0.15008314700098707,1.0000049149035777,0.0003254343088089736
-0.14747514991468053,-0.14747514991468053,1.0004024384290482,0.0003428088660551803
-0.14558394150881213,-0.14558394150881213,0.9999464003556018,0.00033237147827706095
-0.14392275928912568,-0.14392275928912568,0.9993595975133477,0.00032586188637833216
-0.1422717801273393,-0.1422717801273393,1.0001027391013673,0.0003410599674865002
-0.14038624759632512,-0.14038624759632512,0.9997933910701317,0.00032566795007359323
-0.13743988842034013,-0.13743988842034013,1.0003983394923144,0.0003254992141871812
-0.13579698168759932,-0.13579698168759932,1.0006133243740714,0.0003254722635783629
-0.13439196293838904,-0.13439196293838904,1.0002748557493741,0.00032583583302324556
-0.1321619944064878,-0.1321619944064878,0.9999435897570157,0.0003260258385012669
-0.13048575146967778,-0.13048575146967778,1.0004249315472855,0.00033118571995239437
-0.12868843237665714,-0.12868843237665714,0.9997853306965606,0.00032559568952364123
-0.12712905548251002,-0.12712905548251002,1.0008860378162185,0.0003256331496540013
-0.12470269482873846,-0.12470269482873846,1.0002878167113316,0.0003259589103753043
-0.12169529091916047,-0.12169529091916047,0.9995220228871473,0.00032518359510299097
-0.11977259090781445,-0.11977259090781445,1.0000481881451673,0.0003453234498199639
-0.11861504943590262,-0.11861504943590262,1.0000396956790265,0.0003261059111124198
-0.11721743469533977,-0.11721743469533977,1.0001671912225272,0.0003399566674154183
-0.11572256299550646,-0.11572256299550646,0.999702757977148,0.00033067747937694
-0.11451162522935192,-0.11451162522935192,1.0004004193891074,0.00032542170634773253
-0.11311108497102396,-0.11311108497102396,0.9996992395159836,0.00034297590380095305
-0.11185004842700437,-0.11185004842700437,0.9998509088658286,0.00034533610567971093
-0.11037398953048978,-0.11037398953048978,0.9999568674818372,0.0003258345691477534
-0.1091242355410941,-0.1091242355410941,1.0000893503623163,0.00032573525039713517
-0.10667236743247485,-0.10667236743247485,1.0005136039583848,0.0003259802851060728
-0.10534840054242522,-0.10534840054242522,0.9998071858163055,0.0003254648554021277
-0.10395243936873158,-0.10395243936873158,1.000776963573022,0.0003258941582225315
-0.10276286679363693,-0.10276286679363693,1.0000827949731976,0.000325791836314063
-0.10130084345728392,-0.10130084345728392,1.0007263297787357,0.0003256547212717611
-0.10013533505989472,-0.10013533505989472,1.000189327132349,0.0003257806731779173
-0.09926453967273119,-0.09926453967273119,0.9997612921657396,0.0003299310868255648
-0.0974447697692085,-0.0974447697692085,0.9998464946185841,0.00032597327138806476
-0.09574223487870767,-0.09574223487870767,0.9995250809348738,0.00032527757824911776
-0.09418802338113892,-0.09418802338113892,1.000292789140283,0.00034417049765932443
-0.09248312054332927,-0.09248312054332927,1.0000544564890135,0.00034474263794907154
-0.09056518692304963,-0.09056518692304963,1.0000802973463165,0.0003283293687491089
-0.08903720479283947,-0.08903720479283947,0.9999619378083391,0.000325482334503625
-0.08767974026341108,-0.08767974026341108,1.0002397733702189,0.00032530446976234334
-0.08616882992719184,-0.08616882992719184,1.0003825438180391,0.00033182567487546937
-0.08449223712304957,-0.08449223712304957,1.00031670401211,0.00032936339331528957
-0.08322757624919178,-0.08322757624919178,1.0002954324386537,0.00032590878378636044
-0.08175522132587502,-0.08175522132587502,0.9995769873309144,0.000325481459308044
-0.08043423375129351,-0.08043423375129351,1.0007702012550053,0.0003260019840248806
-0.0789487303198257,-0.0789487303198257,0.9997296694541236,0.00034509935552201544
-0.07603409583171014,-0.07603409583171014,0.9995097039863012,0.00034538829164668756
-0.0738457317762368,-0.0738457317762368,1.001049132316412,0.00032608288282805616
-0.07219087473131366,-0.07219087473131366,0.9992695421938873,0.00032679501905086104
-0.07044318572225165,-0.07044318572225165,1.0009689411073528,0.0003355606102427269
-0.06857407291099663,-0.06857407291099663,0.9999417683078595,0.00032854644467692786
-0.06664932449712069,-0.06664932449712069,1.0005068361348148,0.00032565024967715425
-0.06514964062880609,-0.06514964062880609,0.999909071342319,0.00032603079095377155
-0.06382165452814662,-0.06382165452814662,0.9997469564612331,0.0003459710412199281
-0.06017207463373779,-0.06017207463373779,0.9994851373692002,0.0003364393176277224
