time,time,flux,flux_err
-0.4994020988997363,-0.4994020988997363,0.9996083971941883,0.00036899579447351687
-0.4982240348988853,-0.4982240348988853,0.9999584960815238,0.0003679020510254575
-0.49738389992635346,-0.49738389992635346,0.9999826887775252,0.00036527628113057215
-0.49614106197768704,-0.49614106197768704,1.00101739345618,0.0003692376388386843
-0.49397679793837596,-0.49397679793837596,1.0004768474477435,0.0003664916984194645
-0.4925023662930471,-0.4925023662930471,0.9999003294288086,0.0003673480206242672
-0.49130795583769216,-0.49130795583769216,1.0006383424850818,0.00036736346366903784
-0.4901955877554428,-0.4901955877554428,1.000356116438661,0.000365769300256739
-0.48882192793898865,-0.48882192793898865,1.0000530370860305,0.0003654745949644992
-0.4872335494219442,-0.4872335494219442,1.0000014729410462,0.0003644793723523983
-0.48599569887956023,-0.48599569887956023,1.0000390950393236,0.00036427208544728766
-0.4841014106394141,-0.4841014106394141,0.999797720653478,0.00036853933326728646
-0.48263318657845955,-0.48263318657845955,0.9995972185137043,0.00036642583449522203
-0.4810858184020617,-0.4810858184020617,1.0001351744226874,0.0003676847532010553
-0.4799199619847059,-0.4799199619847059,0.999255027569269,0.00036580280052455656
-0.4788395736082748,-0.4788395736082748,1.0000185370752315,0.00036584342744850815
-0.4773464858182706,-0.4773464858182706,1.0004309705590289,0.0003667965241944691
-0.4756446463856264,-0.4756446463856264,1.0000768434731389,0.00036662086633405274
-0.47441632346162804,-0.47441632346162804,0.9998119036118445,0.00036932938886100216
-0.4730761530758173,-0.4730761530758173,1.0000878602477614,0.00036698223297720054
-0.471899637671595,-0.471899637671595,0.9996591106580706,0.0003676076630234083
-0.4703149262633815,-0.4703149262633815,0.9997800114108518,0.0003651838004189479
-0.46819226077350323,-0.46819226077350323,1.0000982380142551,0.0003646658250957441
-0.4665502767340513,-0.4665502767340513,1.0002248429621619,0.0003659074919288353
-0.46496076561088556,-0.46496076561088556,0.9998819686089678,0.0003698251365197071
-0.4643533678507083,-0.4643533678507083,0.9999491126264471,0.00036674771901690467
-0.46319854374814895,-0.46319854374814895,0.9998211556628155,0.00036633168571050277
-0.46195801377834866,-0.46195801377834866,1.0007092767563868,0.0003672667662762483
-0.4605395150865661,-0.4605395150865661,0.9998288452245123,0.0003645580498083289
-0.45907317220408006,-0.45907317220408006,0.9999746593638175,0.0003673888370621011
-0.45744184659051823,-0.45744184659051823,0.9998436792956559,0.00036652690743163097
-0.4562911010856624,-0.4562911010856624,1.0008773653737797,0.00036966182300032893
-0.4548697375663323,-0.4548697375663323,1.000576201845779,0.0003670914437808804
-0.4532323576546332,-0.4532323576546332,1.000082782084552,0.00036875926979360615
-0.4517917424273037,-0.4517917424273037,1.0000404117815014,0.00036521244167698623
-0.4500070629292168,-0.4500070629292168,1.0003874874772034,0.00036476441069020554
-0.4480319623711694,-0.4480319623711694,1.0000165099320488,0.00036589414108165874
-0.446873102185782,-0.446873102185782,1.0000127069824292,0.0003694897619873946
-0.44599159568169855,-0.44599159568169855,1.0010636093212557,0.0003664855243966283
-0.4448541571640817,-0.4448541571640817,0.9998484567019095,0.0003663817930499485
-0.44401799748447957,-0.44401799748447957,0.999699589533115,0.00036912529054834394
-0.443038406924461,-0.443038406924461,1.0001764716885746,0.0003646053519284861
-0.44185341125703415,-0.44185341125703415,1.0001348368690786,0.0003653231456594772
-0.4401688398873375,-0.4401688398873375,0.9999713057314444,0.00036775999801803285
-0.4383238552305556,-0.4383238552305556,0.9999553000153989,0.0003665854783973713
-0.4373222611589881,-0.4373222611589881,0.9998466305359541,0.0003689177132371826
-0.43631985627798714,-0.43631985627798714,1.0001974877025759,0.0003670871962496371
-0.43459369362026334,-0.43459369362026334,0.9995327728229828,0.0003674901418347601
-0.4330944035114953,-0.4330944035114953,0.9997790813886539,0.00036604670245677577
-0.43143939788787977,-0.43143939788787977,0.9999279232205346,0.00036462989941803457
-0.43016511397145224,-0.43016511397145224,1.000050815437493,0.0003677644594456787
-0.42864252955259874,-0.42864252955259874,1.0006339890114486,0.00036854349892473826
-0.4275316544306406,-0.4275316544306406,1.0002329859370127,0.00036734814226322646
-0.42661038129081136,-0.42661038129081136,1.0004313563228433,0.0003654263011181332
-0.42560641412710537,-0.42560641412710537,0.9997660762251549,0.0003665591644715275
-0.42486399347762926,-0.42486399347762926,1.0002633475989329,0.0003664330791219442
-0.42365972206025615,-0.42365972206025615,0.9997476878785084,0.0003667238067102958
-0.42257966094621224,-0.42257966094621224,1.0002289949263854,0.0003660766394743972
-0.42028372194617986,-0.42028372194617986,1.0000707349516316,0.00036625653837482006
-0.4186883930611657,-0.4186883930611657,0.9995659412952567,0.0003677966959986719
-0.41749977160143315,-0.41749977160143315,1.0004374273047976,0.00036928236927533223
-0.4163058366284531,-0.4163058366284531,0.999858709918259,0.00036751924267319004
-0.41513241221546193,-0.41513241221546193,0.999838408267115,0.00036538046897916204
-0.41423794948495923,-0.41423794948495923,1.0000219160942703,0.0003642806215263077
-0.41225561444516645,-0.41225561444516645,0.9998867079365068,0.00036763636109992076
-0.4110504522235715,-0.4110504522235715,1.000348060204637,0.0003668655724074578
-0.4099842152056226,-0.4099842152056226,1.0001565022148244,0.00036679190125926437
-0.40920810094321497,-0.40920810094321497,1.0001723248364933,0.0003690005968803895
-0.4083046157640638,-0.4083046157640638,0.9999612113346114,0.0003654794607223178
-0.40735667884655413,-0.40735667884655413,0.9997801306038087,0.00036648552713468687
-0.40651646768310457,-0.40651646768310457,1.0000980278604041,0.0003671396220917865
-0.40502528039651225,-0.40502528039651225,1.000627288221202,0.00036884259865100114
-0.4034211903759569,-0.4034211903759569,0.9997762037573953,0.00036612449518613136
-0.40198727795577727,-0.40198727795577727,0.999737162436606,0.00036597683086209154
-0.40080394269316455,-0.40080394269316455,1.0001681384018979,0.0003686889659278758
-0.39911808706528973,-0.39911808706528973,1.0002565871084772,0.00036619627350432347
-0.3970439284072199,-0.3970439284072199,0.9999337313946051,0.00036691373365953597
-0.39531442854058696,-0.39531442854058696,0.9999048490641013,0.00036652483592911945
-0.39354570661962496,-0.39354570661962496,0.9997719242387895,0.00036949301787943755
-0.392767653849296,-0.392767653849296,1.0001092182498552,0.00036716720961464514
-0.391505229518225,-0.391505229518225,0.9996493798639575,0.0003677776903835628
-0.3902943295004661,-0.3902943295004661,1.0000089617509762,0.0003672446242405278
-0.38882933430431876,-0.38882933430431876,1.0005862688256937,0.00036469569917019467
-0.387770910616382,-0.387770910616382,1.0004859282112446,0.0003682538146417292
-0.3859413178048271,-0.3859413178048271,0.9992399960396356,0.00036661037086259515
-0.3838468743211706,-0.3838468743211706,0.9998782802012947,0.00036709534653021957
-0.3828100454906235,-0.3828100454906235,1.0003491824173703,0.0003654215380592168
-0.3818339436169481,-0.3818339436169481,1.0005233415854495,0.0003679270606363542
-0.38064516396334513,-0.38064516396334513,1.0001226506745242,0.0003668319751184064
-0.3788620445593551,-0.3788620445593551,0.9999375768717407,0.0003642440556936119
-0.3777543924115889,-0.3777543924115889,1.0003269469618348,0.00036440857181726567
-0.37488719468310594,-0.37488719468310594,1.000196042084546,0.0003688666476694131
-0.37334851106934364,-0.37334851106934364,1.000187811941298,0.00036712081855906143
-0.3719396147185762,-0.3719396147185762,1.000207944520049,0.0003692521910490076
-0.3706933155604929,-0.3706933155604929,0.9995135147255361,0.00036787457315307586
-0.3699751783744432,-0.3699751783744432,0.9994581588462179,0.0003656995801055233
-0.3688418973753869,-0.3688418973753869,0.9997478416591621,0.0003685645256065665
-0.36699923830819897,-0.36699923830819897,0.9997555530345397,0.00036680031339515415
-0.36551328521818505,-0.36551328521818505,0.9996568354241362,0.0003676324877801594
-0.3643462583735527,-0.3643462583735527,1.0001859105374382,0.00036564273130371865
-0.3632452981037204,-0.3632452981037204,1.0000032422991514,0.0003673413939098204
-0.3615817219964811,-0.3615817219964811,1.0001660150107878,0.00036656341023768316
-0.36018887652098786,-0.36018887652098786,0.9998313607990171,0.0003634608284393897
-0.3591737044771435,-0.3591737044771435,1.0005889497006581,0.00036503138077479026
-0.35800226199789903,-0.35800226199789903,1.0003096050463394,0.0003669735055978975
-0.3560738561747712,-0.3560738561747712,1.0008897487547246,0.00036838885752366935
-0.35492909417371266,-0.35492909417371266,0.9999049324300515,0.00036570817843709313
-0.353802051020466,-0.353802051020466,0.9997400119463492,0.0003670253923654122
-0.35284981877339305,-0.35284981877339305,0.9999848430946623,0.00036680186879668573
-0.35140222476547933,-0.35140222476547933,1.0004596522946965,0.0003659325485409427
-0.3498019393882714,-0.3498019393882714,1.0004027791840933,0.0003672941442216989
-0.34811223098877236,-0.34811223098877236,1.0002944776424856,0.0003661252222650894
-0.34694821151497307,-0.34694821151497307,1.000284306093268,0.0003686592783229964
-0.345767971326859,-0.345767971326859,1.0001698768450547,0.00036704814367082104
-0.34433930321465595,-0.34433930321465595,1.0004549935901743,0.00036741324189773115
-0.3426063367274764,-0.3426063367274764,1.0000322526180485,0.00036444821897778655
-0.34055301794360276,-0.34055301794360276,0.9996443819166801,0.0003658382846509128
-0.33855019298935074,-0.33855019298935074,0.9997980901105672,0.0003670451600129738
-0.3374398704057967,-0.3374398704057967,0.9996732161381031,0.0003681868442494624
-0.3365802934793464,-0.3365802934793464,1.0000265072063248,0.0003658387887091507
-0.33508709710513357,-0.33508709710513357,0.999576201973186,0.0003678435316677135
-0.3338292844382522,-0.3338292844382522,0.9994840315542562,0.0003656774583705255
-0.33235484602264476,-0.33235484602264476,1.0004476874272021,0.00036654750163841326
-0.33069672454003013,-0.33069672454003013,1.0000929372594813,0.0003654625106862583
-0.3293289028202707,-0.3293289028202707,0.999533926634267,0.0003678118075567701
-0.3281671313168772,-0.3281671313168772,1.0002377260387278,0.00036960874506858203
-0.32706675147492204,-0.32706675147492204,1.0001173907251506,0.00036655163834856694
-0.32509097986257984,-0.32509097986257984,1.0001000594982947,0.00036705572203166544
-0.32355974455349495,-0.32355974455349495,1.0006259386370298,0.00036654070737118045
-0.32138643774960657,-0.32138643774960657,1.0000366331324617,0.0003647271400997076
-0.3200482806780201,-0.3200482806780201,0.9992286471168101,0.00036686406186195095
-0.31898067968213584,-0.31898067968213584,0.9994523823834107,0.00036925970604272817
-0.3180896666439367,-0.3180896666439367,0.9997184487571419,0.0003653786083531692
-0.31689620788092726,-0.31689620788092726,1.0002822710810073,0.00036679438758659567
-0.3159947772677697,-0.3159947772677697,1.0003832220208257,0.00036595223164890184
-0.3148373292329779,-0.3148373292329779,1.000188257769541,0.0003675412705746527
-0.313892544425471,-0.313892544425471,1.0004363722673528,0.0003665189895664548
-0.31152602707734334,-0.31152602707734334,1.0003478477120233,0.000366837898259271
-0.3106121176737361,-0.3106121176737361,1.0006418540624964,0.0003672899071634601
-0.30927491049733363,-0.30927491049733363,1.0002233317050784,0.00036722358030491194
-0.30753601206961323,-0.30753601206961323,1.000095051853687,0.0003676099973038067
-0.3056983351300005,-0.3056983351300005,1.0000714290735908,0.00036531343557900123
-0.3039427186864486,-0.3039427186864486,1.0000093525772469,0.00036550325228188325
-0.3028841311381257,-0.3028841311381257,1.000206973234004,0.0003678701573342431
-0.30181808587076375,-0.30181808587076375,1.0005355226850197,0.00036763828376398415
-0.30051936888994535,-0.30051936888994535,0.9999196206803582,0.0003694219942417763
-0.2999309670434741,-0.2999309670434741,1.0000571049567468,0.0003659753868705334
-0.29905822519649516,-0.29905822519649516,0.999435881773377,0.00036624510045389126
-0.29818425286139244,-0.29818425286139244,0.99999847838019,0.000367960698808516
-0.29717084342992167,-0.29717084342992167,0.9998658851770796,0.0003657748338959866
-0.29573165700712706,-0.29573165700712706,1.0005915142650021,0.0003659945742363409
-0.29381526075376313,-0.29381526075376313,1.0001794570475693,0.00036522342847539565
-0.29180598331149665,-0.29180598331149665,1.0004649530374503,0.0003663489051795581
-0.29032073318376206,-0.29032073318376206,1.0002388779019848,0.0003686058510954438
-0.2883800447103567,-0.2883800447103567,1.0000554411803924,0.0003663449106250195
-0.28733051699600765,-0.28733051699600765,1.000003010769818,0.00036533380558729974
-0.28574545000738,-0.28574545000738,1.0001085738112865,0.00036465961496473813
-0.28430759338880307,-0.28430759338880307,1.000334667980504,0.000369011195142208
-0.283308217292506,-0.283308217292506,1.0000381299605003,0.0003668463857234895
-0.28237166259496005,-0.28237166259496005,0.9994231772612249,0.0003705542874972621
-0.2815481993959111,-0.2815481993959111,0.9996832738969467,0.00036607351595082836
-0.28041426034178585,-0.28041426034178585,0.9999230470340266,0.000367283251907455
-0.27981605450768254,-0.27981605450768254,0.9996121062887378,0.00036744826486892446
-0.27875094391274613,-0.27875094391274613,1.000249221671548,0.0003665971902775986
-0.27669590220830287,-0.27669590220830287,0.9998952406584387,0.00036602945780777685
-0.2751726385569782,-0.2751726385569782,1.0000782786066744,0.00036802924643536454
-0.27410277163435237,-0.27410277163435237,1.0003901377422124,0.0003675285778248987
-0.2730113074358087,-0.2730113074358087,0.999857641278207,0.0003666461819881482
-0.2713403668407409,-0.2713403668407409,1.0000755485651895,0.0003666691740411189
-0.2697361036669463,-0.2697361036669463,1.0003531189792174,0.000366986251181164
-0.26789224552921953,-0.26789224552921953,1.00065739647616,0.00036440919885959524
-0.26604870550509074,-0.26604870550509074,0.999807831934399,0.0003698479517197803
-0.2649643752229167,-0.2649643752229167,1.0001970766169985,0.0003662951728850364
-0.26324951865608454,-0.26324951865608454,0.9998920921735405,0.0003689093023817615
-0.2619951403517916,-0.2619951403517916,1.0002732173830968,0.0003667698881212453
-0.26080536441222646,-0.26080536441222646,1.0000367217466906,0.0003666139341620025
-0.2590798722267209,-0.2590798722267209,1.0005004681533276,0.00036760761756247896
-0.2568246489390731,-0.2568246489390731,0.9998082850688632,0.0003689829073427398
-0.25537241166166497,-0.25537241166166497,1.0002054688092408,0.0003658314171029695
-0.25390307267443857,-0.25390307267443857,1.0001238153796255,0.00036767346178119586
-0.2517391517976648,-0.2517391517976648,0.9999329219347086,0.0003647400838545149
-0.2500676564581227,-0.2500676564581227,1.0007358671774915,0.0003654502219707614
-0.24737629891678808,-0.24737629891678808,0.999314522450755,0.0003686637221828478
-0.24603771700058133,-0.24603771700058133,1.0001765899502608,0.00036551470551376785
-0.24476043343674975,-0.24476043343674975,0.9997342589659493,0.0003696364448783929
-0.2436088043388736,-0.2436088043388736,0.9998060566246437,0.0003678842153807083
-0.24281985997149605,-0.24281985997149605,0.9999694332383878,0.0003666649194834601
-0.24179475038181408,-0.24179475038181408,1.0000191805614362,0.00036757891002926844
-0.2400833052590315,-0.2400833052590315,0.9997962401089746,0.00036666131803287386
-0.2386124346361612,-0.2386124346361612,0.9999660008771357,0.0003673311103406777
-0.23718163569719763,-0.23718163569719763,0.9999278314968526,0.00036650905208802535
-0.23593753783788998,-0.23593753783788998,0.9997367893112343,0.0003672731773557606
-0.2344713181213592,-0.2344713181213592,0.9998784309086328,0.0003655990101736433
-0.23262270498889848,-0.23262270498889848,1.0001712509295788,0.00036463731633912033
-0.2313631350392825,-0.2313631350392825,1.0007459097479448,0.0003647910901351305
-0.2294862027214549,-0.2294862027214549,0.9997288122448337,0.0003684832198369598
-0.22819801830264624,-0.22819801830264624,1.0002103593689193,0.00036689408006841223
-0.22703203115743237,-0.22703203115743237,1.0004372423629766,0.0003664580195641703
-0.2260874097897613,-0.2260874097897613,0.9999473743241738,0.00036815098648322706
-0.2243801659446035,-0.2243801659446035,0.9997768002264488,0.0003643908955099608
-0.22299564994100365,-0.22299564994100365,1.0000788439644681,0.00036745317881068594
-0.22123900147344103,-0.22123900147344103,1.0000073402602907,0.00036713139279853576
-0.2203435949246341,-0.2203435949246341,1.000241710106301,0.0003684684428365172
-0.21909246317954967,-0.21909246317954967,1.0007361558105436,0.0003670384985405753
-0.21799578971549635,-0.21799578971549635,1.0005485375630623,0.0003666913364641306
-0.21650740237309946,-0.21650740237309946,1.0000290097160136,0.00036770937010854654
-0.21529457077631378,-0.21529457077631378,1.0000418807060183,0.0003638586542204577
-0.21345475709604217,-0.21345475709604217,0.999598317083576,0.00036443802160638164
-0.21211893086365308,-0.21211893086365308,1.000298989416223,0.0003659526749875188
-0.21062756397222984,-0.21062756397222984,1.0006761984149413,0.0003686240410447243
-0.21013214726772275,-0.21013214726772275,1.000498138879565,0.0003682958840728596
-0.2092730450181989,-0.2092730450181989,1.0002500318507253,0.00036579124933774194
-0.20777918355088332,-0.20777918355088332,1.0000245956195326,0.0003678501829697462
-0.20671325863222592,-0.20671325863222592,1.0003236590634939,0.00036570450706953345
-0.2054041874158429,-0.2054041874158429,1.0001320287676214,0.0003666842949786325
-0.20341625354049028,-0.20341625354049028,1.0003972281825344,0.00036648996340221207
-0.20194703316592494,-0.20194703316592494,0.9991311328745807,0.0003677223086067419
-0.20025396421187908,-0.20025396421187908,1.00118571346165,0.00036718403887424107
-0.1987810829632508,-0.1987810829632508,0.9998820613026635,0.00036828125977107664
-0.1972233439249976,-0.1972233439249976,0.9997969114839911,0.0003653628482387573
-0.19528505314228822,-0.19528505314228822,1.0000866560528787,0.00036469603437480744
-0.1934166425759031,-0.1934166425759031,0.999773458651387,0.00036584280185095614
-0.19225728979799897,-0.19225728979799897,1.0000444909843034,0.00036947321823972245
-0.19138131326035362,-0.19138131326035362,0.999433756118241,0.00036895565864418175
-0.19055540206536534,-0.19055540206536534,1.0001798118280374,0.0003659184519282247
-0.18958891731890617,-0.18958891731890617,1.0000653334769931,0.0003667066451853637
-0.18868716483848402,-0.18868716483848402,1.0000712620063625,0.000365896462988548
-0.18736921842501034,-0.18736921842501034,1.0004308235979995,0.000365360275903032
-0.18621343424820225,-0.18621343424820225,1.0000858432656194,0.0003676530994602699
-0.18415399229852483,-0.18415399229852483,1.000017149288913,0.0003655323776811726
-0.18304915173357586,-0.18304915173357586,1.000355611372038,0.0003681187969108822
-0.18179089536206447,-0.18179089536206447,1.0001524706318068,0.0003672996124179096
-0.17988732101293864,-0.17988732101293864,1.0003522462139427,0.0003676245371385
-0.1783910151491,-0.1783910151491,1.0002986959078846,0.0003653841045691955
-0.1767238479165826,-0.1767238479165826,1.0007383689366827,0.0003655882132182721
-0.1754138587944908,-0.1754138587944908,1.0007540046403256,0.00036787633032158156
-0.17429794928539194,-0.17429794928539194,1.000212914308402,0.00036774620120676415
-0.17321170732975588,-0.17321170732975588,0.9998452251857575,0.00036945621265368686
-0.17253743835972274,-0.17253743835972274,1.0001343280324562,0.0003663469153225503
-0.1715092769030889,-0.1715092769030889,0.9999054295823713,0.00036522329208741125
-0.1707462918391684,-0.1707462918391684,1.000660839909207,0.00036791345613942353
-0.16968923207896297,-0.16968923207896297,1.0006878449921506,0.00036779342607126426
-0.1678291041549528,-0.1678291041549528,0.999775198432493,0.00036639863119561686
