time,time,flux,flux_err
-0.49994802565439994,-0.49994802565439994,1.0000094638488224,6.257628453985547e-05
-0.4997869109574822,-0.4997869109574822,0.9999186655304052,6.352031330301916e-05
-0.4996387885330478,-0.4996387885330478,1.000014960839439,6.25580053307995e-05
-0.4994400775831309,-0.4994400775831309,0.9999978397052063,6.353096950332678e-05
-0.4993034161714604,-0.4993034161714604,1.0000425407087215,5.7166942962998817e-05
-0.49905347339226863,-0.49905347339226863,0.9999823573633995,5.811954380361532e-05
-0.49888974442728795,-0.49888974442728795,0.9999321267673895,5.775673680956485e-05
-0.49870652416720984,-0.49870652416720984,0.999962178111204,5.782324429327119e-05
-0.49851735041302164,-0.49851735041302164,1.0000949891821818,5.678585508322166e-05
-0.4984269355336437,-0.4984269355336437,0.999989961522355,5.7513396987965284e-05
-0.4982815471797949,-0.4982815471797949,1.0000164544234562,5.745715812813312e-05
-0.49813526127545626,-0.49813526127545626,0.9999951159696148,5.718915863114506e-05
-0.4980106868140865,-0.4980106868140865,0.9999009626539774,5.733107678745366e-05
-0.4978674699901603,-0.4978674699901603,0.9999727747471001,5.811806141741193e-05
-0.4977287307730876,-0.4977287307730876,0.9999881628553997,5.685770344967236e-05
-0.4976745623891475,-0.4976745623891475,0.9999642924202844,5.7511399848220796e-05
-0.4976092433586018,-0.4976092433586018,1.0000118574596943,5.747741426166042e-05
-0.49751155074336567,-0.49751155074336567,1.0000982649778303,5.861968458569742e-05
-0.49735152629145885,-0.49735152629145885,0.9999697855685667,5.723859648294607e-05
-0.4971384543721797,-0.4971384543721797,1.0000355253349151,5.7840651556384504e-05
-0.4970521308045136,-0.4970521308045136,1.0000959459363061,5.7348472993886104e-05
-0.49681907361664346,-0.49681907361664346,1.0000770090402726,5.7122702104652716e-05
-0.4966146561288042,-0.4966146561288042,1.000036008218687,5.7463515153164506e-05
-0.4964435711648548,-0.4964435711648548,0.9999852621635806,5.719958082477714e-05
-0.4963141692453064,-0.4963141692453064,1.0000094298410334,5.7243850607282575e-05
-0.49616263357165735,-0.49616263357165735,1.0001389238200864,5.682929808370044e-05
-0.4960820092994254,-0.4960820092994254,1.0000470335712208,5.694873067564229e-05
-0.49596994172898123,-0.49596994172898123,0.9999710815954241,5.751831819050431e-05
-0.49578907391114624,-0.49578907391114624,0.9999256265459836,5.9063699331435683e-05
-0.49568914765259253,-0.49568914765259253,0.9999922739322198,5.74885327171432e-05
-0.4956078635092126,-0.4956078635092126,0.9999032043274806,6.199889247125625e-05
-0.49553187044220975,-0.49553187044220975,0.9999853124304996,5.742830788689548e-05
-0.4954201372747775,-0.4954201372747775,0.9999528951387928,5.695363423841944e-05
-0.4952363140619127,-0.4952363140619127,1.0000183786403847,5.721349547439462e-05
-0.4950852074864088,-0.4950852074864088,1.000054056683577,5.77376703860605e-05
-0.4949530084559228,-0.4949530084559228,0.9999907143930915,5.687542935297844e-05
-0.4948244232771685,-0.4948244232771685,0.9999594139995953,5.759596569110245e-05
-0.49468116853095123,-0.49468116853095123,1.000027556251863,5.784009675243982e-05
-0.49444890547019893,-0.49444890547019893,1.0001287688806413,5.767167739860852e-05
-0.49434062608052043,-0.49434062608052043,0.9999910124595436,5.700305398549279e-05
-0.4941249438561499,-0.4941249438561499,0.9999541616891543,5.781120198577655e-05
-0.4939551472227322,-0.4939551472227322,0.9999872709564738,5.7097830678193934e-05
-0.4937697954272153,-0.4937697954272153,1.0000990392036955,5.770684729451798e-05
-0.4935627396655036,-0.4935627396655036,1.0000197942407418,5.712458117165649e-05
-0.49340711264812853,-0.49340711264812853,1.0001511311965428,5.792212656178442e-05
-0.49324281385343055,-0.49324281385343055,0.9999687486081644,5.7736272564630836e-05
-0.49312499112566,-0.49312499112566,0.9999830796039767,5.706249984116053e-05
-0.49305118997872344,-0.49305118997872344,0.9999981737242951,5.713046971680764e-05
-0.4929877550486708,-0.4929877550486708,1.000053806509817,5.879419097476982e-05
-0.49286725810088683,-0.49286725810088683,1.0000165162393821,5.7784593586248786e-05
-0.49264415954821744,-0.49264415954821744,1.0000688028043483,5.750906798882736e-05
-0.49250426709768363,-0.49250426709768363,0.9999498721493773,5.7543007086292105e-05
-0.49238239295082165,-0.49238239295082165,0.9999138435050041,5.725289040820995e-05
-0.4922331304347608,-0.4922331304347608,1.000016025642792,5.709928377582255e-05
-0.4920200980210211,-0.4920200980210211,1.0000264512979817,5.721429580423031e-05
-0.49192409750830846,-0.49192409750830846,0.9999839107012354,5.7254348767995676e-05
-0.49170419459114784,-0.49170419459114784,1.0000340717900698,5.720159498108552e-05
-0.49156523346609904,-0.49156523346609904,0.9999363975531047,5.715454606306597e-05
-0.4914707404357614,-0.4914707404357614,1.0001198919504812,5.725141176418564e-05
-0.4914126154879341,-0.4914126154879341,0.9999881199883272,5.744154852260182e-05
-0.4913033504562918,-0.4913033504562918,1.0001325380687982,5.818596853354986e-05
-0.4911960037017707,-0.4911960037017707,1.0000038371363558,5.711362028539645e-05
-0.49110481530660766,-0.49110481530660766,1.0001373965295461,5.7320041529886795e-05
-0.49102663436206057,-0.49102663436206057,1.0001189267775317,6.024481530614394e-05
-0.4909198178153019,-0.4909198178153019,1.0001211447378477,5.7174733435538924e-05
-0.49076528394361957,-0.49076528394361957,1.0000059559054169,5.766400911321715e-05
-0.4906126980407862,-0.4906126980407862,1.000026690780614,5.7645333848831875e-05
-0.4904621386202052,-0.4904621386202052,0.9999916803084457,5.693496560256019e-05
-0.49032802335277664,-0.49032802335277664,0.9999537731905148,5.705961422164696e-05
-0.490231740634772,-0.490231740634772,0.9999669644021217,5.743673373122762e-05
-0.4901420417270856,-0.4901420417270856,1.0000053776390305,5.7592960931969894e-05
-0.48991118074045514,-0.48991118074045514,0.9998989714642967,5.719985803814895e-05
-0.4897245710104471,-0.4897245710104471,1.000064687220748,5.7780903240017054e-05
-0.48953320599975997,-0.48953320599975997,1.0000197809889688,5.7239371443880284e-05
-0.48942095433012583,-0.48942095433012583,1.0000433890939948,5.7299717249528875e-05
-0.4892861654079752,-0.4892861654079752,0.9998090535837261,5.730595917802837e-05
-0.48908129224728325,-0.48908129224728325,1.0000096378973438,5.7445738103085585e-05
-0.4889330947189592,-0.4889330947189592,0.9999767743730418,5.7755676200100395e-05
-0.48876324320444836,-0.48876324320444836,1.0000109539322466,5.801416119516793e-05
-0.4886093824141426,-0.4886093824141426,0.9999993220935396,5.7024820839800795e-05
-0.4884940485964762,-0.4884940485964762,0.9998795505319567,6.021672809427349e-05
-0.48837325685599353,-0.48837325685599353,1.000057330660979,5.7658650560395806e-05
-0.4882005506166024,-0.4882005506166024,0.9999759492792066,5.716067681148661e-05
-0.48799136420711875,-0.48799136420711875,1.000035289611537,5.747002324464896e-05
-0.4878481882304186,-0.4878481882304186,1.0000368993629916,5.732798367448662e-05
-0.48774017047544477,-0.48774017047544477,0.9998845755396623,5.7206478040630986e-05
-0.48758081855485214,-0.48758081855485214,0.9999630684870189,5.7742560944197414e-05
-0.4874704831105191,-0.4874704831105191,1.0000007735647076,5.7030317593332256e-05
-0.4873969530191971,-0.4873969530191971,1.0000974476169038,5.748740029924335e-05
-0.4872358467313461,-0.4872358467313461,1.000022964541188,5.7083730330744254e-05
-0.48713519395387267,-0.48713519395387267,1.000070534417691,5.722939084542095e-05
-0.48701536348671653,-0.48701536348671653,0.9999364162954958,5.80368762039946e-05
-0.4869330906571122,-0.4869330906571122,0.9999926781607759,5.8249317930540345e-05
-0.4868879756046226,-0.4868879756046226,0.999984718492135,5.709759701676699e-05
-0.4867956123664044,-0.4867956123664044,0.9999484599432904,5.787635789099837e-05
-0.486667184586986,-0.486667184586986,1.0001096139319388,5.760476756062721e-05
-0.486549289454706,-0.486549289454706,0.9998628273831718,5.72412816675098e-05
-0.48644785923534073,-0.48644785923534073,1.0000346494626817,5.7271503415208114e-05
-0.4863112527760677,-0.4863112527760677,0.9998754949464802,5.928827632454568e-05
-0.4861382700590184,-0.4861382700590184,0.9999669590504618,5.730713279972451e-05
-0.4860112518974347,-0.4860112518974347,0.9999798243868231,5.711010680082053e-05
-0.48592232559167314,-0.48592232559167314,0.999948752121336,5.7561364995421325e-05
-0.4858126497711055,-0.4858126497711055,1.00003395745959,5.776433137227306e-05
-0.4856554278143449,-0.4856554278143449,0.9999020221999343,5.738410738602736e-05
-0.48537615085078867,-0.48537615085078867,0.9999000067614728,5.789520359271098e-05
-0.4852472282043891,-0.4852472282043891,1.0000503758788757,5.737198258540844e-05
-0.4850454824540066,-0.4850454824540066,1.0000178656543581,5.736727138551744e-05
-0.484952213690849,-0.484952213690849,1.0000367383238373,5.794473200033559e-05
-0.4848237692611292,-0.4848237692611292,1.000084748145262,5.8150464590995304e-05
-0.48471818420803175,-0.48471818420803175,1.0000569851763847,5.757653206885725e-05
-0.48448202564322856,-0.48448202564322856,1.0000412137805001,5.721971374662285e-05
-0.48429569060972427,-0.48429569060972427,0.9999605236431796,5.77842408307273e-05
-0.48416763946879654,-0.48416763946879654,0.999982796146881,5.716451711229429e-05
-0.48397507311601656,-0.48397507311601656,0.9999642214231471,5.724544254451572e-05
-0.4838188592431834,-0.4838188592431834,1.0000073254292132,5.733343009890505e-05
-0.4836696390848374,-0.4836696390848374,0.9999850929222387,5.761857394049454e-05
-0.48341643185412975,-0.48341643185412975,1.000073524865623,5.7379070084233034e-05
-0.48329968271427787,-0.48329968271427787,1.0000252523846478,5.7418561313584194e-05
-0.4831982644129312,-0.4831982644129312,1.0000014978125797,5.846991925782365e-05
-0.48305995357222853,-0.48305995357222853,0.9999263772596938,5.772723715165243e-05
-0.48294569856952874,-0.48294569856952874,0.999925658645305,5.725071452157025e-05
-0.48284494344552514,-0.48284494344552514,0.9998978276485294,5.72862294163087e-05
-0.48269049569789785,-0.48269049569789785,1.000042204014634,5.670828643717276e-05
-0.48253310717409476,-0.48253310717409476,1.0000839101820655,5.875997668582563e-05
-0.4824451138352742,-0.4824451138352742,0.9999824810664079,5.770478369731657e-05
-0.48235376458324025,-0.48235376458324025,0.9999903711955712,5.7008493354878286e-05
-0.4822935483942274,-0.4822935483942274,1.000028780789315,5.689522865342393e-05
-0.4821898406080436,-0.4821898406080436,0.9999106716687594,5.7299918432933914e-05
-0.48197218562709165,-0.48197218562709165,0.9999472664940688,5.71236272392456e-05
-0.48188335757586176,-0.48188335757586176,0.999979962892634,5.721382362442778e-05
-0.4817193213704741,-0.4817193213704741,1.0001544850961193,5.765720883724942e-05
-0.4815935450111283,-0.4815935450111283,1.000018475507431,5.698471343907317e-05
-0.48146434255468196,-0.48146434255468196,1.0000174207929826,5.696040271492774e-05
-0.4813881126756314,-0.4813881126756314,1.0000401330037654,5.746966557794497e-05
-0.48127808737044686,-0.48127808737044686,1.00007962759671,5.7350095566263126e-05
-0.48111822162463797,-0.48111822162463797,0.9999367338192681,5.768067349725692e-05
-0.48095980671350846,-0.48095980671350846,1.0001043356090211,5.796662400558959e-05
-0.4807002574962098,-0.4807002574962098,1.0000798316592003,5.7186819608313365e-05
-0.48063265315722675,-0.48063265315722675,1.0000020704406425,5.745413571558266e-05
-0.4804910149628995,-0.4804910149628995,0.9999591404264248,5.797700159358224e-05
-0.48036246667907107,-0.48036246667907107,1.0000131856416856,5.714622030755063e-05
-0.4802067806624109,-0.4802067806624109,0.9999127749699065,5.776759714900948e-05
-0.4799174443760421,-0.4799174443760421,0.9999612901989803,5.7778308015263965e-05
-0.4797940259217285,-0.4797940259217285,1.0001630139341622,5.682745712771027e-05
-0.4796579283836763,-0.4796579283836763,1.0001244928902637,5.728912153891311e-05
-0.47938543022610247,-0.47938543022610247,1.0000975945136494,5.7675020830654726e-05
-0.4793273654067889,-0.4793273654067889,1.0000028402598973,5.6948172349240623e-05
-0.4791877411131281,-0.4791877411131281,1.0000650980091002,5.757102281808913e-05
-0.47907419893017505,-0.47907419893017505,0.9999927351572993,5.714260921484841e-05
-0.4788950459420448,-0.4788950459420448,1.0000063913557145,5.757506162632959e-05
-0.47879172553657556,-0.47879172553657556,1.0000589609621389,5.779970173546286e-05
-0.4787130767741473,-0.4787130767741473,0.999948297849026,5.748193876559298e-05
-0.47859550747671165,-0.47859550747671165,0.9998933014190943,5.840327047433231e-05
-0.4784185228665592,-0.4784185228665592,1.0000393255634088,5.6787967712977693e-05
-0.47830601638706866,-0.47830601638706866,1.00002014319543,5.722803343207661e-05
-0.47820866043039134,-0.47820866043039134,1.0000239917823286,5.687760843096746e-05
-0.4780512554978486,-0.4780512554978486,1.000009737754109,5.762347631701496e-05
-0.4779391850606771,-0.4779391850606771,1.0000145849147144,5.7946832748939335e-05
-0.4778129261423601,-0.4778129261423601,1.0000779250391987,5.751896532721781e-05
-0.4777735940180719,-0.4777735940180719,1.0000122582456024,5.693184949452678e-05
-0.47762029073492157,-0.47762029073492157,1.0000368501881147,5.685979804692491e-05
-0.4774272284761537,-0.4774272284761537,0.9999428731229854,5.769240691129332e-05
-0.4773647926893318,-0.4773647926893318,0.9999434608697335,5.7807149815163636e-05
-0.47720143586630004,-0.47720143586630004,0.9999837209118955,5.69574687609058e-05
-0.47706474401056764,-0.47706474401056764,1.00003348979187,5.74540761474409e-05
-0.4769567086361349,-0.4769567086361349,0.9999877619390762,5.73118604319236e-05
-0.47684338202525395,-0.47684338202525395,0.9999115229855253,5.7492180918518656e-05
-0.47667612112418284,-0.47667612112418284,1.000047478185468,5.7305491097014245e-05
-0.4765350735135144,-0.4765350735135144,1.0000181892285938,5.7649232316575756e-05
-0.4763612518203445,-0.4763612518203445,1.0000266387483552,5.736395552889724e-05
-0.4761815451522125,-0.4761815451522125,0.9999768367909698,5.742219790971139e-05
-0.4761101446318207,-0.4761101446318207,1.000002283035453,5.73142606134087e-05
-0.4760044151858892,-0.4760044151858892,1.0000561659895166,5.7321327077935905e-05
-0.47581496061757206,-0.47581496061757206,1.000063338514933,5.756160640263325e-05
-0.47562128927675074,-0.47562128927675074,1.0000687051635526,5.7047933916902395e-05
-0.47538863429799677,-0.47538863429799677,0.9999580900929063,5.807143798530812e-05
-0.47527625527291095,-0.47527625527291095,0.9999613760347632,5.664427383380234e-05
-0.475145617837552,-0.475145617837552,1.0000057995042066,5.7121491440921646e-05
-0.47495998346421403,-0.47495998346421403,0.9998564263001872,5.783731665953973e-05
-0.47483164808654693,-0.47483164808654693,1.0000586631536854,5.7008829795871996e-05
-0.474752580630593,-0.474752580630593,0.9999077547318723,5.757497250209708e-05
-0.4746281716419617,-0.4746281716419617,1.000011685121483,5.6909834495237364e-05
-0.4745058206492104,-0.4745058206492104,1.0000797393504783,5.779781133596639e-05
-0.47438783900870474,-0.47438783900870474,1.0000905700750673,5.752763174938369e-05
-0.4741665128909517,-0.4741665128909517,0.9999590739126297,5.7682385439693055e-05
-0.47401587809436024,-0.47401587809436024,1.000044351574812,5.71011228985949e-05
-0.4738492712494917,-0.4738492712494917,1.000079222880806,5.712625436336655e-05
-0.47376520349062046,-0.47376520349062046,1.000026386799207,5.672882445637783e-05
-0.4736649922298966,-0.4736649922298966,0.9999873552390914,5.7042114100930913e-05
-0.4734861535951495,-0.4734861535951495,1.000052882991544,5.847026710356024e-05
-0.47336299863818565,-0.47336299863818565,1.0001168066911543,5.753310317528595e-05
-0.4732836612209212,-0.4732836612209212,1.0000533977816564,5.763936617761927e-05
-0.4731390185042983,-0.4731390185042983,0.9999567684365998,5.7026416782535824e-05
-0.4728896867891308,-0.4728896867891308,1.0000440200915084,5.701869242627192e-05
-0.47277303820010275,-0.47277303820010275,1.0000158456599988,5.753241121372981e-05
-0.47264053934195543,-0.47264053934195543,1.000043864757439,5.694995791500412e-05
-0.4725128510443028,-0.4725128510443028,0.9999804801794182,5.7814358630762185e-05
-0.4723747074109269,-0.4723747074109269,0.9999202095010679,5.7571380447905636e-05
-0.47215928211226127,-0.47215928211226127,1.0000124139236612,5.7201177757355036e-05
-0.47202523189189377,-0.47202523189189377,1.00002325305129,5.7732994766584e-05
-0.4718734923953889,-0.4718734923953889,0.9998553338037016,5.722926074200908e-05
-0.4716804470925126,-0.4716804470925126,1.0000475145693097,5.727288054512628e-05
-0.47159129539795686,-0.47159129539795686,1.0000630009056306,5.7640907498497936e-05
-0.47154394097160546,-0.47154394097160546,0.9997952038140843,5.7299426036175015e-05
-0.47134402610536197,-0.47134402610536197,0.9998970545811533,5.803631824216137e-05
-0.4710797173436731,-0.4710797173436731,0.9999334812511748,5.7450028199659676e-05
-0.47087094713933764,-0.47087094713933764,0.9999972529617341,5.709433759816229e-05
-0.47073031847248786,-0.47073031847248786,1.0000419819065423,5.7379839496151394e-05
-0.4706093153101392,-0.4706093153101392,0.9999911965763598,5.7221773374704744e-05
-0.4704077421716647,-0.4704077421716647,0.9999257858081098,5.795071158393052e-05
-0.47023857081949244,-0.47023857081949244,0.999948381214538,5.6637461641407115e-05
-0.4701413447590312,-0.4701413447590312,0.999910346126371,5.714745132365786e-05
-0.4700081626040628,-0.4700081626040628,0.9999715834701638,5.747317213049999e-05
-0.4698960225738119,-0.4698960225738119,1.000115554900082,5.735500087202352e-05
-0.46973690620798153,-0.46973690620798153,1.00001400689002,5.7375162810059656e-05
-0.4695648699533194,-0.4695648699533194,0.9999963818810164,5.747048708827859e-05
-0.46936815404333176,-0.46936815404333176,1.000003942120069,5.72882218578688e-05
-0.4692828771745553,-0.4692828771745553,0.9999574172576027,5.7129730393662674e-05
-0.46919494117319116,-0.46919494117319116,1.0000141437896208,5.732606862467048e-05
-0.469060130850994,-0.469060130850994,1.000099461941913,5.741863385052198e-05
-0.4689220305910567,-0.4689220305910567,1.000088953483682,5.7900106557279694e-05
-0.4688146248750854,-0.4688146248750854,0.9999992383058256,5.896918012171815e-05
-0.46866175832401497,-0.46866175832401497,0.9998626571935707,5.711777027142232e-05
-0.46850898484117354,-0.46850898484117354,1.0000431546130026,5.696792906209868e-05
-0.4683469270181376,-0.4683469270181376,0.9999244073962945,5.735858606231869e-05
-0.46820962253550535,-0.46820962253550535,1.0000043538801253,5.701141645805226e-05
-0.46812240392901006,-0.46812240392901006,1.0000603411073736,5.774840880530566e-05
-0.46801067803462504,-0.46801067803462504,1.000077022362219,5.779880652290915e-05
-0.46787564433761875,-0.46787564433761875,1.0000132133574045,5.697596250084521e-05
-0.4676962781639304,-0.4676962781639304,1.000077566162434,5.7652780898569694e-05
-0.4674974372086581,-0.4674974372086581,1.0000245099519136,5.758936779306324e-05
-0.4673580781498458,-0.4673580781498458,0.999903305344936,5.745680066210469e-05
-0.4672394014924066,-0.4672394014924066,0.9999430662843171,5.699905267091087e-05
-0.4670995180407772,-0.4670995180407772,0.9999075559347755,5.767129325479686e-05
-0.46704382481984796,-0.46704382481984796,1.000134315601552,5.6891401009896765e-05
-0.46694724665139803,-0.46694724665139803,1.0001139337159213,5.723760083240472e-05
-0.4666749697877094,-0.4666749697877094,1.0000607001822512,5.7516661417419684e-05
-0.46644082381681073,-0.46644082381681073,0.9999522838592243,5.729498557684344e-05
-0.4663109294458991,-0.4663109294458991,0.9999908497706492,5.739829963258232e-05
-0.46622464001993646,-0.46622464001993646,0.9999704675791931,5.7286154687729334e-05
-0.466055365462671,-0.466055365462671,1.0000406451800514,5.7388959995693704e-05
-0.4658601799572352,-0.4658601799572352,0.9999721341823493,5.769576963776892e-05
-0.4657372668501921,-0.4657372668501921,0.9999183052421318,5.713396347602769e-05
-0.4655583546322305,-0.4655583546322305,0.9999103658404213,5.6977816988911324e-05
