time,time,flux,flux_err
-0.4993205707978632,-0.4993205707978632,1.0000890922972936,0.00010016406264248273
-0.49828222040378023,-0.49828222040378023,0.9999355658853636,0.00010039092603799289
-0.49757422014226904,-0.49757422014226904,0.999994630109014,0.00010100275591424966
-0.4968582067619233,-0.4968582067619233,1.0000760616191984,0.0001003272740214652
-0.4963782179926056,-0.4963782179926056,0.9998578000434003,9.17563104927186e-05
-0.4955754342445289,-0.4955754342445289,1.0000635095857973,9.162986101457341e-05
-0.4948576276146923,-0.4948576276146923,1.000044768081025,9.145923501932402e-05
-0.49432407692074776,-0.49432407692074776,1.000143254190687,9.189381724461357e-05
-0.49336882181523833,-0.49336882181523833,1.0000883252961528,9.215998028053197e-05
-0.49288379019562856,-0.49288379019562856,1.0000189368130692,9.152972966085066e-05
-0.4919903381465701,-0.4919903381465701,0.9999514985777646,9.157217725948511e-05
-0.4912916477333056,-0.4912916477333056,0.9999537069302094,9.143581934973854e-05
-0.490571785060456,-0.490571785060456,1.000045106960642,9.170532309691564e-05
-0.48956626832077743,-0.48956626832077743,0.9998078234701262,9.213262452841807e-05
-0.48929150107869646,-0.48929150107869646,1.0000719584869633,9.137494922197843e-05
-0.4884517856029561,-0.4884517856029561,0.999830267350575,9.155122270585483e-05
-0.48780676571041115,-0.48780676571041115,1.0000057528462587,9.168409387610517e-05
-0.4871219954671687,-0.4871219954671687,1.000079819166202,9.160142675692038e-05
-0.48592589334002695,-0.48592589334002695,1.0001549478186496,9.198806537153746e-05
-0.4853704649649444,-0.4853704649649444,0.9999098901655665,9.154937686369269e-05
-0.4845348111324711,-0.4845348111324711,0.9998913107158162,9.181391750143463e-05
-0.4839036976802163,-0.4839036976802163,0.9999708690913233,9.163492256445725e-05
-0.48343315331585474,-0.48343315331585474,0.9998425454017046,9.183896742603938e-05
-0.4823962562251836,-0.4823962562251836,1.0000077991734713,9.213707027958492e-05
-0.48202611178712684,-0.48202611178712684,1.0000182387186594,9.182080651980529e-05
-0.48160715410631383,-0.48160715410631383,0.9999293917710078,9.182098547302333e-05
-0.48098497422615766,-0.48098497422615766,1.0000267778464185,9.141859284099408e-05
-0.48012211684690553,-0.48012211684690553,0.9999104665050673,9.166271931847558e-05
-0.47925917168031446,-0.47925917168031446,0.9999201840183156,9.204455258103948e-05
-0.4783938782289624,-0.4783938782289624,1.0000567128363758,9.218103661294493e-05
-0.4777825145851239,-0.4777825145851239,1.0000047425131693,9.164438075854277e-05
-0.4772895885165781,-0.4772895885165781,1.000026365231252,9.150079321688114e-05
-0.47676869135466404,-0.47676869135466404,0.9999694187884772,9.145852588111226e-05
-0.4760821770425537,-0.4760821770425537,1.0000108813120847,9.149800842824761e-05
-0.4747808969259495,-0.4747808969259495,1.0000474495775364,9.196578128748784e-05
-0.47422957374947144,-0.47422957374947144,0.9999999648894299,9.216476602791252e-05
-0.47384615270566427,-0.47384615270566427,1.0000200833319703,9.155837995966873e-05
-0.4731276392223663,-0.4731276392223663,1.0000239888254074,9.145886544157141e-05
-0.472368312747858,-0.472368312747858,1.000074571509478,9.134652465067089e-05
-0.471280761557864,-0.471280761557864,1.0000080209860571,9.157169375239721e-05
-0.47081468071846755,-0.47081468071846755,0.9999727570653786,9.171460482248776e-05
-0.4704017116877367,-0.4704017116877367,0.9999708605325527,9.20068000571082e-05
-0.46995807737112044,-0.46995807737112044,0.9999494257600933,9.190454492696688e-05
-0.46923813387256813,-0.46923813387256813,0.9999870063116785,9.156772656111567e-05
-0.46857277348462956,-0.46857277348462956,1.0000335653914278,9.18604323779313e-05
-0.46800203683960717,-0.46800203683960717,0.9998620520587895,9.150901721810408e-05
-0.46760170053166805,-0.46760170053166805,1.0001003295579018,9.17579790577116e-05
-0.4671283048402984,-0.4671283048402984,0.9999733096134615,9.155002688823634e-05
-0.4666680084221298,-0.4666680084221298,1.0000639148514374,9.18709367904233e-05
-0.4660842233352014,-0.4660842233352014,1.0000860892827859,9.151210968465027e-05
-0.46553962566540574,-0.46553962566540574,1.0000181754333535,9.19127048516741e-05
-0.4648333506396739,-0.4648333506396739,0.9998184323057984,9.169256190988147e-05
-0.46407234817161225,-0.46407234817161225,1.0001226653088993,9.164419326149626e-05
-0.4636654430825729,-0.4636654430825729,1.0000457161210812,9.146907876194739e-05
-0.4631577851745533,-0.4631577851745533,0.9998099480046969,9.198976498805828e-05
-0.46253939194139093,-0.46253939194139093,1.0000127716256721,9.202951139392311e-05
-0.4617164873212459,-0.4617164873212459,0.9999934132613062,9.172807580308152e-05
-0.4607745113389683,-0.4607745113389683,0.9999354175357311,9.128935716857183e-05
-0.4602351303357864,-0.4602351303357864,1.0000811477547409,9.163301360292015e-05
-0.459715842443984,-0.459715842443984,1.0000098225132072,9.178428729058328e-05
-0.45900549276702807,-0.45900549276702807,1.0000464734517516,9.211856832004822e-05
-0.45828258199908306,-0.45828258199908306,0.9999041765948975,9.196673417855311e-05
-0.4574651936389273,-0.4574651936389273,0.9998694593034199,9.144572883216048e-05
-0.4569952911304426,-0.4569952911304426,1.0001497510443351,9.176034911441522e-05
-0.45646829492616237,-0.45646829492616237,1.0001346205160302,9.157038328044118e-05
-0.4558074396903976,-0.4558074396903976,1.000093352627239,9.171666103104556e-05
-0.4550713040647679,-0.4550713040647679,0.9999875191089551,9.190275439146678e-05
-0.45456419152469607,-0.45456419152469607,0.9999936755247483,9.203482116544304e-05
-0.4538125221777591,-0.4538125221777591,1.0001670341468238,9.146534127626065e-05
-0.4532926569736446,-0.4532926569736446,1.0002262068135575,9.165497013293755e-05
-0.45250586898764594,-0.45250586898764594,1.0000225211974652,9.149257736234586e-05
-0.45186721248028333,-0.45186721248028333,1.0000951645113367,9.185889853499692e-05
-0.45120338414562866,-0.45120338414562866,1.0000145366310593,9.179700463144891e-05
-0.4506578037806321,-0.4506578037806321,1.0001014397251928,9.182018830077921e-05
-0.44996818392537535,-0.44996818392537535,1.0000492577898243,9.172087423533508e-05
-0.4494945199316135,-0.4494945199316135,0.9999987329580536,9.150749766208642e-05
-0.44838637270586335,-0.44838637270586335,0.9999554679601346,9.178430718195424e-05
-0.4476381709348061,-0.4476381709348061,1.0000864134613732,9.19230182377573e-05
-0.44716736720583866,-0.44716736720583866,0.9999474615028975,9.161777779261384e-05
-0.4464475366694387,-0.4464475366694387,1.0000069288364697,9.210929818076024e-05
-0.44564576477132506,-0.44564576477132506,0.9998998267860646,9.153120314869539e-05
-0.44518558137206127,-0.44518558137206127,1.0000175781101035,9.184887586867027e-05
-0.44459838852781103,-0.44459838852781103,1.0000223099998091,9.213774568889276e-05
-0.4439619488199241,-0.4439619488199241,1.0001176101843123,9.172685425242879e-05
-0.44347002458089263,-0.44347002458089263,1.0000801978405616,9.147704274532405e-05
-0.44192573748296127,-0.44192573748296127,1.000130045398982,9.145017433411886e-05
-0.4413829993500258,-0.4413829993500258,1.0000128547565885,9.157718519802806e-05
-0.440980452860822,-0.440980452860822,0.999861130542695,9.228662491762802e-05
-0.4405387834951398,-0.4405387834951398,0.9999762422040561,9.165578614113793e-05
-0.44001176956662674,-0.44001176956662674,0.9999504400576562,9.178889703964396e-05
-0.4393908113590442,-0.4393908113590442,1.0001114763657553,9.171727994812144e-05
-0.43828213033411884,-0.43828213033411884,1.0000945351435475,9.181049091820023e-05
-0.4377695552786463,-0.4377695552786463,1.000018809781324,9.17052355008896e-05
-0.43683794289390787,-0.43683794289390787,0.999912246229894,9.231058671222792e-05
-0.43632333918940275,-0.43632333918940275,0.999991561663985,9.139737622634311e-05
-0.43556499006517696,-0.43556499006517696,0.9999641836317009,9.158328137252258e-05
-0.4348647731167148,-0.4348647731167148,0.999891499978005,9.163537778587364e-05
-0.4343658424448222,-0.4343658424448222,1.0000237938305092,9.180150195955642e-05
-0.43399491826130543,-0.43399491826130543,1.0000932670192673,9.191738067113498e-05
-0.4334466631815303,-0.4334466631815303,1.0000619645009847,9.210273345789333e-05
-0.43280830935400444,-0.43280830935400444,0.9999334660827903,9.198281684060278e-05
-0.4324089687404921,-0.4324089687404921,0.9999983958937657,9.15344381000642e-05
-0.4315915920728003,-0.4315915920728003,1.0001653171492388,9.180939045197942e-05
-0.4309407073567854,-0.4309407073567854,1.0001669252903103,9.173101474807095e-05
-0.4304870988096809,-0.4304870988096809,0.999948391819113,9.169685993838474e-05
-0.42932907758513467,-0.42932907758513467,1.0001052557499621,9.201091516208862e-05
-0.428955076240527,-0.428955076240527,1.000159046876916,9.188459799391683e-05
-0.42828556037857196,-0.42828556037857196,1.00028620893824,9.152910872592076e-05
-0.4273855445891968,-0.4273855445891968,0.9999545926583833,9.171734063596279e-05
-0.4269047794645303,-0.4269047794645303,0.9999594268553716,9.170196399315571e-05
-0.4257255831602379,-0.4257255831602379,0.9999367294252354,9.197312339212671e-05
-0.4250893911521416,-0.4250893911521416,0.9999569755609109,9.162769189875415e-05
-0.4245131374380435,-0.4245131374380435,0.9999623596898732,9.157116849568815e-05
-0.4236422350353678,-0.4236422350353678,1.0000976485340682,9.174812113997644e-05
-0.4231115535731078,-0.4231115535731078,0.9999220351761128,9.152988514388475e-05
-0.42206607916450595,-0.42206607916450595,0.9999427603117347,9.178646901824593e-05
-0.42146795594890135,-0.42146795594890135,0.9999393538315442,9.155402287706751e-05
-0.42096638179355067,-0.42096638179355067,1.0000643587999112,9.136280942972963e-05
-0.4202229988441104,-0.4202229988441104,1.0000295350310626,9.16153414456939e-05
-0.4195600069797365,-0.4195600069797365,0.9999954518254359,9.142935762484535e-05
-0.4181732840632321,-0.4181732840632321,0.999949472701912,9.173818618551572e-05
-0.41773244222567885,-0.41773244222567885,0.9999566390719632,9.2099940777034e-05
-0.4173528419763898,-0.4173528419763898,0.99999090338932,9.159313402673516e-05
-0.416736380988732,-0.416736380988732,1.0000276972176723,9.156812659572582e-05
-0.4160928973375121,-0.4160928973375121,1.0000911337036404,9.123219028646222e-05
-0.41496439105976607,-0.41496439105976607,1.0001489577708982,9.184762062616749e-05
-0.4142108682630351,-0.4142108682630351,0.9999459509244705,9.216433184984992e-05
-0.41372490532085066,-0.41372490532085066,0.9999331579240932,9.220963339967811e-05
-0.4131170874839881,-0.4131170874839881,0.9999509645277713,9.150127689973604e-05
-0.41219980773166753,-0.41219980773166753,1.0000413586056784,9.174145596210106e-05
-0.4110455236994312,-0.4110455236994312,0.9998839218753472,9.154575099628059e-05
-0.41040479880321074,-0.41040479880321074,0.9999745374501758,9.206928422497865e-05
-0.40994121243275006,-0.40994121243275006,1.0000393925419726,9.176598505413436e-05
-0.40923745076870544,-0.40923745076870544,1.000144410236833,9.123752026795905e-05
-0.40812437460554063,-0.40812437460554063,1.0000337449687393,9.17717751551368e-05
-0.40715213414950996,-0.40715213414950996,1.0001033526699874,9.168085385550375e-05
-0.4066049356231815,-0.4066049356231815,0.999891729966637,9.184965801320768e-05
-0.4056618449045345,-0.4056618449045345,1.0000562193278362,9.167572900594196e-05
-0.40460871014074656,-0.40460871014074656,0.9999739922449666,9.170000209879882e-05
-0.403808634437155,-0.403808634437155,1.0000901613010866,9.134816541826607e-05
-0.4033370345685398,-0.4033370345685398,0.9999273983479016,9.145459160630406e-05
-0.4028298086937866,-0.4028298086937866,1.0002914775727412,9.229898174013078e-05
-0.40220342031680045,-0.40220342031680045,1.0000345451040908,9.182240461395114e-05
-0.4016296547677484,-0.4016296547677484,1.0000641748032888,9.18472663429373e-05
-0.4007996087137144,-0.4007996087137144,0.9999525589528547,9.13339799627069e-05
-0.4001561486249557,-0.4001561486249557,1.0002212205971714,9.154883557076008e-05
-0.39970810486120173,-0.39970810486120173,1.0000458914728054,9.144148130726827e-05
-0.39888011346629354,-0.39888011346629354,1.0000915234569001,9.208734723572368e-05
-0.3981576632402721,-0.3981576632402721,1.0000890999799883,9.205441306367677e-05
-0.3971626395796193,-0.3971626395796193,1.0000250751255293,9.145389959417599e-05
-0.39683790856070117,-0.39683790856070117,1.0000966442912314,9.165681968483976e-05
-0.39624424116918816,-0.39624424116918816,1.000035112182102,9.174344325970363e-05
-0.39574759659008124,-0.39574759659008124,0.9998484182330685,9.16482246274921e-05
-0.39511472114245405,-0.39511472114245405,1.0001147623099929,9.184542359187738e-05
-0.3944340013549663,-0.3944340013549663,1.0001419222583228,9.172006528262065e-05
-0.3938808431892539,-0.3938808431892539,1.0001271247713848,9.216961705690072e-05
-0.39354701474076137,-0.39354701474076137,0.999889694566592,9.191784969181353e-05
-0.3929072398430435,-0.3929072398430435,1.0000582906728164,9.149883562586417e-05
-0.39179135719605257,-0.39179135719605257,1.0000921444988353,9.166530423066404e-05
-0.3909340616432019,-0.3909340616432019,1.0000015955048607,9.154001344298423e-05
-0.39017503559443867,-0.39017503559443867,1.0001118012669665,9.173908565444913e-05
-0.38945827994175486,-0.38945827994175486,0.9999847567067285,9.190292707771518e-05
-0.38910846111684805,-0.38910846111684805,1.0000912045295338,9.173092681466656e-05
-0.3884698862326331,-0.3884698862326331,1.0000033038851281,9.131727407330457e-05
-0.38760256228561046,-0.38760256228561046,0.999956178896259,9.153355437973684e-05
-0.38709649414377056,-0.38709649414377056,1.0000568240022119,9.20993000422728e-05
-0.38650945683766624,-0.38650945683766624,1.0000275094499682,9.173855088087605e-05
-0.38551434845430776,-0.38551434845430776,1.0000510110150533,9.162507913257483e-05
-0.38500292868993713,-0.38500292868993713,1.000076638908438,9.165031745425123e-05
-0.3843850221179309,-0.3843850221179309,0.9999991625241342,9.201536129044196e-05
-0.3838429229595931,-0.3838429229595931,1.000154918665474,9.182703381638711e-05
-0.38314888415188764,-0.38314888415188764,1.0001418366778314,9.149082958762736e-05
-0.3817707657275605,-0.3817707657275605,1.000098554779464,9.156357391179855e-05
-0.3812278673896799,-0.3812278673896799,0.9999751685992434,9.193504769476104e-05
-0.380660905977129,-0.380660905977129,1.000169977933926,9.196017264196079e-05
-0.3802418319508433,-0.3802418319508433,1.000063355319224,9.161192474823392e-05
-0.37970776636502707,-0.37970776636502707,1.0001264372633425,9.188548057791812e-05
-0.3792578478474752,-0.3792578478474752,1.000014427039285,9.179896928884873e-05
-0.37811404494714224,-0.37811404494714224,1.0000753220932854,9.146891806517747e-05
-0.3775924494722858,-0.3775924494722858,0.9999931520906419,9.170351305893961e-05
-0.3770482159263338,-0.3770482159263338,1.0000344902050613,9.19654124394644e-05
-0.3762053146521794,-0.3762053146521794,0.9999448052867889,9.199597301686978e-05
-0.3755377629015129,-0.3755377629015129,1.0000062299377857,9.184239678839415e-05
-0.3746780188885168,-0.3746780188885168,1.0001901252219048,9.114468393841356e-05
-0.37390920875041045,-0.37390920875041045,0.9999317104251517,9.178806862465535e-05
-0.37293604203587166,-0.37293604203587166,1.00012570705801,9.180925438080327e-05
-0.37236013632063986,-0.37236013632063986,1.0001665180842603,9.157790436098879e-05
-0.3715469013244729,-0.3715469013244729,1.0000342542897827,9.135792518087111e-05
-0.3710147301215329,-0.3710147301215329,0.9999816068934864,9.219141965733553e-05
-0.37064650740358046,-0.37064650740358046,1.0001813032843359,9.171528751362551e-05
-0.37008555659704145,-0.37008555659704145,1.000123511048754,9.15996828218851e-05
-0.3691818036677432,-0.3691818036677432,1.0000124511512885,9.23872300575244e-05
-0.36865743096714143,-0.36865743096714143,0.9999681946626359,9.143706659308872e-05
-0.3680924247644725,-0.3680924247644725,0.999971442556645,9.15535956529501e-05
-0.36708913851180114,-0.36708913851180114,1.00006853035765,9.188313897727313e-05
-0.3666834398492938,-0.3666834398492938,0.99997446503176,9.167888310399865e-05
-0.36614058832492447,-0.36614058832492447,0.9999174473043727,9.136488565027637e-05
-0.36536838940373856,-0.36536838940373856,1.0000289614866058,9.20336603672307e-05
-0.3649277487100335,-0.3649277487100335,1.0000340439746687,9.180001233009714e-05
-0.3644450283391052,-0.3644450283391052,0.9999727551425039,9.17207246741885e-05
-0.36371736732398857,-0.36371736732398857,1.0000284603885443,9.14692510184104e-05
-0.3628837605196168,-0.3628837605196168,1.00009704528726,9.192598255352042e-05
-0.36183471667027334,-0.36183471667027334,0.9999504195078567,9.196036390209544e-05
-0.36113398703455457,-0.36113398703455457,0.9999100148622688,9.186533573467941e-05
-0.3606989810912637,-0.3606989810912637,1.0001108970443098,9.155276698208276e-05
-0.3603561276162509,-0.3603561276162509,0.9999621398155751,9.145433159098074e-05
-0.3597508210019441,-0.3597508210019441,0.9998762950730141,9.180511463831287e-05
-0.35905441265786064,-0.35905441265786064,1.0000237757908332,9.166805343998772e-05
-0.35777760460914576,-0.35777760460914576,1.0000261430056072,9.195761017604362e-05
-0.35720461161108685,-0.35720461161108685,1.0000286675709784,9.223976366698845e-05
-0.3567002616429818,-0.3567002616429818,0.9999577922209317,9.148616344887567e-05
-0.35607831134402657,-0.35607831134402657,0.9999957007018245,9.143694395859858e-05
-0.35548239123309033,-0.35548239123309033,1.0001106418339087,9.161506823568077e-05
-0.3544824693875853,-0.3544824693875853,1.0000423250915085,9.163701908999922e-05
-0.3538074356983998,-0.3538074356983998,0.9999532394417221,9.202522444530334e-05
-0.35339384146936936,-0.35339384146936936,1.0000713499544607,9.202807663280318e-05
-0.3528298406061367,-0.3528298406061367,1.0001594488225585,9.166332115757599e-05
-0.35210946573351976,-0.35210946573351976,0.9999936350152797,9.15547711558036e-05
-0.351533132098848,-0.351533132098848,0.9999632255207012,9.156349070846254e-05
-0.3509108479353017,-0.3509108479353017,1.0000187306570372,9.173873427283402e-05
-0.3504646902772947,-0.3504646902772947,1.0000039305801798,9.200694110543054e-05
-0.349902724767162,-0.349902724767162,1.0000933695088552,9.185582611792246e-05
-0.34940992844494756,-0.34940992844494756,0.999917160950423,9.185576703876006e-05
-0.3489106736626127,-0.3489106736626127,0.999944538640919,9.147890150131015e-05
-0.3481557239458198,-0.3481557239458198,0.9999549507038681,9.190092696093673e-05
-0.3473743555237888,-0.3473743555237888,0.9999025090187909,9.182010154734424e-05
-0.34686456368508517,-0.34686456368508517,0.9999897054188528,9.153034044533817e-05
-0.34633457802119666,-0.34633457802119666,1.000028767914014,9.179634181868394e-05
-0.3458527195834904,-0.3458527195834904,0.9999912604884595,9.210829077277917e-05
-0.3453046211609035,-0.3453046211609035,1.0000085914388834,9.154669910356479e-05
-0.344375437850249,-0.344375437850249,1.0000612871944174,9.181242321858455e-05
-0.34361740640888455,-0.34361740640888455,1.000199279946206,9.130039910506174e-05
-0.3431756584788673,-0.3431756584788673,1.0000410948041065,9.182290594523592e-05
-0.3426678709947737,-0.3426678709947737,0.9999802387359142,9.157948579205895e-05
-0.34200213418807834,-0.34200213418807834,1.000066886409411,9.212237041870055e-05
-0.34119723174226235,-0.34119723174226235,1.0000237849779041,9.168971660773888e-05
-0.3403943158758921,-0.3403943158758921,1.000094587524724,9.164409648699264e-05
-0.33973332589521305,-0.33973332589521305,0.9999995411322707,9.110999205516001e-05
-0.33914175220998005,-0.33914175220998005,1.0000543691204873,9.167276644099112e-05
-0.3384099126677029,-0.3384099126677029,1.000116102161365,9.210132111426111e-05
-0.33744277033401887,-0.33744277033401887,0.9998531912465831,9.188905514717314e-05
-0.33653915723989486,-0.33653915723989486,1.000041363528991,9.187102414313727e-05
-0.3358920104888966,-0.3358920104888966,0.9999532463213481,9.129656468459885e-05
-0.3347302445254172,-0.3347302445254172,0.9999486687324456,9.159083701394502e-05
-0.33409509069169874,-0.33409509069169874,1.0000348874721903,9.193762298074681e-05
