time,time,flux,flux_err
-0.49983331817141635,-0.49983331817141635,0.9998164323360944,0.00021124230456783557
-0.4995473013780914,-0.4995473013780914,1.0001148125403347,0.00020743511326008166
-0.49907456763745967,-0.49907456763745967,1.0000236720780984,0.0002128853162910006
-0.4989106901521154,-0.4989106901521154,1.0002558289940002,0.00018898647812888353
-0.49880103193136166,-0.49880103193136166,0.9999152664079501,0.00018719269407812563
-0.4986361345843761,-0.4986361345843761,1.0000322139834779,0.0001899969872314894
-0.4984472164986073,-0.4984472164986073,1.0000647811022545,0.00018651533363465495
-0.49822579521642185,-0.49822579521642185,0.9999509961951268,0.0001886395288936919
-0.4979702052187349,-0.4979702052187349,0.9998213012240207,0.00018971434100476276
-0.49774900036354663,-0.49774900036354663,0.9998685911778624,0.00019379862788772807
-0.49760846343197046,-0.49760846343197046,0.9996553933946352,0.0001905576598961002
-0.49743354559032016,-0.49743354559032016,0.9997649922616884,0.0001924375390591833
-0.4971076811903913,-0.4971076811903913,1.0002011250124168,0.00018682726785796617
-0.49678262553425157,-0.49678262553425157,1.0003483217033495,0.00019149916446617387
-0.4965116975450655,-0.4965116975450655,0.9999741925080288,0.00018917369919602858
-0.49606696418486534,-0.49606696418486534,1.0002424465168018,0.00018801269994437334
-0.4957001245311403,-0.4957001245311403,0.999990209994045,0.00018842401920834766
-0.49558200829415,-0.49558200829415,0.9998952388469877,0.00019126232388281023
-0.4950537092256127,-0.4950537092256127,1.0000805751813426,0.000187493020622004
-0.49487082360792556,-0.49487082360792556,0.9999226732839531,0.00018831777662185623
-0.4947372423579509,-0.4947372423579509,1.0000751398223566,0.00019278648121314398
-0.4944874214568699,-0.4944874214568699,0.9999427951474503,0.00019307530597728278
-0.49425241652788826,-0.49425241652788826,0.9998857424659932,0.00018533848060249864
-0.4940865815457073,-0.4940865815457073,0.9997391505650078,0.00018765547320566623
-0.4937781237946183,-0.4937781237946183,0.9999476119241377,0.0001902284958493474
-0.49353861070630956,-0.49353861070630956,1.0003401901374254,0.00019797116467726842
-0.4933508643320238,-0.4933508643320238,0.9999013270838921,0.0001936776946028541
-0.4931361027127423,-0.4931361027127423,1.0000565927134843,0.00018707297038902327
-0.49273456157025064,-0.49273456157025064,1.0001990123229159,0.00019241907033952017
-0.4925656689243624,-0.4925656689243624,1.0001213100929913,0.00019086252938791277
-0.4924417545822507,-0.4924417545822507,0.9999130746134917,0.00019006402839915297
-0.4923023187358922,-0.4923023187358922,1.0001666488798944,0.00018494045260843904
-0.4921437033546681,-0.4921437033546681,0.999951123274168,0.00018310976540803015
-0.4917861513851676,-0.4917861513851676,1.0000371774088936,0.00018838710691077926
-0.49157545345660764,-0.49157545345660764,1.0000943378369553,0.00018792176317285715
-0.4913985734216112,-0.4913985734216112,0.9996602981565491,0.00019473707021998182
-0.49123236669183823,-0.49123236669183823,1.0000625348028547,0.00019149537556199166
-0.4910775954085693,-0.4910775954085693,0.9998785233420591,0.00019384788083306906
-0.49084701102183315,-0.49084701102183315,1.000078805891483,0.00018511663402264743
-0.49053588232345646,-0.49053588232345646,1.0000000824673196,0.00019083820709479306
-0.49029380294668956,-0.49029380294668956,1.0002060787045448,0.00018925277462712335
-0.4898325036177994,-0.4898325036177994,1.0000118557576265,0.00018702115613875053
-0.48944532761452136,-0.48944532761452136,0.9999791809528282,0.00018742422628109586
-0.4892741196919815,-0.4892741196919815,0.9997444598692983,0.00018761145457581088
-0.4887309845275013,-0.4887309845275013,1.000040369062403,0.00018779746538589626
-0.4885841364732187,-0.4885841364732187,1.0000494848485864,0.00018679509933895838
-0.48842315834990585,-0.48842315834990585,0.9998318223337795,0.00019240238171412644
-0.48813708752277307,-0.48813708752277307,0.9997995409243343,0.00019223672436394866
-0.48791921906959035,-0.48791921906959035,0.9999963697642867,0.0001867988764221496
-0.4877009066440223,-0.4877009066440223,0.9997782897359876,0.00019178883785544645
-0.4873157869842544,-0.4873157869842544,0.9999851434443912,0.00018913765979092185
-0.487117394348752,-0.487117394348752,1.0000016653828416,0.00019283413486449866
-0.4869130067352671,-0.4869130067352671,1.0001532840833618,0.00019007576069576885
-0.48664361662522426,-0.48664361662522426,0.9999378721119939,0.00019200014701208586
-0.4863229724534904,-0.4863229724534904,1.00001486172451,0.0001893973915759779
-0.4862234152620658,-0.4862234152620658,0.999721814957302,0.00018808245760404489
-0.48605564976169263,-0.48605564976169263,0.9998735854270754,0.00019179225885807257
-0.48589005052417633,-0.48589005052417633,0.9998605153125011,0.00018516121228548537
-0.4857348898294731,-0.4857348898294731,0.9998117990800006,0.00018724638317693925
-0.485492292077106,-0.485492292077106,0.9999673588804162,0.00018760746729140014
-0.48530171426173185,-0.48530171426173185,0.9999407031816056,0.0001879566273887283
-0.4850960778436274,-0.4850960778436274,0.9999886373760173,0.00018970228827855148
-0.484928636206314,-0.484928636206314,0.9999186257860202,0.00019300264798574046
-0.4847877435364353,-0.4847877435364353,0.99993107660503,0.0001913479090535723
-0.4845014875812922,-0.4845014875812922,1.0000230379562738,0.00018847134740536685
-0.4842676237640262,-0.4842676237640262,1.0000677689751452,0.00019543564699149005
-0.48404870391750593,-0.48404870391750593,0.9997174995474933,0.00019411215466654859
-0.4837587798785535,-0.4837587798785535,1.0000264791851972,0.0001844416026423254
-0.4831548049973208,-0.4831548049973208,1.0000480049574372,0.00018714100626488942
-0.48302679855041786,-0.48302679855041786,0.9998819832313364,0.00018909034413934253
-0.48278585305452,-0.48278585305452,0.9998955892297721,0.00018921748760523938
-0.48242483952853943,-0.48242483952853943,0.9998875981035603,0.0001885109632565726
-0.48229571129413673,-0.48229571129413673,1.000112688302939,0.00018705321691944542
-0.48213065498057406,-0.48213065498057406,1.000296767372059,0.000192289516058541
-0.4818525057453371,-0.4818525057453371,0.9997656614233831,0.0001931114874777997
-0.48163251269506874,-0.48163251269506874,1.000214423692169,0.00018739800369299843
-0.48149226035529863,-0.48149226035529863,0.9999460441829126,0.00019039559558462513
-0.48107019319068056,-0.48107019319068056,1.0003247585316974,0.00018884512771850592
-0.48089737750051426,-0.48089737750051426,0.9998899335250648,0.00019354889923713312
-0.48070911555478235,-0.48070911555478235,1.0002280616514605,0.000184914248171555
-0.4804218425801082,-0.4804218425801082,0.9998143794535774,0.0001865701528166957
-0.48007431603909934,-0.48007431603909934,0.9998745517582632,0.00019394333790142198
-0.47995045034986106,-0.47995045034986106,1.0001365622366438,0.0001902882650189486
-0.47976933950849343,-0.47976933950849343,1.0000388774545086,0.00018648384033946095
-0.4796004713520233,-0.4796004713520233,0.9998077506490544,0.00018730198344361665
-0.47943951143897723,-0.47943951143897723,1.0000169538664916,0.0001828924615965386
-0.479162251723028,-0.479162251723028,0.9999895597324201,0.00019251090440868966
-0.4789418532614945,-0.4789418532614945,0.9996463785175346,0.00019237231839734135
-0.4787683377333451,-0.4787683377333451,0.9998821654596046,0.00018915120094307208
-0.47860064337510266,-0.47860064337510266,0.9999097206142322,0.00019374286660636623
-0.47841387363514515,-0.47841387363514515,0.9998531313261342,0.00018455827471956391
-0.47822332103023657,-0.47822332103023657,0.9999391618781527,0.00018890519543492707
-0.47796681480904224,-0.47796681480904224,0.999709411534148,0.00018565738147675545
-0.4776234058088448,-0.4776234058088448,1.0000865518636342,0.00019196795149233563
-0.47712203774935913,-0.47712203774935913,1.0000041061993072,0.00018862840516897648
-0.4768134652389563,-0.4768134652389563,0.9998355796481835,0.00018956145709435595
-0.4766994696168695,-0.4766994696168695,1.0002068794411216,0.00018831261750043365
-0.4763539966785174,-0.4763539966785174,1.00007987584789,0.0001862127015961964
-0.47601009763457114,-0.47601009763457114,1.0001537133472345,0.00018960985922745344
-0.4758811708816211,-0.4758811708816211,1.0000154232169605,0.00018908138921769265
-0.47563557144749213,-0.47563557144749213,0.9999456185537815,0.00019297762284416865
-0.47544035872560925,-0.47544035872560925,0.9997591030918269,0.0001934502539651749
-0.4752642504980031,-0.4752642504980031,0.9999052551165992,0.00018811460697539325
-0.47486458435232637,-0.47486458435232637,0.9998851509390823,0.00018787085569771763
-0.47463495722840887,-0.47463495722840887,1.0000297641950469,0.00019713405026049752
-0.47441194394923514,-0.47441194394923514,0.9999175316535356,0.00018839246377365596
-0.47424982846932834,-0.47424982846932834,1.0000100164454022,0.00018918722227633417
-0.4739222900054301,-0.4739222900054301,0.9998458556319667,0.0001904400359473925
-0.4737044162160601,-0.4737044162160601,1.0001879959726911,0.00019294854617660427
-0.47362508016740323,-0.47362508016740323,1.0001697219215533,0.00019533666899368489
-0.47348488610659845,-0.47348488610659845,1.0000335883151652,0.00018721022536238242
-0.47331601777405014,-0.47331601777405014,0.9998872905358753,0.00018732768188905584
-0.4730795623268932,-0.4730795623268932,1.0001603197386408,0.00018721256157571336
-0.4727614933719451,-0.4727614933719451,0.9997493559912275,0.0001916261005012998
-0.47247742459294384,-0.47247742459294384,0.9998252080225143,0.00018886906227484672
-0.47228681552951457,-0.47228681552951457,1.0001328596712133,0.00019385704446615748
-0.4720737560746784,-0.4720737560746784,0.9999059080539681,0.0001848774464523718
-0.47182717918039996,-0.47182717918039996,0.9999854716113633,0.00018514491750496574
-0.4715774008785957,-0.4715774008785957,0.9998126387036,0.00019075909071341669
-0.4709649216856633,-0.4709649216856633,0.9999035326469267,0.0001884712881187845
-0.47056912949701657,-0.47056912949701657,0.9996003430926649,0.00018436832950250294
-0.4703805571851262,-0.4703805571851262,0.9999156871221155,0.00018968100480659387
-0.46998947599422536,-0.46998947599422536,1.0000715100696567,0.00018848675930732039
-0.46971179656102324,-0.46971179656102324,1.0001171993867264,0.00018783262047790278
-0.4695631837748806,-0.4695631837748806,0.9999795141626237,0.00019009049183167266
-0.46929987446783344,-0.46929987446783344,1.0001646248612448,0.00019347884592695738
-0.46907524965427,-0.46907524965427,1.000122775702664,0.00018999248375849894
-0.4689398474038171,-0.4689398474038171,1.0000188878736052,0.0001877061834317252
-0.4685187509836396,-0.4685187509836396,1.0003213491068075,0.00018807691160764166
-0.4682741665157664,-0.4682741665157664,1.0001628031370797,0.00019418956618564862
-0.4680166989739519,-0.4680166989739519,1.0002506290490605,0.00018200547267715886
-0.46775430996349315,-0.46775430996349315,1.000027863606034,0.00019576181545205026
-0.46756424845807487,-0.46756424845807487,1.0004800043112603,0.0001915108212074631
-0.46737706764179165,-0.46737706764179165,1.0000622294838768,0.00018924523868209912
-0.4672744658557349,-0.4672744658557349,0.9997771542211806,0.00019077434817116185
-0.4671113967997371,-0.4671113967997371,1.000097539234678,0.00018721470220252445
-0.4669372737742378,-0.4669372737742378,1.0003909210088893,0.00018672023444285925
-0.46667997659751564,-0.46667997659751564,0.9997237986578981,0.000189661050918152
-0.4664702958449197,-0.4664702958449197,0.9995262215445516,0.00018990560051663396
-0.46628863259029457,-0.46628863259029457,1.0002679386481745,0.00019293656135531713
-0.4661333403972094,-0.4661333403972094,0.9996459733764149,0.00019335846289784885
-0.46590510013484165,-0.46590510013484165,0.9998711187288519,0.0001891078644405847
-0.4656596397704561,-0.4656596397704561,0.9999241512259879,0.0001826953916769686
-0.4652630069227598,-0.4652630069227598,0.9999003753036007,0.0001888372089270873
-0.4649485964226187,-0.4649485964226187,0.9999659256745549,0.00018946581412056238
-0.4644661103899125,-0.4644661103899125,0.9998551817160195,0.00019000930131825154
-0.4642192726219946,-0.4642192726219946,1.0002583035974428,0.0001887097302162351
-0.46403439686982895,-0.46403439686982895,0.99979841759314,0.00019229561578260458
-0.4636535844932951,-0.4636535844932951,0.9999483511864259,0.00018957076977990395
-0.46342665620322804,-0.46342665620322804,1.000069801198285,0.00018685829105857414
-0.46331520683379496,-0.46331520683379496,1.0002339055553282,0.0001928676741748926
-0.4630259189172648,-0.4630259189172648,0.9998532779201584,0.00019376599202540097
-0.46271039376806583,-0.46271039376806583,1.0001164666926528,0.00018625898722912678
-0.46250015355763024,-0.46250015355763024,0.9999711844857906,0.00018781941682572138
-0.462137992168573,-0.462137992168573,0.9996709231363239,0.0001942880599199622
-0.46189115575907636,-0.46189115575907636,0.9999643940271433,0.00019212185800587464
-0.46155503232730555,-0.46155503232730555,1.0001199330043529,0.00019184924577320036
-0.4612507186880975,-0.4612507186880975,0.9999170122293153,0.00019024587106565414
-0.4611002689671295,-0.4611002689671295,0.9999095495204295,0.0001899365253059466
-0.46097355453748606,-0.46097355453748606,1.0000879518131656,0.00018819066315250331
-0.4608344416374166,-0.4608344416374166,1.000016365316468,0.00018612396301260464
-0.46065715669392376,-0.46065715669392376,0.9999244631061455,0.00018649974495711945
-0.4603908770994167,-0.4603908770994167,0.9999863234522515,0.00019013088321808027
-0.4601618729902839,-0.4601618729902839,0.999978385362196,0.00018930879338943917
-0.45990293909198954,-0.45990293909198954,0.9997135580278391,0.0001910112244436196
-0.4597751998269814,-0.4597751998269814,0.9998960784328347,0.0001891909774230859
-0.45955923399887977,-0.45955923399887977,1.0000370599482806,0.00019130803294583194
-0.4592435820508399,-0.4592435820508399,1.0000295097860843,0.00018841933450881418
-0.45899247524648673,-0.45899247524648673,0.9999537994748774,0.0001920003182964519
-0.45864243251344305,-0.45864243251344305,0.9999350530602615,0.00018614425321971325
-0.45808612752516636,-0.45808612752516636,0.9997695102470633,0.00018804512694178593
-0.4579077319678618,-0.4579077319678618,1.0005072902087682,0.00019046423818559947
-0.4575360016860941,-0.4575360016860941,0.9999747494940252,0.00018782138767226738
-0.4571985279508226,-0.4571985279508226,1.00005803725333,0.0001883291630094273
-0.45711057014486867,-0.45711057014486867,0.9997845653173366,0.0001878559753030575
-0.4569182470127998,-0.4569182470127998,0.9999989659212073,0.00019398326246130863
-0.4566021673097566,-0.4566021673097566,1.0001139733667281,0.00019111610485661955
-0.4564085491896549,-0.4564085491896549,1.0000883184671177,0.00019207560130913025
-0.4561852334445575,-0.4561852334445575,1.0002289287766613,0.0001895553691715978
-0.45584647194482386,-0.45584647194482386,0.9999954349932931,0.00019478660423633982
-0.4556277334915649,-0.4556277334915649,0.999795757606552,0.00019321369765582997
-0.4554114785452839,-0.4554114785452839,1.0000320509711456,0.00018424687062986228
-0.45504682396349383,-0.45504682396349383,0.9998274322796872,0.00019610452599388737
-0.45485466323079893,-0.45485466323079893,1.0000275737662447,0.00018826842492031745
-0.4547296613658546,-0.4547296613658546,1.0000747174193023,0.00018825164407751353
-0.45457873555933476,-0.45457873555933476,1.0002000989815216,0.0001877928974722132
-0.4544279916219239,-0.4544279916219239,0.9999270603418481,0.00018658569768828704
-0.4541461365290161,-0.4541461365290161,1.0000878260190795,0.0001835508901260559
-0.4538525189011125,-0.4538525189011125,1.0000133483433102,0.00018789069465874813
-0.45366289091543877,-0.45366289091543877,0.9998536512023147,0.00019046665536315532
-0.45346055719055584,-0.45346055719055584,0.9999246897771361,0.0001885390311799225
-0.4532271936404868,-0.4532271936404868,1.0000048332660416,0.00018986783146424598
-0.45296709057729456,-0.45296709057729456,1.000060159203301,0.00018789625094766134
-0.45263247827024317,-0.45263247827024317,0.9998790958282608,0.00019140589643688578
-0.45234087604039813,-0.45234087604039813,1.0002919274682827,0.00018677150721405842
-0.45176660066281327,-0.45176660066281327,1.0000020660793245,0.0001871632662426204
-0.45164311108019317,-0.45164311108019317,1.0001013752942363,0.0001838825809390353
-0.4514887160388753,-0.4514887160388753,1.0000065125309265,0.00018953389755671504
-0.4511540556064574,-0.4511540556064574,0.999915414578054,0.00018907680931748113
-0.4508774848160101,-0.4508774848160101,1.0001145201744497,0.00018697519618629727
-0.45077608315623363,-0.45077608315623363,1.000070581016352,0.00018978332287399816
-0.4505994057188218,-0.4505994057188218,1.0000483263766045,0.00019353024057148133
-0.4503345552300743,-0.4503345552300743,0.999907893734439,0.00019031190889054914
-0.4501447806957003,-0.4501447806957003,1.0001502129328599,0.00018821744472214923
-0.4499617625879182,-0.4499617625879182,1.000012672798314,0.00019166917163560557
-0.44958093491659384,-0.44958093491659384,1.0000044372776682,0.00018911817584555353
-0.449391838612064,-0.449391838612064,1.000155825597521,0.00019240411812153338
-0.449274165029783,-0.449274165029783,0.9997600146523509,0.0001921806242693675
-0.4490628390274651,-0.4490628390274651,0.9998474761589042,0.00018655331360763444
-0.44864788210979895,-0.44864788210979895,1.0000025726756827,0.0001935566637410544
-0.44853050079618695,-0.44853050079618695,0.9999821561041682,0.0001898905485526114
-0.44839158619215597,-0.44839158619215597,0.999965698150814,0.0001865664954763624
-0.44818326991371576,-0.44818326991371576,0.9999964123953697,0.0001872633905813156
-0.4480691154552915,-0.4480691154552915,0.9998078800234232,0.0001875750355043531
-0.4479103098041378,-0.4479103098041378,0.9997197279617511,0.00018513012658054583
-0.4475705595621548,-0.4475705595621548,0.9998007768792052,0.00018791438307037744
-0.4473986410317593,-0.4473986410317593,1.0000517592539455,0.00019216176835971623
-0.44725150251179,-0.44725150251179,0.9999376986439511,0.0001929020016680746
-0.44708592265524205,-0.44708592265524205,1.0003314937053385,0.00019418044839631694
-0.4469017471004918,-0.4469017471004918,1.0001725966815178,0.00018238237156269582
-0.44669925874623007,-0.44669925874623007,1.0001847488989357,0.0001898623891827066
-0.4463573372202518,-0.4463573372202518,1.000036946507286,0.00019350146615526126
-0.4460519596563245,-0.4460519596563245,1.0000955559150964,0.00018814292629467348
-0.44550947842362804,-0.44550947842362804,0.9998916646730734,0.00018733032594928182
-0.4452896845155919,-0.4452896845155919,1.0000394399086923,0.00018867484840799433
-0.4451134122617077,-0.4451134122617077,1.0001505719534083,0.00018797567677089047
-0.444637313997373,-0.444637313997373,1.0000964446747473,0.00018769354917245546
-0.44453795508961774,-0.44453795508961774,0.9998762659813444,0.00018792384559496148
-0.4443490213721816,-0.4443490213721816,1.0001024646685905,0.00019192905810589173
-0.44417150519002463,-0.44417150519002463,1.0001696703752232,0.00019172226798935458
-0.44396425557642943,-0.44396425557642943,0.9999909724298821,0.00019079226526587436
-0.44381156997624205,-0.44381156997624205,1.0001651970406922,0.0001926288997136533
-0.44354549922354636,-0.44354549922354636,0.9998503039858505,0.00018897004220586508
-0.4432459517207462,-0.4432459517207462,1.0000553167540283,0.00018822576812463967
-0.4430636245793721,-0.4430636245793721,0.9999201736995478,0.0001931230757194013
-0.4428052911549457,-0.4428052911549457,0.9998243099367776,0.00018315702686900196
-0.4424438666210335,-0.4424438666210335,0.999778693075682,0.0001972018342700608
-0.44225892462345656,-0.44225892462345656,1.0000551971611091,0.00018973291505911395
-0.4421551010389521,-0.4421551010389521,1.0001071634466694,0.00018842192564608631
-0.4419841341819847,-0.4419841341819847,1.0001759279122884,0.00018806280028802142
-0.44183711119912916,-0.44183711119912916,0.9999488538599843,0.00018633462916738325
-0.4416894903537468,-0.4416894903537468,0.9999345813126516,0.00018574141074159797
