time,time,flux,flux_err
-0.49962534733034164,-0.49962534733034164,1.000181990390842,0.00012102293050920306
-0.4991087289066248,-0.4991087289066248,0.9998248135348375,0.00011966654774386103
-0.49871190930571174,-0.49871190930571174,1.0000346739477826,0.00011955696915149127
-0.49833193868835224,-0.49833193868835224,0.9999377746298621,0.00012045023711773989
-0.49773640627608984,-0.49773640627608984,1.0000138383998878,0.0001087911341655287
-0.49727640302298826,-0.49727640302298826,0.9999422916668724,0.0001082312914127211
-0.4968401368438208,-0.4968401368438208,0.9999732794182661,0.00010920827222640798
-0.49641810815737697,-0.49641810815737697,1.0000912481711257,0.00010874580641482866
-0.4959570162951422,-0.4959570162951422,0.999993677149774,0.00010868796915625041
-0.49573916802037277,-0.49573916802037277,1.0000551505986102,0.0001088085894232032
-0.4954322105753818,-0.4954322105753818,1.000132709779535,0.00010992313711192514
-0.49502319197927136,-0.49502319197927136,1.0000250753126276,0.00010906167496402387
-0.49465760157836486,-0.49465760157836486,1.0000299208229495,0.00010929855421728395
-0.4943652292473416,-0.4943652292473416,1.000061053928109,0.00010927808616933005
-0.49399051244108705,-0.49399051244108705,0.9998533140802109,0.00010856775674565433
-0.49380099218687973,-0.49380099218687973,0.9999547768763127,0.00010863280362672372
-0.4932876515900716,-0.4932876515900716,1.0001186523602439,0.0001089303150844228
-0.4927960830740631,-0.4927960830740631,1.0000654305469285,0.00010830637265359184
-0.49223622787831117,-0.49223622787831117,1.0000717954057226,0.00010896302795586263
-0.49180165011348437,-0.49180165011348437,1.0001162775674437,0.00010830229872793001
-0.49140390957545604,-0.49140390957545604,0.9998897058407168,0.000109210599435218
-0.49107271894972654,-0.49107271894972654,0.9998601891755718,0.00010867953118411303
-0.4906381260982016,-0.4906381260982016,1.000103299590776,0.00010868634783380875
-0.49008707986286026,-0.49008707986286026,1.0001126254721744,0.00010889860191967664
-0.489653334068862,-0.489653334068862,0.9999641574175353,0.0001087364745211556
-0.4892296857680776,-0.4892296857680776,0.9998201768290855,0.00010853156359030318
-0.48900026697665455,-0.48900026697665455,1.0000389585330327,0.00010876159960480679
-0.4884585560314008,-0.4884585560314008,0.9998813385344517,0.0001082155245420333
-0.4878555563089321,-0.4878555563089321,0.9999436367122485,0.00010917886340445931
-0.4875598954953603,-0.4875598954953603,0.9999848964064835,0.00010886940800045057
-0.4872397000392084,-0.4872397000392084,1.0000308264696183,0.00010908769134747914
-0.48679478731501147,-0.48679478731501147,0.9999329871803333,0.00010940485686729291
-0.4862887124392728,-0.4862887124392728,0.999874332641068,0.00010850351854541287
-0.48609977612213695,-0.48609977612213695,0.9999195793150832,0.00010889559655258792
-0.48572284630863577,-0.48572284630863577,1.000094331159433,0.00010867736927575622
-0.48510903583519394,-0.48510903583519394,1.0001881338036092,0.00010885805471099534
-0.484726888500154,-0.484726888500154,0.9999655935848757,0.00011072416970741611
-0.48440415443110396,-0.48440415443110396,0.9999996306838173,0.00010851057414720268
-0.4839683231424715,-0.4839683231424715,0.9998618925714883,0.00010884420092874233
-0.483453816590918,-0.483453816590918,1.0001185679319717,0.00010885867045187756
-0.4830730195862998,-0.4830730195862998,0.9998915662399849,0.00010906742027699039
-0.48292431407389813,-0.48292431407389813,1.0000013786742248,0.00010945367453798016
-0.48261274885808236,-0.48261274885808236,1.0000676788461267,0.00010872987148612527
-0.4823089211939077,-0.4823089211939077,1.000014501749856,0.00010816162786717756
-0.4817742646562692,-0.4817742646562692,0.99981200749769,0.00010848061252677209
-0.4814529901501373,-0.4814529901501373,0.9999194857009883,0.00010844913240420397
-0.4811372969430522,-0.4811372969430522,1.0000832486972524,0.00010875550607092708
-0.48069989846117095,-0.48069989846117095,1.0000305475679698,0.00010866070505933221
-0.48024070955143544,-0.48024070955143544,1.0002242638970331,0.00010871144344762574
-0.4798616841340845,-0.4798616841340845,1.0000452329499694,0.00011007135629040404
-0.47948354949985517,-0.47948354949985517,1.0002048898039402,0.0001087247209130806
-0.47897341726202286,-0.47897341726202286,1.0001014849994956,0.0001082755968675438
-0.4782709146558773,-0.4782709146558773,0.9999953973522022,0.00010939594247929587
-0.47803671307992773,-0.47803671307992773,1.0001221500803195,0.00010814693522597519
-0.47764702022395794,-0.47764702022395794,0.9999742948451601,0.00010840556724010038
-0.47711679500862375,-0.47711679500862375,1.0000586149676072,0.00010852876816984619
-0.47654117131241946,-0.47654117131241946,1.000131242193178,0.00010897195455857218
-0.47612294800710514,-0.47612294800710514,1.000010615621998,0.0001085901754432799
-0.4753872096298437,-0.4753872096298437,0.9999873299671116,0.00010832780877307626
-0.4748865198031126,-0.4748865198031126,0.9998684895205766,0.00010843165218811374
-0.47421991536466523,-0.47421991536466523,0.999916126964345,0.00010917110110499192
-0.47350397680929746,-0.47350397680929746,1.0000899312262048,0.00010903224782954535
-0.4730376686115051,-0.4730376686115051,0.9998926785724527,0.00010829092985290562
-0.47257491559066694,-0.47257491559066694,1.0001321487109895,0.00010908682071057881
-0.4721741666493472,-0.4721741666493472,0.9999286555075295,0.00010865972120470786
-0.4718274411301536,-0.4718274411301536,1.0001786116141669,0.00010870221265254286
-0.4714184317846957,-0.4714184317846957,0.999957871444676,0.00010855949853242997
-0.47057175447480404,-0.47057175447480404,1.0001078907390926,0.00010817791113562874
-0.4701264237606665,-0.4701264237606665,1.0000628233341389,0.00010857282562359654
-0.46979927236025104,-0.46979927236025104,0.9999611627679658,0.00011045080707873504
-0.4690815678062791,-0.4690815678062791,1.000040162402736,0.00010863300053675729
-0.46842521855433006,-0.46842521855433006,1.000235304053587,0.00010923988995546051
-0.46798848581602215,-0.46798848581602215,1.0000973930018682,0.00010852596358204751
-0.467595638120838,-0.467595638120838,0.9999814683808905,0.00011000566346067778
-0.46707246685618886,-0.46707246685618886,1.0000824451441372,0.00010825340673843934
-0.46675644739734706,-0.46675644739734706,0.9998632723480906,0.00010873256377446361
-0.4659547147668491,-0.4659547147668491,0.9999825044559433,0.0001085841054685186
-0.4653842796549725,-0.4653842796549725,1.0001695189966295,0.00010836220076454909
-0.4650757715498912,-0.4650757715498912,0.9998810466614863,0.00010909773500337427
-0.46458513703983045,-0.46458513703983045,1.000081303024207,0.00010814504210478121
-0.4638949614854937,-0.4638949614854937,1.0000575070749922,0.00010969071872595033
-0.46338899757756735,-0.46338899757756735,1.0001448656760161,0.00010909008972945497
-0.462904609911493,-0.462904609911493,1.0000519116005735,0.00010886195845031758
-0.46251846078812375,-0.46251846078812375,0.9999056449326383,0.00010927096940216781
-0.46212564190645933,-0.46212564190645933,0.9998905512998386,0.00010826560351250407
-0.4617874041185132,-0.4617874041185132,1.000054907291727,0.00010883566998454352
-0.4612199980889272,-0.4612199980889272,1.000105666321273,0.00010904379015890168
-0.4605966127375723,-0.4605966127375723,1.000102338426278,0.00010903600536019084
-0.46036284076544687,-0.46036284076544687,0.9999941210850365,0.00010852763751630103
-0.459934274895204,-0.459934274895204,0.9998767248703453,0.00010908357222197193
-0.4595226727549743,-0.4595226727549743,0.9999642726999621,0.00010867243482050614
-0.45880585439517746,-0.45880585439517746,0.9998769499987871,0.00010915416575784283
-0.45838924168565426,-0.45838924168565426,0.9998268277851825,0.00010797872285147955
-0.4579717353604792,-0.4579717353604792,1.000121523810781,0.00010870765184660754
-0.4574582554567314,-0.4574582554567314,1.0000280920760747,0.00010918197087910371
-0.45712333179908454,-0.45712333179908454,0.9999762794754409,0.0001084992543042118
-0.4567037624299701,-0.4567037624299701,0.9999029654715372,0.00010827823471560639
-0.4559337392624002,-0.4559337392624002,1.000073367897342,0.00010911191831284882
-0.45552348520432134,-0.45552348520432134,0.999894009737431,0.00010819565038492334
-0.45500769288046283,-0.45500769288046283,1.0002017763990612,0.00010849135534053114
-0.45442120106090444,-0.45442120106090444,0.9999467024635337,0.00010948822195420104
-0.45389987293601736,-0.45389987293601736,1.0001150588286856,0.00010854628237275169
-0.45351807231490965,-0.45351807231490965,0.9997432216719824,0.00010796007146318897
-0.4531181005295366,-0.4531181005295366,0.9999523444951202,0.00010865501985958977
-0.4527411632305302,-0.4527411632305302,1.0000218540912897,0.00011026378785315878
-0.4523284006900212,-0.4523284006900212,0.9999151280677052,0.00010877630982504174
-0.4521396339259809,-0.4521396339259809,0.9999013186490492,0.0001092449019215407
-0.4515940469245834,-0.4515940469245834,0.999938772900079,0.00010884468699032406
-0.4511861496983329,-0.4511861496983329,0.9999146091170207,0.00010916335136498118
-0.45074514921798253,-0.45074514921798253,1.0000341149935874,0.00010871581648724384
-0.4503493004725897,-0.4503493004725897,0.9999408354742716,0.00010876429049300669
-0.44959762201906417,-0.44959762201906417,1.0001241485808363,0.00010938528319473463
-0.44904876444634284,-0.44904876444634284,0.9999606547022972,0.00010890344079970573
-0.44866805239435054,-0.44866805239435054,1.000064882870325,0.00010814845707833786
-0.4482912232153467,-0.4482912232153467,0.9999498859537155,0.00010867275997547539
-0.44778098500100894,-0.44778098500100894,1.0000218949827224,0.0001092291902099707
-0.4473183977963345,-0.4473183977963345,0.9999255561943512,0.00010890980001573421
-0.44664924794778926,-0.44664924794778926,1.0001602005873251,0.00010916298239427285
-0.44624923196679445,-0.44624923196679445,0.9998480413281703,0.00010822014957745457
-0.4460345736544696,-0.4460345736544696,1.0000139595694921,0.00010975233236969344
-0.4457785957529268,-0.4457785957529268,1.0000205635578978,0.00010861102738824369
-0.4450911636202363,-0.4450911636202363,0.9999205062021413,0.00010897124100451264
-0.44427064160772717,-0.44427064160772717,0.9997507031072826,0.00010897241769559536
-0.4438230533334718,-0.4438230533334718,1.0000141609816688,0.00010817913381919761
-0.44338504135012047,-0.44338504135012047,1.0001265768709657,0.00010914148136377388
-0.44277275421482043,-0.44277275421482043,1.000073860088406,0.00010808836761403792
-0.4423271847706928,-0.4423271847706928,0.9999177297849263,0.0001092633988285238
-0.44187210387681264,-0.44187210387681264,0.9998125122719035,0.00010973542731132239
-0.4416262804275902,-0.4416262804275902,0.9999168482686562,0.00010960400746147078
-0.4413460849842522,-0.4413460849842522,0.99999573964406,0.00010819404551312844
-0.4409909388676169,-0.4409909388676169,0.9999228838752756,0.00010933950704440657
-0.4403254594923055,-0.4403254594923055,0.9999550012881546,0.00010836482625839435
-0.4397858030242787,-0.4397858030242787,0.9999270422050153,0.0001088216996568468
-0.43929241403529884,-0.43929241403529884,1.000015289498226,0.00010868889000983631
-0.4388016207900364,-0.4388016207900364,1.0000619468928824,0.00011035721861433136
-0.4382801505853422,-0.4382801505853422,0.9999611824685344,0.00010860608082408826
-0.4374399822256237,-0.4374399822256237,1.0000592397974009,0.00010921191566887442
-0.43684465455735333,-0.43684465455735333,0.9999034174079956,0.00010899124666363606
-0.4365690881910268,-0.4365690881910268,1.0000554908124513,0.0001082885640191282
-0.43625091548092315,-0.43625091548092315,0.9998523809221116,0.0001085915961849176
-0.43567106485497786,-0.43567106485497786,1.000171303178178,0.00010838749899385934
-0.43501484583466665,-0.43501484583466665,0.9999977800340615,0.0001083459727625004
-0.4345383630658034,-0.4345383630658034,1.0001091882696973,0.00010881345978414774
-0.43384131902785156,-0.43384131902785156,0.999911361609135,0.00010913452210599857
-0.43304191360148253,-0.43304191360148253,1.0000514787920491,0.00010899998197257082
-0.432454773682548,-0.432454773682548,1.0000231222277998,0.00010905054547243021
-0.4319077208143426,-0.4319077208143426,1.0001139148307476,0.00010906807457845998
-0.4313809979707003,-0.4313809979707003,1.0001141472386241,0.00010850313558738805
-0.431000826843956,-0.431000826843956,0.9999340537544367,0.00010917475646852533
-0.4302761553240998,-0.4302761553240998,0.9998871285134374,0.0001083540895282422
-0.429562944493955,-0.429562944493955,1.0000784859314389,0.00010856996162131973
-0.4288257644162513,-0.4288257644162513,0.9997372219484116,0.00010936003616970498
-0.42805645809858106,-0.42805645809858106,1.000102371913678,0.00010832403310102113
-0.42747519734330125,-0.42747519734330125,0.9998585769784647,0.00010856606704386685
-0.426869876805722,-0.426869876805722,0.9998165273816113,0.00010921965873211977
-0.42641251813111014,-0.42641251813111014,0.9998705180213896,0.00010828399068336264
-0.425621636332653,-0.425621636332653,1.0000404873816073,0.00010850366039996415
-0.42505616981725325,-0.42505616981725325,0.999996926490487,0.00010872924890233111
-0.42455196758528474,-0.42455196758528474,1.0000549666194232,0.00010835612158225764
-0.4235914185752335,-0.4235914185752335,0.9999708340647496,0.00010893615052246362
-0.42280659144744276,-0.42280659144744276,1.000013659219634,0.00011054619886817843
-0.422188509573607,-0.422188509573607,1.0001388681832386,0.0001084424342953948
-0.4214651335867529,-0.4214651335867529,1.000090117289885,0.00010931039840540175
-0.4210034193325555,-0.4210034193325555,1.0001736233199918,0.00010889272781647208
-0.42060123617120554,-0.42060123617120554,0.9999659236022012,0.00010861248361168405
-0.4201713852438843,-0.4201713852438843,1.0001266258631212,0.0001087497076793799
-0.4196899686103279,-0.4196899686103279,0.9999683688254724,0.00010883473846300768
-0.41875643398598184,-0.41875643398598184,0.9999492381685375,0.000108969770709241
-0.417648898644984,-0.417648898644984,1.0000686878610252,0.00010928161957409063
-0.4169794096662372,-0.4169794096662372,1.000064459071108,0.00010817072355082713
-0.41635088803959663,-0.41635088803959663,1.0000145562744038,0.00010945464874694111
-0.4157616749580484,-0.4157616749580484,1.0000684520149945,0.00010861046939794787
-0.41535071351754593,-0.41535071351754593,1.0001464029976646,0.00011024835189016342
-0.4148264275194379,-0.4148264275194379,1.0001008320500833,0.0001101521419723491
-0.41397005565522704,-0.41397005565522704,0.9999544104244619,0.0001087707856005512
-0.4129824607312912,-0.4129824607312912,1.000026291558958,0.00010881389274682326
-0.4120668960407784,-0.4120668960407784,0.9999290408775321,0.00010803566355161043
-0.41155100687319646,-0.41155100687319646,0.999885444955433,0.00010910969273552641
-0.41119461442140165,-0.41119461442140165,1.0000580400382044,0.00010900074202411692
-0.41083909887238407,-0.41083909887238407,0.9999353783604701,0.00010935631095046407
-0.4105895868953667,-0.4105895868953667,0.9999993974037136,0.00010945534539751634
-0.41026110999737286,-0.41026110999737286,0.9998879362514204,0.00010860048759671887
-0.40984581061275094,-0.40984581061275094,0.9999624288227767,0.00010883468747916399
-0.40943947706036854,-0.40943947706036854,1.0001202558069626,0.00010983718523219033
-0.40891408836250775,-0.40891408836250775,0.9999719367200702,0.00010888467547659985
-0.40792953924828906,-0.40792953924828906,0.9996092631249327,0.0001085370915850637
-0.4072489730220695,-0.4072489730220695,0.9999239169063676,0.00010848846367549139
-0.40679483395724675,-0.40679483395724675,0.9999353479036597,0.00010827533420255067
-0.40611362746712987,-0.40611362746712987,0.9999443582496499,0.00010874221358384433
-0.4056853594229324,-0.4056853594229324,0.9999790913783089,0.00011008389943414641
-0.40527158247714395,-0.40527158247714395,1.0001547285275765,0.00010913704376782508
-0.40468686598542264,-0.40468686598542264,0.9999933495924983,0.00010905617275110073
-0.4042998087119486,-0.4042998087119486,0.9999883335522778,0.0001092097709364669
-0.4036845100716164,-0.4036845100716164,0.9999159276731904,0.00010846706000672976
-0.40263842309141185,-0.40263842309141185,0.9999866054305766,0.00010909526428869855
-0.4022389432248019,-0.4022389432248019,0.9999914509695106,0.00010944454161196072
-0.4017464152093453,-0.4017464152093453,1.0000207281853997,0.00010863758466707983
-0.40120451008842795,-0.40120451008842795,1.0000467080465143,0.00010876515111954332
-0.40073223530926044,-0.40073223530926044,1.0001343369710054,0.0001088417560949776
-0.4001321879084571,-0.4001321879084571,1.0000259913687746,0.00011079693870179312
-0.39963699891668514,-0.39963699891668514,0.9998725480380892,0.00010935384626422059
-0.39925111628544985,-0.39925111628544985,1.0000404224444854,0.00010878715664265456
-0.39909187697267046,-0.39909187697267046,0.9999714304048795,0.00010952170456030269
-0.39849419260935975,-0.39849419260935975,0.9998694935627647,0.00011002321296673604
-0.3980424739631417,-0.3980424739631417,0.999970381563218,0.00010845832599398923
-0.3976177251104673,-0.3976177251104673,0.9998209845388061,0.00010814904901461299
-0.3971756306149473,-0.3971756306149473,0.9999799324099712,0.00010882952172018422
-0.3966884104651399,-0.3966884104651399,1.000122537190463,0.00010882076170723132
-0.396389788416127,-0.396389788416127,0.9999275671187926,0.00010876793216478275
-0.3960968395491363,-0.3960968395491363,0.9999426822345472,0.00010922864769505531
-0.3957047367752239,-0.3957047367752239,1.0000357381842038,0.0001090794567223205
-0.39521455452777443,-0.39521455452777443,0.9999220589071006,0.00010952405578513633
-0.3949567819261574,-0.3949567819261574,0.9999294495655308,0.00010896146818996774
-0.3946571480082639,-0.3946571480082639,0.9998373224667046,0.0001088304766507514
-0.39439010771238825,-0.39439010771238825,0.9999060929709771,0.00010925538049399441
-0.3941717292276735,-0.3941717292276735,0.999856722263994,0.0001090464593279647
-0.39372353946891964,-0.39372353946891964,0.9998978055111657,0.00010970538875933278
-0.39332103280539743,-0.39332103280539743,1.0000075950330216,0.00010823522280134277
-0.3929719755506085,-0.3929719755506085,0.9998558388363465,0.00010843313668904913
-0.3924917914577236,-0.3924917914577236,1.0000761807254002,0.00010900252225043501
-0.3920332907764532,-0.3920332907764532,1.000056181000966,0.00010880350608016883
-0.39164981194699067,-0.39164981194699067,1.0000287123257947,0.00010894040001297283
-0.3913388679473428,-0.3913388679473428,0.9999382008951466,0.00010877446037975258
-0.3908022300412995,-0.3908022300412995,1.0000061984699211,0.00010884236046357018
-0.3903193139325595,-0.3903193139325595,1.0000838113336379,0.00010913226561891281
-0.3899995680847496,-0.3899995680847496,0.9999840834931002,0.00010853961865538544
-0.3895852938410826,-0.3895852938410826,1.0000064373280604,0.00010896932517613279
-0.38943815944949167,-0.38943815944949167,1.00004735822044,0.00010886476292246988
-0.3887859412425314,-0.3887859412425314,0.999861897166434,0.00010855709710207827
-0.3882618440278748,-0.3882618440278748,0.9999550763429845,0.000109087738621165
-0.38791580315155444,-0.38791580315155444,1.000025602491327,0.00010888783000975468
-0.38747179816273275,-0.38747179816273275,0.9999190715519737,0.00010909378941172132
-0.3870644846399955,-0.3870644846399955,1.0001774345134025,0.00010939965905250274
-0.386719215373887,-0.386719215373887,1.0001738901643926,0.0001086586103516445
-0.3865029856322508,-0.3865029856322508,0.9998705521268324,0.00010882218037607094
-0.38609078324880103,-0.38609078324880103,0.9999591605952022,0.00010853523143005115
-0.3854963622783544,-0.3854963622783544,1.0000382025475365,0.00011081938161588464
-0.38513424558623227,-0.38513424558623227,1.0001288388580059,0.00010880736252826606
-0.3847443213227962,-0.3847443213227962,1.0000304127104838,0.00010912933972038891
-0.3842145202193933,-0.3842145202193933,1.0000800081402228,0.00010932866680810256
-0.38364406754044467,-0.38364406754044467,1.000025576529964,0.00010895878908684592
-0.3834421854175162,-0.3834421854175162,0.9998490434453474,0.00010954130349335523
