time,time,flux,flux_err
-0.49961946468174573,-0.49961946468174573,0.9999864113298734,4.5607834795478545e-05
-0.49838319236878303,-0.49838319236878303,1.0000186532116746,4.564606584599956e-05
-0.4966903395630652,-0.4966903395630652,0.9999590782664877,4.55864955570829e-05
-0.49581271958886647,-0.49581271958886647,0.9999711845451535,4.566656656792934e-05
-0.49441232224271514,-0.49441232224271514,1.0000552246254977,4.562568271924938e-05
-0.4930225726617209,-0.4930225726617209,0.9999190764794832,4.5668985472474536e-05
-0.4915090697708365,-0.4915090697708365,1.0000003039750127,4.564333788409042e-05
-0.48992070390377196,-0.48992070390377196,1.0000035990586535,4.5626508246805305e-05
-0.48876063460993463,-0.48876063460993463,1.0000357626282093,4.566220322340617e-05
-0.4879640370541892,-0.4879640370541892,0.9999711701044267,4.5666463066928165e-05
-0.4868233894048899,-0.4868233894048899,0.9999966832542799,4.564078659290682e-05
-0.48570152163374586,-0.48570152163374586,0.999931278520436,4.56590661904371e-05
-0.4844420704022923,-0.4844420704022923,1.000015566022831,4.563001958448532e-05
-0.48320866003705304,-0.48320866003705304,0.9999918549411506,4.564267096104377e-05
-0.4823390138211835,-0.4823390138211835,0.9999744030984645,4.560842196621481e-05
-0.4816644264603383,-0.4816644264603383,0.9999872442794292,4.565426111392369e-05
-0.48057159029413016,-0.48057159029413016,1.000023664831648,4.569127221049393e-05
-0.4785381136527576,-0.4785381136527576,1.0000483216477616,4.5636140214422384e-05
-0.4766153353833943,-0.4766153353833943,1.0000031701680654,4.564654764046425e-05
-0.47534771888022076,-0.47534771888022076,0.9999447922131679,4.562774691374738e-05
-0.47293478847204823,-0.47293478847204823,0.9999962351053202,4.5686796988800764e-05
-0.47208341369769186,-0.47208341369769186,0.9999582357591134,4.564329356369304e-05
-0.47149137958913345,-0.47149137958913345,1.0000368283925636,4.566196402008389e-05
-0.47035706083552214,-0.47035706083552214,1.0001082393250935,4.5646827718204574e-05
-0.46965534802293407,-0.46965534802293407,0.9999965511740412,4.562942339610881e-05
-0.4688193244874128,-0.4688193244874128,0.999969209658764,4.5670794900073554e-05
-0.46739295687002597,-0.46739295687002597,0.9999531611926054,4.564780068302553e-05
-0.46619373358989835,-0.46619373358989835,0.9999618606304793,4.566679181799608e-05
-0.46470021784407434,-0.46470021784407434,1.0000613383007384,4.5650062586970916e-05
-0.46374475193224496,-0.46374475193224496,1.0000149124804716,4.561223964581295e-05
-0.4625103006263089,-0.4625103006263089,0.9999664478075345,4.561348159177373e-05
-0.4619350978369766,-0.4619350978369766,1.0000052408049136,4.567759326482887e-05
-0.45945205528332733,-0.45945205528332733,0.9999984434605379,4.560331677623182e-05
-0.45756755221445927,-0.45756755221445927,0.9999411784806232,4.5649166158690766e-05
-0.45601914413709893,-0.45601914413709893,0.9999187338058864,4.5636143309212785e-05
-0.4539561108809721,-0.4539561108809721,1.0000590633087583,4.560630585332118e-05
-0.4521508750607609,-0.4521508750607609,0.999932692829433,4.561656356384334e-05
-0.450317236045521,-0.450317236045521,1.0000725433223014,4.564318291529959e-05
-0.4487442243502301,-0.4487442243502301,0.999929807615451,4.562398475860886e-05
-0.4477811252785614,-0.4477811252785614,1.0000483067178676,4.560762226968479e-05
-0.4465508647932438,-0.4465508647932438,1.0000151648308075,4.565786795608213e-05
-0.4451352930038411,-0.4451352930038411,0.9999805532481056,4.5572464895143896e-05
-0.4441714984663122,-0.4441714984663122,1.0000063721119434,4.56664060249682e-05
-0.4426238740190456,-0.4426238740190456,0.9999424094368091,4.5634794245619554e-05
-0.44155171073507515,-0.44155171073507515,0.9999903124247277,4.56967576513958e-05
-0.440169971899013,-0.440169971899013,1.000020938967074,4.562714507704356e-05
-0.4386837821730296,-0.4386837821730296,0.9999069423729523,4.563096092276181e-05
-0.43704777848834053,-0.43704777848834053,0.9999687483291659,4.566414073996705e-05
-0.4354782344533305,-0.4354782344533305,0.9999803710734849,4.562678887634648e-05
-0.43419454341274105,-0.43419454341274105,0.9999887364176698,4.564906455662871e-05
-0.4330409992406203,-0.4330409992406203,1.0000109839668352,4.563377553834161e-05
-0.4320769578225736,-0.4320769578225736,0.999973429832169,4.563991060684299e-05
-0.4311347833034233,-0.4311347833034233,1.0000189507941992,4.56429665492924e-05
-0.42972180986980674,-0.42972180986980674,1.000066731617966,4.564914759225909e-05
-0.42838021630232104,-0.42838021630232104,1.000030879583226,4.5620049771368755e-05
-0.42684536246524657,-0.42684536246524657,0.9999903991628409,4.5704305781017885e-05
-0.42540198601564044,-0.42540198601564044,1.0000280162772912,4.5617350521394036e-05
-0.42401714127699963,-0.42401714127699963,1.0000365468424484,4.568531745536795e-05
-0.42274422148911983,-0.42274422148911983,0.9999640951569507,4.566113164063359e-05
-0.42196251366476645,-0.42196251366476645,0.9999785149610363,4.563790879893991e-05
-0.4202965214775759,-0.4202965214775759,0.9999735553284456,4.5649753702152044e-05
-0.4186430704408849,-0.4186430704408849,0.9999901765361227,4.563987657981443e-05
-0.4180364121340972,-0.4180364121340972,1.00001294768581,4.5645953280469564e-05
-0.4169910925294971,-0.4169910925294971,0.9999650447219836,4.566014093272154e-05
-0.41593082467588827,-0.41593082467588827,1.0000528368304358,4.564857435130875e-05
-0.4153171997393656,-0.4153171997393656,0.9999950549949238,4.5634289494989305e-05
-0.41408776371827116,-0.41408776371827116,1.000004174313145,4.5638134237630545e-05
-0.41293865445768463,-0.41293865445768463,0.9999955947677144,4.567483969365838e-05
-0.41113516748300755,-0.41113516748300755,1.000069536125156,4.566532871233749e-05
-0.4095175947615644,-0.4095175947615644,1.0000254305425653,4.5639814415395774e-05
-0.4064389041035611,-0.4064389041035611,1.000042111144639,4.562649470684798e-05
-0.4046419719910773,-0.4046419719910773,1.0001086209078789,4.5610930125569656e-05
-0.40269402428457396,-0.40269402428457396,0.9999978732919056,4.5611138980735565e-05
-0.4003573624911951,-0.4003573624911951,1.000099329335808,4.560108724375074e-05
-0.3977779105603986,-0.3977779105603986,1.0000033039152076,4.564735531649132e-05
-0.39633968333073427,-0.39633968333073427,1.000002225449737,4.5591926266066206e-05
-0.3951924308137677,-0.3951924308137677,1.0000064256989964,4.5620123516921274e-05
-0.39423453482377224,-0.39423453482377224,0.9999341639888242,4.562167666841768e-05
-0.39268708770832744,-0.39268708770832744,0.9999778046436578,4.562862018818661e-05
-0.39106502962094963,-0.39106502962094963,0.9999754658157147,4.5610617903744534e-05
-0.3896088336754474,-0.3896088336754474,1.0000126005026284,4.5609135548759605e-05
-0.3879880934553512,-0.3879880934553512,1.0000094799407677,4.5662741426576774e-05
-0.386750764829776,-0.386750764829776,1.000007804364118,4.5630045162616e-05
-0.38533719636980096,-0.38533719636980096,1.0000176937073275,4.562390218403172e-05
-0.38402133368581415,-0.38402133368581415,0.9999698624003907,4.565692428290834e-05
-0.38298708084475946,-0.38298708084475946,1.0000661432133302,4.567134304943499e-05
-0.3822083272614691,-0.3822083272614691,1.0000312381407703,4.5659277361296654e-05
-0.38096104294454564,-0.38096104294454564,1.0000405430026007,4.563745384396726e-05
-0.38008815650318867,-0.38008815650318867,1.0000367534968084,4.5647052587547034e-05
-0.37874139586565436,-0.37874139586565436,1.0000044087000637,4.565467341494673e-05
-0.37768178389669627,-0.37768178389669627,1.0000369476734938,4.5618468598637645e-05
-0.3766993759199977,-0.3766993759199977,1.000021924121197,4.5622995727344874e-05
-0.3758819140930427,-0.3758819140930427,1.0000382657509794,4.569855046985681e-05
-0.37408464835680205,-0.37408464835680205,0.9999807902064839,4.564783276321877e-05
-0.3717161671935173,-0.3717161671935173,1.0000118978501074,4.5659800192722865e-05
-0.37094200904102764,-0.37094200904102764,1.0000052730155637,4.563501870441591e-05
-0.3693836722341075,-0.3693836722341075,0.9999441309529807,4.5671823873456894e-05
-0.36757711853060754,-0.36757711853060754,1.0000381155594096,4.567069485753352e-05
-0.3667506480735028,-0.3667506480735028,1.0000134184526546,4.567078043824632e-05
-0.36629328381532106,-0.36629328381532106,1.0000209052481055,4.564918556827947e-05
-0.36520718723331813,-0.36520718723331813,0.9999490849735985,4.565579241774958e-05
-0.36428870421586906,-0.36428870421586906,1.0000594868945538,4.5612223691907265e-05
-0.36343601110129387,-0.36343601110129387,1.000003374373027,4.5669153927223404e-05
-0.36200901627235,-0.36200901627235,1.0000190097384762,4.564977385155221e-05
-0.3608105740444444,-0.3608105740444444,1.0000005111172026,4.566652728375056e-05
-0.359234496748104,-0.359234496748104,1.0000386121267741,4.56404534294603e-05
-0.35821089652745286,-0.35821089652745286,0.9998786588270775,4.561135925552566e-05
-0.357042301374895,-0.357042301374895,0.9999811838516294,4.5605709097902474e-05
-0.35582676150806947,-0.35582676150806947,1.000030312390313,4.5649331122693395e-05
-0.3535038281326706,-0.3535038281326706,0.9999442301284214,4.560771153787849e-05
-0.3516071780955826,-0.3516071780955826,1.0000286272971743,4.567054583907262e-05
-0.3495876233442686,-0.3495876233442686,1.0000353762553686,4.558752912933868e-05
-0.3479171218074043,-0.3479171218074043,1.000022365432621,4.563302244473359e-05
-0.3466910829258268,-0.3466910829258268,0.9999276608436072,4.560086542956717e-05
-0.34503314018948006,-0.34503314018948006,1.0000799849933681,4.563230777415285e-05
-0.34335998498863773,-0.34335998498863773,0.9999983470066551,4.562457929206443e-05
-0.34226471063666397,-0.34226471063666397,0.9999883371042413,4.559881710063856e-05
-0.34045724470561256,-0.34045724470561256,0.9999498386552055,4.5606448460989566e-05
-0.3393221729864308,-0.3393221729864308,1.000039435088946,4.56262242108121e-05
-0.33826115334959467,-0.33826115334959467,0.9999546776580164,4.5668212533731686e-05
-0.33703716854943194,-0.33703716854943194,0.9999909814794865,4.566004598266089e-05
-0.33612253135142967,-0.33612253135142967,0.999989903213458,4.570032344342898e-05
-0.3348423373805417,-0.3348423373805417,0.9999822833660998,4.562501293115545e-05
-0.33352722864510725,-0.33352722864510725,1.0000181015501137,4.563194741595389e-05
-0.3319965116563253,-0.3319965116563253,1.0000419462294832,4.566835949457297e-05
-0.3304861113749212,-0.3304861113749212,0.9999630815703385,4.563840916207381e-05
-0.3291689740064612,-0.3291689740064612,1.000042865042442,4.5649945193476584e-05
-0.32791121574191495,-0.32791121574191495,0.9999678230507835,4.56353731458785e-05
-0.32685686880067805,-0.32685686880067805,0.9999991682318567,4.564488421948078e-05
-0.32602500679859076,-0.32602500679859076,1.000065548319624,4.562281792646148e-05
-0.32458897743272247,-0.32458897743272247,1.000003832746021,4.563953236729927e-05
-0.3234430395401432,-0.3234430395401432,0.9999491120405276,4.564038493333041e-05
-0.3224322694462899,-0.3224322694462899,0.9999476052209715,4.563580516576652e-05
-0.32070237484804237,-0.32070237484804237,0.999955881742767,4.5677610024842004e-05
-0.3194784920415259,-0.3194784920415259,0.9999967329296602,4.563481043054139e-05
-0.3178111457040359,-0.3178111457040359,1.0000453779529315,4.565169386560523e-05
-0.316926775733009,-0.316926775733009,0.9999684141874873,4.567773241047217e-05
-0.315492558216647,-0.315492558216647,1.0000098650998521,4.563289502270322e-05
-0.3138507453535567,-0.3138507453535567,1.0000602814643014,4.568236067628529e-05
-0.31274691442013136,-0.31274691442013136,1.0000050134830638,4.5608822146820445e-05
-0.31160772490839006,-0.31160772490839006,0.9999993261074763,4.566216099225223e-05
-0.31046448439228697,-0.31046448439228697,0.9999484739147725,4.5646627634940144e-05
-0.30952998503780693,-0.30952998503780693,1.0000468263098181,4.563362629507842e-05
-0.3082649186602794,-0.3082649186602794,1.0000006812567768,4.566742514057891e-05
-0.3069676586223068,-0.3069676586223068,1.0000033801013217,4.567839032198108e-05
-0.3051334774652787,-0.3051334774652787,1.0000184660444638,4.5659629805862394e-05
-0.30266766289132646,-0.30266766289132646,0.9999879169997714,4.5613512823527647e-05
-0.3003172600765538,-0.3003172600765538,1.000019071459703,4.564086917103333e-05
-0.29776924588077236,-0.29776924588077236,0.9999791002162871,4.561126055290454e-05
-0.2960716879329993,-0.2960716879329993,0.9999741891087114,4.5619349428345516e-05
-0.2944739918813866,-0.2944739918813866,0.999975294753104,4.5600114394579574e-05
-0.2918243415020697,-0.2918243415020697,1.0000547104157755,4.562148823406297e-05
-0.2904981015111844,-0.2904981015111844,1.000035314646258,4.5588133806563226e-05
-0.2893744857807178,-0.2893744857807178,0.9999822705201181,4.56223168806214e-05
-0.2881204679586517,-0.2881204679586517,0.999983603222027,4.562453554752545e-05
-0.28633170930916096,-0.28633170930916096,0.9999347373468754,4.562447914880162e-05
-0.2845159495511325,-0.2845159495511325,1.0000694466621236,4.565165631601395e-05
-0.2834090975113213,-0.2834090975113213,0.9999607792454654,4.561635456089198e-05
-0.28185083052085247,-0.28185083052085247,0.9999996252368002,4.5651750487359365e-05
-0.2804992202538415,-0.2804992202538415,0.9999991537213109,4.565958793284712e-05
-0.27915311718024893,-0.27915311718024893,1.0000097385057316,4.562651807652777e-05
-0.277992240920139,-0.277992240920139,0.9999715112194034,4.5660808634010494e-05
-0.2770435315127543,-0.2770435315127543,0.9999906746007191,4.5652647742899183e-05
-0.2758223843477026,-0.2758223843477026,0.9999527328993727,4.563804349107274e-05
-0.2747042967886955,-0.2747042967886955,0.999934071188769,4.5645042972069195e-05
-0.27355166639390516,-0.27355166639390516,1.0000037569690687,4.5651757407764844e-05
-0.27244099006420586,-0.27244099006420586,1.0000166395811192,4.56449464642858e-05
-0.27152810061743365,-0.27152810061743365,1.0000654944818266,4.562745970547985e-05
-0.2705561187111016,-0.2705561187111016,1.0000502532126665,4.5678450999032816e-05
-0.26901092757325384,-0.26901092757325384,1.000022722872356,4.564711305061197e-05
-0.2671544774595532,-0.2671544774595532,0.9999879539246924,4.565509917836105e-05
-0.2658807530060585,-0.2658807530060585,1.000036527719218,4.56678721859776e-05
-0.26514422042746444,-0.26514422042746444,1.0000070750928214,4.5658169281213235e-05
-0.2629878756160906,-0.2629878756160906,0.999978653313164,4.566349379216917e-05
-0.26144228966513766,-0.26144228966513766,0.999974767793991,4.5670529123508905e-05
-0.26109946423239305,-0.26109946423239305,1.000057341572163,4.5644442718807075e-05
-0.2603068919401267,-0.2603068919401267,0.9999795934030018,4.5654868856661674e-05
-0.2591459222821868,-0.2591459222821868,1.0000112254652571,4.563688052036288e-05
-0.2584646320276079,-0.2584646320276079,1.0000512627926206,4.568031612045392e-05
-0.25720329797550223,-0.25720329797550223,1.0000346854858824,4.563188523025011e-05
-0.2564003323794168,-0.2564003323794168,1.0000744431816595,4.56521835167382e-05
-0.2552653031358204,-0.2552653031358204,1.0000269577698886,4.565865873534485e-05
-0.25371808441195753,-0.25371808441195753,1.0000268024276244,4.5633645550940335e-05
-0.2522366874938598,-0.2522366874938598,0.9999764840411638,4.5605951407045284e-05
-0.251410980997025,-0.251410980997025,1.0000388637539377,4.565650083601087e-05
-0.24945196825283347,-0.24945196825283347,0.9999815649255996,4.562745665871765e-05
-0.24739236147652263,-0.24739236147652263,1.0000569344355523,4.5630286127975116e-05
-0.2454693497144035,-0.2454693497144035,0.9999377522737994,4.561818947094692e-05
-0.24288208335929085,-0.24288208335929085,1.00004803075185,4.5604094376790304e-05
-0.24115353140005027,-0.24115353140005027,1.0000357349983338,4.56288034254755e-05
-0.2396493500280485,-0.2396493500280485,0.9999500024035777,4.5630000132837014e-05
-0.23786312310912763,-0.23786312310912763,0.999988335341367,4.563658187602327e-05
-0.23720865228751792,-0.23720865228751792,0.9999809560589151,4.563809888160894e-05
-0.23594675566928344,-0.23594675566928344,0.9998797078846092,4.5598521067655426e-05
-0.23413349717957316,-0.23413349717957316,0.9999575694450418,4.5613946902522685e-05
-0.23267854832520243,-0.23267854832520243,1.000049942553782,4.563974136569971e-05
-0.23140512807513006,-0.23140512807513006,1.0000044406960071,4.566964973200893e-05
-0.2300337270309683,-0.2300337270309683,0.9999628302424004,4.5645060927921306e-05
-0.22889558780007063,-0.22889558780007063,0.999984568471563,4.563812282080475e-05
-0.2273879027525254,-0.2273879027525254,1.000093274702221,4.566593384032316e-05
-0.2260624383110553,-0.2260624383110553,0.9999788739232507,4.565233473398214e-05
-0.22487212996056768,-0.22487212996056768,0.999990196439339,4.565826755651907e-05
-0.22378493104697555,-0.22378493104697555,0.999984275289479,4.5649534032529653e-05
-0.22252731030530412,-0.22252731030530412,1.0000495265157876,4.563560206499491e-05
-0.2215452315911534,-0.2215452315911534,0.9999875373381389,4.5628103717902205e-05
-0.22079628206192864,-0.22079628206192864,0.9999937900750752,4.561064325501246e-05
-0.21970671119270263,-0.21970671119270263,0.9999403065869872,4.560810045552093e-05
-0.2186310668323131,-0.2186310668323131,1.0000390570564108,4.5661614127294254e-05
-0.21704985190517617,-0.21704985190517617,1.0000696596423997,4.562476532329439e-05
-0.21501220466816448,-0.21501220466816448,0.9999927942085088,4.564509613696178e-05
-0.21409478604400647,-0.21409478604400647,1.0000109260892487,4.563659647087922e-05
-0.21242671351355966,-0.21242671351355966,1.0000578044690442,4.565146107192792e-05
-0.21156200344776152,-0.21156200344776152,1.0000369030542848,4.566565510612408e-05
-0.21021444613943457,-0.21021444613943457,1.0000378789753175,4.568203966999894e-05
-0.2091252709258697,-0.2091252709258697,0.9999632705221855,4.563929310734938e-05
-0.2076595377722697,-0.2076595377722697,1.000036023868223,4.563596990503558e-05
-0.20676704592697207,-0.20676704592697207,1.0000105434967763,4.564494924677835e-05
-0.20558687581069535,-0.20558687581069535,1.0000477294474541,4.5655184781120156e-05
-0.20473412227875087,-0.20473412227875087,1.000033894018166,4.56476282962286e-05
-0.20373884819709928,-0.20373884819709928,0.9999933142505986,4.567702869682238e-05
-0.2026847496519622,-0.2026847496519622,0.9999660535528273,4.5625017364802987e-05
-0.20112148472981062,-0.20112148472981062,0.9999671210101886,4.567469554098114e-05
-0.19920462096342817,-0.19920462096342817,1.0000187338966122,4.5639512605234425e-05
-0.19647532323942868,-0.19647532323942868,0.9999839885118422,4.566418124340864e-05
-0.19447100040488294,-0.19447100040488294,0.9999746383927786,4.561125066654256e-05
-0.19192667840761715,-0.19192667840761715,1.000090908853041,4.561298094241037e-05
-0.1895897000846162,-0.1895897000846162,1.0000082122295701,4.560091354589636e-05
-0.1872741388702707,-0.1872741388702707,1.000037926311119,4.562128213635334e-05
-0.18580016089981655,-0.18580016089981655,0.9999687639289631,4.56173176649628e-05
-0.18460024032101502,-0.18460024032101502,0.9999872620271866,4.561966947918457e-05
-0.18335659931326517,-0.18335659931326517,1.0000765799467293,4.5599992993325595e-05
-0.18190515409369254,-0.18190515409369254,1.0000107471489408,4.565766849475616e-05
-0.18004220009825075,-0.18004220009825075,1.0000317159385808,4.5607115499884924e-05
-0.17856293325894512,-0.17856293325894512,1.0000326481131099,4.562515877224461e-05
-0.1775763769801415,-0.1775763769801415,1.0000683681180564,4.5644853153169665e-05
-0.17622240952841822,-0.17622240952841822,1.0000641976178735,4.563734093385672e-05
-0.17496757321132464,-0.17496757321132464,0.9999886941933237,4.564884687759663e-05
-0.1734600149502512,-0.1734600149502512,1.0000739966908423,4.562638074674314e-05
-0.17206599808923784,-0.17206599808923784,1.0000246395392511,4.566824829279697e-05
-0.17115168898744743,-0.17115168898744743,1.0000197936964201,4.5627592213902567e-05
-0.16998525103917927,-0.16998525103917927,0.9999647894617416,4.563147277883365e-05
-0.16897010079337632,-0.16897010079337632,1.0000114829637365,4.56699451746356e-05
-0.167821902497235,-0.167821902497235,0.9999518513577053,4.564134780906666e-05
