time,time,flux,flux_err
-0.49993038164150977,-0.49993038164150977,1.0001410450972996,0.00013147228495582268
-0.4997139064895843,-0.4997139064895843,1.000192073027181,0.00013646175305591103
-0.4994785685776151,-0.4994785685776151,1.0001550696463413,0.00014614503597006675
-0.4993699149810709,-0.4993699149810709,1.0000077432770849,0.00013071289431754738
-0.4992720557871507,-0.4992720557871507,0.9999735807889648,0.00011858393808070861
-0.49914655584434514,-0.49914655584434514,0.9999919452352868,0.0001422995931107856
-0.4990645378624322,-0.4990645378624322,0.9998957330578124,0.00012904592678873993
-0.49894141871482134,-0.49894141871482134,1.0001581793127237,0.00012483662453056146
-0.49870322575152387,-0.49870322575152387,1.000080770252147,0.00012724374041410316
-0.49853051560057793,-0.49853051560057793,1.0001362798959723,0.00011938073288703661
-0.4983132144843694,-0.4983132144843694,0.9999481194934065,0.00012194763726693908
-0.49819140759354924,-0.49819140759354924,0.9999960637467673,0.0001291497559010055
-0.49807168779952915,-0.49807168779952915,0.9999813128023014,0.00012649707888557133
-0.49787774322903716,-0.49787774322903716,0.9999939326882771,0.00013848748976544686
-0.49771745897596703,-0.49771745897596703,1.0001264107855803,0.00012471370793761156
-0.49760114602104294,-0.49760114602104294,1.0000977002806821,0.00012447314702313157
-0.49750005948590115,-0.49750005948590115,1.0001226541096702,0.00013020505738908062
-0.4974064688431099,-0.4974064688431099,0.9999777208714296,0.00012439900399901837
-0.4973106401652331,-0.4973106401652331,1.0000492953758315,0.00013136977681269324
-0.49719421786430756,-0.49719421786430756,1.0000534787960054,0.00012536882596440237
-0.4971065070654731,-0.4971065070654731,0.9999768960232792,0.00012203573349747999
-0.4969657138164621,-0.4969657138164621,0.9999539178376174,0.000127748795416912
-0.4968188562139403,-0.4968188562139403,0.9999048037311231,0.00013648219546431457
-0.4966902489919448,-0.4966902489919448,1.0001318027197972,0.00012544987075855348
-0.496546228529769,-0.496546228529769,0.9999786174017016,0.00012757859535908011
-0.4964116024406394,-0.4964116024406394,1.0001482150051513,0.00012537953395015826
-0.4962630166002782,-0.4962630166002782,0.9999194342505696,0.00013219218278834414
-0.4960323457868071,-0.4960323457868071,0.9999505789102535,0.00012194411909304895
-0.49591570189222695,-0.49591570189222695,1.000100105927674,0.0001312599342916235
-0.4957102096086601,-0.4957102096086601,0.9999077739996414,0.00012514444103330194
-0.4955855833395617,-0.4955855833395617,1.000124242516146,0.0001235444050690132
-0.4953981931350427,-0.4953981931350427,1.0000781392214668,0.00012558190374706277
-0.4953083982487442,-0.4953083982487442,1.0000743827833087,0.00013134278797538365
-0.49518135307880584,-0.49518135307880584,0.9999258395826376,0.0001301230150486461
-0.49500666245876346,-0.49500666245876346,0.9998460445648998,0.000129019014885866
-0.4949275299703004,-0.4949275299703004,0.9999923918760031,0.00012758277679641812
-0.4948596290196292,-0.4948596290196292,0.9999659003486359,0.00013219197518719582
-0.49470041251333896,-0.49470041251333896,0.999822833299343,0.00012747119562650557
-0.4945725792378653,-0.4945725792378653,1.000075389278741,0.00012575298305868792
-0.4944696369493613,-0.4944696369493613,0.9999759472843144,0.00012051067387412016
-0.49430939586018213,-0.49430939586018213,0.9999927964157275,0.0001244665672501646
-0.4941702418582281,-0.4941702418582281,0.9998812175840595,0.00012372731165186267
-0.4940580918249907,-0.4940580918249907,1.0000661649003997,0.0001239515481815219
-0.49380729935655837,-0.49380729935655837,0.9999741722528069,0.00013534956098904793
-0.4936386706482153,-0.4936386706482153,1.000007459479151,0.00012809869438197804
-0.4935437144362368,-0.4935437144362368,0.9999470024528572,0.0001421063127602068
-0.4933656656270614,-0.4933656656270614,1.000093287272485,0.00012320051240065783
-0.49325167848437557,-0.49325167848437557,0.9997609783836785,0.00013747708592352697
-0.4931263217178639,-0.4931263217178639,0.9999257035790213,0.00012781452059662328
-0.4929843565012561,-0.4929843565012561,0.9998431395625109,0.00012706442470985095
-0.49281430123373865,-0.49281430123373865,0.9999142540803039,0.00013232096702036657
-0.4926718087110203,-0.4926718087110203,1.0000011566828142,0.0001364219584759276
-0.4925688943447312,-0.4925688943447312,1.000164540193209,0.00012376274748865666
-0.4924850497831358,-0.4924850497831358,1.0000627256593426,0.00012526821574231637
-0.49232387922820636,-0.49232387922820636,1.0000914154731326,0.00013196586740516828
-0.49222140687925275,-0.49222140687925275,1.00016531898706,0.00012707649456538984
-0.49210259965911973,-0.49210259965911973,1.0001169040738378,0.00014033597824011896
-0.49190385537513065,-0.49190385537513065,0.9998372225809083,0.000130298795778625
-0.49171508367871863,-0.49171508367871863,0.999877772876536,0.0001276085512153256
-0.491530317888828,-0.491530317888828,0.9999866374502279,0.00013129354432754595
-0.49138836485508364,-0.49138836485508364,0.999933429806742,0.0001249262056796448
-0.49124155795143454,-0.49124155795143454,0.9999877590359917,0.0001279207433947573
-0.491059871923062,-0.491059871923062,0.9999548379966811,0.00013087251161718615
-0.490908324578777,-0.490908324578777,1.0001451803120684,0.00012993024804043408
-0.4907461930328282,-0.4907461930328282,0.9998900172641225,0.00013004442960668
-0.4906307408818975,-0.4906307408818975,0.9998997134845178,0.00013483153882107117
-0.49049688739469277,-0.49049688739469277,0.9998822256931682,0.00013141690630627377
-0.49032039944140704,-0.49032039944140704,1.0001061731552645,0.00012214037929478427
-0.4900619259395171,-0.4900619259395171,1.0001238213672161,0.00012852232798935825
-0.49000239398155826,-0.49000239398155826,1.0000206994648742,0.00012278200133188327
-0.4899529529095162,-0.4899529529095162,1.0000666753005405,0.00012211654168123052
-0.4899095825210679,-0.4899095825210679,1.0000271636960207,0.0001235507247035221
-0.48977907104999757,-0.48977907104999757,1.0001498335614252,0.00012503743950786827
-0.489621441354393,-0.489621441354393,0.9999706064223502,0.00013096337003905232
-0.48944411200645843,-0.48944411200645843,0.9999926190529511,0.0001317547171554826
-0.4893620204704348,-0.4893620204704348,0.9999831345352916,0.0001380355494286799
-0.48925101961067413,-0.48925101961067413,0.9999690398121525,0.0001276163341899362
-0.48904428448004184,-0.48904428448004184,1.000172225366349,0.00012888841192414924
-0.4888407303165877,-0.4888407303165877,0.99984490184143,0.00012738941535477054
-0.48868612142978235,-0.48868612142978235,0.999986536365377,0.0001326304816873988
-0.4885495049675228,-0.4885495049675228,1.000053322944829,0.00012473557343835098
-0.48840808239765465,-0.48840808239765465,1.00002312017685,0.00012650435930763236
-0.488317804725375,-0.488317804725375,1.0000209173892356,0.00012734882170805647
-0.4881599195941817,-0.4881599195941817,0.9999161518108173,0.00012493403612909643
-0.48806487634719814,-0.48806487634719814,1.0001543148612326,0.00012954005084002613
-0.48794382345513443,-0.48794382345513443,0.9999227487118887,0.00013270593352738877
-0.48777280302601866,-0.48777280302601866,1.0000178553227204,0.00012388214446454516
-0.4876574839232489,-0.4876574839232489,1.0000592038561202,0.00012418213949787126
-0.48760588229342827,-0.48760588229342827,1.0000029155571857,0.00013113319313746419
-0.4874273954686942,-0.4874273954686942,0.9998816763091686,0.0001341941098550466
-0.48729929232795255,-0.48729929232795255,0.9999673372774183,0.00012709176558882082
-0.4871852894866606,-0.4871852894866606,0.9999051918767641,0.00012489343112349804
-0.48708168348530306,-0.48708168348530306,1.0000604926637287,0.00012425125588818702
-0.4869496683153557,-0.4869496683153557,0.9999830058444147,0.00012906616676366925
-0.4868474788236199,-0.4868474788236199,0.9999308059583403,0.0001317933024011337
-0.48672303078928963,-0.48672303078928963,0.9998659313691881,0.00012780602444028265
-0.4866340366570512,-0.4866340366570512,1.0000616020776198,0.00012515155703279578
-0.4865715659514535,-0.4865715659514535,0.9997203187852002,0.00012706519992500604
-0.48644283015746625,-0.48644283015746625,0.9998880421255472,0.0001392296230797537
-0.4863600132317515,-0.4863600132317515,1.0000557597873905,0.0001258760558642334
-0.4862170887441607,-0.4862170887441607,0.9998593522602113,0.0001220969115001886
-0.4859980374778388,-0.4859980374778388,0.9998094585731309,0.00012546095526694628
-0.48572085579799024,-0.48572085579799024,1.0000837774752298,0.00012538211315568995
-0.4855579732975457,-0.4855579732975457,0.999932767431883,0.0001239817562602692
-0.4854540829837788,-0.4854540829837788,0.9999786291573354,0.00012437917392234987
-0.4853143414191436,-0.4853143414191436,1.0001258880221524,0.0001375869560836315
-0.48514917147695086,-0.48514917147695086,0.9997790095824154,0.00012005324152053656
-0.4850412854371825,-0.4850412854371825,0.9998252025800765,0.0001328078001893258
-0.48494075840571893,-0.48494075840571893,1.0001326676415712,0.00013979930495744495
-0.484819167907699,-0.484819167907699,1.0002744539302484,0.00012314933766860106
-0.4847000932903029,-0.4847000932903029,1.0000997157128404,0.00012573919171634978
-0.48454789208481086,-0.48454789208481086,0.9999359598149014,0.00012513150186771327
-0.4843730057851644,-0.4843730057851644,1.0000318558900305,0.00012655413847757803
-0.4841832750942558,-0.4841832750942558,1.0000877329140114,0.00012480642016092215
-0.4839542766858358,-0.4839542766858358,0.9999165056936292,0.0001288763324461334
-0.4837624574051006,-0.4837624574051006,1.0001494188059017,0.00012857429374133275
-0.4836850810417673,-0.4836850810417673,0.9998901992071847,0.00013222678431367942
-0.4835705369885545,-0.4835705369885545,0.9999556182715945,0.00013011133538201686
-0.483390589125338,-0.483390589125338,0.9999550258566965,0.00013683750442265504
-0.48327060222509316,-0.48327060222509316,0.9999142262483897,0.0001309149530568486
-0.48319090049189983,-0.48319090049189983,1.0002545670755367,0.0001280946235613446
-0.4829920542630134,-0.4829920542630134,1.000061826497517,0.00012297806404641486
-0.48284903779567684,-0.48284903779567684,1.0001055703380575,0.00012692187897376405
-0.4827670983708231,-0.4827670983708231,0.9999807662233859,0.00013824335868940237
-0.4827241836639587,-0.4827241836639587,0.9997537149948992,0.00012314296293103864
-0.4826450779422885,-0.4826450779422885,1.0004101383661101,0.00012462758083360169
-0.48250550440861845,-0.48250550440861845,1.0000162158169599,0.00012468071630237219
-0.4823902911535697,-0.4823902911535697,0.9999695072503995,0.00012613867908031854
-0.48224859619804195,-0.48224859619804195,1.0002979805432335,0.00012868176698466597
-0.48207350726588627,-0.48207350726588627,0.9999506258622223,0.0001336228632464911
-0.48198371688486075,-0.48198371688486075,1.0000107295322136,0.0001255408301594324
-0.4818825056689093,-0.4818825056689093,1.000097858219844,0.00012705685385926076
-0.4816415236302419,-0.4816415236302419,1.0002912899626284,0.00012935621693840608
-0.481466113741044,-0.481466113741044,0.9999614129244085,0.00012617854847187974
-0.4813010137033416,-0.4813010137033416,1.0001651393715947,0.00012292573867035982
-0.48114528234291354,-0.48114528234291354,0.9998510522592197,0.00013390895118023946
-0.4809716511197621,-0.4809716511197621,0.9999687836534434,0.00013127269652960522
-0.48078015286882875,-0.48078015286882875,0.9998086728089532,0.00013081358869176604
-0.480654959459207,-0.480654959459207,1.0000917286405624,0.00013370614552375037
-0.4804624542506645,-0.4804624542506645,0.9998439577910254,0.00012558517107307912
-0.48034644561412276,-0.48034644561412276,1.0000472257018922,0.00012444384977595695
-0.48025180501572323,-0.48025180501572323,1.0000429880202077,0.00012400332876451032
-0.48004327482776715,-0.48004327482776715,0.9999061194734061,0.000135543921446957
-0.4798365718510468,-0.4798365718510468,1.0000277264939055,0.0001229879992854687
-0.47962160760944245,-0.47962160760944245,0.9999036633483624,0.00012873286262327113
-0.4795154683524743,-0.4795154683524743,1.0000138272802102,0.0001330258995721293
-0.4794035446131602,-0.4794035446131602,0.999812867068585,0.0001350196724748443
-0.47929806741594805,-0.47929806741594805,1.0001374155723484,0.00012193846152545938
-0.479180999865639,-0.479180999865639,0.999945899364098,0.00013631351167542877
-0.47904920027940534,-0.47904920027940534,0.9999723597296459,0.0001298254094842595
-0.4789093900559237,-0.4789093900559237,0.9997532749541709,0.00013080984377717136
-0.47870550174848175,-0.47870550174848175,1.0000558480482074,0.00013074011830717884
-0.4785912655555876,-0.4785912655555876,0.9999899700050143,0.00013089213233284327
-0.47848754919541536,-0.47848754919541536,0.9998206818005482,0.0001241962166600852
-0.4783106981107267,-0.4783106981107267,1.0000164710935993,0.00013422748754483388
-0.47815367429575417,-0.47815367429575417,1.0000937330946662,0.00012400956303481282
-0.4780584572814405,-0.4780584572814405,0.9999460399369055,0.00012565360823783763
-0.4779931214521639,-0.4779931214521639,1.0000654575404522,0.0001318953998913429
-0.4778320749726845,-0.4778320749726845,1.0000019497318686,0.00012126538010978136
-0.4777660988038406,-0.4777660988038406,1.0001783303434386,0.00013005443712971602
-0.47766172972042115,-0.47766172972042115,1.0000860530537268,0.00012550117693525204
-0.4775983501167502,-0.4775983501167502,0.9998999729053928,0.00012438960041297534
-0.47752212755731305,-0.47752212755731305,1.0001296587183508,0.00013543913523623083
-0.4773630389332538,-0.4773630389332538,1.0000426323888367,0.0001279305146200943
-0.4772610952175455,-0.4772610952175455,1.0001671143621162,0.00012962390577759596
-0.47707670149102344,-0.47707670149102344,0.9999084454193905,0.00012273753224400092
-0.4769951923924964,-0.4769951923924964,1.0001767038620208,0.0001315627042127249
-0.4769048853690038,-0.4769048853690038,1.0002281720692516,0.00012783470451010518
-0.4768158112448873,-0.4768158112448873,1.0000403100827562,0.00012677122245125218
-0.4767506858246634,-0.4767506858246634,0.9999159306670091,0.00012297154123060998
-0.4765322759078117,-0.4765322759078117,1.0001581576388843,0.0001294335233053045
-0.4763319095101906,-0.4763319095101906,1.000041701158814,0.00012106410178172415
-0.47611332693777514,-0.47611332693777514,1.0001749544104248,0.0001223496533877573
-0.4759389237558935,-0.4759389237558935,1.000080861210905,0.00012381000710056351
-0.47581319181772413,-0.47581319181772413,1.0001069560801217,0.00012104456902083563
-0.47559776940906884,-0.47559776940906884,1.0000236872791033,0.00012487919111101232
-0.4755010094202589,-0.4755010094202589,0.9999590352323965,0.00013533987571208455
-0.4754519492009422,-0.4754519492009422,0.9998057638449925,0.00012197555793130555
-0.4753097446548054,-0.4753097446548054,1.000052518966002,0.00013008796955080415
-0.4752327809605049,-0.4752327809605049,0.9999586243269236,0.00013774624474744844
-0.4751336739922408,-0.4751336739922408,0.9999862197625072,0.00012500893822269853
-0.4750682752666762,-0.4750682752666762,0.9999388637543749,0.0001279108745031201
-0.47489558028173634,-0.47489558028173634,0.9999173806975415,0.00012505818478203773
-0.4746360996214207,-0.4746360996214207,0.9999457450713386,0.00011920525460490006
-0.47446311146195513,-0.47446311146195513,1.000189301596427,0.00012337158591448915
-0.4743078575382242,-0.4743078575382242,0.9998827766359449,0.00011928070550132345
-0.47416191975644323,-0.47416191975644323,0.9999656011529087,0.00013118394727140102
-0.4740021068108035,-0.4740021068108035,0.9999985200299658,0.00012577656330190384
-0.4738545799482381,-0.4738545799482381,1.0000418446618817,0.00013967716214157236
-0.4737224105949281,-0.4737224105949281,0.9998882761461602,0.00012852276174229782
-0.4736178516584914,-0.4736178516584914,1.0001815617010485,0.00012101733531282745
-0.4735403191851219,-0.4735403191851219,1.0001615116954796,0.00012214250379468904
-0.4734670544479741,-0.4734670544479741,1.0001653257297034,0.0001319843596310827
-0.4733274285885273,-0.4733274285885273,1.0002932147477277,0.00013304202018252003
-0.47318186819611585,-0.47318186819611585,1.000024637193477,0.0001240735988981092
-0.4730853898770874,-0.4730853898770874,0.9999166992402151,0.00012771964931115534
-0.4728776360774646,-0.4728776360774646,0.9998853486714344,0.00012378826768018574
-0.47278991729253905,-0.47278991729253905,1.0000108485548116,0.00013745045524872406
-0.47270057393470777,-0.47270057393470777,1.0000620923087857,0.00012727045059808783
-0.47252198339556345,-0.47252198339556345,0.9998500610161706,0.00012530834379865656
-0.47236051099316684,-0.47236051099316684,0.9999619869282785,0.00012978305638612926
-0.4722407365916297,-0.4722407365916297,0.9999012783482499,0.00012879883757842015
-0.4720393419091124,-0.4720393419091124,1.000047555284921,0.00012959950158210047
-0.4718513294472359,-0.4718513294472359,1.000104471282135,0.00012615705176089798
-0.4716792756691575,-0.4716792756691575,1.0000498450765751,0.00012209093858238756
-0.4715094976476394,-0.4715094976476394,0.999956915761287,0.0001269549844150499
-0.4713419954612618,-0.4713419954612618,1.0001089971660078,0.00013133954797996973
-0.4712316810619086,-0.4712316810619086,0.9998862453793826,0.00012762308455400341
-0.4710349158383906,-0.4710349158383906,0.9999262577693967,0.0001293572069041925
-0.47097885725670496,-0.47097885725670496,0.9999287430935727,0.00013573782804112938
-0.47083498954889363,-0.47083498954889363,0.9999740596668312,0.00012891280166250189
-0.470695527974749,-0.470695527974749,1.0000616778628397,0.00012483715273992827
-0.47052057484397664,-0.47052057484397664,1.0001561530962744,0.00012165293911654638
-0.4703839038469596,-0.4703839038469596,1.000203284272551,0.00012471818149085344
-0.470264754150412,-0.470264754150412,0.9999840882630838,0.00012469306970854028
-0.470135504665086,-0.470135504665086,1.0000211691474996,0.00012299912974997475
-0.4699866510432912,-0.4699866510432912,0.9999856229868165,0.00012578151906569
-0.4697575245023472,-0.4697575245023472,0.9999387493936563,0.00013159372577310318
-0.4696216726646526,-0.4696216726646526,0.9999285041103951,0.0001392482007921704
-0.4695291142212227,-0.4695291142212227,1.0000481436310913,0.00013055392801518853
-0.46933933267719113,-0.46933933267719113,0.9999528941006739,0.00012249632929464178
-0.4692577089503175,-0.4692577089503175,1.000058597447277,0.0001368024884779864
-0.4690986935514957,-0.4690986935514957,1.0000968284713632,0.00013400411301967336
-0.4688538469228661,-0.4688538469228661,0.9999084384619843,0.00013177290310809994
-0.4687052537541604,-0.4687052537541604,1.0000230390370546,0.00013290679960316584
-0.468637544446392,-0.468637544446392,0.9998733164000461,0.00012989039448906697
-0.4684867292526178,-0.4684867292526178,1.00004640491463,0.00012114710129358823
-0.4683700912253698,-0.4683700912253698,1.0001287865532629,0.00012637604996250834
-0.46829328533203807,-0.46829328533203807,1.000051607197279,0.00013354366537238167
-0.46822047034511344,-0.46822047034511344,1.0001691142781823,0.00013339625662241321
-0.46801901439903304,-0.46801901439903304,0.9998590907696944,0.00014008447364670726
-0.46782428537262605,-0.46782428537262605,1.0001127136349093,0.0001255379861353618
-0.4676041897793766,-0.4676041897793766,0.9999695869303136,0.00012779977955136354
-0.4674815599253634,-0.4674815599253634,1.0001381046180167,0.0001273021855055185
-0.4673171690199524,-0.4673171690199524,0.9999414888578567,0.00012647131518802272
-0.46708252594980876,-0.46708252594980876,1.0000505259586059,0.0001331710285726241
-0.4668867217435036,-0.4668867217435036,0.999835962040971,0.00012851182466599122
-0.46674604594300034,-0.46674604594300034,1.000041861557969,0.0001301849679258029
-0.4666772797703743,-0.4666772797703743,0.9998439862202545,0.00014070884604022916
-0.4664550302986754,-0.4664550302986754,0.9998479439236171,0.00012770370335559643
-0.46617597425938584,-0.46617597425938584,1.0000659032003747,0.00013004605829318008
-0.46606985774706117,-0.46606985774706117,0.9998423643012992,0.00012574776626203074
-0.46601704685308504,-0.46601704685308504,1.000075188247458,0.00012338602948136192
