time,time,flux,flux_err
-0.4998826793344051,-0.4998826793344051,1.0000232365250648,0.00019401005076566537
-0.4997915099185775,-0.4997915099185775,1.0005153141339302,0.0002192773482020508
-0.4997120363928843,-0.4997120363928843,1.0000216201500738,0.0002222661666124236
-0.4995795426097175,-0.4995795426097175,0.9999682754552988,0.00020466853626778642
-0.49948580728305386,-0.49948580728305386,1.0000411411153523,0.0002063845466806045
-0.4993796308146557,-0.4993796308146557,1.0000816890133977,0.00025104881515803176
-0.49922280319296986,-0.49922280319296986,1.000122894685227,0.00018283757983867478
-0.4991295851606992,-0.4991295851606992,1.000011892298827,0.0002011530444854647
-0.49904825555495336,-0.49904825555495336,0.9996893851522772,0.00020926684239360883
-0.49894248754426374,-0.49894248754426374,1.000023322627976,0.0001838442184032045
-0.4988573546615953,-0.4988573546615953,0.9999474737783794,0.0001868625685009232
-0.4986997764739499,-0.4986997764739499,0.9997410328937161,0.0002079904888623967
-0.4986073382016912,-0.4986073382016912,0.9998100210816515,0.00020243007943095484
-0.49843225959921256,-0.49843225959921256,0.999769606292746,0.00021046810583864552
-0.4982674497339758,-0.4982674497339758,1.0000485327970405,0.0002306069058192114
-0.49815092881253803,-0.49815092881253803,0.9999340464557649,0.00021199500647305723
-0.4980251465458423,-0.4980251465458423,1.0003511225924628,0.00018010687201183313
-0.4978722315325285,-0.4978722315325285,1.0000858489884679,0.00022318274866726576
-0.4977607320266543,-0.4977607320266543,0.9999865291687359,0.0002203696220130854
-0.4975934657690232,-0.4975934657690232,0.9999318750066628,0.00023394376865224056
-0.49749140298445127,-0.49749140298445127,0.9997183291683058,0.0001941866122450384
-0.4973438395638368,-0.4973438395638368,0.9997688136857821,0.00023272399446521954
-0.4972161128222069,-0.4972161128222069,0.9999632611665324,0.00017528202003776362
-0.4971354247223644,-0.4971354247223644,1.0000064832869373,0.00020067359543178462
-0.49706886532367206,-0.49706886532367206,0.9999889568071609,0.0001960735634095775
-0.49696147022768855,-0.49696147022768855,0.9999509210934244,0.0001791170434130122
-0.4968303237728833,-0.4968303237728833,0.9999030762399214,0.0001773710383082919
-0.49670691229912334,-0.49670691229912334,0.999719057466064,0.0001890677739730209
-0.49653883647479236,-0.49653883647479236,1.000194131978883,0.0002098487888621199
-0.49643719615924053,-0.49643719615924053,1.0001125989552,0.0002291862007201802
-0.4963415326899849,-0.4963415326899849,0.999879453592961,0.0001806083821370024
-0.4962440588089521,-0.4962440588089521,0.9997627876128989,0.0002214677955311153
-0.49602556874015136,-0.49602556874015136,1.0001048407738709,0.00018608548321623594
-0.4958488995092921,-0.4958488995092921,1.000022813289448,0.0002287206205996523
-0.4957525899029861,-0.4957525899029861,1.0003675932990457,0.00022433230856075864
-0.4957182932259457,-0.4957182932259457,0.9994519570176627,0.00019557966620533757
-0.49556061448311084,-0.49556061448311084,0.9999254321998758,0.00022769229245240457
-0.49535490703929097,-0.49535490703929097,1.0000806425794397,0.00018621943425736542
-0.4952099884583731,-0.4952099884583731,0.9996524105591144,0.0002089460975642785
-0.49511010226924557,-0.49511010226924557,1.0004292223141313,0.00018294589662542815
-0.4950122937138076,-0.4950122937138076,1.0004387203636305,0.00020347927416076344
-0.4949315856123576,-0.4949315856123576,0.9999748177138941,0.00022593982903132602
-0.4947867732742452,-0.4947867732742452,0.9998844965078799,0.00017240095201500992
-0.4946330168429995,-0.4946330168429995,1.000067050920551,0.00019406553743937788
-0.494523024494265,-0.494523024494265,1.0001540172253676,0.00020552450566801097
-0.49440657463492244,-0.49440657463492244,1.0000420435174187,0.00018893799020242718
-0.49430548854215883,-0.49430548854215883,1.0001489847966516,0.0002018271067538208
-0.49422612836642654,-0.49422612836642654,1.0000042799169895,0.00020410259387971695
-0.4940584967000177,-0.4940584967000177,1.0002075696648682,0.00024151781279598992
-0.49394682708007165,-0.49394682708007165,0.9997474540657805,0.00022439890310632505
-0.4938051109056687,-0.4938051109056687,1.0001026609484638,0.000189887370826814
-0.49371041171325486,-0.49371041171325486,1.0001072295982432,0.00023953544514060304
-0.49354566087567947,-0.49354566087567947,0.9998333342130012,0.0001869815244989837
-0.4933259566503693,-0.4933259566503693,0.9998404748820624,0.00021319624081662553
-0.49314748432079797,-0.49314748432079797,1.0001627220939262,0.00020212511905985938
-0.49303894285621935,-0.49303894285621935,1.000085151980329,0.00020567383644438746
-0.4929357088265533,-0.4929357088265533,0.9998977054101774,0.0002609122461961946
-0.4928832477526157,-0.4928832477526157,0.9999415790730628,0.00017460049473126186
-0.4928278344254068,-0.4928278344254068,0.9999974185228915,0.00019334423843785748
-0.49271035191923146,-0.49271035191923146,1.0000071025859585,0.00020429454921915805
-0.4926339823367016,-0.4926339823367016,0.9999250858976826,0.0001986609685025686
-0.49250457422167526,-0.49250457422167526,1.000165586357546,0.0002153026668424592
-0.49240419283814846,-0.49240419283814846,0.9999307654395639,0.0002132313095821662
-0.49227199270753774,-0.49227199270753774,0.9997453940849912,0.0002164941793106999
-0.4921607105927251,-0.4921607105927251,1.000170637335444,0.00018414869700998133
-0.4920429903366312,-0.4920429903366312,1.0004769420356576,0.0001793598425557737
-0.49198850207685607,-0.49198850207685607,1.0000256055861567,0.0002117105781953491
-0.49190830712614114,-0.49190830712614114,1.0000200776813348,0.00020689664869171678
-0.4917767994898895,-0.4917767994898895,1.0000409497272928,0.00017808479452563692
-0.4915989380708197,-0.4915989380708197,1.0003098286078078,0.00020844702576585668
-0.4914173993813165,-0.4914173993813165,0.9997803179739565,0.0001976043656603423
-0.4913058309793996,-0.4913058309793996,0.9999806390059984,0.0002209816941702594
-0.4912098447304743,-0.4912098447304743,1.0001949976364064,0.00020856239343975547
-0.49101587779587136,-0.49101587779587136,0.999827832705251,0.00019958747959276276
-0.4908539812953677,-0.4908539812953677,1.0000464396018791,0.00019778238330429382
-0.49071757755227735,-0.49071757755227735,0.9997842870076841,0.00018720313092316986
-0.4905124795048323,-0.4905124795048323,1.0000078727329818,0.00022858348926278396
-0.49038491380997584,-0.49038491380997584,1.0001553453425356,0.00022551317853900503
-0.49026371884319814,-0.49026371884319814,0.9999564388567068,0.00022760013171493426
-0.4901464445923921,-0.4901464445923921,1.0000317043479467,0.00023239891360577643
-0.4900317543280835,-0.4900317543280835,0.9997670803350017,0.00019763202099186726
-0.4898831265039917,-0.4898831265039917,1.0001297865879109,0.00019636396760747528
-0.48980867241407394,-0.48980867241407394,0.99996277009707,0.0002182889765676898
-0.4896018704494054,-0.4896018704494054,1.0000143287125762,0.00017628097077936918
-0.4893890169223596,-0.4893890169223596,0.9999956907666778,0.0001854597304116171
-0.4892396144125087,-0.4892396144125087,0.9999377094110808,0.00023162720608373472
-0.48912849580592593,-0.48912849580592593,1.0004037616762687,0.00018537799661456515
-0.48901759022046465,-0.48901759022046465,1.000023158280084,0.00019953844820388075
-0.4888498960310244,-0.4888498960310244,0.9999825173258788,0.0002521646134734261
-0.48877499616282877,-0.48877499616282877,0.9999566111956876,0.00018232856588875984
-0.4886862157392898,-0.4886862157392898,1.0000455792943754,0.00019482977244320363
-0.488501864218415,-0.488501864218415,0.9997533900285461,0.00023050199855375662
-0.48840460666033325,-0.48840460666033325,0.9997641831064948,0.00021691417766144457
-0.4882882635836722,-0.4882882635836722,1.0000687084704363,0.00017797264412766325
-0.4881207154307049,-0.4881207154307049,0.9999718789512209,0.00019690268293704006
-0.48797179006724034,-0.48797179006724034,0.9998146111265387,0.0001920315477615966
-0.4878290381791885,-0.4878290381791885,1.0001397533782497,0.00023859841787137086
-0.4877292232697073,-0.4877292232697073,0.9999091262926841,0.00022811669929088244
-0.487653876296099,-0.487653876296099,1.000152262790426,0.00023449836364421655
-0.4876072977203876,-0.4876072977203876,0.9999841817403758,0.00019836424917266641
-0.48753192882577423,-0.48753192882577423,0.9996352652949361,0.0001729335695919242
-0.48742663039738543,-0.48742663039738543,1.0001320223279846,0.0002218404766341915
-0.48731422919954637,-0.48731422919954637,1.0001806309050798,0.00020757228760400593
-0.4870976451005845,-0.4870976451005845,0.9997452333322701,0.00019161442723237778
-0.48697815040795833,-0.48697815040795833,1.0000445370404862,0.00019736337203602562
-0.4868926221221045,-0.4868926221221045,1.0000871938988352,0.00019011808084325258
-0.4868069131989614,-0.4868069131989614,0.9998942625391445,0.00018944793232245473
-0.4867039154334634,-0.4867039154334634,0.9998129389915784,0.0002454988665937396
-0.4865590441455424,-0.4865590441455424,0.9999645727562406,0.00019141830274587362
-0.48647477897102365,-0.48647477897102365,0.9999892685898912,0.0002030707913548056
-0.48640250688185915,-0.48640250688185915,0.9998246786565076,0.00017838467928060504
-0.486238511751435,-0.486238511751435,0.999980650358306,0.00018418321291125333
-0.48613246096574586,-0.48613246096574586,1.0004341833399732,0.0001915203858282179
-0.48608084469524326,-0.48608084469524326,0.9998117713205341,0.00023581270714150633
-0.4859399618821044,-0.4859399618821044,1.000147554474633,0.0002246630837982744
-0.48584893386941985,-0.48584893386941985,1.000047566794397,0.00017199985897983885
-0.48578408972534814,-0.48578408972534814,0.9999855621619071,0.00021097447025754788
-0.48566107696678956,-0.48566107696678956,0.9998022144820089,0.00023362464849004477
-0.48554650774167385,-0.48554650774167385,0.9999845932297889,0.00018689411145226813
-0.485392472215608,-0.485392472215608,1.000132272949605,0.00019272188392798915
-0.48522025366546584,-0.48522025366546584,1.0001206816056105,0.0002255880918321272
-0.48501132238088757,-0.48501132238088757,1.0000740623061737,0.00019229879773811196
-0.4848303478262096,-0.4848303478262096,0.999805377592503,0.00020614294250980713
-0.4846982798211684,-0.4846982798211684,0.999955614121552,0.00019696087230290844
-0.4845844876319461,-0.4845844876319461,1.0000770923399795,0.00019664129768267078
-0.48451437276089565,-0.48451437276089565,1.0001411879633795,0.0001961917816630835
-0.4843942976447579,-0.4843942976447579,0.9998850218805968,0.00020223410859189495
-0.4842337066533219,-0.4842337066533219,1.0000963600309327,0.00020973957511972045
-0.4840966624957218,-0.4840966624957218,0.9999768907962767,0.00021587849877880306
-0.4839745174082054,-0.4839745174082054,1.0000902367597653,0.00021645896035883913
-0.4837774321938923,-0.4837774321938923,0.9998542548536934,0.0002001814765564646
-0.48365568993613123,-0.48365568993613123,1.0000699475482822,0.0001756509679092209
-0.48357493368093857,-0.48357493368093857,0.9998790002209101,0.0002316937310621609
-0.4833897641779913,-0.4833897641779913,1.0002306277870638,0.00017552765336103192
-0.4832776672083128,-0.4832776672083128,1.0000033989408492,0.00019638399189086334
-0.48319901685899824,-0.48319901685899824,0.9999349592622115,0.000233054990328112
-0.48303848731593463,-0.48303848731593463,0.9998807445326368,0.0002079622185584946
-0.4828573734674137,-0.4828573734674137,0.999962631641122,0.00020559116926405766
-0.48266043368639655,-0.48266043368639655,1.0000282149909019,0.00021827338021925577
-0.48250460771450887,-0.48250460771450887,0.9999620380719364,0.00017636586080795776
-0.48241969778755445,-0.48241969778755445,0.999991023468883,0.0002421628651982486
-0.4823310540348757,-0.4823310540348757,1.000020298902721,0.00021536790742946935
-0.4821002414391842,-0.4821002414391842,0.9999149758878471,0.00019455096790709823
-0.4819460953454836,-0.4819460953454836,0.9999638209791248,0.00021067557511108247
-0.4818105858139461,-0.4818105858139461,0.9998972832572661,0.000183117726801114
-0.4817480519755918,-0.4817480519755918,1.0000680127517128,0.0001983015223217477
-0.48160968442025476,-0.48160968442025476,1.0002944467153347,0.00019652123765500417
-0.4814677236849093,-0.4814677236849093,0.9999419329804091,0.00020754147044181986
-0.48130886779617865,-0.48130886779617865,0.9999388840449285,0.00017814465735426033
-0.4812015702802455,-0.4812015702802455,1.0000956646318464,0.000219271553690969
-0.4810906749138667,-0.4810906749138667,1.0001354469728823,0.00020697738401515914
-0.48098246892332097,-0.48098246892332097,1.0003119056321472,0.00018924087354714252
-0.48085813892175794,-0.48085813892175794,1.0001446648636487,0.0002241152121614787
-0.4807043355285714,-0.4807043355285714,1.000102363747094,0.0002326444826336673
-0.4805798526351282,-0.4805798526351282,1.0001647342018463,0.00020316898166104037
-0.48050413513774404,-0.48050413513774404,0.9999559233553491,0.00019044502302779934
-0.48040906873575295,-0.48040906873575295,1.0000868701737244,0.00020392529853229219
-0.4803359105739219,-0.4803359105739219,1.0000203030621817,0.00018830377973625366
-0.4801986646562,-0.4801986646562,1.0000864645179381,0.0001952862334611831
-0.4800463441788452,-0.4800463441788452,0.9997637084538014,0.00023813112934131572
-0.4799573899632378,-0.4799573899632378,1.0001826381968368,0.00021065680309031204
-0.47976703594758874,-0.47976703594758874,1.0002642026794644,0.00019853820220840047
-0.4796386921421799,-0.4796386921421799,0.9997234558707924,0.00024858501425074973
-0.47955757116142195,-0.47955757116142195,0.9999579921020348,0.00019610521923833497
-0.47941462156304626,-0.47941462156304626,0.9999995562752109,0.0002014692281892704
-0.4792973294373951,-0.4792973294373951,0.999858036564941,0.00020226318409762852
-0.47911787499615455,-0.47911787499615455,0.9998722615949764,0.00022842932367161739
-0.4789746635251504,-0.4789746635251504,0.9998565743887402,0.00022666449552301415
-0.47886892306341905,-0.47886892306341905,0.9997946732917032,0.00021723147994875242
-0.4786907173911459,-0.4786907173911459,1.000029610789189,0.0001827227540888223
-0.4785622663104732,-0.4785622663104732,1.000152899395769,0.0001944243120438986
-0.4785013762862945,-0.4785013762862945,1.0001658189504448,0.0001862502574334117
-0.47832797641240177,-0.47832797641240177,0.9999052156421543,0.00018675217203677493
-0.478168378223927,-0.478168378223927,0.9998363103439722,0.0001754721154929174
-0.47805577339531735,-0.47805577339531735,0.9999934967045332,0.00019084326761719585
-0.47790614206533066,-0.47790614206533066,1.0001179420380812,0.00024882718437641195
-0.47779397747144686,-0.47779397747144686,0.9999843893944853,0.00017877512507983407
-0.47767118511692386,-0.47767118511692386,0.9995056760632233,0.00020547998557638833
-0.477510833600536,-0.477510833600536,1.0001480570220136,0.00017558065225999382
-0.4773845139068726,-0.4773845139068726,0.999988934748899,0.00022266931373728696
-0.4771995801871526,-0.4771995801871526,1.000226888173136,0.00023250465584513427
-0.4771507316028874,-0.4771507316028874,1.000091109973819,0.00022046041222847503
-0.4770702824986074,-0.4770702824986074,0.9996816202795913,0.00021341311524761714
-0.4768625168675499,-0.4768625168675499,1.000037055252157,0.0001973641725605838
-0.4767278971747146,-0.4767278971747146,1.0001278021911717,0.00017971852120255495
-0.47658179693098646,-0.47658179693098646,0.9998938761365397,0.00018972172428373212
-0.47646945096785204,-0.47646945096785204,0.999842152714649,0.00020263357691752216
-0.4763603526771476,-0.4763603526771476,0.9999496439650037,0.00020788103687323064
-0.47617480552726194,-0.47617480552726194,1.0002910727702332,0.00020130430885475278
-0.4760506340826396,-0.4760506340826396,1.000012742896489,0.00019051439955676078
-0.4759374487082823,-0.4759374487082823,1.0000697900052726,0.0002282139027099183
-0.47583989470949745,-0.47583989470949745,1.0003017368237828,0.0001787283381552885
-0.4757265314045071,-0.4757265314045071,0.999938387364342,0.00021009764429175855
-0.4756050299074559,-0.4756050299074559,0.9999482393038612,0.00020408506488763298
-0.4754587050025293,-0.4754587050025293,0.9997979480698962,0.00024360759726373132
-0.4753403920432902,-0.4753403920432902,1.000031255561361,0.00022334213967465326
-0.47521713440946767,-0.47521713440946767,0.9998455611609298,0.00020637695059728817
-0.4751277411567571,-0.4751277411567571,0.9999838810874522,0.0002221051392273298
-0.47498204652947607,-0.47498204652947607,1.0002061534796893,0.00019150192282161584
-0.4747245947299234,-0.4747245947299234,1.0000716122799882,0.0002302502049117561
-0.47453355115430895,-0.47453355115430895,0.9998167194121541,0.00022254197023114188
-0.4744380709329562,-0.4744380709329562,0.9997234062398427,0.00018296551797380571
-0.47434931646930634,-0.47434931646930634,0.9999995289957493,0.00022741386761740133
-0.47428216040279947,-0.47428216040279947,0.9998473956248402,0.00019176211692999997
-0.4742280369835498,-0.4742280369835498,1.0000688965499664,0.00017046155023353818
-0.4741488039762771,-0.4741488039762771,0.9995607026890694,0.0002205527213853341
-0.4740566642329213,-0.4740566642329213,1.0001931412758576,0.00019683049664483853
-0.4739393564785132,-0.4739393564785132,1.0000216924324703,0.00020906182039377746
-0.47381545660537083,-0.47381545660537083,0.9998399502006758,0.00021123861276300094
-0.4737078479309275,-0.4737078479309275,1.0003646623216818,0.0002251359576498641
-0.47357029032791614,-0.47357029032791614,1.0000495923899202,0.0001871053660442978
-0.47344426963245495,-0.47344426963245495,1.0000119164150894,0.00018311936057790104
-0.4733492226536328,-0.4733492226536328,0.9999583079216473,0.00021275578996228866
-0.4732364537601825,-0.4732364537601825,0.9996088156499978,0.000179486188843648
-0.4730983713277965,-0.4730983713277965,1.0000626320376464,0.0001794398812905611
-0.47293678539717804,-0.47293678539717804,1.0000735149778202,0.00018437582554884215
-0.47276917281924397,-0.47276917281924397,1.0003625199028625,0.00022487498939812302
-0.47268557279458034,-0.47268557279458034,1.0001782260127825,0.0002092702260519977
-0.4726153934097965,-0.4726153934097965,0.9999532961516827,0.00022383102658057687
-0.47249835667025764,-0.47249835667025764,1.000092166243172,0.00020497648064843598
-0.4723715799576894,-0.4723715799576894,0.9999679832670125,0.00019513332204068083
-0.47223050865359256,-0.47223050865359256,0.9999211385434889,0.00018295932146052737
-0.4721084531469387,-0.4721084531469387,1.0002154521399482,0.00020894047628211825
-0.47196898077309013,-0.47196898077309013,1.0000093796971363,0.00020199100147311826
-0.47189059727679705,-0.47189059727679705,1.000090041047858,0.00022615636970180916
-0.4717566362749494,-0.4717566362749494,1.000077197081802,0.00023589847069599838
-0.47163166042300875,-0.47163166042300875,0.9999956277266234,0.00022535717071329805
-0.47149757155711997,-0.47149757155711997,1.0000601712664958,0.00022999485894871686
-0.4713099219326978,-0.4713099219326978,0.9997892125058874,0.0002123253526394686
-0.47122345922762177,-0.47122345922762177,1.0000282708404638,0.0002079585636608115
-0.47101971454030717,-0.47101971454030717,0.9996399181904273,0.00017895857684388435
-0.4708157516179199,-0.4708157516179199,1.0000118073280475,0.00017899900391077638
-0.4706864890707948,-0.4706864890707948,1.000193702306298,0.00021845210307673717
-0.47054857313560206,-0.47054857313560206,0.9997867807183797,0.00021506075178288667
-0.4704456562103587,-0.4704456562103587,1.0002045989023762,0.00020876626517541628
-0.47023088440910216,-0.47023088440910216,0.9998151937526429,0.00022867989461982735
-0.4701554802079045,-0.4701554802079045,1.0001709209389749,0.0001864142383545707
-0.4700454910751432,-0.4700454910751432,1.000098639526445,0.0001948280276236425
-0.46993786944003657,-0.46993786944003657,1.0001882448843848,0.0002018105737514279
-0.4698357373468752,-0.4698357373468752,1.0000036430815942,0.00023698552144257425
-0.46970377241595995,-0.46970377241595995,0.9999123686567579,0.00018174161324897907
-0.46951062910957264,-0.46951062910957264,1.0000584115636335,0.0001994138515024252
