time,time,flux,flux_err
-0.499348115879305,-0.499348115879305,0.9998378588946899,0.00022192391452509268
-0.49878926665223844,-0.49878926665223844,1.000060545718498,0.00022122773707194577
-0.4979427776670491,-0.4979427776670491,1.000011292229297,0.0002044348915609992
-0.49731679444303156,-0.49731679444303156,1.000172062875458,0.000205333180909238
-0.49694384182002976,-0.49694384182002976,0.9999668583342858,0.0002007912553161888
-0.4961789256536576,-0.4961789256536576,1.0000940701854695,0.00020815881254789104
-0.4955400655751873,-0.4955400655751873,1.000129577152129,0.0002044650594624409
-0.49497526369668776,-0.49497526369668776,1.0005363520785902,0.0002068647373462521
-0.4941316049058514,-0.4941316049058514,1.0000147170557936,0.00020096075755813778
-0.49369800790882434,-0.49369800790882434,0.9998226713384428,0.00020681885804217344
-0.49327363848569805,-0.49327363848569805,1.0022231058725908,0.00020437298935267737
-0.49258853238789013,-0.49258853238789013,1.000182414145396,0.0002047456006496416
-0.49206837560632266,-0.49206837560632266,1.0001973814475065,0.0002012476878672375
-0.49177812322814135,-0.49177812322814135,1.0003130384804013,0.00020409467706896146
-0.4910060180525761,-0.4910060180525761,0.999836449695443,0.0002049590260564139
-0.49026678038353566,-0.49026678038353566,1.0000628852903186,0.00019971488897107902
-0.4898902896376967,-0.4898902896376967,1.0018173355739166,0.0002032551330280602
-0.48949247566415577,-0.48949247566415577,1.0000104190346824,0.00020042992559748214
-0.48913377947174014,-0.48913377947174014,1.0000809447166372,0.00019890196513666354
-0.48865578418553923,-0.48865578418553923,1.0000664145722367,0.00019938993844435658
-0.48846457877443755,-0.48846457877443755,1.0002165391700752,0.000200754173416813
-0.48816346620224066,-0.48816346620224066,1.000071815001591,0.00019840224102373952
-0.48768082902170135,-0.48768082902170135,1.0002299043024299,0.00019867131047571234
-0.48674607827124416,-0.48674607827124416,1.0004787452370072,0.00020756352720822675
-0.48637833539396524,-0.48637833539396524,0.9999148271766278,0.00020145896000068984
-0.48596869232787865,-0.48596869232787865,0.9999519951470388,0.00019732273316883025
-0.4853894671141461,-0.4853894671141461,1.0002178580584271,0.00019918386744293657
-0.48479563315268026,-0.48479563315268026,0.9999258955151298,0.00020230161790033534
-0.4844950765691465,-0.4844950765691465,1.0000868133133054,0.0001990009114221905
-0.48372466143482595,-0.48372466143482595,0.9999256376038306,0.00020083043404678014
-0.4828438865566568,-0.4828438865566568,0.9998767627695895,0.00020358099102960574
-0.48245142198938995,-0.48245142198938995,0.9999362489742009,0.00019861797366220614
-0.4817579089140054,-0.4817579089140054,0.9999783242610972,0.00019918543713247998
-0.4810581279001781,-0.4810581279001781,0.9999473816768448,0.00020798471652933078
-0.4807360177655937,-0.4807360177655937,1.000101313872295,0.0002017056815304185
-0.4800357756917947,-0.4800357756917947,0.9996750772175801,0.00020398969736610937
-0.47930110802844866,-0.47930110802844866,0.9999231402816584,0.00020500666343654578
-0.47885417745128506,-0.47885417745128506,0.9994780991665557,0.00020591672675264596
-0.47799605546169915,-0.47799605546169915,1.0000604941224147,0.00020113256230916676
-0.4774641892894579,-0.4774641892894579,1.000007509222269,0.00020632016388910193
-0.4770542657846818,-0.4770542657846818,0.9996740535188582,0.00020427080575781357
-0.4764457202181802,-0.4764457202181802,1.0000617614091076,0.000207985794146978
-0.47575757118247564,-0.47575757118247564,0.9998056932476823,0.00020135364936223684
-0.4754564048969769,-0.4754564048969769,1.0001325977465219,0.00020457477997934366
-0.474698540897225,-0.474698540897225,0.9997632306628873,0.00020629435128085883
-0.4739545592601644,-0.4739545592601644,0.9997785664592499,0.00020020168968538048
-0.4735739037852909,-0.4735739037852909,1.0001069417816904,0.00020412601968923218
-0.4731721685231605,-0.4731721685231605,0.9997534839103184,0.0001988420307790821
-0.47259697089684777,-0.47259697089684777,1.0001357300301368,0.000200548978979378
-0.47218346533409206,-0.47218346533409206,0.9998450392910035,0.00020216556750722229
-0.47186585402814674,-0.47186585402814674,0.999730102745714,0.00020137648004542075
-0.47155025067695533,-0.47155025067695533,0.9997994762343543,0.00019975251251095615
-0.4705402297360706,-0.4705402297360706,0.9998189547252532,0.0002060208153232003
-0.4701287320625852,-0.4701287320625852,0.999715342535578,0.00020122198749391906
-0.46992682101772515,-0.46992682101772515,0.999908160713237,0.00020126596274841507
-0.46950050853702124,-0.46950050853702124,0.9999512965349877,0.00019754489866886612
-0.46895331900159365,-0.46895331900159365,0.9997515693989332,0.00019944364877669453
-0.46842807510838613,-0.46842807510838613,0.9996637561015385,0.00020173842722662783
-0.4680875485246361,-0.4680875485246361,0.9999179897613468,0.00019923343778493753
-0.4671649254640215,-0.4671649254640215,0.9999770747491731,0.0002018386000573484
-0.46644850969678375,-0.46644850969678375,0.9999648327514381,0.0002026828143534
-0.4659887380541477,-0.4659887380541477,1.00004332783813,0.0001972917633890139
-0.4651735630039184,-0.4651735630039184,0.9998621333325314,0.00020429020046196814
-0.4646195002118475,-0.4646195002118475,1.0007435423513422,0.00020286304980882927
-0.46421729668873013,-0.46421729668873013,0.9997393315847777,0.00020297370061667452
-0.4633615744205599,-0.4633615744205599,1.0001441011351355,0.00020481807445385294
-0.4628549962872057,-0.4628549962872057,1.0000482511447422,0.00020458134933821104
-0.4621303039639315,-0.4621303039639315,1.000062672424963,0.00020451859894265995
-0.46146197325651883,-0.46146197325651883,0.999766233414366,0.00020233505340633363
-0.4610122185156797,-0.4610122185156797,1.0002985673763267,0.00020684041227816524
-0.46054782257197074,-0.46054782257197074,1.0000238033693347,0.0002024865510874162
-0.4597671230469132,-0.4597671230469132,1.0002112053914214,0.00020857945678112727
-0.45918827513378346,-0.45918827513378346,1.00007758211284,0.00020346805580197485
-0.458600400872092,-0.458600400872092,1.0025390587149006,0.00020822778501781674
-0.4577416258442099,-0.4577416258442099,0.9994695556010929,0.00019996959001288822
-0.45732470611765164,-0.45732470611765164,0.9999949871813056,0.00020423134759679643
-0.45693023318744963,-0.45693023318744963,0.9998962292184725,0.00020100814059594734
-0.45643783339837685,-0.45643783339837685,0.9995540418413533,0.00020044588073471272
-0.45588756106299116,-0.45588756106299116,1.000064023711619,0.00020275580825974615
-0.45555021382533595,-0.45555021382533595,1.0002051039467772,0.00020169917632772058
-0.45523551221631353,-0.45523551221631353,0.9999874849049218,0.0002000235925680707
-0.454332340034307,-0.454332340034307,0.9997383061271409,0.00020221979804593962
-0.45387231247805176,-0.45387231247805176,0.9997730617831552,0.00020646871492279516
-0.4536510473968519,-0.4536510473968519,0.9996632693314039,0.00019991592873220328
-0.4532302711668308,-0.4532302711668308,0.9998964096324678,0.00019901787825284925
-0.4527601333502389,-0.4527601333502389,0.999770636949397,0.0001987862310945904
-0.4523425757492078,-0.4523425757492078,1.0000002137425237,0.00020106623621729338
-0.45206542653031645,-0.45206542653031645,0.9998757537426008,0.00020094415269847379
-0.4517684039652522,-0.4517684039652522,1.000038198640662,0.00019646414746097066
-0.4507639242779987,-0.4507639242779987,1.00015711775715,0.0002009653143573137
-0.45005814842224934,-0.45005814842224934,1.0002265146364748,0.00020147386188717778
-0.4494233777615591,-0.4494233777615591,1.000041862528372,0.00019909851695967657
-0.44869319924182494,-0.44869319924182494,1.0000924758778935,0.00020478809951126166
-0.44824917258010827,-0.44824917258010827,1.0001813911158666,0.00020112532946265212
-0.44768922876610306,-0.44768922876610306,0.9998884465176282,0.00020126463577298286
-0.44674473762279376,-0.44674473762279376,0.9999819028502086,0.0002055780885815665
-0.4464210249527241,-0.4464210249527241,0.9996099368906295,0.00020295018332707908
-0.44581715348831497,-0.44581715348831497,1.0001139115717312,0.0002041480617800736
-0.44514871283172397,-0.44514871283172397,1.000132027782834,0.00020226132184354186
-0.4446929422214453,-0.4446929422214453,1.0001901197481677,0.00020680217434806608
-0.44423897260858214,-0.44423897260858214,0.9999981994440127,0.00020201126903207642
-0.44345135792827933,-0.44345135792827933,1.0000821877331438,0.00020866637411145043
-0.4428681235003751,-0.4428681235003751,1.0001040683848192,0.00020379922537602807
-0.44228350846460673,-0.44228350846460673,1.0001334978877296,0.00020837881017192017
-0.44143123434623704,-0.44143123434623704,0.9998243862491151,0.00020028634228239274
-0.44106203981573344,-0.44106203981573344,1.0001157422516191,0.00020822555002899778
-0.44069990817879445,-0.44069990817879445,0.9999196813723387,0.00020014313050931154
-0.4402342081870302,-0.4402342081870302,0.9993171283096653,0.00020207028309041897
-0.439571392279322,-0.439571392279322,0.9998935865250272,0.0002029013278491362
-0.43923465566986125,-0.43923465566986125,1.0004567810314993,0.0002020048494655775
-0.4389208588778274,-0.4389208588778274,1.000057236870099,0.00020060995959913057
-0.4379252755330526,-0.4379252755330526,0.9998658172338752,0.0002050432276380281
-0.4374857675335079,-0.4374857675335079,0.9996794127661317,0.00020092439587963626
-0.43726481157937086,-0.43726481157937086,1.0001603108803587,0.000200298290725976
-0.4368471297522774,-0.4368471297522774,0.9995173083976748,0.00020005155085836765
-0.4364455755749077,-0.4364455755749077,1.0003910669277072,0.0001986151594274565
-0.43594089236139555,-0.43594089236139555,0.9997372626182923,0.00020146642252170667
-0.43571898555746885,-0.43571898555746885,0.9999431698041658,0.00020026230497991547
-0.43540766898004224,-0.43540766898004224,1.0000007297297888,0.00019786971944747754
-0.4345316139726492,-0.4345316139726492,0.9999609240560225,0.0002003082951867035
-0.4338900523427583,-0.4338900523427583,0.9997493632306467,0.00022981357007037626
-0.43336802396952406,-0.43336802396952406,0.9999921972877537,0.00020077184628131215
-0.43260559662157905,-0.43260559662157905,1.000158644699094,0.00019801092115483525
-0.4320449009494041,-0.4320449009494041,1.0001660326337132,0.00020477396249604448
-0.43171055247075857,-0.43171055247075857,1.0000943353819989,0.00019844169298082796
-0.4307373174058739,-0.4307373174058739,0.9999152414411014,0.0002040374333024588
-0.4301600665319711,-0.4301600665319711,1.0005788537372153,0.00020478595226721693
-0.42961230942819384,-0.42961230942819384,1.0002572790838062,0.00020200385947635936
-0.42892619898921114,-0.42892619898921114,0.9998552278035641,0.00020094141610548525
-0.4283007196012477,-0.4283007196012477,0.9999393339754217,0.00020679671196697897
-0.42783633303261015,-0.42783633303261015,1.0000479447108612,0.0002047161648421598
-0.4270805058462429,-0.4270805058462429,1.0003099300095302,0.00020834864931574155
-0.4265480392692552,-0.4265480392692552,1.000458077470674,0.00020406711919580852
-0.4257552665425465,-0.4257552665425465,1.0000208775381156,0.00020567413530573988
-0.42502704781290956,-0.42502704781290956,0.9999808821807268,0.00020369643078325782
-0.42469308246290893,-0.42469308246290893,1.000126615971456,0.00020520914618891517
-0.42425390645294103,-0.42425390645294103,0.9999429648938808,0.00019966438270872358
-0.42358434277412016,-0.42358434277412016,1.0002114452834425,0.0002039769530534792
-0.42307055381097597,-0.42307055381097597,0.9998491281191131,0.000200781526607845
-0.42277816623973197,-0.42277816623973197,0.9998377919228012,0.0002037388167894432
-0.4219992114478373,-0.4219992114478373,0.9998082763454821,0.00020444697666597233
-0.42131165084065286,-0.42131165084065286,1.0000813648668019,0.00020038309497117597
-0.42105263121193276,-0.42105263121193276,0.9998971642737562,0.0002041797931393021
-0.42070596453268083,-0.42070596453268083,0.9999318012195986,0.00019756320992782135
-0.4203073635326291,-0.4203073635326291,0.9991019993624475,0.0002010280948059461
-0.41983008728566346,-0.41983008728566346,0.999831748323186,0.0001972679025564863
-0.4195081887417473,-0.4195081887417473,1.00017057359331,0.00020047358423465277
-0.41929735390731365,-0.41929735390731365,0.9998821079297404,0.00019760548033650256
-0.418970866008749,-0.418970866008749,1.0000160039254435,0.00020025351205023114
-0.41803610064671376,-0.41803610064671376,1.0000137454693805,0.000199545627400352
-0.41757406059259666,-0.41757406059259666,0.9999288510659028,0.00021718775871600377
-0.4170569832655019,-0.4170569832655019,1.0001529788704218,0.00020079481821561702
-0.4162920543545624,-0.4162920543545624,1.0000182509461226,0.0001978916196354037
-0.4157279415965604,-0.4157279415965604,1.000298791830512,0.0002021074971528729
-0.41540164839752836,-0.41540164839752836,0.9998458439943707,0.00020052572816939854
-0.4144029259587114,-0.4144029259587114,1.000139970902961,0.00020370326295753613
-0.4137693320437393,-0.4137693320437393,1.0001170827779045,0.0002043543270348979
-0.41329248046604333,-0.41329248046604333,0.9995556492107177,0.00020183435978232017
-0.41273211180232466,-0.41273211180232466,0.9999988996504776,0.0001976411479645941
-0.4120672758450382,-0.4120672758450382,0.9999626126667309,0.00020945902460584053
-0.4116215542147984,-0.4116215542147984,1.0000227846652698,0.00020104199339583331
-0.41086066691350426,-0.41086066691350426,0.9999766592209184,0.00020834569578198446
-0.41022802236766437,-0.41022802236766437,0.9998574069411719,0.00020433122648734156
-0.40965757753583604,-0.40965757753583604,0.9996889270548603,0.00020707822006189137
-0.4088107180847146,-0.4088107180847146,0.9990963310633145,0.00020072672741939965
-0.40841902974934785,-0.40841902974934785,1.0004397824976743,0.00020790052341047405
-0.4080362890294055,-0.4080362890294055,1.0000133056656761,0.0002004260126626599
-0.40743860762158873,-0.40743860762158873,1.0001638107756734,0.00020357577447402587
-0.40684062396903753,-0.40684062396903753,1.0002469399299077,0.0002013055346318719
-0.40651240652878184,-0.40651240652878184,1.0001941030819486,0.00020264025921793078
-0.4059106417094881,-0.4059106417094881,1.0000105122341902,0.000205585426091461
-0.40496586696463055,-0.40496586696463055,1.0000898462071368,0.00019806775989645757
-0.40463321330244073,-0.40463321330244073,0.9998761476757043,0.00020377881523073491
-0.4042302761801693,-0.4042302761801693,0.9998998016527285,0.00020050510157502993
-0.40381668267655185,-0.40381668267655185,0.9999909738739211,0.00019856959766222462
-0.4033359351356921,-0.4033359351356921,0.9997704356540273,0.00019889539897093166
-0.40314478599175346,-0.40314478599175346,0.9996190205698069,0.00020098228416965243
-0.4028460318608268,-0.4028460318608268,1.0000595128459078,0.00019821860581646007
-0.40236092307677607,-0.40236092307677607,1.0001567459033418,0.00019836802380286846
-0.4014253342160373,-0.4014253342160373,0.9999699567190596,0.00021143828944558611
-0.40099893491351396,-0.40099893491351396,0.9996046224983323,0.0002011793522381944
-0.40037783775042046,-0.40037783775042046,0.99974471717609,0.00019742284999909834
-0.3996808875628631,-0.3996808875628631,0.9998766074585802,0.0002008445587227646
-0.39932394861170906,-0.39932394861170906,0.9999003786053331,0.00019950771592266737
-0.39867091430423895,-0.39867091430423895,0.9996171023943514,0.00019835745620094808
-0.3976539274939569,-0.3976539274939569,1.0001890209477942,0.00020280534938791204
-0.3972306424198905,-0.3972306424198905,1.0000868982753166,0.00020334134423081307
-0.3964921205151768,-0.3964921205151768,0.9997711329228214,0.0002001209035100305
-0.3957479230404715,-0.3957479230404715,0.9998430965948737,0.00020810288926344892
-0.3954145770170726,-0.3954145770170726,1.0000985580752224,0.00020230648887881744
-0.39471431508573007,-0.39471431508573007,1.0003379195439748,0.00020727785164962985
-0.39398720573444734,-0.39398720573444734,1.0000572125708964,0.00020173509763347472
-0.39353591740436966,-0.39353591740436966,1.0003261993037111,0.00020645868300656775
-0.3926345242303796,-0.3926345242303796,0.9998022263815024,0.00020128267159660326
-0.3921049383308855,-0.3921049383308855,0.9998937561856648,0.0002095683648108563
-0.39164262669946764,-0.39164262669946764,1.0005868625634153,0.000204124641678455
-0.39093923443797396,-0.39093923443797396,0.9996013904747297,0.00020364662213837492
-0.39036698276977405,-0.39036698276977405,1.0000850694441055,0.0002030874593200149
-0.39006743934733096,-0.39006743934733096,1.0002795724689098,0.00020595374416583373
-0.38931380540088867,-0.38931380540088867,0.9998650648119985,0.00020508581028091596
-0.3886355545357219,-0.3886355545357219,1.000264680059788,0.00019980316182461295
-0.3882586485007778,-0.3882586485007778,0.9994585838850915,0.00020314516234631562
-0.3878618682931119,-0.3878618682931119,1.0001645541511681,0.0002004505377539793
-0.38750234959297813,-0.38750234959297813,0.9999530400478143,0.00019885317854162092
-0.38702465978494727,-0.38702465978494727,0.9997959565477756,0.0001994200096735755
-0.38683344917517387,-0.38683344917517387,0.9999290369211595,0.00020075735359542584
-0.38653207420938995,-0.38653207420938995,0.9998159522711847,0.00019842505993205537
-0.3860497116103943,-0.3860497116103943,1.000017895513722,0.00019867206560225873
-0.385115050731838,-0.385115050731838,1.0000771159616186,0.00020724002258780037
-0.384746433323744,-0.384746433323744,0.9998512576070271,0.00020146888085768232
-0.38433785754532435,-0.38433785754532435,1.0000434638960445,0.00019736779229865528
-0.3837579937542614,-0.3837579937542614,1.000127321694437,0.00019918392854189246
-0.3831642738507071,-0.3831642738507071,0.9998973271029632,0.00020225000139429075
-0.3828636405916768,-0.3828636405916768,1.0000927525162957,0.00019892206141280768
-0.38209359679167393,-0.38209359679167393,0.9999394538455924,0.00020086075582046578
-0.38121230433825987,-0.38121230433825987,1.000435664162184,0.0002035288889145126
-0.3808203472894093,-0.3808203472894093,1.0004790187329287,0.00019853944469182592
-0.3799946635976085,-0.3799946635976085,0.9998343969786225,0.00020394415618378228
-0.3793669196296833,-0.3793669196296833,0.9997735341367505,0.0002051912612005169
-0.37900452430403675,-0.37900452430403675,0.9999179486884252,0.0002001493015296034
-0.3782346904758015,-0.3782346904758015,0.9999773744930558,0.0002077458875050333
-0.3775881934227073,-0.3775881934227073,0.9998981396788086,0.00020457055141831184
-0.377030291819392,-0.377030291819392,0.9998837977021401,0.00020644588578271842
-0.37628704494054543,-0.37628704494054543,1.0000000165535683,0.0001968716320143876
-0.37583215762788313,-0.37583215762788313,0.9996631571460967,0.00020631688384387597
-0.37542328238487244,-0.37542328238487244,0.9998668851539797,0.00020428859623440972
-0.37481427174134296,-0.37481427174134296,0.9997118368449971,0.00020792303049272507
-0.37412649383186364,-0.37412649383186364,1.0001423373712643,0.00020136433329475222
-0.37382423820963595,-0.37382423820963595,1.0001869345009473,0.00020454024797106934
-0.37306708782198256,-0.37306708782198256,0.9998544700963953,0.00020627084620442664
-0.372323341590527,-0.372323341590527,1.000124844288126,0.0002002310142087114
-0.37194226836800226,-0.37194226836800226,0.9997751610410324,0.0002041708193400166
-0.37154154878589907,-0.37154154878589907,0.9997004594151144,0.00019888953208172178
-0.37096523213476756,-0.37096523213476756,1.0001686849603988,0.00020062920108619638
-0.370552168256836,-0.370552168256836,1.000281114505236,0.00020220589946492217
-0.3702342861426587,-0.3702342861426587,1.0002302369426883,0.00020142484812820963
-0.36991877306863896,-0.36991877306863896,0.9998071411431997,0.00019973182345828328
-0.36890954263290043,-0.36890954263290043,1.0000629353119854,0.00020574791964504067
-0.36849658056526097,-0.36849658056526097,0.9997381186078507,0.00020115797750307348
-0.3682680190126121,-0.3682680190126121,0.9996994855878526,0.00020190329297841642
-0.3677611772174714,-0.3677611772174714,0.9999391159483461,0.0001972227495774062
-0.3671933805148001,-0.3671933805148001,1.000914759707248,0.00020056487302347906
