time,time,flux,flux_err
-0.49885616802991234,-0.49885616802991234,0.9999345263999725,0.00012148845988366616
-0.49721767221914587,-0.49721767221914587,1.000043734012421,0.0001213011309084765
-0.4955821175590245,-0.4955821175590245,0.9998351114474363,0.00012150320693178722
-0.49476577395689675,-0.49476577395689675,0.9999825106337552,0.00011082946019842686
-0.49376113495527535,-0.49376113495527535,1.0001059193905373,0.00011087616475048498
-0.4927728635921085,-0.4927728635921085,0.9999511905736398,0.00011082910855626237
-0.4914131550918682,-0.4914131550918682,0.9999982539030661,0.00011089894243241387
-0.48890392965477075,-0.48890392965477075,0.9999643505394277,0.00011096475412220223
-0.4877118584314303,-0.4877118584314303,0.999778176941206,0.00011064031507385072
-0.4860192205036583,-0.4860192205036583,0.9999826147761718,0.00011069349027649742
-0.4849608042633918,-0.4849608042633918,1.0000940954632724,0.0001107945873255732
-0.4839024497072387,-0.4839024497072387,1.0000221143869925,0.00011092695734203094
-0.4825238018398522,-0.4825238018398522,1.0001242046345937,0.0001107638531110759
-0.4809422531463497,-0.4809422531463497,0.9999930530286157,0.0001108075031323994
-0.47970501415402395,-0.47970501415402395,0.9999345288225223,0.00011078438998895063
-0.4783664269023575,-0.4783664269023575,0.9999858615772388,0.00011073802129936902
-0.4770939758847817,-0.4770939758847817,0.999902493221579,0.00011065507545504934
-0.475593651462259,-0.475593651462259,0.9999073932522974,0.00011062402177007392
-0.4749183270170761,-0.4749183270170761,1.0001133241276015,0.0001109859794600048
-0.47370279802707954,-0.47370279802707954,0.9999447730300377,0.00011095601216751828
-0.4712273883029411,-0.4712273883029411,1.0000313909257925,0.00011077341416386183
-0.4701235310887569,-0.4701235310887569,0.9999250652911182,0.00011109394880183269
-0.4686729343236948,-0.4686729343236948,1.0000094681299951,0.0001109296214728123
-0.4677945631374314,-0.4677945631374314,0.999934336919938,0.00011088530544398809
-0.46658633710612774,-0.46658633710612774,1.000115829574018,0.00011071845739757998
-0.466004442780104,-0.466004442780104,1.0000426177153114,0.00011081399885101584
-0.46531674563593695,-0.46531674563593695,0.9999772723364473,0.00011093243159022457
-0.4634848202418652,-0.4634848202418652,1.0000472375793215,0.00011102546084268349
-0.46115736371211824,-0.46115736371211824,0.9998292953931752,0.0001109075384138726
-0.459768487909605,-0.459768487909605,1.0001123822023401,0.00011090729543310842
-0.4583979493778315,-0.4583979493778315,0.999996606381466,0.00011070478124416925
-0.45756297207335594,-0.45756297207335594,0.9999272996623174,0.00011095524472586017
-0.45653182900205136,-0.45653182900205136,0.9999539712788159,0.00011084137009224174
-0.45536673234673797,-0.45536673234673797,1.0000464614359381,0.0001110412679940667
-0.45397456941500425,-0.45397456941500425,0.999990341810698,0.00011082052162788927
-0.4520637950459786,-0.4520637950459786,1.000058691586958,0.00011105527724343265
-0.45081487859788466,-0.45081487859788466,1.0000373228493182,0.00011084542546450037
-0.4487172073349939,-0.4487172073349939,0.9999208289473176,0.00011065219841876553
-0.44764662878733363,-0.44764662878733363,1.0001548816952306,0.00011079955257787668
-0.4460306723383837,-0.4460306723383837,0.9998911700679288,0.00011082057226078994
-0.44432818943605523,-0.44432818943605523,1.0000010419491745,0.00011093077076380995
-0.4424521992303198,-0.4424521992303198,1.0000021439579014,0.00011070501875557276
-0.4410038886628172,-0.4410038886628172,1.0000303143612386,0.00011078140063568504
-0.4394187141449947,-0.4394187141449947,0.9998482164876185,0.00011067379017696043
-0.4386144811680424,-0.4386144811680424,1.0001281927658192,0.00011067389248604377
-0.4375831042736536,-0.4375831042736536,0.9999162089648763,0.00011098855977594104
-0.43622156595156414,-0.43622156595156414,1.0001635139483407,0.00011098528271070602
-0.4338841140182922,-0.4338841140182922,0.9999616634934005,0.00011071852761086675
-0.43208871593378717,-0.43208871593378717,1.0001180067584317,0.00011114689680250449
-0.43104378696807544,-0.43104378696807544,0.9999367917581636,0.00011079545431358282
-0.42982496789554714,-0.42982496789554714,0.9999442312284174,0.00011093791223133143
-0.4290643214670126,-0.4290643214670126,1.000105560752305,0.00011093029703106391
-0.4282954469927063,-0.4282954469927063,1.0000239038980387,0.00011082026496743384
-0.4268693708720093,-0.4268693708720093,1.0000052639205912,0.00011075327522458173
-0.42520605345416695,-0.42520605345416695,0.9999787352955206,0.00011087351174136773
-0.42362665144682976,-0.42362665144682976,0.9998821826044869,0.00011072962941518912
-0.4220778752467595,-0.4220778752467595,1.0000864958620248,0.0001108856371642332
-0.4210546857015288,-0.4210546857015288,1.00022982589254,0.00011081258953905379
-0.41969224220592877,-0.41969224220592877,0.9999497361363432,0.0001107597247191513
-0.4186246235636645,-0.4186246235636645,1.0000390618392154,0.00011125459260002098
-0.417224169633846,-0.417224169633846,1.0000382594866792,0.00011079411082822207
-0.4156739300917252,-0.4156739300917252,0.9998862863419193,0.00011077853308430492
-0.4141409553165431,-0.4141409553165431,0.9999095140577235,0.00011072040157475069
-0.4120335912099108,-0.4120335912099108,0.9998755631637561,0.00011071703653363514
-0.4110554306869744,-0.4110554306869744,0.9998652563243008,0.00011090781580337784
-0.40976602101363824,-0.40976602101363824,1.00008161466983,0.00011086222483324448
-0.4080063893641636,-0.4080063893641636,1.0001589286798647,0.00011086224902607359
-0.4065582999952312,-0.4065582999952312,0.9996916442950173,0.00011072016126025402
-0.40452675808483035,-0.40452675808483035,0.9999358688016786,0.00011075638473877785
-0.40314642467637896,-0.40314642467637896,0.9999730992584606,0.0001106790004531785
-0.4018246202620503,-0.4018246202620503,0.9999064223540325,0.00011067781913022624
-0.4010957428101392,-0.4010957428101392,0.999854573521905,0.0001108332390772396
-0.4000740477837098,-0.4000740477837098,0.999796888437215,0.00011098006162209429
-0.39838649453377,-0.39838649453377,0.9999772791274832,0.00011066573585105197
-0.396806784094224,-0.396806784094224,1.0000609422153566,0.00011097329113191436
-0.395155032355251,-0.395155032355251,0.9998073197763885,0.00011070254959322736
-0.3945578383907559,-0.3945578383907559,0.9999412160126637,0.00011079472648244606
-0.39335557052181686,-0.39335557052181686,0.9999456309638134,0.00011085864554987338
-0.39229274012031967,-0.39229274012031967,0.9999252367285155,0.00011082038896730719
-0.3914972271537408,-0.3914972271537408,1.000091396563273,0.00011081039651334498
-0.3899656310910359,-0.3899656310910359,0.999852789684998,0.00011083711025906915
-0.3886897905307706,-0.3886897905307706,0.999946610832563,0.00011087434458556858
-0.38730374804217715,-0.38730374804217715,1.000077443134052,0.00011081739713370237
-0.38578935223486044,-0.38578935223486044,0.9999948825563774,0.00011094970987630048
-0.3841987457337382,-0.3841987457337382,1.0001911073202143,0.00011095264398159241
-0.3828704768413445,-0.3828704768413445,0.9998633026987788,0.00011061824228886657
-0.3820071647656732,-0.3820071647656732,0.9999921162243707,0.00011089039357460039
-0.3810671317274682,-0.3810671317274682,0.9999170376114689,0.00011103097101429176
-0.37962566441710804,-0.37962566441710804,1.0000563303310301,0.00011097720771237446
-0.3773817759087251,-0.3773817759087251,0.9999389482651095,0.00011081745439221613
-0.37623524361624733,-0.37623524361624733,1.000088871489999,0.00011095156785931825
-0.374884554088203,-0.374884554088203,0.9999904734777123,0.00011070490918940257
-0.3742513705714373,-0.3742513705714373,0.999934847821027,0.00011073956054372583
-0.3728783063197625,-0.3728783063197625,1.0000390372356096,0.00011076128869128838
-0.3714348259141843,-0.3714348259141843,0.9999755323759366,0.00011079645522552263
-0.36859410412216675,-0.36859410412216675,1.0000282922538326,0.00011093647487630895
-0.36683144610069573,-0.36683144610069573,1.0000499234405837,0.0001107765035492374
-0.3652704228996299,-0.3652704228996299,0.9999620461636279,0.00011068314615775977
-0.3643671750316571,-0.3643671750316571,1.0000168917950867,0.0001107933121348077
-0.36357396924868224,-0.36357396924868224,1.00016452943708,0.00011085295191633244
-0.36278509479016063,-0.36278509479016063,1.0000212809624858,0.00011090340443777108
-0.3611524288651708,-0.3611524288651708,0.9999791473140943,0.000110855022506214
-0.3600709592792555,-0.3600709592792555,0.999983698885574,0.00011072710619630735
-0.35856113692352665,-0.35856113692352665,0.9999723114683601,0.00011079819150244334
-0.35756456183517005,-0.35756456183517005,1.0001766313885185,0.00011090057007596245
-0.35631089505477576,-0.35631089505477576,1.0002008122955002,0.00011059698970410251
-0.35510496684364623,-0.35510496684364623,1.0000394201675724,0.0001106750165219007
-0.3543083559481602,-0.3543083559481602,1.00000805418885,0.00011081920017925434
-0.35305780031776524,-0.35305780031776524,1.0001683738945677,0.00011103956123189756
-0.35103576269902986,-0.35103576269902986,1.000040692559217,0.0001108172414213257
-0.34995405665104046,-0.34995405665104046,0.9999337685911576,0.00011082013986654887
-0.3484873863417306,-0.3484873863417306,1.000054012907104,0.0001111551785312714
-0.3473716897919076,-0.3473716897919076,1.000021425391076,0.00011092672941788802
-0.346075772439508,-0.346075772439508,1.0000789809369164,0.00011063220405627937
-0.34546062616209383,-0.34546062616209383,0.9998186023275561,0.00011084049965595423
-0.3446804716215411,-0.3446804716215411,1.0000032625381352,0.00011083115155440593
-0.3424821918473754,-0.3424821918473754,1.0001574345981012,0.00011113336078673081
-0.3403840460210631,-0.3403840460210631,0.9999923978012992,0.00011067218487820525
-0.33898135927302064,-0.33898135927302064,0.999938679744696,0.0001109256447365741
-0.3378688103708555,-0.3378688103708555,1.0000650577812151,0.00011077297617542497
-0.3368101395004487,-0.3368101395004487,1.0001789392256093,0.00011102289429467015
-0.3355786065039865,-0.3355786065039865,1.0000808953232874,0.00011079885612731003
-0.33389346531184855,-0.33389346531184855,0.9998919143688452,0.00011091949862304117
-0.33183634729066397,-0.33183634729066397,0.9997751266558756,0.00011096316256028964
-0.33020417818115677,-0.33020417818115677,1.0000580432486297,0.00011065459677255972
-0.3279989091111929,-0.3279989091111929,0.9999937492356755,0.00011070470041647149
-0.3270054976885149,-0.3270054976885149,0.9998707254926199,0.00011083977170187025
-0.3256300386652583,-0.3256300386652583,1.000067217455987,0.00011083050342335948
-0.3239275912870653,-0.3239275912870653,1.000016164806411,0.00011093701746571031
-0.3216265883944288,-0.3216265883944288,1.0000306132360097,0.00011080406987935415
-0.3202596852235729,-0.3202596852235729,1.000019914552586,0.00011067821314795587
-0.31859533986498717,-0.31859533986498717,1.0001601740452535,0.0001106904061614473
-0.317922902169812,-0.317922902169812,0.9999969870826553,0.00011083663789231978
-0.3169818831760495,-0.3169818831760495,0.9996918716288297,0.00011097299104201077
-0.3156126322588534,-0.3156126322588534,0.9999279159512039,0.00011102251596596727
-0.3138176831707824,-0.3138176831707824,1.0000162756162045,0.00011083899524936835
-0.31221358115726616,-0.31221358115726616,0.9999808485696875,0.00011108648411992591
-0.31119465606316227,-0.31119465606316227,0.9997352004485128,0.00011093357380295593
-0.31009294635950935,-0.31009294635950935,0.9998062167868552,0.00011106628854427851
-0.3091171063169895,-0.3091171063169895,1.0000115223957997,0.0001107753035275283
-0.30835865323169853,-0.30835865323169853,0.9998956550597475,0.00011071631498705134
-0.3074264636314183,-0.3074264636314183,1.0000355730846018,0.00011089922332096367
-0.30539871009241326,-0.30539871009241326,1.0000439122348166,0.00011095781606254168
-0.30382102126968674,-0.30382102126968674,0.9997377298250694,0.00011072472579705586
-0.30290774537206744,-0.30290774537206744,0.9997713723424058,0.00011090358916681273
-0.3016776867283625,-0.3016776867283625,0.999884830838365,0.00011087741455291623
-0.3006544348645548,-0.3006544348645548,0.9998552930786154,0.00011080091280560818
-0.2992914187263523,-0.2992914187263523,0.9999953312836108,0.00011076330781674195
-0.29822441148207873,-0.29822441148207873,0.9999469001326011,0.00011125005893772628
-0.29678632603463484,-0.29678632603463484,0.999814058345869,0.0001107026989747106
-0.29493364795271193,-0.29493364795271193,1.0001491621696619,0.00011087212771123363
-0.2930547861928062,-0.2930547861928062,0.999923207770401,0.00011060855247173899
-0.2914870880544186,-0.2914870880544186,0.9999833662351783,0.0001107247548202594
-0.29057244063224064,-0.29057244063224064,0.9999083877352246,0.00011081488146370121
-0.28906244816389515,-0.28906244816389515,0.9999144720921139,0.00011077968915958014
-0.2871323982915783,-0.2871323982915783,1.0000646871611862,0.00011092013666991188
-0.28488627870829075,-0.28488627870829075,1.0001686371604,0.00011088976935856504
-0.2833922049161629,-0.2833922049161629,1.0000277545361542,0.00011066333304485159
-0.281920054609509,-0.281920054609509,1.0000004054152896,0.0001108821071173463
-0.281031116743543,-0.281031116743543,0.9998710082457164,0.00011070943339871523
-0.2800775117284502,-0.2800775117284502,0.999854444144811,0.00011091792575898451
-0.27872040381407714,-0.27872040381407714,0.9999959892596404,0.0001106884812774115
-0.2764121724612778,-0.2764121724612778,1.0002197685030434,0.00011097455332256993
-0.27454579161567383,-0.27454579161567383,0.9999430608462763,0.00011074962890744823
-0.2737952221497835,-0.2737952221497835,0.9999695185007251,0.00011077443020520743
-0.2724276772547455,-0.2724276772547455,1.0001568252267306,0.00011101602743676856
-0.27162342205265305,-0.27162342205265305,1.0001774276007713,0.00011075399090437197
-0.27091139943077,-0.27091139943077,1.0000523649843975,0.00011080127613888541
-0.26926389592845223,-0.26926389592845223,1.000165288504748,0.00011102867972617663
-0.26719564880186225,-0.26719564880186225,0.9998876967316608,0.00011092229796015828
-0.26620178155499163,-0.26620178155499163,0.9999431261008211,0.00011100359391346926
-0.26461311147068045,-0.26461311147068045,1.0000856677899967,0.00011069483456600492
-0.2634222899767337,-0.2634222899767337,1.0001835639753853,0.0001108252854578164
-0.2624698169289331,-0.2624698169289331,0.9997334445433653,0.0001106078932147667
-0.2615739783330355,-0.2615739783330355,0.9999495795153885,0.00011094877403739288
-0.2602162983173912,-0.2602162983173912,0.99999803884798,0.00011093425286649015
-0.2584310335550981,-0.2584310335550981,0.9999941629991923,0.00011098922274921064
-0.2568814953832771,-0.2568814953832771,0.9999899825940561,0.00011080053318786118
-0.25619303190396747,-0.25619303190396747,1.000026842798526,0.00011081265064508605
-0.2549342559177603,-0.2549342559177603,1.0002686459025474,0.00011103733982437671
-0.25426763516879874,-0.25426763516879874,1.0001396340688982,0.00011081399583666725
-0.25355942754613353,-0.25355942754613353,0.9999449533171567,0.00011081362332352402
-0.25229998150389293,-0.25229998150389293,0.9998629142503226,0.00011070862175354581
-0.25104459036374466,-0.25104459036374466,1.0000164500101865,0.00011081553190267401
-0.2491121640225174,-0.2491121640225174,0.9999805740533446,0.00011085910848997981
-0.24693988238359452,-0.24693988238359452,0.9999254418493452,0.00011076430549153647
-0.24541728279364178,-0.24541728279364178,0.9999378665323861,0.0001107540005410829
-0.24434492730433705,-0.24434492730433705,1.0000631479280853,0.00011079750042446476
-0.2432543131370039,-0.2432543131370039,0.9999250451138071,0.00011077545471163497
-0.24238435325823957,-0.24238435325823957,1.0001221079083034,0.00011089823638104766
-0.2402988582056423,-0.2402988582056423,0.9999594530091727,0.0001108786665734162
-0.23861734669480938,-0.23861734669480938,0.9999750957746902,0.00011074016143306405
-0.23729253943456569,-0.23729253943456569,1.0002236005331124,0.00011077855434962435
-0.23613766261769342,-0.23613766261769342,0.9999610820531087,0.00011058971718234062
-0.23494919008007856,-0.23494919008007856,1.0001398883804788,0.00011061890298566873
-0.23437627383245854,-0.23437627383245854,1.0001929787049386,0.00011076654576009719
-0.23325167002185482,-0.23325167002185482,1.0002272532730334,0.00011097883360937087
-0.23126845893566497,-0.23126845893566497,1.0000048972842384,0.00011084876423114967
-0.2298111564676219,-0.2298111564676219,0.9998640744606956,0.00011096671174021099
-0.22834401680811425,-0.22834401680811425,1.0002079173848832,0.0001111270680392683
-0.22720798536611256,-0.22720798536611256,1.000079874625436,0.00011088455565728221
-0.2257046564380289,-0.2257046564380289,0.999873901190165,0.00011074978436120841
-0.22506000234207021,-0.22506000234207021,1.0000944191587582,0.00011085543545352833
-0.22441683565630227,-0.22441683565630227,1.000122097688838,0.00011084378670984742
-0.22307263737966423,-0.22307263737966423,0.9999859421545297,0.00011091910420395101
-0.22059507523008506,-0.22059507523008506,0.9999432179361195,0.0001108799934094033
-0.2193915983036277,-0.2193915983036277,0.9998634030106194,0.00011097874142288255
-0.21768626861376106,-0.21768626861376106,1.0000197046412855,0.00011069818925416725
-0.21680515740517875,-0.21680515740517875,1.0000554189962145,0.00011108249875899806
-0.21542601439723513,-0.21542601439723513,1.0000953870275828,0.00011071539567158091
-0.21381528531201183,-0.21381528531201183,0.9999439945866782,0.00011089491528894709
-0.2118701023842732,-0.2118701023842732,1.0000047421647618,0.00011097625439342618
-0.21014461591694272,-0.21014461591694272,0.9999631436672847,0.00011076233793332846
-0.2079166680399794,-0.2079166680399794,1.0000636477348603,0.0001106658690725695
-0.20659324514926994,-0.20659324514926994,1.0001407652374905,0.0001109051943937945
-0.20483695143993827,-0.20483695143993827,0.9999422986543735,0.00011066755406560324
-0.2036355062307848,-0.2036355062307848,1.0001840306089236,0.00011099032374202442
-0.2024062845892331,-0.2024062845892331,0.9998480841921353,0.00011074139954726943
-0.20059134708644705,-0.20059134708644705,1.0001161744830687,0.00011075987203182239
-0.19912653401479474,-0.19912653401479474,1.0001137910504803,0.00011067190950080809
-0.19790925432607764,-0.19790925432607764,1.000073210405714,0.00011067356751811525
-0.19700126850657398,-0.19700126850657398,1.000024760762625,0.00011085900689317863
-0.19595982887549326,-0.19595982887549326,1.0000056254520273,0.00011106731120599022
-0.19360937681922225,-0.19360937681922225,0.999970456193805,0.00011078421417399138
-0.19257808675683918,-0.19257808675683918,1.000123439079667,0.0001107768179308414
-0.19128841673664282,-0.19128841673664282,1.0001082501708902,0.00011114656366612225
-0.19045176712461398,-0.19045176712461398,1.0000592586210204,0.00011104067704323047
-0.1890888727910351,-0.1890888727910351,1.0000231061488705,0.0001107144151788119
-0.18828831466162227,-0.18828831466162227,1.0000151137207924,0.00011083716282664387
-0.1877158571667678,-0.1877158571667678,1.0001538836945634,0.00011084777508896075
-0.1862131613641395,-0.1862131613641395,0.9999531586929514,0.00011096596789332692
-0.1840688676784339,-0.1840688676784339,0.9999686226996248,0.00011087784084947982
-0.18267266154798562,-0.18267266154798562,1.0001318944025228,0.00011091993704692924
-0.18127750015846686,-0.18127750015846686,0.9998822888115161,0.0001108735185460207
-0.1802541851560818,-0.1802541851560818,1.0001278931935276,0.00011080686289207306
-0.17895737188591737,-0.17895737188591737,1.0000361830278013,0.00011089803061268507
-0.17828838671775885,-0.17828838671775885,1.0002041689403196,0.00011089923800289927
-0.17670593803559315,-0.17670593803559315,1.0000817121548207,0.000110811861577488
-0.17501056469554896,-0.17501056469554896,1.000072923903042,0.00011100551637391518
-0.17358250743709505,-0.17358250743709505,0.9998066065004583,0.00011098987648807158
-0.17172517999060802,-0.17172517999060802,1.0000569673759265,0.00011067526948304536
-0.17079175441976985,-0.17079175441976985,0.999897566815236,0.00011071208147723363
