time,time,flux,flux_err
-0.4992581650847569,-0.4992581650847569,1.0018791843503032,0.001357153602161855
-0.497426355634525,-0.497426355634525,1.001092638411611,0.0013613189552657726
-0.4966612548407284,-0.4966612548407284,1.001763218040953,0.0013794129141951395
-0.4949340715073049,-0.4949340715073049,0.9992120919007945,0.0013652554090593353
-0.49360327637259616,-0.49360327637259616,1.0023477192376185,0.0013707831230306594
-0.4925029904828989,-0.4925029904828989,0.999325170493958,0.0013540582919127472
-0.4914848428219557,-0.4914848428219557,1.000041618299392,0.001369004974835365
-0.4900150434943498,-0.4900150434943498,1.0009620553329197,0.001367426764282006
-0.48903658630006247,-0.48903658630006247,0.9993848352559306,0.0013738297837468073
-0.4880960591268376,-0.4880960591268376,0.9979553350479564,0.0013832320350977724
-0.4865466989285778,-0.4865466989285778,0.9983927468069351,0.0013771377594697912
-0.4857882510041236,-0.4857882510041236,0.9995758899309719,0.001362725296711788
-0.48403339500073345,-0.48403339500073345,0.9993276924162127,0.0013554457613541367
-0.4821226173982723,-0.4821226173982723,1.0006821586620251,0.0013776967110171174
-0.4804854215384694,-0.4804854215384694,1.0006842944589593,0.0013879301528969472
-0.479238475621969,-0.479238475621969,0.9984263601875709,0.0013732700829293043
-0.477602368996304,-0.477602368996304,1.0010757316103915,0.001363149786731153
-0.47698358065681534,-0.47698358065681534,1.00046723777266,0.0013791919687991656
-0.4757256355442223,-0.4757256355442223,1.0021932546365686,0.0013609221216998532
-0.4741561565126176,-0.4741561565126176,0.9992771083905027,0.0013664030867717603
-0.47238781390478835,-0.47238781390478835,1.0012548382745046,0.0013729076888890272
-0.47109070743317716,-0.47109070743317716,0.9998289521245194,0.0013770830966155852
-0.4691819581159507,-0.4691819581159507,0.9994180823197147,0.0013651295152506313
-0.467973507149145,-0.467973507149145,0.9994536125820949,0.0013654185392060333
-0.4664967039891053,-0.4664967039891053,1.002783554823078,0.001360704628036575
-0.46477769073389935,-0.46477769073389935,1.0009334247684392,0.0013733102866028757
-0.4630622458047583,-0.4630622458047583,0.9990232218432892,0.001379106197197428
-0.4620465923580923,-0.4620465923580923,1.0026520140375716,0.0013644284183843701
-0.46099099239654606,-0.46099099239654606,0.9998945460840204,0.0013694443104277682
-0.4593641540952376,-0.4593641540952376,1.0034226517413496,0.0013646601154217205
-0.45805569374206245,-0.45805569374206245,1.0002471398311976,0.001367410663596577
-0.4565276240071398,-0.4565276240071398,0.999814888515617,0.001400635283386074
-0.45452895118069137,-0.45452895118069137,1.0014278369929261,0.001377323363391044
-0.4533105400914792,-0.4533105400914792,1.0007415167370382,0.001358974530418592
-0.4518590626074001,-0.4518590626074001,0.9990704805563173,0.0013628221035926074
-0.4506529806603794,-0.4506529806603794,0.9974493941220531,0.0013707403043048793
-0.44891768059169407,-0.44891768059169407,1.0000652848697402,0.0013824103002361586
-0.44800368018477454,-0.44800368018477454,1.0012517321564336,0.0013703995138207865
-0.44656927419418935,-0.44656927419418935,1.0002917823038258,0.0013931048616253323
-0.44567659886670297,-0.44567659886670297,0.9989295963543909,0.0013505152659347745
-0.44381116185977587,-0.44381116185977587,1.0003432777369323,0.0013612098743792799
-0.44197471174556996,-0.44197471174556996,0.9998073267063052,0.0013946705148210955
-0.4411050866547157,-0.4411050866547157,0.9999942117277548,0.0013755051393933228
-0.4393454185104929,-0.4393454185104929,1.0026837961225112,0.001379722390186413
-0.4375753506086767,-0.4375753506086767,1.0010483091396503,0.0013573149084940802
-0.43613447136449396,-0.43613447136449396,0.998168220526362,0.0013695626510750165
-0.4343997982301516,-0.4343997982301516,0.9987884335524422,0.001370398408081265
-0.4331397864167229,-0.4331397864167229,1.0011164049195802,0.0013757581975072045
-0.43101630129967816,-0.43101630129967816,0.9999946459134156,0.0013761853439575914
-0.4299867951849592,-0.4299867951849592,1.003634349923451,0.0013689142072212874
-0.429096988136007,-0.429096988136007,1.0017226327042106,0.0013782059953111607
-0.4274052453984041,-0.4274052453984041,0.9996517904660569,0.0013806959159911151
-0.4257579067387269,-0.4257579067387269,1.0007173446737954,0.0013904144166364675
-0.4249077094806125,-0.4249077094806125,1.0007354025402833,0.0013898945040695123
-0.42363438660249814,-0.42363438660249814,1.000656017465399,0.0013781787880119735
-0.422334386309376,-0.422334386309376,0.9998859589093889,0.001361197009153763
-0.42081340061558875,-0.42081340061558875,0.999323243254773,0.001347983911593604
-0.41955683743435657,-0.41955683743435657,1.001728428261624,0.001376542719995171
-0.4187455533989123,-0.4187455533989123,0.9976419629142288,0.0013792946188258225
-0.41743245476682206,-0.41743245476682206,1.0009243832157595,0.001369833638875499
-0.4159275616009836,-0.4159275616009836,1.0005139782479104,0.0013595598631751628
-0.41492742235859625,-0.41492742235859625,0.9988954334732154,0.0013690798915675284
-0.4140539061743766,-0.4140539061743766,0.9998634115180265,0.001365547347414791
-0.4130257263153908,-0.4130257263153908,1.0003666939465472,0.0013660076946120786
-0.41109456428239355,-0.41109456428239355,0.9998380224426688,0.0013846841912026199
-0.4099108658818295,-0.4099108658818295,1.0008322004127992,0.0013591353311001027
-0.408336390403565,-0.408336390403565,1.0000277352338485,0.0013833189379860633
-0.407569786174281,-0.407569786174281,1.0012386950617542,0.0013807281880933962
-0.40581536476965996,-0.40581536476965996,1.002204121083635,0.0013552962036846579
-0.4037350136801251,-0.4037350136801251,1.00221971973157,0.0013723160023283102
-0.40205642869404984,-0.40205642869404984,1.00063110972105,0.0013610753991650272
-0.40055887445778354,-0.40055887445778354,0.9998170877561648,0.0013598001498265617
-0.3990312497218838,-0.3990312497218838,1.0017149102163327,0.0013798344564273607
-0.39759617297095246,-0.39759617297095246,1.0001948686476418,0.0013705404919318613
-0.3964152036132873,-0.3964152036132873,1.000320778770274,0.0013772754213597798
-0.3947951579175424,-0.3947951579175424,0.9980779815720551,0.0013640451234119412
-0.3932944426022004,-0.3932944426022004,0.9995577783313235,0.0013918085108788713
-0.39171431596914774,-0.39171431596914774,0.9973696662165932,0.0013841270578748993
-0.3907618406257825,-0.3907618406257825,1.0001846816101907,0.0013588648705883622
-0.3889796242379816,-0.3889796242379816,1.0002528968688242,0.0013470187493723116
-0.38764534099318554,-0.38764534099318554,0.9993948353852673,0.0013711846500505265
-0.38659878184989793,-0.38659878184989793,1.0016073599268553,0.0013779443298534964
-0.38562005077401407,-0.38562005077401407,1.0016766804124466,0.0013782839963731347
-0.38436532359046394,-0.38436532359046394,0.9993976263420489,0.0013610596655222657
-0.38343472484411906,-0.38343472484411906,1.0002516981708305,0.0013668587840607396
-0.3821335066357278,-0.3821335066357278,0.9999122512173677,0.0013622216861403787
-0.38012165833933975,-0.38012165833933975,0.9992453325494661,0.001385072518785268
-0.37873087479238166,-0.37873087479238166,0.999422094239112,0.0013755325517069942
-0.37670810074632755,-0.37670810074632755,0.9998910366242191,0.0013798469871555742
-0.37477435169566886,-0.37477435169566886,1.0006730578143084,0.0013508644527250283
-0.3735396473668516,-0.3735396473668516,1.0002782273338604,0.0013633804403602207
-0.3718785273682442,-0.3718785273682442,0.9992822751022483,0.0013960533943920314
-0.3703966173241497,-0.3703966173241497,1.0007650717892425,0.0013788079468973536
-0.36912952534330545,-0.36912952534330545,1.0026375359383775,0.0013838539749486864
-0.3679296620408422,-0.3679296620408422,0.9996712367428782,0.00137014578007852
-0.36695384642516726,-0.36695384642516726,1.0005010161719456,0.001360019657694621
-0.3656856405650615,-0.3656856405650615,0.9983058917963895,0.001362033099565799
-0.3638239660052932,-0.3638239660052932,0.9991035386629006,0.0013795577352968074
-0.36228826549340737,-0.36228826549340737,1.0023089943690362,0.0013772504946468092
-0.36121082454483255,-0.36121082454483255,0.9996656483839157,0.0013648120442220806
-0.35949872534692984,-0.35949872534692984,0.9990909720411647,0.0013741681768536934
-0.35772598704934355,-0.35772598704934355,0.9975705385827262,0.001354292258127191
-0.3557967689645011,-0.3557967689645011,1.0001422190886555,0.001378030380013055
-0.3544543795171194,-0.3544543795171194,0.9997309138185819,0.0013895737310476637
-0.3533627294949838,-0.3533627294949838,0.9994024936714514,0.0013683093040015493
-0.3525067302660318,-0.3525067302660318,1.0010418928033225,0.0013693208534709884
-0.3517578790706466,-0.3517578790706466,0.9986053013736942,0.0013561841769169458
-0.3502210617487435,-0.3502210617487435,1.0006732017569122,0.0013685438385610438
-0.34855683076166316,-0.34855683076166316,1.0037402122275103,0.0013758408688024353
-0.3470117282209685,-0.3470117282209685,0.9998317865200242,0.0013870508423687897
-0.3451442055142252,-0.3451442055142252,1.0003818859044296,0.0013744116474535368
-0.3439131976439967,-0.3439131976439967,1.000453601486671,0.0013613238182152193
-0.34205576885142364,-0.34205576885142364,0.9996373503244387,0.0013624761756574617
-0.3406754137351527,-0.3406754137351527,0.9992451179861463,0.001379488394205155
-0.33955584056675436,-0.33955584056675436,0.9999116996972498,0.0013778580525647315
-0.33853883150441105,-0.33853883150441105,0.9973862338194964,0.0013569233882267254
-0.3376134815698606,-0.3376134815698606,1.0002615777807806,0.0013708555529165257
-0.3365663352509728,-0.3365663352509728,1.0001682950457662,0.0013508925994297756
-0.33561378350277665,-0.33561378350277665,0.9994828914002472,0.001372657279611767
-0.333852390453103,-0.333852390453103,0.9974974747657244,0.0013643084954042138
-0.3323068178331596,-0.3323068178331596,1.002923772551922,0.0013842130181485309
-0.3308127475902438,-0.3308127475902438,1.0002657043620202,0.0013733461465143485
-0.3291544319843524,-0.3291544319843524,0.9981065495551971,0.0013698746196260066
-0.3271654428041074,-0.3271654428041074,1.0000965332972978,0.0013551394179396026
-0.32483831390127305,-0.32483831390127305,1.0013344538540017,0.0013668834924081784
-0.3235903030988993,-0.3235903030988993,0.999149354745229,0.0013816875910051183
-0.3219711562007433,-0.3219711562007433,1.001820282135282,0.0013762577197454875
-0.321100776916137,-0.321100776916137,0.9998974491684022,0.0013834581627381933
-0.3199640884020482,-0.3199640884020482,0.9990799777260705,0.001377424725510071
-0.31889151099312585,-0.31889151099312585,1.0006032645535115,0.001372343774011709
-0.31755590828106506,-0.31755590828106506,0.999801805401723,0.0013817825821440728
-0.316058023799269,-0.316058023799269,0.9998269442884473,0.0014067226424750927
-0.31531444497959454,-0.31531444497959454,0.9987518233107275,0.0013811649440415006
-0.31416811118397164,-0.31416811118397164,1.0020406230554477,0.0013753116947256261
-0.3130465860609547,-0.3130465860609547,1.0002030034607923,0.001361882510318871
-0.31162808312365087,-0.31162808312365087,1.002400345384593,0.0013601176587886487
-0.3099163530772785,-0.3099163530772785,1.000404471039235,0.0013792621849581862
-0.30906244984944353,-0.30906244984944353,0.9974463395458507,0.001370490738631281
-0.3069984586472856,-0.3069984586472856,0.9980030786151568,0.0013635524917834296
-0.3058211443858454,-0.3058211443858454,0.9995562198150427,0.0013707740470574469
-0.30482395781000377,-0.30482395781000377,1.000090094902415,0.0013749539055627604
-0.3038507777324412,-0.3038507777324412,1.0005747880007116,0.0013664435005056141
-0.30215560202341296,-0.30215560202341296,0.9988412918396685,0.0013627187711021678
-0.3008230926236138,-0.3008230926236138,1.0023841992342504,0.0013736181135682079
-0.2991525079356506,-0.2991525079356506,0.9989699667218982,0.0013846652901785448
-0.29838728629692923,-0.29838728629692923,1.0033980007462502,0.0013646861694399113
-0.2965440853397013,-0.2965440853397013,0.9995880877581861,0.0013574148908074672
-0.2947266844974365,-0.2947266844974365,0.9992169227678858,0.0013906855819272941
-0.29319419060338986,-0.29319419060338986,0.9986348253356517,0.0013923638998026577
-0.29194805491279113,-0.29194805491279113,1.003164300865879,0.0013535412482535074
-0.29075224318075926,-0.29075224318075926,0.9996681091694277,0.0013733506844459337
-0.2898212283034809,-0.2898212283034809,1.0010883705992548,0.0013673741116585181
-0.28845113870629574,-0.28845113870629574,1.0009890725665915,0.0013753548661868602
-0.2873467953744694,-0.2873467953744694,0.9990104547101885,0.001370522321135925
-0.28571596238471103,-0.28571596238471103,1.000274463981325,0.0013529017339145365
-0.28479950459732206,-0.28479950459732206,0.9984576327721815,0.0013790130389587623
-0.2834697530444828,-0.2834697530444828,1.0011747820109291,0.0013757893431093023
-0.28203082667168927,-0.28203082667168927,0.9994691868872867,0.0013835691973878008
-0.2808511968149105,-0.2808511968149105,1.0017224999540342,0.0013594856513530168
-0.2795561264647404,-0.2795561264647404,1.0018614794902292,0.0013600277452032123
-0.27808770687988726,-0.27808770687988726,1.0003620691747475,0.0013758371333557084
-0.27689926524908515,-0.27689926524908515,0.9992992831260634,0.0013770809100048938
-0.27567252225417177,-0.27567252225417177,1.000785840916326,0.0013744622510945838
-0.27455926873808495,-0.27455926873808495,1.0001037665209869,0.001364816214487626
-0.2734013121938915,-0.2734013121938915,0.9992684444541318,0.001364129831720744
-0.2722701531063649,-0.2722701531063649,0.9985996020900553,0.0013655737452155869
-0.2708220105007058,-0.2708220105007058,1.0024761281788623,0.001375029721816617
-0.26946922183124117,-0.26946922183124117,1.0024253107682908,0.0013883263690405853
-0.2685025028302334,-0.2685025028302334,1.001446368139097,0.0013769596790256554
-0.2672645021637436,-0.2672645021637436,0.9990572160953246,0.0013835845119238282
-0.2657453177132993,-0.2657453177132993,0.9986774186980186,0.0013548374018064024
-0.2641015603716369,-0.2641015603716369,1.0002490891037068,0.0013588679114071344
-0.26231604044442064,-0.26231604044442064,1.0008966680658222,0.0013834980713967027
-0.2603143579864991,-0.2603143579864991,0.998479192914567,0.0013646197918253868
-0.25891017013491363,-0.25891017013491363,1.0006269247413813,0.0013610800431193468
-0.25776180520188063,-0.25776180520188063,1.0018629396017613,0.0013704433305548461
-0.25643692136363827,-0.25643692136363827,1.0020254124344192,0.0013612350761124988
-0.2544913274352439,-0.2544913274352439,1.0016180128068388,0.0013717923021229568
-0.2533302484298474,-0.2533302484298474,0.9973865933023539,0.0013729000673844698
-0.25214281136723005,-0.25214281136723005,0.999762307154932,0.0013731666450908044
-0.2501250552435522,-0.2501250552435522,1.0013453652421886,0.001363986001638804
-0.24864172260422493,-0.24864172260422493,1.0007311394012057,0.0013662250262385706
-0.24695020663639297,-0.24695020663639297,1.0000609339673858,0.0013677787756559085
-0.2455847536897636,-0.2455847536897636,0.9988223022384709,0.0013722467271142097
-0.24372464218758977,-0.24372464218758977,0.9990791042772571,0.0013706682880306152
-0.2430384464256349,-0.2430384464256349,1.0007968164374639,0.0013824337059340002
-0.24204256595112383,-0.24204256595112383,0.9982338172326832,0.0013581413618706122
-0.24074711675930302,-0.24074711675930302,1.0010412185708932,0.0013679496280009375
-0.2391115610167617,-0.2391115610167617,0.9996975301011564,0.0013620246431982406
-0.23790267045260408,-0.23790267045260408,1.0006327947563054,0.0014066723036202414
-0.2368540319657768,-0.2368540319657768,0.9997259120229179,0.001385641103492157
-0.23500025582616219,-0.23500025582616219,1.0000985038962242,0.0013643540877735427
-0.23336191377602516,-0.23336191377602516,0.9996097450689149,0.0013489540043850011
-0.2320703178367694,-0.2320703178367694,1.0007353206469527,0.0013845889519209383
-0.23106228314572946,-0.23106228314572946,1.0025628117172338,0.001385715067990742
-0.22972552393766818,-0.22972552393766818,0.9978127414716059,0.001367539186908708
-0.22858006505557568,-0.22858006505557568,1.0020799045308544,0.00135482509853436
-0.22796204988699173,-0.22796204988699173,1.0015428517799596,0.0013795930209640702
-0.2269089992842055,-0.2269089992842055,0.9983922014593428,0.0013591302454572752
-0.22597038413514384,-0.22597038413514384,0.9999600501760753,0.0013763799312730032
-0.2243697438912932,-0.2243697438912932,1.0005246257661,0.0013529408105879368
-0.2231018289778149,-0.2231018289778149,1.0010655966121687,0.0013884967799161715
-0.2219843216051231,-0.2219843216051231,0.9978983402966968,0.00136649533263447
-0.2201060626655817,-0.2201060626655817,1.0002438389867092,0.0013714844312646658
-0.21785698517487617,-0.21785698517487617,0.9988320479665793,0.001357933801577686
-0.2160431321928627,-0.2160431321928627,1.0013865278681795,0.0013763516561284554
-0.21484796709555667,-0.21484796709555667,1.0000226096321985,0.0013599389609296596
-0.21335414458590093,-0.21335414458590093,1.001576318611598,0.0013640770071608724
-0.21200929158949294,-0.21200929158949294,0.9992468368054407,0.0013688177208284462
-0.21116471998830094,-0.21116471998830094,0.999968877943127,0.0013620061360507913
-0.20999698743544287,-0.20999698743544287,0.99984827776153,0.0013720249415218203
-0.20877694502705707,-0.20877694502705707,0.9978987117796564,0.001372543416706009
-0.20725414244516288,-0.20725414244516288,1.0005086237770295,0.0013737359355470956
-0.20602323802595493,-0.20602323802595493,1.000884248521081,0.0014030464241882989
-0.2039870317079476,-0.2039870317079476,0.9997402242731235,0.0013654996059515292
-0.20264258736424381,-0.20264258736424381,0.9993422556205294,0.0013566820371778148
-0.20051161283772673,-0.20051161283772673,1.0001637570317858,0.00135649889920447
-0.19951153570582392,-0.19951153570582392,1.0008345860382288,0.001377673774719064
-0.19777958067861617,-0.19777958067861617,1.001880783380842,0.0013586862079914312
-0.19657182146038393,-0.19657182146038393,1.0029888949229,0.0013791816393144648
-0.19535554968606447,-0.19535554968606447,1.0003363610503984,0.0013753055078460745
-0.19458978770999238,-0.19458978770999238,1.000305249061927,0.001366152512664384
-0.19322906694869743,-0.19322906694869743,1.0019030399899527,0.0013630808598981852
-0.19203881131106754,-0.19203881131106754,1.0021841760565797,0.0013890567865974684
-0.19122586829034843,-0.19122586829034843,0.9977039909478949,0.0013615725863345717
-0.18970922274747865,-0.18970922274747865,1.0029102494795363,0.001378349225095534
-0.1889926420772099,-0.1889926420772099,1.0004574198388472,0.0013681910796992259
-0.18673743948165794,-0.18673743948165794,1.0007066135318328,0.0013553375840351684
-0.18485687919019256,-0.18485687919019256,1.0005356317569543,0.0013804901298353047
-0.18353121794643812,-0.18353121794643812,0.9987778106177165,0.0013838774176237246
-0.18178060314094183,-0.18178060314094183,1.0004898632669452,0.0013731524021564324
-0.18042259074718459,-0.18042259074718459,0.9986073223614944,0.001379516725207776
-0.17964011694857618,-0.17964011694857618,1.000560652231271,0.0013654075999051162
-0.1781353253973066,-0.1781353253973066,0.998677315829062,0.0013566036324653206
-0.17593463097000495,-0.17593463097000495,0.9986646846763374,0.0013711504167255035
-0.1742473332953523,-0.1742473332953523,1.0010614260076498,0.0013783777024378506
-0.1721226059802575,-0.1721226059802575,1.0001346860880258,0.0013687761035807437
-0.170670030664769,-0.170670030664769,0.9992687824822273,0.0013488791360624299
-0.16899672144209035,-0.16899672144209035,1.0007400162108064,0.0013641852960076684
-0.16769790687831118,-0.16769790687831118,0.9994870403852356,0.0013809068085287525
-0.16638571083021816,-0.16638571083021816,1.0020763151274117,0.001369356363144044
-0.1652813928289106,-0.1652813928289106,0.9985820435867664,0.0013692716541182863
-0.16443434468528723,-0.16443434468528723,0.9994132015537429,0.001367781500431023
-0.1630187213610043,-0.1630187213610043,1.0013025792550114,0.0013688868728016681
-0.16135340918845031,-0.16135340918845031,0.999837670307668,0.00137446432987018
