time,time,flux,flux_err
-0.499769717959983,-0.499769717959983,0.9999846457381448,0.00012186366442128944
-0.4995329914578178,-0.4995329914578178,0.9998201411342407,0.00011570529099757436
-0.4993247499289282,-0.4993247499289282,1.0000013116104094,0.00011613405826660563
-0.4991211685119197,-0.4991211685119197,0.9999622025230088,0.00011430893556281102
-0.4989417406985012,-0.4989417406985012,1.0001245945623687,0.00011169109532993259
-0.4988254690942995,-0.4988254690942995,0.999992386424486,0.00011266818223391967
-0.498622472309944,-0.498622472309944,1.00004647774824,0.0001159511720280722
-0.4983157902664971,-0.4983157902664971,1.0001214285453794,0.00011644546254311052
-0.4981283898887341,-0.4981283898887341,1.0000214633816464,0.00012533844663202188
-0.4977954639383825,-0.4977954639383825,0.9999664605254489,0.00011671453763871982
-0.49746402466189465,-0.49746402466189465,1.0000018822121701,0.00012262413317511877
-0.4974069051349943,-0.4974069051349943,0.9998621435208095,0.00011259220245327778
-0.49730836357193764,-0.49730836357193764,0.9998388499519255,0.00011284302586046628
-0.4971170573466225,-0.4971170573466225,0.999951946854339,0.00011140045912812499
-0.49686677111749306,-0.49686677111749306,1.0000157284089786,0.00011125874598508353
-0.49671160011130266,-0.49671160011130266,0.9998470123833709,0.00011666904736383713
-0.49661273002566303,-0.49661273002566303,0.9999822943788015,0.00011631582019016864
-0.4963919494555739,-0.4963919494555739,1.000111698977318,0.00011615502173144978
-0.4961365330098488,-0.4961365330098488,1.0002412129760465,0.0001219506857617531
-0.4959653576697747,-0.4959653576697747,1.000041372401884,0.00011314672654805619
-0.4956934778529103,-0.4956934778529103,1.0000729973493965,0.00011216595947857421
-0.49534341928447245,-0.49534341928447245,1.000190624816583,0.00011290564036999988
-0.4951121327998408,-0.4951121327998408,0.9999989504325535,0.00011166156181139869
-0.4949129748878477,-0.4949129748878477,1.0000375509757844,0.00011711467447925354
-0.49475127401965435,-0.49475127401965435,0.9999043118172013,0.000125453542184386
-0.4945276115126035,-0.4945276115126035,0.9999332488574517,0.00011616671484691728
-0.4943657769159472,-0.4943657769159472,0.9998190002719507,0.0001126230083246351
-0.49419532820684253,-0.49419532820684253,1.0000671136666102,0.00011661704768183923
-0.49391586087222095,-0.49391586087222095,1.0000159434418434,0.00011145190716187249
-0.4936835711741878,-0.4936835711741878,0.9998499453984445,0.00011544624169789993
-0.49338403945512255,-0.49338403945512255,0.9999846153178481,0.00011612300934010509
-0.49307558822329156,-0.49307558822329156,1.0001134881718914,0.00011127770116582439
-0.492794699879596,-0.492794699879596,0.9999459222690845,0.00012125604440632681
-0.49264276440299,-0.49264276440299,0.9999775087000271,0.00011729716716314206
-0.49253937493558625,-0.49253937493558625,0.9999264701684565,0.0001138299408774373
-0.4923464635961864,-0.4923464635961864,0.9999732997101421,0.00011091133067022514
-0.49220328227238497,-0.49220328227238497,1.000037535166354,0.00011263891889999445
-0.49208711852916165,-0.49208711852916165,1.0001072759972724,0.00012037893854601378
-0.4919381247891579,-0.4919381247891579,0.9999846413040661,0.0001174174488421097
-0.49171060669468714,-0.49171060669468714,1.0000234006292927,0.00011585044665357363
-0.4915101991900883,-0.4915101991900883,1.0000080381773064,0.00011525429315843187
-0.49134187147283226,-0.49134187147283226,1.0000763188703066,0.00012506392307816246
-0.49094295278409844,-0.49094295278409844,0.9999288665237976,0.00011106058841849069
-0.4907359597236791,-0.4907359597236791,1.0000788191539252,0.00011197023817217224
-0.4905798617677647,-0.4905798617677647,0.999982530980399,0.00011457871685204585
-0.4903188490643515,-0.4903188490643515,1.000068331730939,0.0001124474704895985
-0.4901361096141045,-0.4901361096141045,1.000060323584091,0.00011204694503552045
-0.49001127514638937,-0.49001127514638937,0.9997841273905983,0.00011527870614681606
-0.4898299362313992,-0.4898299362313992,1.0002061766179895,0.00011660279829917486
-0.4895904983874061,-0.4895904983874061,1.0000046785953287,0.0001249759576433411
-0.48935851642527267,-0.48935851642527267,1.0001095757592544,0.00011204471545466837
-0.48911679297088995,-0.48911679297088995,0.9999499697199082,0.00011204306172442842
-0.4888341995945666,-0.4888341995945666,0.999951627315234,0.00011153320078759929
-0.4884115360247961,-0.4884115360247961,1.00003203256921,0.00011699653988448953
-0.4881289162716712,-0.4881289162716712,1.0000182488138714,0.00011507951668445848
-0.48796942550179667,-0.48796942550179667,1.000078197245902,0.0001201796326679556
-0.487756641159649,-0.487756641159649,1.0001088292827718,0.00011513153207498283
-0.4876234283859958,-0.4876234283859958,1.0001766866803574,0.00011116115287371708
-0.48747946519506513,-0.48747946519506513,0.9999719052059868,0.00011268001782208394
-0.48736137393498213,-0.48736137393498213,0.9997652185966748,0.00010970233237109557
-0.48718485180143034,-0.48718485180143034,0.999989373891499,0.00011326291830169276
-0.4869689032151655,-0.4869689032151655,0.9999464242345242,0.0001165012646678883
-0.4866448416541971,-0.4866448416541971,1.0001592962502435,0.0001190416121135222
-0.486438033500599,-0.486438033500599,1.0000285154346742,0.00011259164211350273
-0.4861343406540982,-0.4861343406540982,1.0001181309816451,0.00011986469784693583
-0.4859802783925261,-0.4859802783925261,0.99982490561889,0.00011248824119976353
-0.4859067730314564,-0.4859067730314564,1.000205680438689,0.00011802793042399147
-0.48577420718211217,-0.48577420718211217,0.9999664064663986,0.0001119142616611457
-0.4855856665999454,-0.4855856665999454,1.0000555664279722,0.00011188788982610986
-0.4854121510128607,-0.4854121510128607,0.9998271266429348,0.0001161636300042567
-0.4851593417544791,-0.4851593417544791,0.9999233525270457,0.00011667162880117893
-0.48483295968035234,-0.48483295968035234,0.9999275943081141,0.00012075269718224166
-0.48462669634900524,-0.48462669634900524,1.0000062327153711,0.00012191164145255811
-0.48439917531068205,-0.48439917531068205,1.0000199125569207,0.00011119437924017581
-0.4841863193338213,-0.4841863193338213,0.9999291539503344,0.00011127955795257381
-0.48397704673188857,-0.48397704673188857,0.9999848207117366,0.00011270346373911752
-0.48373520400491543,-0.48373520400491543,1.000130597908322,0.00011397300833456881
-0.4834930434757553,-0.4834930434757553,1.000096389729591,0.0001175579831717142
-0.48318220531873524,-0.48318220531873524,1.0000897767953931,0.00011988115669220409
-0.4829568495828426,-0.4829568495828426,1.000103699073576,0.00011228678845375797
-0.4827642984702834,-0.4827642984702834,1.0000427823927016,0.00012028471094202781
-0.48256518570706247,-0.48256518570706247,1.0000303697704045,0.00011149035725199061
-0.4822564982721815,-0.4822564982721815,1.0000449664776605,0.0001105447618357633
-0.4819532883084321,-0.4819532883084321,1.000009829955395,0.00011630585398163129
-0.48165483367920386,-0.48165483367920386,1.0000120892655655,0.00011074922227586245
-0.48142050994865715,-0.48142050994865715,1.000102457426609,0.00011603707634453624
-0.4812521588319214,-0.4812521588319214,0.9999504699434898,0.00011634284597950527
-0.4810358907387126,-0.4810358907387126,1.0001500755110402,0.00011925227678328542
-0.48084075203369137,-0.48084075203369137,1.0000565115638236,0.00011203371565766803
-0.48071697616906023,-0.48071697616906023,1.0000175130683426,0.00011247301750316155
-0.4805111378336733,-0.4805111378336733,1.0000256796580396,0.00011125949995814139
-0.48015441247625856,-0.48015441247625856,1.000045208517417,0.00011573079564752747
-0.48001086071599275,-0.48001086071599275,0.9999776492869966,0.00012032823372461803
-0.47980699345571337,-0.47980699345571337,1.0000152928137416,0.00011476144186272047
-0.4794794121211453,-0.4794794121211453,1.0001264501988738,0.00011636114883746172
-0.4792478646952077,-0.4792478646952077,1.0000289804461102,0.00011731476314983775
-0.4791183496468875,-0.4791183496468875,0.9998632476705757,0.00011254608252699305
-0.47888660940225236,-0.47888660940225236,1.00017659477049,0.00011182049265670913
-0.47858463972006576,-0.47858463972006576,1.0001825985614514,0.00011731603000244106
-0.4784630506816029,-0.4784630506816029,1.0000720173896471,0.00011648232949088464
-0.4781874050029728,-0.4781874050029728,0.9998584133664092,0.00011595481141847574
-0.47794204333695234,-0.47794204333695234,1.0000133572495205,0.00011677970610284158
-0.47778586638742127,-0.47778586638742127,1.000110819411136,0.00011117479452718603
-0.4775122719729552,-0.4775122719729552,1.0002654061851721,0.00011111099864281918
-0.4771467066471814,-0.4771467066471814,0.999933783155139,0.0001137114309775061
-0.4769570508178731,-0.4769570508178731,0.999965954506064,0.00011265513185827873
-0.4767781664682843,-0.4767781664682843,0.9999678539540595,0.00011597700081855869
-0.47652143770974364,-0.47652143770974364,0.9999460471021908,0.0001162333952580148
-0.47627801816124704,-0.47627801816124704,0.9998515444673977,0.00011559656559651211
-0.4761716191576852,-0.4761716191576852,0.999953586977206,0.00011158418865706025
-0.4760103897555382,-0.4760103897555382,0.9999440111463794,0.00012218936150232363
-0.4757672909530811,-0.4757672909530811,1.0000983683664728,0.00011169567695449504
-0.4755226547495113,-0.4755226547495113,1.0001129139142022,0.00011471251724454313
-0.475336460404651,-0.475336460404651,1.0001945483927572,0.00011529042183943493
-0.47494791689605337,-0.47494791689605337,1.0000555393879356,0.00011195408476694712
-0.4747598036272393,-0.4747598036272393,1.000113583465694,0.00011584623617789971
-0.474546694655146,-0.474546694655146,1.0000069313541675,0.00012083952543469887
-0.4743955267527781,-0.4743955267527781,1.0000893802747102,0.00011167480296497007
-0.474211305505014,-0.474211305505014,0.9999814850277268,0.00011375015200690203
-0.47403429302648875,-0.47403429302648875,1.0000018183732329,0.00011233271141740497
-0.4739467869207147,-0.4739467869207147,0.9998785021453811,0.00011252414187459796
-0.47374984308116835,-0.47374984308116835,0.999882579228502,0.00011557027478722643
-0.4734933597042982,-0.4734933597042982,1.0002570491868035,0.00011494320920893886
-0.47326755013127697,-0.47326755013127697,0.9999388298859371,0.00012558720973690165
-0.473125337655074,-0.473125337655074,0.9998747408418405,0.00011590631709725977
-0.4727231768607453,-0.4727231768607453,0.9998262862339796,0.00011122485853994834
-0.4725219782099884,-0.4725219782099884,0.9999725853514232,0.00011153903054001885
-0.47241829718986994,-0.47241829718986994,1.0001853147060635,0.00011174413791279804
-0.47221968885787646,-0.47221968885787646,1.0000500965530061,0.00011474004681901538
-0.4720187178849301,-0.4720187178849301,1.0001166392836283,0.0001119163781781763
-0.47186267377110197,-0.47186267377110197,1.0000713135826553,0.00011563749159299787
-0.47171705194268726,-0.47171705194268726,0.9999740461354584,0.000116143944991268
-0.4714236347899714,-0.4714236347899714,0.9998670473621001,0.0001206144891664735
-0.4711990052521287,-0.4711990052521287,1.0001841718045688,0.00011645216385170867
-0.471003216796089,-0.471003216796089,1.000291492533106,0.00011066228776137146
-0.4706650006621203,-0.4706650006621203,1.0001649606015781,0.00011141282683553263
-0.4702600609220099,-0.4702600609220099,1.0000912810456608,0.00011309960720110425
-0.46993905719573376,-0.46993905719573376,1.0002718499553027,0.00012189957877331941
-0.4697764911608829,-0.4697764911608829,0.9999926636817575,0.00011531820353594963
-0.469521211101528,-0.469521211101528,0.9999883931375899,0.00011544731823029306
-0.4694317263340054,-0.4694317263340054,1.0001356503257643,0.0001126511337136686
-0.46918108680984005,-0.46918108680984005,1.0000823700667696,0.0001112318803918423
-0.4689383358563646,-0.4689383358563646,1.0001716385050223,0.00011614431962967675
-0.46872135692028677,-0.46872135692028677,1.000001306308546,0.00011150372521022777
-0.4683912884844176,-0.4683912884844176,0.9998840073855397,0.00011434999037307387
-0.4680364328189171,-0.4680364328189171,0.9999966732479262,0.00012122112836479776
-0.4678416072347318,-0.4678416072347318,1.0001571337392492,0.00011232036689744044
-0.46771172937806116,-0.46771172937806116,1.0001033314415175,0.00011906793846875551
-0.4675446297915187,-0.4675446297915187,1.0001727435013448,0.00011058238507699288
-0.4673649360098352,-0.4673649360098352,0.9999097155035169,0.00011275718931025231
-0.4672125442739343,-0.4672125442739343,1.000059963832304,0.00011660824984534785
-0.4670119567294023,-0.4670119567294023,1.0000562865139089,0.00011664730282350184
-0.46684043948334875,-0.46684043948334875,0.9998390823292629,0.00011113756380387403
-0.46655938596377383,-0.46655938596377383,1.000022309963606,0.0001293345334771832
-0.4663511828512128,-0.4663511828512128,1.0001427459844359,0.00011222022615099065
-0.46613418334163725,-0.46613418334163725,0.9997773932907921,0.00011165560910633091
-0.4659557632592623,-0.4659557632592623,1.0000880544224207,0.00011188971374115255
-0.46577037051538356,-0.46577037051538356,1.0000705419589322,0.00011276313493485282
-0.4656221200537402,-0.4656221200537402,0.9999796466398955,0.00011906461337433374
-0.46541776122830925,-0.46541776122830925,1.0000430619026974,0.00011174881292394068
-0.46510227688559097,-0.46510227688559097,1.0000742615541545,0.00012104495041149012
-0.46476543129465425,-0.46476543129465425,0.9998817914162089,0.00011665141066107487
-0.46453528206111516,-0.46453528206111516,1.0000795446528687,0.00012170516414967145
-0.46429844015001437,-0.46429844015001437,1.0000383120520664,0.00011106761032127625
-0.46399190109223126,-0.46399190109223126,1.0000411396999351,0.00011065922228602726
-0.46374235874027364,-0.46374235874027364,0.9999415202345231,0.00011691991298805214
-0.4634065112863027,-0.4634065112863027,0.9999648123666646,0.00011162672029216277
-0.4632279942954483,-0.4632279942954483,0.9999205700449053,0.00011509643825427922
-0.46310552445065695,-0.46310552445065695,0.9999191459570204,0.00012136134411163913
-0.4629106724714802,-0.4629106724714802,1.000021874318731,0.00011519782201817247
-0.4627721463308262,-0.4627721463308262,1.0000584225842182,0.00011610939840627785
-0.46260335612678316,-0.46260335612678316,1.0000912536249045,0.00011184161010286284
-0.46247109550386084,-0.46247109550386084,1.0000628572056585,0.00011182337996622404
-0.46224260667004274,-0.46224260667004274,1.0000584391291418,0.00011100541776383539
-0.46195125507729246,-0.46195125507729246,1.0000098352646845,0.00012141788236936695
-0.46171239683681053,-0.46171239683681053,0.9999792747351496,0.00011957672768747765
-0.4614692104667483,-0.4614692104667483,1.0000278376553458,0.0001117099285177207
-0.4611935035398346,-0.4611935035398346,1.0000710869299139,0.00011750464468664212
-0.4610417338742991,-0.4610417338742991,1.0000261289903525,0.00011787843156718693
-0.46093839049426605,-0.46093839049426605,1.0000472038385246,0.00011505241280807983
-0.46075796263612573,-0.46075796263612573,1.000059338501024,0.00011136651565393272
-0.46048633558311847,-0.46048633558311847,1.0003091287059678,0.00011554687169426012
-0.4603541685304663,-0.4603541685304663,1.0000469286237372,0.00011305371824780219
-0.46027016821244615,-0.46027016821244615,1.0001938814364262,0.00011671605755141708
-0.4599095750854758,-0.4599095750854758,0.9999749175682024,0.00012026792246837689
-0.4596383025651448,-0.4596383025651448,0.9999937642498027,0.00011100369012894816
-0.4593841480309493,-0.4593841480309493,1.000007059333147,0.00011191820384151173
-0.4590932623061235,-0.4590932623061235,0.9998867976418804,0.00011478469215828264
-0.458876817082637,-0.458876817082637,1.0000291611930063,0.00011093984725010525
-0.4587045264474,-0.4587045264474,0.9998824144859452,0.00011281286297990362
-0.4585070548571821,-0.4585070548571821,1.0000379950279583,0.00011302153176405196
-0.45839004142108025,-0.45839004142108025,1.0001026944635625,0.00011832547064134397
-0.45822147125800256,-0.45822147125800256,1.0000042698408806,0.00011543078132094521
-0.458058852879185,-0.458058852879185,1.0000106809011362,0.00011218084440762154
-0.45794330450517007,-0.45794330450517007,0.999983077602802,0.00011572356481746827
-0.4577753657969879,-0.4577753657969879,0.9999033131153873,0.0001163086557562305
-0.45753260183628297,-0.45753260183628297,0.9999635694409434,0.00011124815464854671
-0.45730946327312266,-0.45730946327312266,0.9998622736525841,0.00011484214406648922
-0.4570867745736905,-0.4570867745736905,1.0000782906464531,0.00011701097786037855
-0.4567395597528957,-0.4567395597528957,1.0000805030072084,0.00011195804565845529
-0.45647172971002875,-0.45647172971002875,0.9998776356024554,0.00012538268486426876
-0.4562567124805355,-0.4562567124805355,0.9998999307646115,0.00011187691689547369
-0.45608029288996477,-0.45608029288996477,1.0000007087903482,0.00011388833568646256
-0.4559155821778404,-0.4559155821778404,0.999929335740952,0.0001114892093939227
-0.4557943295003497,-0.4557943295003497,0.9999613412397592,0.00011296902069345915
-0.45566377391223795,-0.45566377391223795,0.9999208430926277,0.00011555454858750203
-0.4553323893887864,-0.4553323893887864,1.0001508176041447,0.00011692819966474103
-0.4551076221818221,-0.4551076221818221,1.0000525929262822,0.00012060980106957599
-0.4548405388246465,-0.4548405388246465,0.9999485662784954,0.00011669609472914912
-0.4543886086168641,-0.4543886086168641,1.0001738539375402,0.00012146769139041533
-0.4542996056843549,-0.4542996056843549,1.0001245234183982,0.00011254371192945642
-0.45411894361750454,-0.45411894361750454,0.9999685050053888,0.00011280960167852029
-0.45384035933675476,-0.45384035933675476,0.9999724193795249,0.00011122812872157546
-0.4536599914317776,-0.4536599914317776,1.000157917162981,0.00011557803014760411
-0.4535510058660293,-0.4535510058660293,0.9999273215365825,0.00011616596847115367
-0.45328020845845457,-0.45328020845845457,1.0002148860387485,0.00012109498659702172
-0.453062444448733,-0.453062444448733,1.0001106502357247,0.00011678943226723376
-0.45288383463193893,-0.45288383463193893,1.0000891696539234,0.00011115810097719484
-0.4525502270516881,-0.4525502270516881,1.0001947850067336,0.00011212681076423354
-0.45224131030845455,-0.45224131030845455,0.9999227284493488,0.0001124482252635961
-0.4520063650095835,-0.4520063650095835,0.9999784521257185,0.00011322362317644745
-0.4517925001186086,-0.4517925001186086,0.9998411715706851,0.00011708433877183337
-0.45170545934452094,-0.45170545934452094,1.000028824260449,0.00013017711222991371
-0.45148774948247594,-0.45148774948247594,0.9998921388996896,0.00011666059725542021
-0.4513165403091989,-0.4513165403091989,0.9999523302929809,0.00011183735793512318
-0.4511944189827773,-0.4511944189827773,1.0000597019899797,0.00011150972098128535
-0.4509027220468852,-0.4509027220468852,1.0002134425215208,0.00011172197937252093
-0.45065903297072507,-0.45065903297072507,1.000087420535449,0.00011483712316124117
-0.45041215501769327,-0.45041215501769327,1.0000347486679408,0.00011621453995159237
-0.4500914274212846,-0.4500914274212846,1.000042689141516,0.0001117875840266691
-0.44989394726362664,-0.44989394726362664,0.9999837891702164,0.00011613378249033695
-0.4496621303638676,-0.4496621303638676,1.0003549299116605,0.00012028821930090881
-0.4495529834326589,-0.4495529834326589,0.9998210793859471,0.00011381011770649605
-0.4494036768002843,-0.4494036768002843,1.0000532045946162,0.0001135291883376015
-0.44920469087301174,-0.44920469087301174,1.0001521618476095,0.00011160197051500429
-0.44905424604876315,-0.44905424604876315,0.9999805423540759,0.00011702424167635948
-0.44888847681941113,-0.44888847681941113,0.999954906154603,0.00012180101768458104
-0.44870296671797405,-0.44870296671797405,1.0002040391961777,0.0001114381430017981
-0.4484702478752297,-0.4484702478752297,0.9999976741954859,0.00012013896854627716
-0.448292982683779,-0.448292982683779,1.0000364246249391,0.0001249718462623829
-0.44805713913665385,-0.44805713913665385,1.0000466139317143,0.0001115790697988521
-0.44785333419786183,-0.44785333419786183,0.9999124629387925,0.00011048135657645147
