time,time,flux,flux_err
-0.498640336633495,-0.498640336633495,0.9999612319449049,0.000105441655390018
-0.4966354567965027,-0.4966354567965027,1.0000513482458047,9.623337221067966e-05
-0.49544763169105865,-0.49544763169105865,1.0000353825182,9.638736497375343e-05
-0.493037970806472,-0.493037970806472,1.0001623875233974,9.641929716468057e-05
-0.49139245281839977,-0.49139245281839977,0.9995969569657175,9.616527926756429e-05
-0.4900133738963632,-0.4900133738963632,0.9999936153248002,9.637588446518266e-05
-0.4882239675484016,-0.4882239675484016,1.0000206213243636,9.645253590384631e-05
-0.48674957381153944,-0.48674957381153944,1.0001040135303056,9.629303091507521e-05
-0.4856145177895087,-0.4856145177895087,0.999891277405826,9.630946659634426e-05
-0.48360085286112736,-0.48360085286112736,0.9999229867417749,9.690055326044729e-05
-0.48243145177548286,-0.48243145177548286,1.0000764960581534,9.651296085721056e-05
-0.4810510272072861,-0.4810510272072861,0.999963789563101,9.624631809120419e-05
-0.47884209324547555,-0.47884209324547555,0.9999151938175943,9.648233399482125e-05
-0.4770311488231528,-0.4770311488231528,0.9998651926358804,9.621899300853416e-05
-0.4751758488448104,-0.4751758488448104,0.9998037663726074,9.620090775693086e-05
-0.4730205148938694,-0.4730205148938694,1.0001900333507128,9.636078780935686e-05
-0.4713170890478068,-0.4713170890478068,0.9999456367775984,9.624088747299097e-05
-0.4695358268014388,-0.4695358268014388,1.0000608390877237,9.640022664362247e-05
-0.4677934588049538,-0.4677934588049538,1.0001943821874308,9.62621502035704e-05
-0.4656523948156973,-0.4656523948156973,0.9999536091650224,9.61899917644205e-05
-0.4640542398628895,-0.4640542398628895,1.0000256226794515,9.640783211213606e-05
-0.4620882333954796,-0.4620882333954796,1.0000890212987854,9.635517311201105e-05
-0.46076368004723917,-0.46076368004723917,0.9998912865748988,9.616069428140823e-05
-0.4593948570778593,-0.4593948570778593,1.0000759896573097,9.63975621102971e-05
-0.4570220314402832,-0.4570220314402832,1.0000247355838645,9.642374419172597e-05
-0.45569645596842745,-0.45569645596842745,0.9998731920657056,9.629174546832179e-05
-0.4538310277304845,-0.4538310277304845,1.000076531440439,9.631740939188968e-05
-0.45237934605102054,-0.45237934605102054,1.0000811773880596,9.64575095076492e-05
-0.4510426032822579,-0.4510426032822579,1.0000086970468236,9.628119349938853e-05
-0.44953484794095855,-0.44953484794095855,0.9999424019169958,9.62927284989132e-05
-0.4481278416045825,-0.4481278416045825,0.9998379626713534,9.6848460524119e-05
-0.4467176573773031,-0.4467176573773031,1.0000743719176381,9.638745360946697e-05
-0.44485171961714515,-0.44485171961714515,1.0000054727150074,9.618884140626473e-05
-0.44271983925718816,-0.44271983925718816,1.0000456823475978,9.648108143157699e-05
-0.44079490341537164,-0.44079490341537164,1.0001634911851576,9.621071363496619e-05
-0.43915254635794554,-0.43915254635794554,1.0000186137930738,9.645326396616293e-05
-0.43763620118843394,-0.43763620118843394,1.0000014548535963,9.624073680424366e-05
-0.43570071363355967,-0.43570071363355967,0.9999300544815884,9.618945875349188e-05
-0.43401857481658224,-0.43401857481658224,1.0002119743080862,9.640630754139906e-05
-0.43195685106620657,-0.43195685106620657,0.9999482679936612,9.627271388510918e-05
-0.4301153563399566,-0.4301153563399566,1.0000841989424976,9.626552304591162e-05
-0.4282470595295308,-0.4282470595295308,1.0000927503563413,9.64081921699087e-05
-0.426285308295337,-0.426285308295337,1.000255550885321,9.636968272545435e-05
-0.4252385588915786,-0.4252385588915786,1.0001102375981687,9.62331001023755e-05
-0.42366969986323966,-0.42366969986323966,1.000242927564392,9.630809819824842e-05
-0.4220672244307934,-0.4220672244307934,1.0000748167764095,9.648338920839323e-05
-0.42056092043058013,-0.42056092043058013,1.0000140558207526,9.627198703736803e-05
-0.4190056034276495,-0.4190056034276495,1.0000883486931706,9.628271122844125e-05
-0.4174603845807724,-0.4174603845807724,0.9998807264746221,9.64782313867895e-05
-0.4161841140812612,-0.4161841140812612,1.0000106550177077,9.630795383789526e-05
-0.4150362357424456,-0.4150362357424456,1.0001224944218652,9.630239044590576e-05
-0.41302278407092674,-0.41302278407092674,0.9999818962661318,9.666530284154874e-05
-0.4117650556145236,-0.4117650556145236,1.000118938050241,9.639652281345508e-05
-0.4100501359382179,-0.4100501359382179,1.000240654660779,9.618758550808751e-05
-0.407865829054208,-0.407865829054208,1.0001462968409274,9.650685295759981e-05
-0.4058436240433366,-0.4058436240433366,1.00004851800873,9.619587279170751e-05
-0.4040649329472217,-0.4040649329472217,0.9999730528483161,9.637267823367177e-05
-0.40267919591569806,-0.40267919591569806,1.0002647676561125,9.630851605675988e-05
-0.40084486875857694,-0.40084486875857694,1.0000585208991302,9.616799144543156e-05
-0.3989669210204738,-0.3989669210204738,1.000106203186823,9.637064915457263e-05
-0.3972204449615674,-0.3972204449615674,0.9999660743395001,9.624836720487869e-05
-0.3954292183771031,-0.3954292183771031,1.0000041305211007,9.621144443259876e-05
-0.3938705557826324,-0.3938705557826324,1.0000555806560905,9.651993494688925e-05
-0.3915224209908047,-0.3915224209908047,1.0002151604320844,9.633606683900149e-05
-0.39037461092375453,-0.39037461092375453,1.0001199950494417,9.627817308529129e-05
-0.38920306167419766,-0.38920306167419766,0.9999015142431243,9.641635205865615e-05
-0.3872993900848087,-0.3872993900848087,0.999998553398329,9.637017740637655e-05
-0.3858268332594889,-0.3858268332594889,1.0000828908507005,9.626093026782263e-05
-0.38480217016185636,-0.38480217016185636,0.9998071569678146,9.633251980722507e-05
-0.3828329450378078,-0.3828329450378078,1.0000030852879958,9.635298832751868e-05
-0.381507192949357,-0.381507192949357,0.9999562423720503,9.63221302309285e-05
-0.38017991906090176,-0.38017991906090176,1.0003146837371906,9.645709821896915e-05
-0.37798118714563317,-0.37798118714563317,0.9998727264905563,9.633772295910486e-05
-0.37652912275516426,-0.37652912275516426,1.0000849174020343,9.66133954679365e-05
-0.37476584604737584,-0.37476584604737584,0.9999357629787777,9.615430275814702e-05
-0.3725031834299443,-0.3725031834299443,1.0000112835251724,9.654032463450662e-05
-0.3705609702548827,-0.3705609702548827,0.9999352320339939,9.618475181249626e-05
-0.3687728707038332,-0.3687728707038332,1.000000308919182,9.636923663781398e-05
-0.3673934409656795,-0.3673934409656795,0.9997726379063396,9.629591996553492e-05
-0.365558407381468,-0.365558407381468,1.0000928755140117,9.618875614591046e-05
-0.36368259946175385,-0.36368259946175385,0.9999833766437007,9.636780204393448e-05
-0.36193405522499233,-0.36193405522499233,1.000002415898793,9.626806160974807e-05
-0.3601456560121733,-0.3601456560121733,0.9999765741656248,9.622728696390878e-05
-0.3585842126980424,-0.3585842126980424,0.9999342831562356,9.649427880336467e-05
-0.35621957277762706,-0.35621957277762706,0.9998896313637781,9.631434404338733e-05
-0.3548485410225112,-0.3548485410225112,0.9998366806916069,9.628679706923563e-05
-0.3538146076461999,-0.3538146076461999,0.9998515549043697,9.650796509681452e-05
-0.352012913156068,-0.352012913156068,1.0000557289213352,9.634423607912679e-05
-0.35054797651682745,-0.35054797651682745,0.9999771455816747,9.625665903596071e-05
-0.34923092062817884,-0.34923092062817884,1.000051583000458,9.626452059395234e-05
-0.34718532654223966,-0.34718532654223966,0.9999150642580121,9.639451271103938e-05
-0.3459323086164659,-0.3459323086164659,1.0001745069421255,9.631089154128072e-05
-0.3447982343714102,-0.3447982343714102,0.9999737455452739,9.636862616363109e-05
-0.34269564212154363,-0.34269564212154363,0.9998691399372153,9.635975577266601e-05
-0.3412445396359544,-0.3412445396359544,0.9999880229088725,9.647234415375171e-05
-0.33948164001631087,-0.33948164001631087,1.000026075130513,9.616089705755855e-05
-0.3369707526944694,-0.3369707526944694,1.0001128611207237,9.649798558973105e-05
-0.334934144190629,-0.334934144190629,1.0002017083205927,9.61924383169577e-05
-0.33324823559669314,-0.33324823559669314,1.0000642953627803,9.644510582413567e-05
-0.33178054281015645,-0.33178054281015645,1.0000874274473448,9.62642787491606e-05
-0.33027202541707085,-0.33027202541707085,0.9998826770568522,9.61938953971025e-05
-0.32839836454804755,-0.32839836454804755,1.0001983771374214,9.638190279748908e-05
-0.32664774546137776,-0.32664774546137776,1.0000933193200972,9.625656349874442e-05
-0.32486217750847574,-0.32486217750847574,1.0000016595541443,9.623179538042323e-05
-0.323677493557625,-0.323677493557625,1.0001102223699456,9.639457130833243e-05
-0.3212649286695523,-0.3212649286695523,0.9999597689914459,9.641168274609787e-05
-0.31962085018167274,-0.31962085018167274,1.000120729251978,9.61889049657548e-05
-0.3185228986098082,-0.3185228986098082,1.0000125378092328,9.652335913785984e-05
-0.3167265162075637,-0.3167265162075637,1.0001085736298823,9.635565930178056e-05
-0.3152692069677869,-0.3152692069677869,1.0000800833232018,9.626386600451618e-05
-0.3139425043613301,-0.3139425043613301,0.9999997329275875,9.6292529076723e-05
-0.31183214035118,-0.31183214035118,0.9999856070658598,9.70339550466888e-05
-0.31065402612293835,-0.31065402612293835,1.0000218567966688,9.634184862055392e-05
-0.3095108377528959,-0.3095108377528959,1.0001021044055567,9.638722552157464e-05
-0.3076051031021052,-0.3076051031021052,1.000077959493544,9.624019173746847e-05
-0.30631899228319526,-0.30631899228319526,1.0001142516142554,9.65008015512146e-05
-0.30464596567035185,-0.30464596567035185,1.0001703880282595,9.626608209362734e-05
-0.30268940564856167,-0.30268940564856167,1.000027903252047,9.63162505356102e-05
-0.30039854907081465,-0.30039854907081465,1.0000477460856443,9.628594247442934e-05
-0.29828322566609133,-0.29828322566609133,0.9999719177161108,9.624461617503094e-05
-0.2968221732051461,-0.2968221732051461,0.9999822792139161,9.629546594084802e-05
-0.29503414695500396,-0.29503414695500396,1.0001212895109393,9.626466155462452e-05
-0.29337637727876426,-0.29337637727876426,1.0000929281192619,9.634065720240155e-05
-0.2917918982842821,-0.2917918982842821,0.9999800584689369,9.61752372796533e-05
-0.2898945720269694,-0.2898945720269694,1.0001928980679766,9.639462129912864e-05
-0.28858199544920354,-0.28858199544920354,1.0000551571560352,9.631067634209858e-05
-0.2865458214582759,-0.2865458214582759,0.999976221682967,9.642922683916638e-05
-0.28460811019904214,-0.28460811019904214,1.0001286217348482,9.625451944041972e-05
-0.2833276074336027,-0.2833276074336027,0.9999305363484329,9.6275612921183e-05
-0.2814367937433417,-0.2814367937433417,0.9999009181382077,9.649351850712638e-05
-0.27999052461964313,-0.27999052461964313,0.9998652901052021,9.628458542736097e-05
-0.27890645912993933,-0.27890645912993933,1.0001362055898713,9.639726793482471e-05
-0.276781143291737,-0.276781143291737,1.0002776099756154,9.635341945311874e-05
-0.2756367145397235,-0.2756367145397235,1.0000192033750173,9.692572931717386e-05
-0.27441539977589857,-0.27441539977589857,1.000081273914571,9.636595236861027e-05
-0.2720445284983725,-0.2720445284983725,0.9999796442565645,9.636641516708786e-05
-0.27031896199769107,-0.27031896199769107,1.0000689136059593,9.623072922182715e-05
-0.2686039243315463,-0.2686039243315463,0.9999806439311373,9.617035446922193e-05
-0.26640055845055033,-0.26640055845055033,0.9999010116547836,9.647737282450992e-05
-0.26436069828196196,-0.26436069828196196,0.9999407598485263,9.617341847386823e-05
-0.2624789223948028,-0.2624789223948028,1.000020507743681,9.637043205087153e-05
-0.26073614397610073,-0.26073614397610073,0.9999133735577168,9.627459791314516e-05
-0.25859537099895535,-0.25859537099895535,0.9999253337887485,9.61935413852232e-05
-0.25699747207399926,-0.25699747207399926,1.0001501632241727,9.639891727633091e-05
-0.25503164110414217,-0.25503164110414217,1.0000180445832694,9.634724993733402e-05
-0.25370650683616985,-0.25370650683616985,0.9998982064820486,9.616069040251225e-05
-0.2523372590207146,-0.2523372590207146,1.0000216080300302,9.638514377763112e-05
-0.2499653419596143,-0.2499653419596143,1.000081418946539,9.641388720085393e-05
-0.24863937828195048,-0.24863937828195048,0.9999351147656169,9.627069453953898e-05
-0.24677315143926534,-0.24677315143926534,0.9999293717269188,9.629674817727071e-05
-0.24532275042438415,-0.24532275042438415,1.0002077092124757,9.646084046968054e-05
-0.2439856238954235,-0.2439856238954235,1.0001846881438492,9.628648731897782e-05
-0.2424770071869716,-0.2424770071869716,1.0003375400585208,9.629240694045183e-05
-0.24107072948827407,-0.24107072948827407,1.0000967223928376,9.681257430033157e-05
-0.2396612922239001,-0.2396612922239001,0.9998560767973051,9.637767918960196e-05
-0.23779471523885148,-0.23779471523885148,0.999853793251669,9.61764239848762e-05
-0.23566281933453864,-0.23566281933453864,1.0000166116678997,9.648177498913759e-05
-0.23373749806487468,-0.23373749806487468,0.9998662656793591,9.616580694203648e-05
-0.23204756917548366,-0.23204756917548366,1.0000164983362267,9.6423038396208e-05
-0.23055023568449542,-0.23055023568449542,0.9997700844649164,9.6197268522035e-05
-0.22864309891010634,-0.22864309891010634,0.9998635662044567,9.617999470885472e-05
-0.22696155766898302,-0.22696155766898302,0.9999111774490022,9.6392361920435e-05
-0.22490022379206492,-0.22490022379206492,0.9999838659347837,9.628557906178396e-05
-0.22305852190766018,-0.22305852190766018,1.0000735749732539,9.623861757746235e-05
-0.2211895947577432,-0.2211895947577432,0.9998952461287025,9.637961535090774e-05
-0.21922852440184215,-0.21922852440184215,1.0001177922031879,9.638336683672113e-05
-0.21818065871921136,-0.21818065871921136,1.0000443937700831,9.624728299783737e-05
-0.2166122728565824,-0.2166122728565824,1.0000082105697805,9.629955138533097e-05
-0.21501074265979697,-0.21501074265979697,0.9999553528145773,9.646221441189568e-05
-0.21350312354334164,-0.21350312354334164,1.000153058237402,9.626593430038204e-05
-0.2119482702735695,-0.2119482702735695,1.0000349213202333,9.629554217152753e-05
-0.21037419073691127,-0.21037419073691127,0.9999164040992756,9.651195382346266e-05
-0.20884437173663173,-0.20884437173663173,0.9999632254746919,9.63411806932476e-05
-0.20755068916332675,-0.20755068916332675,1.0002561667308782,9.619960665764482e-05
-0.20578519890259486,-0.20578519890259486,0.9998254840740659,9.67491832082687e-05
-0.2043795259160106,-0.2043795259160106,1.0000504034982103,9.638153206837711e-05
-0.2025097300313064,-0.2025097300313064,0.9998949721957322,9.618219845711264e-05
-0.200377768027829,-0.200377768027829,1.0000574403233033,9.645169997616121e-05
-0.1984505151922349,-0.1984505151922349,1.0001256754605308,9.619821276513891e-05
-0.19676201471302193,-0.19676201471302193,0.9999670367525327,9.644445707768531e-05
-0.19526258304540534,-0.19526258304540534,1.000162182989871,9.620351086247502e-05
-0.19335507417999906,-0.19335507417999906,0.9999640369112172,9.617954673295957e-05
-0.1916765163608943,-0.1916765163608943,0.9998881914001077,9.63961255601536e-05
-0.18972650890646037,-0.18972650890646037,0.9998462141255994,9.634244784543918e-05
-0.18802533060515997,-0.18802533060515997,0.9999702302643652,9.619103184695601e-05
-0.1864190045555006,-0.1864190045555006,1.0001471223999303,9.640437620751049e-05
-0.18416461492452071,-0.18416461492452071,0.9999996748516855,9.637345294658242e-05
-0.18308066767058334,-0.18308066767058334,1.0002483046615713,9.627463313116609e-05
-0.18176145613542757,-0.18176145613542757,0.9998414599913753,9.64043622049221e-05
-0.179965585329046,-0.179965585329046,0.9998751442185076,9.643735068615435e-05
-0.1784851814081776,-0.1784851814081776,0.9998960952592577,9.627144307114805e-05
-0.17738551426300547,-0.17738551426300547,0.9999502526494343,9.619896190094953e-05
-0.17556606957805343,-0.17556606957805343,0.9999918949605456,9.648374657096286e-05
-0.17415499292692402,-0.17415499292692402,1.0001817737743068,9.629261388393263e-05
-0.17270762234256837,-0.17270762234256837,1.0000590009738,9.636369216567043e-05
-0.17067605332267705,-0.17067605332267705,1.0001217876980972,9.660836626422e-05
-0.16912375523970696,-0.16912375523970696,0.9998774966958817,9.640628161448492e-05
-0.16722483089397427,-0.16722483089397427,0.9999275787720012,9.619660343283361e-05
-0.16501770096947438,-0.16501770096947438,1.000010475458788,9.650110727631544e-05
-0.16316361007920932,-0.16316361007920932,0.999950175994129,9.619174404815252e-05
-0.16147654577507636,-0.16147654577507636,1.0000842586151357,9.642257248949245e-05
-0.15997500371740897,-0.15997500371740897,0.999801752795878,9.618835209913494e-05
-0.15806713608180872,-0.15806713608180872,1.000025665443324,9.620432519660423e-05
-0.15639156224642647,-0.15639156224642647,0.9999265983659352,9.641641056574966e-05
-0.154440706744208,-0.154440706744208,0.9999778883637145,9.633959677971955e-05
-0.15275733941234648,-0.15275733941234648,0.9999114502936868,9.60948053074075e-05
-0.1515269561932655,-0.1515269561932655,0.9997415061053937,9.65281512490498e-05
-0.14916377132904018,-0.14916377132904018,0.9999724258462056,9.632598339874088e-05
-0.14779051810473903,-0.14779051810473903,0.9998712498880031,9.625242423799918e-05
-0.14675625873496756,-0.14675625873496756,1.0001274463100773,9.652273313105198e-05
-0.14495562721276656,-0.14495562721276656,0.9999415367893301,9.633789477213049e-05
-0.1434922156156972,-0.1434922156156972,0.9998739000131284,9.625941145532485e-05
-0.142173229821492,-0.142173229821492,1.00002324032232,9.629076485748403e-05
-0.14002715948736294,-0.14002715948736294,0.9999859788440271,9.645251210544406e-05
-0.1385663396125892,-0.1385663396125892,0.9999859338901691,9.630284836625648e-05
-0.13739943337714067,-0.13739943337714067,0.9999418961484177,9.627834580758953e-05
-0.13538717998890207,-0.13538717998890207,1.0000660835119166,9.656810582139304e-05
-0.13383800806623186,-0.13383800806623186,0.9998658445286599,9.633738287303946e-05
-0.13211995503661456,-0.13211995503661456,0.9999409431413078,9.613477641829244e-05
-0.1299137194393552,-0.1299137194393552,0.9999616855145206,9.649241092010901e-05
-0.12787678549793782,-0.12787678549793782,0.9997516385337306,9.618272338267438e-05
-0.12619116458517965,-0.12619116458517965,0.9999152528499062,9.641980148392404e-05
-0.12468749824765837,-0.12468749824765837,1.0000102318768103,9.61965490987366e-05
-0.12277928184776102,-0.12277928184776102,0.999964633300691,9.618365594360363e-05
-0.12110669255198445,-0.12110669255198445,1.0001152510243223,9.641312077007551e-05
-0.11915497789450455,-0.11915497789450455,0.9999416510783901,9.635892360471086e-05
-0.11747039764886721,-0.11747039764886721,0.9999900907320789,9.610088087080417e-05
-0.11624071418191306,-0.11624071418191306,1.0000244940406984,9.651389308638771e-05
-0.1138848062895704,-0.1138848062895704,0.9998847792657987,9.634394778209887e-05
-0.112312599766301,-0.112312599766301,0.9998167324313088,9.62463821282662e-05
-0.11109441230510128,-0.11109441230510128,0.9998870327405452,9.640046076354861e-05
-0.10939506008726312,-0.10939506008726312,0.9997524845398817,9.643912844755513e-05
-0.10791927849204512,-0.10791927849204512,0.9998543940491589,9.62714339599512e-05
-0.10645468313305173,-0.10645468313305173,0.9997924057280219,9.618707132531174e-05
-0.10458481849200325,-0.10458481849200325,1.0000113855227715,9.706930932787728e-05
-0.10328591673605843,-0.10328591673605843,0.9999455487216735,9.634517128727618e-05
-0.10211311583698261,-0.10211311583698261,0.9999158779337443,9.62883523844367e-05
-0.10001339126902167,-0.10001339126902167,0.9999812959211385,9.649426120998661e-05
-0.09820543249225011,-0.09820543249225011,0.9999512429426499,9.620784546836847e-05
-0.0963494416384492,-0.0963494416384492,1.0000437150075205,9.619949850919461e-05
-0.09418968641984975,-0.09418968641984975,0.999952245312836,9.633681407252938e-05
-0.09216175858164206,-0.09216175858164206,1.0001010883496724,9.621634713000148e-05
-0.09047484083421295,-0.09047484083421295,0.9999784958174072,9.640524152117752e-05
-0.0884099870469072,-0.0884099870469072,1.0000855026958804,9.630328781151184e-05
