time,time,flux,flux_err
-0.49995446186437204,-0.49995446186437204,1.0000331819703263,8.600673973353294e-05
-0.4998219064903016,-0.4998219064903016,0.9998919892268029,8.636542047849191e-05
-0.4996045651795195,-0.4996045651795195,1.0000331266947176,8.47939466000997e-05
-0.4994120220415965,-0.4994120220415965,0.9999915845362839,8.660319084556363e-05
-0.49918127498484066,-0.49918127498484066,0.9998956666457751,7.8066598671321e-05
-0.4990492894712986,-0.4990492894712986,1.0000418196379983,7.849644416004684e-05
-0.498957624416812,-0.498957624416812,1.0001120457086858,7.911537088476301e-05
-0.49890447199134086,-0.49890447199134086,0.9999697646217449,7.901121758526172e-05
-0.4987995785019962,-0.4987995785019962,0.9998870893667551,7.849549419990376e-05
-0.49872373409011744,-0.49872373409011744,1.0001301769940594,7.911410672801038e-05
-0.49854524945211554,-0.49854524945211554,0.9999726820724893,7.833069493700145e-05
-0.4983883765488599,-0.4983883765488599,1.0000780010057018,7.779215624214938e-05
-0.4982221145462347,-0.4982221145462347,1.0000375859890573,7.797091872041364e-05
-0.4980392844484129,-0.4980392844484129,1.0001059111753228,7.882386038231176e-05
-0.49789304289212166,-0.49789304289212166,1.0000599474192837,7.855603727033837e-05
-0.49778094588813815,-0.49778094588813815,0.9999694741221161,7.910631251512345e-05
-0.49772779156406843,-0.49772779156406843,0.9998919145744358,7.901622736040053e-05
-0.4976228979291477,-0.4976228979291477,1.000017047064077,7.849327914948877e-05
-0.49756733079568677,-0.49756733079568677,1.000035932599383,7.849462404763832e-05
-0.49740707884241714,-0.49740707884241714,0.9999589504619377,7.895081745648577e-05
-0.49721987669954615,-0.49721987669954615,1.0000451853170684,7.77473225352123e-05
-0.49706313419476944,-0.49706313419476944,1.0000923121185767,7.79667513298389e-05
-0.49686853653341245,-0.49686853653341245,1.000047351921228,7.810000623514214e-05
-0.49673793030717095,-0.49673793030717095,0.9998924670674864,7.866222525155067e-05
-0.49661835716617586,-0.49661835716617586,1.0001212868065796,7.973754030583016e-05
-0.4965534337310203,-0.4965534337310203,1.0000147741108243,7.82925314194342e-05
-0.49643466070149317,-0.49643466070149317,1.0001410109250852,7.790452191883125e-05
-0.49638338438847995,-0.49638338438847995,0.9999277336252529,7.907135883107084e-05
-0.49626609968227625,-0.49626609968227625,0.9999920745996421,7.907176772550586e-05
-0.49607391920205257,-0.49607391920205257,1.0001115193218042,7.755852037228433e-05
-0.4958713966658138,-0.4958713966658138,1.0000767276341989,7.872310866776215e-05
-0.49570014939639007,-0.49570014939639007,0.9999053133129774,7.810610304245647e-05
-0.4955796226811174,-0.4955796226811174,0.9998652705595429,7.835553254529068e-05
-0.49546411674382396,-0.49546411674382396,1.0000786485182178,7.992026833630711e-05
-0.49539480664705027,-0.49539480664705027,0.9998546733783437,7.762835167144653e-05
-0.4952744903932455,-0.4952744903932455,0.9999970895430813,7.869551109601313e-05
-0.4952045651400283,-0.4952045651400283,1.0000509823880162,7.847469816306394e-05
-0.4951021501007119,-0.4951021501007119,1.0000609180154212,7.950954971088055e-05
-0.4949273783590229,-0.4949273783590229,1.000046937661268,7.763025556753323e-05
-0.4947409123701732,-0.4947409123701732,0.999905286020482,7.879691707524992e-05
-0.494541170284765,-0.494541170284765,0.9999442811579877,7.807047135671435e-05
-0.4944018172244114,-0.4944018172244114,0.9999111801353713,7.8364428960639e-05
-0.49428743761782246,-0.49428743761782246,1.000176186437828,7.990115578965182e-05
-0.49421812951506466,-0.49421812951506466,1.0000170372246826,7.763668777431539e-05
-0.4940978086942721,-0.4940978086942721,0.9999760917468038,7.869352754934886e-05
-0.49402169731488926,-0.49402169731488926,0.9999989789777919,7.918496481745574e-05
-0.49389400922433424,-0.49389400922433424,0.9999936763356807,7.880374763817824e-05
-0.4937507002427083,-0.4937507002427083,1.000169283918164,7.763471431206419e-05
-0.4935642313479889,-0.4935642313479889,1.0000387581050605,7.88008199003485e-05
-0.49336449882694067,-0.49336449882694067,1.000026225919464,7.806806607259402e-05
-0.4932251406253897,-0.4932251406253897,1.0000251762660828,7.836998471327612e-05
-0.4931107584871654,-0.4931107584871654,1.0000959511248322,7.988871876308886e-05
-0.4930414523859213,-0.4930414523859213,1.0000243173444545,7.763090309104138e-05
-0.4929211269999996,-0.4929211269999996,1.000018883884494,7.869434870327828e-05
-0.4928606865454356,-0.4928606865454356,0.9999238574510345,7.84761375262465e-05
-0.4927487917598626,-0.4927487917598626,0.9999649643679194,7.951853844678642e-05
-0.4926050842125164,-0.4926050842125164,0.9999748495682352,7.766357686727491e-05
-0.4924293417306558,-0.4924293417306558,0.9999766748604431,7.860357891200252e-05
-0.4922191410802611,-0.4922191410802611,0.9999071294264794,7.789129375284761e-05
-0.49206807208253733,-0.49206807208253733,1.0000064508916027,7.838690069027245e-05
-0.49196108351383144,-0.49196108351383144,0.9999727372702285,7.87199130742826e-05
-0.4918743469772551,-0.4918743469772551,1.0001162326117694,7.8779453112392e-05
-0.49177077026253074,-0.49177077026253074,0.9999108047635824,7.867615134075136e-05
-0.49168554078989357,-0.49168554078989357,0.9999282749076224,7.880166627762734e-05
-0.4915721125974585,-0.4915721125974585,1.00018322798009,7.951787169573546e-05
-0.4914284059667011,-0.4914284059667011,1.0000034107423792,7.766342627343955e-05
-0.49125266381183225,-0.49125266381183225,0.9998928204385356,7.859756011489315e-05
-0.4910424670997088,-0.4910424670997088,0.9999651789890711,7.789160790155981e-05
-0.4908913987721178,-0.4908913987721178,1.000033838669984,7.837657440414795e-05
-0.4907740264012602,-0.4907740264012602,1.0001372796405612,7.958126168374304e-05
-0.4906892204385997,-0.4906892204385997,0.9999092958407362,7.790866041192733e-05
-0.49058803586500516,-0.49058803586500516,1.0000055585681973,7.89997524361058e-05
-0.49048494824347133,-0.49048494824347133,1.0000002220571689,7.839108229147774e-05
-0.4903783324115295,-0.4903783324115295,0.9999765059132726,7.960703037138101e-05
-0.49025172772250586,-0.49025172772250586,0.9999317744167561,7.765286537056596e-05
-0.4900759858915819,-0.4900759858915819,1.000002591831567,7.858578771107408e-05
-0.48987746897497003,-0.48987746897497003,1.0001677767534676,7.792528946198231e-05
-0.4897049692563371,-0.4897049692563371,1.0000199925278317,7.867099446871844e-05
-0.4895965518731714,-0.4895965518731714,0.999923978656251,7.924049014652084e-05
-0.4895114210142822,-0.4895114210142822,1.0000189294941808,7.764234784409293e-05
-0.4893842324618845,-0.4893842324618845,1.0000987842917068,7.925775281047839e-05
-0.4892995640380036,-0.4892995640380036,1.000122931468262,7.83974678549274e-05
-0.4891949424912866,-0.4891949424912866,0.999859321026172,7.883480565767229e-05
-0.48909545839325685,-0.48909545839325685,0.9999888489136944,7.809739941021038e-05
-0.48893911707680215,-0.48893911707680215,0.9999832384472647,7.813089931083117e-05
-0.4887113519773891,-0.4887113519773891,1.000055081764962,7.872909716298578e-05
-0.48853917568397376,-0.48853917568397376,0.9999064330524648,7.837427266719582e-05
-0.4884374664100619,-0.4884374664100619,1.0001323988407866,7.809726648779648e-05
-0.4883443142952899,-0.4883443142952899,0.9999872829637549,7.876053229111934e-05
-0.4882252523521856,-0.4882252523521856,1.0000160308163402,7.899169624768451e-05
-0.48814356662788894,-0.48814356662788894,1.0001066586274476,7.899074974692402e-05
-0.48802545387592317,-0.48802545387592317,0.9998936829091551,7.757395970905625e-05
-0.4878673096585032,-0.4878673096585032,0.9999396281129233,7.762874117538675e-05
-0.48772822463653825,-0.48772822463653825,0.9999142301416464,7.928186855567953e-05
-0.4875620253902014,-0.4875620253902014,0.9999346322782451,7.927593100168302e-05
-0.48739261817573265,-0.48739261817573265,1.0000107415010984,7.777779961439443e-05
-0.4872863389606493,-0.4872863389606493,1.0000849095906434,7.872404292581733e-05
-0.487179565432956,-0.487179565432956,0.9998637761599284,7.877134018635529e-05
-0.4870710551767843,-0.4870710551767843,1.000030100980012,7.820228438172895e-05
-0.48696688543822686,-0.48696688543822686,0.9999982325731642,7.897982326165998e-05
-0.4868652614490088,-0.4868652614490088,1.0000852166186107,7.834746659938909e-05
-0.4867216930040968,-0.4867216930040968,1.0000954813607612,7.766681488402912e-05
-0.48657622590110916,-0.48657622590110916,1.0001296474679828,7.886867559412983e-05
-0.4863933800588029,-0.4863933800588029,1.0000670625432844,7.9072307994182e-05
-0.4862159448755051,-0.4862159448755051,1.0000246530519665,7.777471533246673e-05
-0.4861237986569904,-0.4861237986569904,1.0001325347616823,7.844654654171469e-05
-0.48601416038533785,-0.48601416038533785,0.9998305547002946,7.90312191315188e-05
-0.48592598991726277,-0.48592598991726277,0.9999683420859217,7.84472435430103e-05
-0.4858073985871272,-0.4858073985871272,1.0000823184254375,7.862849016913862e-05
-0.48571239077357975,-0.48571239077357975,1.0000467840137166,7.901501094776262e-05
-0.4855775499648246,-0.4855775499648246,1.0000892872251033,7.733159605208137e-05
-0.48542619815634114,-0.48542619815634114,0.9999894576948737,7.841701963789853e-05
-0.48525613376453974,-0.48525613376453974,1.0001220383783616,7.955484457196982e-05
-0.4850612024000952,-0.4850612024000952,1.000147754434709,7.806189106588815e-05
-0.4849471215543815,-0.4849471215543815,1.0000173245628297,7.845142220362646e-05
-0.48483748181521946,-0.48483748181521946,1.0000245814583242,7.902737246483007e-05
-0.48474930977924374,-0.48474930977924374,1.0000541780392684,7.845174396075842e-05
-0.48462130265849623,-0.48462130265849623,1.0000520877387222,7.862213397720064e-05
-0.48451617979672507,-0.48451617979672507,1.0000719612654343,7.901920761813815e-05
-0.4843827556921724,-0.4843827556921724,0.9999124862091158,7.731869230076215e-05
-0.4842495183386575,-0.4842495183386575,1.000015514442477,7.840180993152739e-05
-0.4840794560533254,-0.4840794560533254,0.9999101829569723,7.956175390155362e-05
-0.48388405605314233,-0.48388405605314233,0.9998778140510112,7.862583575633225e-05
-0.4837615047845475,-0.4837615047845475,1.0001000473576187,7.789106783784117e-05
-0.4836608032411675,-0.4836608032411675,0.9999474962925406,7.901921134336552e-05
-0.4835726296481653,-0.4835726296481653,0.9999641241499244,7.844814612948326e-05
-0.4834376338950335,-0.4834376338950335,0.9999547593447012,7.871610107812907e-05
-0.4833088346176851,-0.4833088346176851,1.0002502606457615,7.893115254345078e-05
-0.4831966680349581,-0.4831966680349581,0.9999356988901917,7.731985731416638e-05
-0.48307283852018373,-0.48307283852018373,0.9999102960137985,7.839951534539798e-05
-0.4829027783404456,-0.4829027783404456,1.0000279661696756,7.954997301501889e-05
-0.4827073813625873,-0.4827073813625873,0.9999537730041681,7.862373553968121e-05
-0.4825711953545294,-0.4825711953545294,1.000089485899944,7.86949095447457e-05
-0.48247285184868927,-0.48247285184868927,1.0000556231167566,7.875140014653649e-05
-0.48238320334846774,-0.48238320334846774,1.0000069941166798,7.790463308492631e-05
-0.4822609525827602,-0.4822609525827602,1.0001144270199163,7.872756357713133e-05
-0.4821321559356534,-0.4821321559356534,1.0000205938373092,7.891682934521986e-05
-0.48201498007630333,-0.48201498007630333,1.0001054294862148,7.76592095682788e-05
-0.4818487624579575,-0.4818487624579575,1.000082455368972,7.848858310134376e-05
-0.4816983318683981,-0.4816983318683981,0.9998665508214722,7.861744245624369e-05
-0.48149787345627715,-0.48149787345627715,1.0000353653221938,7.86428414609741e-05
-0.4813504042896909,-0.4813504042896909,1.0000676381285902,7.920659887549005e-05
-0.48127468123807376,-0.48127468123807376,1.0000272304199684,7.764184903046045e-05
-0.48117157698195,-0.48117157698195,0.9999348804361221,7.853767391455035e-05
-0.4810623865119908,-0.4810623865119908,0.9998415229193753,7.895698469865306e-05
-0.48094617944992135,-0.48094617944992135,1.000029652087898,7.912083500326318e-05
-0.4808383018498489,-0.4808383018498489,0.9999911038599661,7.764941819538807e-05
-0.48063871665963803,-0.48063871665963803,1.000079705004191,7.922960690553155e-05
-0.48047437979095664,-0.48047437979095664,1.00007784929231,7.78755144363426e-05
-0.48031712005499116,-0.48031712005499116,1.0001945570763435,7.864469088573522e-05
-0.4801737279616248,-0.4801737279616248,1.0000364091590999,7.91980654368445e-05
-0.4800980041380797,-0.4800980041380797,1.0000258206002137,7.763137600003366e-05
-0.47998548323160434,-0.47998548323160434,1.0000916426787962,7.854162532198682e-05
-0.4798857052678329,-0.4798857052678329,0.9999354600402155,7.896472505744122e-05
-0.479752062615222,-0.479752062615222,1.000225907309502,7.830141683275949e-05
-0.47963056283190325,-0.47963056283190325,0.9998996270523508,7.763093278634995e-05
-0.4794202150963486,-0.4794202150963486,0.9999330906994844,7.942539358798823e-05
-0.47925700298055746,-0.47925700298055746,1.0000802114648486,7.803924246547527e-05
-0.47909451918269497,-0.47909451918269497,0.999921126709037,7.863681955667319e-05
-0.47897457606731,-0.47897457606731,1.0000040948376936,7.900589932891876e-05
-0.478907238623998,-0.478907238623998,0.9999447885421876,7.756246193797947e-05
-0.4787908932158359,-0.4787908932158359,0.9997824159444578,7.955355240714844e-05
-0.4786893626207586,-0.4786893626207586,1.0000414054775877,7.865004762235399e-05
-0.47855348372322054,-0.47855348372322054,0.9999745080684281,7.831314702518167e-05
-0.47845388471311595,-0.47845388471311595,1.0001157848056264,7.763474537870153e-05
-0.47824353588670193,-0.47824353588670193,0.9999213045815829,7.94040190342679e-05
-0.4780803280109069,-0.4780803280109069,0.999864911533858,7.801967088474127e-05
-0.477917842282119,-0.477917842282119,1.0000429199191905,7.863906906117796e-05
-0.4777978972744904,-0.4777978972744904,1.0001143106551602,7.90034360635547e-05
-0.477730564362281,-0.477730564362281,1.0001871608135198,7.7562788775295e-05
-0.47761421331617837,-0.47761421331617837,0.9999846378168273,7.955275482945248e-05
-0.4775126835682215,-0.4775126835682215,1.0001308059356613,7.865081738533245e-05
-0.4773768046874295,-0.4773768046874295,1.0001144163116062,7.832395390687495e-05
-0.47727720659485157,-0.47727720659485157,1.0000082946241264,7.762995959429599e-05
-0.47706685667569104,-0.47706685667569104,0.9999473890024877,7.941820194497302e-05
-0.47690365304277405,-0.47690365304277405,0.9998934802726038,7.802164581690925e-05
-0.4767411653871136,-0.4767411653871136,1.0001614740029354,7.864038050610456e-05
-0.4766212184787378,-0.4766212184787378,0.9999951134947274,7.898232450417123e-05
-0.4765538901056459,-0.4765538901056459,1.0000502895431782,7.757430577906856e-05
-0.4764220475959576,-0.4764220475959576,1.000135922463659,7.930616198496391e-05
-0.47630935790380136,-0.47630935790380136,1.0000063008323232,7.902299338890087e-05
-0.47619243268297284,-0.47619243268297284,1.0000600137777007,7.79738381158712e-05
-0.47606309950929243,-0.47606309950929243,1.0000806895564773,7.817323937255228e-05
-0.47585042159157637,-0.47585042159157637,1.0000930143701616,7.8804724196886e-05
-0.47569135256944717,-0.47569135256944717,0.9999568008365998,7.797645072032521e-05
-0.47554451500252526,-0.47554451500252526,0.9998619345127466,7.85917643863007e-05
-0.4754240531344294,-0.4754240531344294,0.9999686695012814,7.898222705847227e-05
-0.47535145791082983,-0.47535145791082983,0.9999145059942469,7.839091279815112e-05
-0.4752294703199141,-0.4752294703199141,0.9999276727091957,7.884671866333816e-05
-0.4751326782555395,-0.4751326782555395,1.000266697636303,7.902960620348111e-05
-0.4750157560068658,-0.4750157560068658,1.000227860792669,7.797607421484167e-05
-0.4748864211880971,-0.4748864211880971,1.0000046452950266,7.817102731954187e-05
-0.4746737437206491,-0.4746737437206491,0.9999288579891153,7.880458067224609e-05
-0.4745146789798582,-0.4745146789798582,1.0000970032591596,7.797618334643047e-05
-0.4743678373886212,-0.4743678373886212,0.9999139198142426,7.85955090478392e-05
-0.47424737453592913,-0.47424737453592913,1.0000831308373943,7.899087466019972e-05
-0.4741612064779986,-0.4741612064779986,0.9999325519636223,7.868888140092855e-05
-0.4740286515938578,-0.4740286515938578,0.9999995352677915,7.891453692362646e-05
-0.4739189578102696,-0.4739189578102696,1.0000243296796865,7.889659236484748e-05
-0.47382326629537486,-0.47382326629537486,1.0001103817071353,7.796473549969899e-05
-0.4736624998434138,-0.4736624998434138,0.9998824363669854,7.836963410535252e-05
-0.47346651955391506,-0.47346651955391506,1.0001604282122698,7.869783372936274e-05
-0.47332264107763533,-0.47332264107763533,1.000071730511444,7.836196082311908e-05
-0.47316621083564314,-0.47316621083564314,1.0000838158569616,7.872190745554533e-05
-0.4730628557401474,-0.4730628557401474,0.9999288123405261,7.81368999311385e-05
-0.4729845286484931,-0.4729845286484931,1.0000445728830853,7.868390449917518e-05
-0.472851970518667,-0.472851970518667,0.9999745987576236,7.892004585047986e-05
-0.47272320635642584,-0.47272320635642584,1.0002318016888756,7.831860868082007e-05
-0.4726272325061984,-0.4726272325061984,1.0000264942814545,7.790459319314073e-05
-0.472441748503428,-0.472441748503428,1.0000484983953764,7.877011980139e-05
-0.4722546522863638,-0.4722546522863638,1.0001064817122263,7.861914236887628e-05
-0.47213186767313575,-0.47213186767313575,0.999913604963791,7.863836198650945e-05
-0.471989533513505,-0.471989533513505,0.9999314749700471,7.8716572475453e-05
-0.4718827461379931,-0.4718827461379931,1.0000614400566321,7.871945599762024e-05
-0.4717924582423848,-0.4717924582423848,1.0000289599599532,7.811131550268226e-05
-0.4716752894479157,-0.4716752894479157,1.000091172717637,7.892043962125754e-05
-0.47154653227367477,-0.47154653227367477,1.0000810444319597,7.831766961173114e-05
-0.4714248761174133,-0.4714248761174133,1.0000271091210047,7.76537014806232e-05
-0.47126250727437763,-0.47126250727437763,1.000017685831277,7.902259523342032e-05
-0.4710779749938524,-0.4710779749938524,1.0000008068444184,7.862626312585756e-05
-0.4709390052247443,-0.4709390052247443,1.0001166687327192,7.867945348009805e-05
-0.4707873218999737,-0.4707873218999737,1.0000760168057938,7.809777588456521e-05
-0.4706941509362821,-0.4706941509362821,0.9998929096912403,7.867443826707022e-05
-0.4705704959519153,-0.4705704959519153,1.000109505968559,7.932351275775891e-05
-0.470453076199135,-0.470453076199135,1.0000081412324948,7.805538697587941e-05
-0.470346402694571,-0.470346402694571,1.0001555592655238,7.797656060861954e-05
-0.4702171378823209,-0.4702171378823209,0.9999565535865313,7.762011994424863e-05
-0.46999091022086076,-0.46999091022086076,0.9999869988779742,7.923390629418971e-05
-0.46985856884667215,-0.46985856884667215,0.9998781736496314,7.845493479699463e-05
-0.46972961388165685,-0.46972961388165685,1.0001283899241404,7.897626213377103e-05
-0.4695836408932905,-0.4695836408932905,0.9999181238919542,7.916296084868311e-05
-0.46950791035839073,-0.46950791035839073,0.9998378912621867,7.763188168290991e-05
-0.46936669295534444,-0.46936669295534444,1.0002933954916584,7.958406705152643e-05
-0.46926966238909246,-0.46926966238909246,0.9998604660854659,7.808843488997561e-05
-0.4691480618574815,-0.4691480618574815,1.0000492130885643,7.806507700229216e-05
-0.4690217979293152,-0.4690217979293152,0.9998086603735843,7.749907131499739e-05
-0.46881422838004594,-0.46881422838004594,1.0000297538289478,7.923366860439508e-05
-0.46867848975800824,-0.46867848975800824,1.0001303048925414,7.803549743501913e-05
-0.4685469232399839,-0.4685469232399839,0.9999218958842431,7.938748416910467e-05
-0.4684069645408101,-0.4684069645408101,1.0000062680411514,7.91548798812479e-05
-0.468331233285312,-0.468331233285312,1.0000499151968485,7.763717546537193e-05
-0.46819001236825103,-0.46819001236825103,0.9999675629218139,7.958744661450632e-05
-0.4680929872065292,-0.4680929872065292,0.9999741857258252,7.808904776109901e-05
-0.4679713847634332,-0.4679713847634332,0.9999968409792466,7.806014683592509e-05
-0.46784512232645736,-0.46784512232645736,1.0003461448725977,7.750601223025358e-05
