time,time,flux,flux_err
-0.49861646326862685,-0.49861646326862685,0.9999337323893378,0.00013307167099394125
-0.49680190618928466,-0.49680190618928466,1.0000088028533736,0.00013314370258490365
-0.4948505509993993,-0.4948505509993993,1.000016836704234,0.00013318719512735036
-0.49336530429027337,-0.49336530429027337,0.9999300991032193,0.00013304468045289886
-0.49140457333523957,-0.49140457333523957,1.0000402342709342,0.00013327022272482014
-0.49016032713188906,-0.49016032713188906,1.0001728127784322,0.00013651134519198892
-0.4885548669124546,-0.4885548669124546,0.9996263313843983,0.00013303332272407556
-0.48709971762837084,-0.48709971762837084,0.9997525146264316,0.00013471992046558878
-0.48568493229395243,-0.48568493229395243,1.0003404021220152,0.00013306729644962812
-0.4840798599456321,-0.4840798599456321,1.000054954193057,0.00013311191871971922
-0.4827670052043686,-0.4827670052043686,1.0000164437604355,0.00013351578172807394
-0.48111412081816524,-0.48111412081816524,0.9998367495021382,0.00013316255815187954
-0.479539451013261,-0.479539451013261,1.00003881496248,0.0001329708830237252
-0.4777240702547715,-0.4777240702547715,1.0001939598289256,0.00013307536823175568
-0.4762526370897831,-0.4762526370897831,1.0001723451777669,0.00013315180717973532
-0.4744711967443436,-0.4744711967443436,1.0003042094705008,0.000133051317866598
-0.4729406240348908,-0.4729406240348908,1.000050909614962,0.00013326096488099878
-0.4707609266893996,-0.4707609266893996,0.999720489190911,0.00013311123615092864
-0.46938707980298205,-0.46938707980298205,0.999973661037153,0.0001331409361402355
-0.46762791283035765,-0.46762791283035765,1.0000551156571542,0.00013318622737207512
-0.46617431288577793,-0.46617431288577793,1.0001339914056435,0.00013564681496112566
-0.46453595521925306,-0.46453595521925306,0.9998359042945916,0.00013322751361920487
-0.46306056999601425,-0.46306056999601425,0.9999182618963014,0.00013316002843641146
-0.46148479190160285,-0.46148479190160285,0.9999982964616987,0.00013309693460839664
-0.45996113495712054,-0.45996113495712054,1.000007333094877,0.0001333636291746082
-0.45799887888279045,-0.45799887888279045,1.0000309235273686,0.00013321970638005678
-0.4566763895756594,-0.4566763895756594,1.0000055857431247,0.0001334006934986399
-0.4547434452491871,-0.4547434452491871,1.0000116383019655,0.0001332133057499201
-0.45325113361614056,-0.45325113361614056,1.0000269206369268,0.00013324167333620074
-0.45097705513944675,-0.45097705513944675,1.0000353557670347,0.0001331059130857889
-0.4490684519882052,-0.4490684519882052,0.9997809201721146,0.00013309832199812663
-0.4472447673422721,-0.4472447673422721,1.0000868531290388,0.00013311986882220007
-0.4448271376681078,-0.4448271376681078,1.0001721648838224,0.00013328418815141687
-0.4433867411033134,-0.4433867411033134,0.9998303107572202,0.00013293265023900063
-0.4413298929513985,-0.4413298929513985,1.0000702982988376,0.0001332231600080061
-0.43978885695760256,-0.43978885695760256,0.9998686614636643,0.0001330901151634055
-0.4380747374769271,-0.4380747374769271,1.0003976612040089,0.0001332497773655866
-0.4367874905507051,-0.4367874905507051,1.0001013538868122,0.00013628188462302032
-0.4350556912995671,-0.4350556912995671,1.000297367136979,0.00013323620494948786
-0.4339374438743107,-0.4339374438743107,0.9999440844774142,0.00013455277316338045
-0.4320379650151153,-0.4320379650151153,1.000025902010627,0.0001331359563696135
-0.43085984521858334,-0.43085984521858334,1.0005454363109376,0.00013352675263309647
-0.4292258800342097,-0.4292258800342097,1.000159268942502,0.0001330822143565042
-0.427778356710769,-0.427778356710769,0.9999950586879297,0.00013306829542351648
-0.4259635451348004,-0.4259635451348004,0.9999660388782123,0.00013308271845479462
-0.42436341454886134,-0.42436341454886134,0.9998380039914988,0.00013313087570251603
-0.4227015361306258,-0.4227015361306258,1.0000818462331493,0.00013309804856481304
-0.42111575306335,-0.42111575306335,1.0004990388272212,0.00013313112388047585
-0.4192163997038733,-0.4192163997038733,1.0002856568842842,0.00013313487012814565
-0.41751855497568613,-0.41751855497568613,1.0005985685098433,0.00013317599750487967
-0.41572093083814254,-0.41572093083814254,0.999805579402965,0.000133104366685215
-0.4144208668887586,-0.4144208668887586,1.000001288536085,0.00013315675311787253
-0.4124277927629009,-0.4124277927629009,1.000056155690317,0.00013323932211461336
-0.4108655278116203,-0.4108655278116203,1.0000962510325802,0.00013315848853964746
-0.409266496471173,-0.409266496471173,1.000262031823445,0.00013317494287009185
-0.4079213301112759,-0.4079213301112759,0.9999555419347465,0.0001331434173981036
-0.4062921822147473,-0.4062921822147473,0.9999551971025742,0.00013334094546375716
-0.40467206918510784,-0.40467206918510784,0.9998514060017302,0.0001331337320273246
-0.40308955962318577,-0.40308955962318577,1.0000005013409472,0.0001335050965607638
-0.4014231311790354,-0.4014231311790354,0.99993285789251,0.00013311185980700906
-0.3993440899928828,-0.3993440899928828,1.0000643650415824,0.0001331915932064322
-0.39768793130460833,-0.39768793130460833,0.9998354153623297,0.00013314831795254074
-0.3952819156696933,-0.3952819156696933,1.0002457736684467,0.00013325687916517276
-0.39354638415752563,-0.39354638415752563,0.9998929064177707,0.00013296241905888458
-0.3914670109432336,-0.3914670109432336,0.9998622057545411,0.00013318675054564536
-0.38970681076643815,-0.38970681076643815,0.9998597699104268,0.00013308374037416813
-0.3879522813640506,-0.3879522813640506,1.000055866842106,0.00013312116257062617
-0.38625424747042414,-0.38625424747042414,1.0000645419016188,0.00013320711619028646
-0.3847427861062897,-0.3847427861062897,0.9999141251187336,0.0001362483017177092
-0.3833380895841401,-0.3833380895841401,1.0001480105320577,0.00013302015346871844
-0.3817224062302557,-0.3817224062302557,1.0000109913275488,0.00013307686684156062
-0.3804186391102121,-0.3804186391102121,1.0000284551666536,0.00013455069770622357
-0.37876257326242924,-0.37876257326242924,0.9999948020448217,0.00013320513899489655
-0.3774772411885351,-0.3774772411885351,0.9999848728991243,0.00013344242916766012
-0.3757401302042126,-0.3757401302042126,1.0002977574276937,0.00013323426889058979
-0.3743534960955003,-0.3743534960955003,0.9998837487238813,0.00013290076657807012
-0.37244498126819964,-0.37244498126819964,1.0000627030394744,0.00013311377851107337
-0.3709704942728422,-0.3709704942728422,0.9999816117501579,0.00013308509418288994
-0.3688656502756203,-0.3688656502756203,1.0000750551543471,0.00013302840144694365
-0.36762223431542224,-0.36762223431542224,0.9996370519447714,0.00013312806654343059
-0.3654743383620371,-0.3654743383620371,1.000172050227968,0.000133170833679505
-0.3641157846046553,-0.3641157846046553,0.9999536694428788,0.00013312955978760375
-0.36232702398483524,-0.36232702398483524,1.0000069618987535,0.00013316254115836734
-0.3609062853603973,-0.3609062853603973,1.0001839391768979,0.0001331531297186523
-0.35892994830937824,-0.35892994830937824,1.000020991874202,0.00013323195102639163
-0.35745486787636765,-0.35745486787636765,0.9999304923911767,0.00013317926898979602
-0.35587852991448016,-0.35587852991448016,1.0000111187710332,0.000133092589142331
-0.3545770142984111,-0.3545770142984111,0.9998540014503805,0.0001332405410108607
-0.3527309455144859,-0.3527309455144859,0.999902902733248,0.0001332260823800177
-0.3513557323218265,-0.3513557323218265,0.9999928512109116,0.00013330169305321606
-0.3495008216970746,-0.3495008216970746,0.9998114678111832,0.00013332382537157553
-0.3481054704865528,-0.3481054704865528,1.0000965832917195,0.0001332795704210794
-0.3455863480190601,-0.3455863480190601,0.9997342472511053,0.00013318923072258367
-0.34399552722170484,-0.34399552722170484,1.0000399703206784,0.0001329735724609971
-0.3419133042461908,-0.3419133042461908,0.9999202852216836,0.0001331870399203211
-0.33970039982232264,-0.33970039982232264,0.9999216927348815,0.0001331600204230303
-0.3382053506178636,-0.3382053506178636,1.0000318155563002,0.00013305289822195283
-0.3359636184010014,-0.3359636184010014,0.9998010767003027,0.00013324446879503561
-0.33459536272894186,-0.33459536272894186,1.0004668283126874,0.00013308991250585893
-0.3327065058674634,-0.3327065058674634,0.9998000064885557,0.00013322398958487815
-0.33158072083351725,-0.33158072083351725,1.0002120828328005,0.000135972767132804
-0.3296918878219003,-0.3296918878219003,1.0000224820954657,0.00013312554559244844
-0.32850346152736165,-0.32850346152736165,0.9998376308526042,0.00013449369454758222
-0.32688193268768373,-0.32688193268768373,0.9998394055998663,0.00013306665785043677
-0.3254444047277502,-0.3254444047277502,0.9999863236329893,0.00013345339607103544
-0.3240165325321868,-0.3240165325321868,1.000084842117036,0.0001330793243340279
-0.32242519316969265,-0.32242519316969265,1.0000240607671587,0.00013305675122835193
-0.3207578117795492,-0.3207578117795492,0.9998263106886679,0.00013308764979477506
-0.3190061432800576,-0.3190061432800576,0.9998561556918935,0.00013308031493067547
-0.31736373288731556,-0.31736373288731556,1.000102690265788,0.0001331267865544604
-0.3155107575417787,-0.3155107575417787,1.000067911235146,0.00013311186094861163
-0.3136103280692623,-0.3136103280692623,1.0001004346455435,0.00013310715475355915
-0.3119132242107298,-0.3119132242107298,1.0002093884208008,0.00013316658768072173
-0.31011470893317894,-0.31011470893317894,1.0001878831059767,0.0001331355963653872
-0.30881559334557096,-0.30881559334557096,0.9999493336440031,0.00013314800422540996
-0.3069226023799274,-0.3069226023799274,0.9999881987816119,0.0001331439233691952
-0.30556568969877845,-0.30556568969877845,1.0001495256357746,0.00013317781833908348
-0.30390783182265296,-0.30390783182265296,0.99974534023,0.0001332237319228102
-0.30254442494660905,-0.30254442494660905,0.9999027810704074,0.00013320366327852212
-0.3009738843669766,-0.3009738843669766,0.9998646949947666,0.000133167326254502
-0.2990669024311501,-0.2990669024311501,0.9999383400885937,0.00013313816445932218
-0.2974832871528633,-0.2974832871528633,0.999930320345164,0.0001335431821729505
-0.295817998698476,-0.295817998698476,0.9999809235239997,0.00013310396568076
-0.2937383817810769,-0.2937383817810769,0.999728415234792,0.00013317217546246843
-0.2922111404193856,-0.2922111404193856,0.9997851594463663,0.0001332468454952899
-0.2901528746173426,-0.2901528746173426,1.0000041673090518,0.00013314789271093086
-0.28840119579072054,-0.28840119579072054,1.0001996753945637,0.00013299039601766998
-0.2861766020330833,-0.2861766020330833,0.9998192241542749,0.00013322399331923055
-0.2845297215455503,-0.2845297215455503,1.0000114210432443,0.00013306874808189352
-0.28261338489501214,-0.28261338489501214,0.9999961899213907,0.00013316721463156416
-0.2810344288980559,-0.2810344288980559,0.9999849804098396,0.0001331500450534902
-0.2793652189215209,-0.2793652189215209,1.0000670584575388,0.000133178199140214
-0.2780705547225807,-0.2780705547225807,1.0010921873249512,0.0001358795662199709
-0.27641129183393787,-0.27641129183393787,0.9999446244193656,0.000133154906365719
-0.27512511577806437,-0.27512511577806437,1.000217093010227,0.00013444969667077302
-0.2733903306605498,-0.2733903306605498,1.0003461820988626,0.00013325563762586293
-0.27228184898631297,-0.27228184898631297,0.9997508694139088,0.0001332568977194224
-0.27036857001439785,-0.27036857001439785,1.0000058164831978,0.00013315446105367117
-0.2691686719244899,-0.2691686719244899,0.9999645342277438,0.0001329678080525145
-0.26707242790143937,-0.26707242790143937,0.99980762640762,0.00013314069276302605
-0.26578695685639103,-0.26578695685639103,0.9997564737744685,0.00013304312773727937
-0.2635819181927218,-0.2635819181927218,0.9996692019486784,0.00013307249301023133
-0.26211648822900313,-0.26211648822900313,0.99991307335474,0.00013308895903554064
-0.2598685074965033,-0.2598685074965033,1.000210920269831,0.00013317971553395525
-0.2585100452357437,-0.2585100452357437,0.9998819995093582,0.0001331189552691893
-0.2567211240046163,-0.2567211240046163,1.000697713217628,0.00013317327355922914
-0.25530070461754806,-0.25530070461754806,0.9997994249781416,0.00013312701215258553
-0.25353187033251745,-0.25353187033251745,1.0000773067582016,0.00013314691101336325
-0.25204785999849266,-0.25204785999849266,0.9998573385770382,0.00013321862375429547
-0.2500438291801402,-0.2500438291801402,0.9997969684643913,0.00013323345266517297
-0.2486189278515667,-0.2486189278515667,1.0001358685604131,0.00013324413639579887
-0.2464876493311749,-0.2464876493311749,0.999995323171618,0.00013322141241672937
-0.24530278778511275,-0.24530278778511275,1.0000358315398863,0.00013349103773882952
-0.2435318121319142,-0.2435318121319142,1.0000441748212856,0.00013323128964742409
-0.242039270630994,-0.242039270630994,1.0000320618520182,0.00013325299269932621
-0.23976685164634545,-0.23976685164634545,0.999859043623189,0.0001330899910300769
-0.2379383593743114,-0.2379383593743114,0.9999212631068943,0.00013314404605141084
-0.23631347966220345,-0.23631347966220345,0.9998794731975489,0.00013314664268895376
-0.23460207299649483,-0.23460207299649483,0.9999405447368644,0.00013312193497809805
-0.23279005394470004,-0.23279005394470004,0.9999857116417431,0.0001331050594603512
-0.23083565368251585,-0.23083565368251585,0.9998297235693372,0.0001331558591910523
-0.22935283920669464,-0.22935283920669464,1.0000906472839126,0.0001330440623885047
-0.22710051326321262,-0.22710051326321262,1.0000517359992382,0.00013325122119740997
-0.22601351262856043,-0.22601351262856043,1.0009405535588933,0.00013580203923893626
-0.22453825203738234,-0.22453825203738234,1.0001112326543105,0.00013305993472586777
-0.2230871036896133,-0.2230871036896133,0.9997662676009679,0.00013445562555827322
-0.22166934806664357,-0.22166934806664357,1.000011100657298,0.00013305206216484308
-0.22006739642201864,-0.22006739642201864,0.9999123197738553,0.00013309100615598382
-0.21841033555247122,-0.21841033555247122,1.0029030117388271,0.00013321269292573967
-0.21682024551664653,-0.21682024551664653,1.0005013577263022,0.00013309307451366836
-0.21515164935699432,-0.21515164935699432,1.0001120427792591,0.0001330764688789005
-0.21343825388867116,-0.21343825388867116,1.0000284375940391,0.00013327836386850428
-0.21218169133353512,-0.21218169133353512,0.9998701323717831,0.00013323248211490862
-0.2101495079947199,-0.2101495079947199,0.9997516811080628,0.00013301942518624893
-0.20850234559329692,-0.20850234559329692,1.0009374232869557,0.00013319108763742564
-0.20649051052350842,-0.20649051052350842,1.0000594456930985,0.00013307406261717534
-0.2049765720650612,-0.2049765720650612,1.0000414685010635,0.00013319093043175976
-0.20337711958964064,-0.20337711958964064,0.9999932344390666,0.0001332327848030591
-0.20173341238660214,-0.20173341238660214,0.9999561413828832,0.0001330700411929653
-0.20019297724174975,-0.20019297724174975,0.9999304447423258,0.00013322156007674612
-0.19845198299808545,-0.19845198299808545,0.9999669793808383,0.00013314319832660645
-0.19671093187571387,-0.19671093187571387,1.0000386061409599,0.0001331367215386416
-0.19484274790156633,-0.19484274790156633,1.0000314457100838,0.00013332845075544826
-0.19321766119428502,-0.19321766119428502,1.000031855584606,0.0001331328249486227
-0.19146831272155396,-0.19146831272155396,1.000008498073981,0.00013367132091506603
-0.18997406112575846,-0.18997406112575846,1.0000638545077798,0.00013307326880063157
-0.1874738303857157,-0.1874738303857157,1.0000584304034086,0.0001332086870059374
-0.18604507468116935,-0.18604507468116935,0.9998786428419729,0.00013300826752929488
-0.1838264945847186,-0.1838264945847186,1.0002830817747692,0.00013323611062990005
-0.18179919743415668,-0.18179919743415668,1.0000652843636444,0.00013309901022794433
-0.18021839207867743,-0.18021839207867743,0.9998899965344389,0.00013322363430274246
-0.17849467797313992,-0.17849467797313992,1.0007093140154073,0.00013313807361337075
-0.17674287539557554,-0.17674287539557554,0.999992129230977,0.000133122229968584
-0.17477629004024492,-0.17477629004024492,1.000284680048836,0.00013317491769156218
-0.17334477318800054,-0.17334477318800054,1.0001585343199584,0.00013561434676156206
-0.17189184674061836,-0.17189184674061836,1.0001279947327912,0.0001331254638635985
-0.17051237156229035,-0.17051237156229035,0.9999047967365261,0.00013309862373234353
-0.16920646397193195,-0.16920646397193195,0.99985046205932,0.00013428712321119984
-0.16755114862717163,-0.16755114862717163,0.9999296898272773,0.00013318965527013243
-0.16597493008557648,-0.16597493008557648,1.0067356706278126,0.00013332099756331763
-0.1641604370706773,-0.1641604370706773,1.0002577811192936,0.00013308787800817232
-0.16234856970440886,-0.16234856970440886,0.9998722103565412,0.0001330909575414848
-0.16066964804194867,-0.16066964804194867,1.0002115484894152,0.00013308997838347994
-0.15937875203671864,-0.15937875203671864,1.0000338140380571,0.00013324651525646207
-0.15734682278416584,-0.15734682278416584,1.0000780427962108,0.0001330287044601891
-0.1559679770401999,-0.1559679770401999,1.0011074417166739,0.00013346453166367833
-0.15394510718761012,-0.15394510718761012,0.9998859144833844,0.00013311200953325565
-0.15256820999165938,-0.15256820999165938,0.9998551550618451,0.00013317438751424154
-0.15081073664514405,-0.15081073664514405,1.0006526427507874,0.00013317975106398627
-0.14934600924425467,-0.14934600924425467,1.000354170342359,0.0001331768941158657
-0.14762277280387934,-0.14762277280387934,0.9999207060068672,0.0001331256954355666
-0.14609157977429277,-0.14609157977429277,0.999891857760218,0.00013320144481411038
-0.1441358847961965,-0.1441358847961965,0.9999479144691543,0.00013320454341999116
-0.14256382054845745,-0.14256382054845745,1.0002625013663566,0.00013320935709398924
-0.14065915994542594,-0.14065915994542594,1.0001127458686578,0.00013315067899665392
-0.1390738817783131,-0.1390738817783131,1.000034371337352,0.0001337038489909324
-0.13741030578457866,-0.13741030578457866,1.0003062910175322,0.00013311967994874863
-0.13517735838540829,-0.13517735838540829,1.0002269691223986,0.0001331964772069251
-0.13367591066162277,-0.13367591066162277,1.0008497146012794,0.00013315914980434917
-0.13126666852585914,-0.13126666852585914,0.9998653306107084,0.00013324609891045264
-0.1295327844676649,-0.1295327844676649,0.9998048434333893,0.00013297292699856968
-0.12745420537903557,-0.12745420537903557,1.0001714722252575,0.00013320567613743403
-0.12588333892636,-0.12588333892636,1.000053224221445,0.00013315472282260306
-0.12423791465407703,-0.12423791465407703,0.9999324446042219,0.00013312625933653398
-0.12286923556712281,-0.12286923556712281,0.9999071586524654,0.00013304742555726528
-0.12095764469595452,-0.12095764469595452,0.9999845347655606,0.00013318511518471901
-0.11966137369017815,-0.11966137369017815,0.9999592089679264,0.00013542810337529985
-0.1180026753416314,-0.1180026753416314,0.9999687854818283,0.00013318215463061083
-0.11671664616114867,-0.11671664616114867,0.9998292854968962,0.0001342639277755091
-0.11498145243567706,-0.11498145243567706,1.000287237298302,0.0001332478639037221
-0.11359026502650522,-0.11359026502650522,1.0024566377356534,0.00013303868177464494
-0.11168724364943046,-0.11168724364943046,1.0000192845314229,0.0001331029721084647
-0.11021015259793784,-0.11021015259793784,0.999765049557736,0.00013306228202204635
-0.10842993042606394,-0.10842993042606394,1.0003439075916098,0.00013311340296197626
-0.10695759693116998,-0.10695759693116998,0.9999618067630024,0.00013309557337132184
-0.10501497126206231,-0.10501497126206231,1.0000096585669493,0.00013311929321745686
-0.10370880777845741,-0.10370880777845741,1.001345043672476,0.00013315340492188381
-0.10156842340475122,-0.10156842340475122,1.0002236024916766,0.0001331870917205937
-0.10038766574143665,-0.10038766574143665,0.999784961552697,0.00013318834203678687
-0.09862491999701888,-0.09862491999701888,0.999888946893855,0.00013323232157694666
-0.09723067121958592,-0.09723067121958592,0.9998926849472014,0.00013302330647622988
-0.09543080044022645,-0.09543080044022645,0.9999736229180277,0.00013327655435424002
