time,time,flux,flux_err
-0.4998986972689939,-0.4998986972689939,0.9999098682003932,8.989983723852626e-05
-0.49976297189823526,-0.49976297189823526,1.0001098056333577,9.085722381049486e-05
-0.49966787102021043,-0.49966787102021043,0.999960143793922,8.021130374471174e-05
-0.4995681999491353,-0.4995681999491353,0.9999824113299605,8.020052777028244e-05
-0.4994388803992479,-0.4994388803992479,0.9999756842042968,8.006924731066776e-05
-0.49935097799461803,-0.49935097799461803,1.0000430554347979,8.153912056232101e-05
-0.49922904815466607,-0.49922904815466607,0.9999065102159307,7.98914835292489e-05
-0.49912569890293523,-0.49912569890293523,1.0000414293581337,8.010599716242194e-05
-0.4989900837696041,-0.4989900837696041,0.9999131479107717,7.972967737745896e-05
-0.4988365275479737,-0.4988365275479737,1.0000362821310327,8.003876320884376e-05
-0.49873903750267345,-0.49873903750267345,0.999921135952696,8.013574297118272e-05
-0.4986583273494034,-0.4986583273494034,1.0000730025568414,8.065414174496408e-05
-0.4985058326914441,-0.4985058326914441,0.9999447623633604,7.917880653913168e-05
-0.4983369139765273,-0.4983369139765273,0.999973826141251,8.023655297310995e-05
-0.4982408380390552,-0.4982408380390552,1.000106788554847,8.057602154308326e-05
-0.4981335641707119,-0.4981335641707119,1.0000041116544178,8.038538379585757e-05
-0.49802359314635397,-0.49802359314635397,0.9998951314530172,7.897365226492057e-05
-0.49786017917795106,-0.49786017917795106,1.0000542653826374,8.160629624863889e-05
-0.49774217330123066,-0.49774217330123066,0.9999471730965432,7.946080500298573e-05
-0.49760893955026403,-0.49760893955026403,0.9999435933097885,8.065109134493957e-05
-0.497463018126291,-0.497463018126291,0.9999865903394192,8.18585306536227e-05
-0.49736947599594716,-0.49736947599594716,0.999928116886575,8.132084602586307e-05
-0.4972930663599982,-0.4972930663599982,0.9999885725919382,8.184549463062121e-05
-0.497174227618234,-0.497174227618234,0.9999893287191755,8.11626281927915e-05
-0.4970691919676028,-0.4970691919676028,1.000109389160723,7.92566110403245e-05
-0.4968492523614259,-0.4968492523614259,0.9998198242286722,7.987490127703455e-05
-0.4967893640328839,-0.4967893640328839,0.9999752853868985,8.06086219266145e-05
-0.49666122400958557,-0.49666122400958557,1.0000308936021503,8.137550126514133e-05
-0.4965036015666556,-0.4965036015666556,0.9998654289077408,7.888492426233936e-05
-0.4963453724732972,-0.4963453724732972,1.0000330274700309,8.083379053445484e-05
-0.49625830428049084,-0.49625830428049084,1.0000131841637394,8.01588128377615e-05
-0.4961380132641352,-0.4961380132641352,0.9999819202008122,7.928115667258696e-05
-0.496033625943528,-0.496033625943528,1.0000105336695986,7.859635653227655e-05
-0.49588903439725984,-0.49588903439725984,0.9999458785160371,8.057245460170333e-05
-0.4958119742543204,-0.4958119742543204,1.0000090107066284,8.062579044206385e-05
-0.495704184720671,-0.495704184720671,0.9999422427243563,8.041820430517156e-05
-0.49557195052766473,-0.49557195052766473,1.0000094434784592,7.990081268560543e-05
-0.4954039264746825,-0.4954039264746825,1.0000144014213066,8.148966068208878e-05
-0.49525975643919085,-0.49525975643919085,0.9999575471729955,7.958263930383636e-05
-0.4951046818830946,-0.4951046818830946,0.9999197118980174,8.093557192475874e-05
-0.49496437160196366,-0.49496437160196366,1.000095864990102,8.204438424158983e-05
-0.4948661782655108,-0.4948661782655108,0.9999548827099589,8.313279379303462e-05
-0.49476180983474477,-0.49476180983474477,1.0001407789575445,8.064392471040168e-05
-0.4946761524974136,-0.4946761524974136,1.0000079552116392,7.946792510907987e-05
-0.4945449718768941,-0.4945449718768941,1.0000856536012555,8.083307749386692e-05
-0.49437522419830204,-0.49437522419830204,0.9999185982338906,7.939739272002134e-05
-0.49422907477273836,-0.49422907477273836,1.0000407170031729,8.214499350077765e-05
-0.49410162635176674,-0.49410162635176674,1.000036595911555,7.887140624106566e-05
-0.49394554864193196,-0.49394554864193196,1.0001257000247992,7.961121112776704e-05
-0.4938680908686365,-0.4938680908686365,1.0000096370117255,8.032117198597455e-05
-0.49375892418684086,-0.49375892418684086,0.9998618837899951,8.015615773130977e-05
-0.49365532618539876,-0.49365532618539876,0.9998840060045756,7.987069877470996e-05
-0.4935025801685697,-0.4935025801685697,0.9999430510873897,8.007241684397132e-05
-0.4934033726065536,-0.4934033726065536,1.000024879941281,7.934654555190484e-05
-0.493320565958129,-0.493320565958129,0.9999107664109413,8.174526237411583e-05
-0.49321823807185866,-0.49321823807185866,1.0000870006548053,7.936388686722081e-05
-0.49303976694864105,-0.49303976694864105,0.9999888418982167,8.054745502932051e-05
-0.4929513063187187,-0.4929513063187187,0.9999554912253309,8.14886579747789e-05
-0.4928145835277974,-0.4928145835277974,1.0001167442129504,8.073640582993931e-05
-0.49270509371199295,-0.49270509371199295,0.9998969891340517,8.102665150286329e-05
-0.4925300874834647,-0.4925300874834647,0.9998978772925937,8.291635272991094e-05
-0.49242513471690474,-0.49242513471690474,1.0000085846450517,8.207794553266976e-05
-0.49233103152655533,-0.49233103152655533,0.9999991571693293,8.066332611505569e-05
-0.4922508052644844,-0.4922508052644844,0.999976722171886,7.950178236337001e-05
-0.4921477375995892,-0.4921477375995892,1.0000936879161337,8.005328560097122e-05
-0.4919696715223836,-0.4919696715223836,1.0000600173943828,7.914340102504336e-05
-0.4918706525153539,-0.4918706525153539,1.0000946329651612,8.204990147225314e-05
-0.49173139209669897,-0.49173139209669897,1.0001141547564996,7.975547138317148e-05
-0.4916169374577294,-0.4916169374577294,1.0001090639953854,7.879135010260274e-05
-0.4915176933078328,-0.4915176933078328,0.9999932514390846,7.914100084831767e-05
-0.49142906954002685,-0.49142906954002685,0.9998572323694365,8.065192484661251e-05
-0.49130431837111244,-0.49130431837111244,0.9999037270571076,8.045998047132396e-05
-0.49116600414927236,-0.49116600414927236,0.9999278264205795,8.059005588619453e-05
-0.4910156899037247,-0.4910156899037247,1.0001226521657316,7.989983320825901e-05
-0.49090614387168896,-0.49090614387168896,1.0000669361967676,8.233222668234702e-05
-0.49078846742559107,-0.49078846742559107,1.000055726257289,7.935561772721447e-05
-0.49062560755191953,-0.49062560755191953,0.9998378115909399,8.08818343891451e-05
-0.49046932771234425,-0.49046932771234425,1.0000555870115022,8.210959143410579e-05
-0.4903517108665255,-0.4903517108665255,0.999949308963618,7.998217878560119e-05
-0.49016762777682743,-0.49016762777682743,0.9998870568983476,8.092704310119456e-05
-0.4900450947628997,-0.4900450947628997,0.9999743791609574,8.383646284336132e-05
-0.48995080986860556,-0.48995080986860556,1.0001200130716774,8.131692597690548e-05
-0.489874017918919,-0.489874017918919,1.0000610337469147,7.987521082653573e-05
-0.489774923981895,-0.489774923981895,0.9999459025018241,7.963687421585464e-05
-0.48962508319091286,-0.48962508319091286,1.0000687913772388,8.058151763477381e-05
-0.48950883347497437,-0.48950883347497437,0.9999695438930098,8.111869446027389e-05
-0.48931496615696235,-0.48931496615696235,1.0000991151201737,8.14758228072974e-05
-0.4892014258628478,-0.4892014258628478,1.0000011749169329,7.847604731262705e-05
-0.48911605587345547,-0.48911605587345547,0.9999111501131187,7.974152440040917e-05
-0.4890222818830807,-0.4890222818830807,1.0000584326094004,8.033420407230423e-05
-0.4888686242127733,-0.4888686242127733,1.0000539768273167,7.999322451034145e-05
-0.48871406461839795,-0.48871406461839795,1.000122989875047,8.045355928392973e-05
-0.48853345479801646,-0.48853345479801646,0.9999459752694662,8.002367738546624e-05
-0.4884078022587346,-0.4884078022587346,0.9998547072403824,8.082593333739665e-05
-0.4883460436227324,-0.4883460436227324,0.9999451928539298,7.896607916207165e-05
-0.4882021608093055,-0.4882021608093055,1.0000000639218947,8.02159562982788e-05
-0.48807156354305337,-0.48807156354305337,0.9998763206444898,8.123410097499088e-05
-0.4879589985423081,-0.4879589985423081,0.9999455494635727,8.087739768972419e-05
-0.48785134590871165,-0.48785134590871165,1.0000760537516435,8.00795269801764e-05
-0.4876879894611193,-0.4876879894611193,1.0000568633186666,7.974103003339489e-05
-0.48759740995083123,-0.48759740995083123,0.9998885113047808,8.233980793260904e-05
-0.48752251887563036,-0.48752251887563036,1.0001231076615948,8.135489779376395e-05
-0.48745165794316564,-0.48745165794316564,0.9999521763934094,7.995092473480119e-05
-0.4873695171132567,-0.4873695171132567,0.9998455965082125,7.890462721984554e-05
-0.48720872521807906,-0.48720872521807906,1.0001486520874705,7.835792553572968e-05
-0.4870942509602173,-0.4870942509602173,0.9999952794440053,8.105888246036214e-05
-0.4869750496276538,-0.4869750496276538,1.000012510520812,8.17603785088533e-05
-0.48682579157029976,-0.48682579157029976,1.000060226228872,8.004294050432277e-05
-0.48675841128861064,-0.48675841128861064,0.9999918101341592,7.890424196927416e-05
-0.4866281149748829,-0.4866281149748829,1.000134780630137,7.9954909667199e-05
-0.48654173336617534,-0.48654173336617534,1.0001458764231974,8.021368300451151e-05
-0.48641293614782627,-0.48641293614782627,1.0001140727786808,7.97955527033875e-05
-0.4862400062142115,-0.4862400062142115,1.0000334203841894,8.027134791941706e-05
-0.48609120266337413,-0.48609120266337413,0.9999350839930049,8.005078924575891e-05
-0.4859500172031403,-0.4859500172031403,1.0000247303738763,8.124942459499405e-05
-0.4858639992453391,-0.4858639992453391,0.9999491456397298,8.072363835641176e-05
-0.4856735351087991,-0.4856735351087991,1.0000234131000552,8.133306555515384e-05
-0.4855654525184946,-0.4855654525184946,0.9999739844250403,8.055738309256624e-05
-0.48549410007617555,-0.48549410007617555,0.9999630220081868,7.90407646146241e-05
-0.48532500569563125,-0.48532500569563125,0.9999273955119975,7.948931833119452e-05
-0.48520780789331186,-0.48520780789331186,0.9999321205003311,8.30404460239411e-05
-0.48511011081864125,-0.48511011081864125,1.000060609901691,8.080467916895627e-05
-0.48503297254865174,-0.48503297254865174,0.9999620581902778,8.085230953684187e-05
-0.4849777569543221,-0.4849777569543221,0.9999624952756063,8.038431534252645e-05
-0.4848696315995767,-0.4848696315995767,1.000008379799396,8.035658752138228e-05
-0.4847570609599643,-0.4847570609599643,1.0000615072036436,7.992885354332723e-05
-0.48463994323828957,-0.48463994323828957,1.000041995800544,8.19319458681697e-05
-0.48452366029887345,-0.48452366029887345,1.0000741319268591,8.01906765619527e-05
-0.4844234177719045,-0.4844234177719045,0.9998948883469339,8.249695051653431e-05
-0.48434714137474655,-0.48434714137474655,0.9999354797768788,7.903606421481198e-05
-0.4842735775266192,-0.4842735775266192,1.0000453831704186,7.898456972137876e-05
-0.4841678825345298,-0.4841678825345298,0.9999607191178672,8.012288351206498e-05
-0.4840313935819722,-0.4840313935819722,1.0001046030924352,8.118343294162008e-05
-0.4838687250674411,-0.4838687250674411,1.000088853779467,8.014068362097309e-05
-0.4837240676592046,-0.4837240676592046,1.0000612373242315,8.005785101085736e-05
-0.4835730877632159,-0.4835730877632159,1.0001084498650983,8.026223571765675e-05
-0.4834728228175663,-0.4834728228175663,1.0000624810678995,8.097848830255343e-05
-0.4833163986819272,-0.4833163986819272,0.9999358721800087,8.082217893318052e-05
-0.48320585775800284,-0.48320585775800284,1.0001362006241086,7.942098540154345e-05
-0.48314652702902094,-0.48314652702902094,1.0000485870812121,8.081075029534204e-05
-0.48307832360151226,-0.48307832360151226,1.0000108048083223,7.970240929724092e-05
-0.48292734185961306,-0.48292734185961306,0.9999433654196267,8.032333151733543e-05
-0.48279878395769626,-0.48279878395769626,0.9998961318771477,8.09613058000672e-05
-0.4827108174467867,-0.4827108174467867,1.0000885936156385,8.319177481872128e-05
-0.4826120597826957,-0.4826120597826957,0.9999347124208795,8.079821188226703e-05
-0.48254072908384843,-0.48254072908384843,1.0000423866399673,8.030052355915397e-05
-0.4824477596564975,-0.4824477596564975,0.9999659267328047,8.134449162252772e-05
-0.48236495257515344,-0.48236495257515344,0.9999989721999706,8.044730558220343e-05
-0.48222679041427907,-0.48222679041427907,0.9999344676526001,8.105899566703013e-05
-0.48209566415680455,-0.48209566415680455,1.0000996071150878,8.003147336872492e-05
-0.4819634801649954,-0.4819634801649954,0.9998705864081112,7.986505068508851e-05
-0.48189560954633637,-0.48189560954633637,0.9998823099708197,7.947584839651642e-05
-0.4817798452801071,-0.4817798452801071,0.9998752164723674,7.947956786902995e-05
-0.4816735758831783,-0.4816735758831783,1.0000226889209354,8.066692641147644e-05
-0.4815676762904332,-0.4815676762904332,0.999976041553164,8.179188966718617e-05
-0.4814328924898291,-0.4814328924898291,0.9998647542794332,8.196547381044352e-05
-0.48131258947760214,-0.48131258947760214,1.0000355712564717,7.966972225498223e-05
-0.4812196266677347,-0.4812196266677347,1.000068653812157,7.858479766024457e-05
-0.48112872130586765,-0.48112872130586765,1.0001172897017925,8.058510322658847e-05
-0.4810102427298261,-0.4810102427298261,1.0000342992632185,8.207201476793519e-05
-0.4808563807608152,-0.4808563807608152,1.0000160516628303,8.016070886581895e-05
-0.4807664918844239,-0.4807664918844239,0.9999915279601554,7.972925050700493e-05
-0.48071377263622705,-0.48071377263622705,1.0000129077817728,8.01127314099279e-05
-0.48060288856286204,-0.48060288856286204,0.9999991117873541,7.93258796130609e-05
-0.4804011196814827,-0.4804011196814827,0.9999017528393349,7.991592224912261e-05
-0.4803334699397965,-0.4803334699397965,1.000107517481116,8.183603571217418e-05
-0.4802348342927871,-0.4802348342927871,0.9999440459024097,8.062526468763217e-05
-0.4801425715093501,-0.4801425715093501,1.000059720544833,8.036971398164039e-05
-0.48008955084806076,-0.48008955084806076,0.9999551881788757,8.791207355753183e-05
-0.47996375604561764,-0.47996375604561764,0.9999267947818673,8.073755257733713e-05
-0.47982284627942134,-0.47982284627942134,1.00002373961085,8.042358206250487e-05
-0.47967874763780854,-0.47967874763780854,1.0000863559994666,8.02052491670305e-05
-0.47956404297074184,-0.47956404297074184,0.9999258886097209,8.149862689034767e-05
-0.47949323072534755,-0.47949323072534755,1.0000438232076985,7.903376693137579e-05
-0.4794450444212998,-0.4794450444212998,0.9999845533980217,8.028843759087624e-05
-0.47935891849920154,-0.47935891849920154,1.0000385266624956,7.998129971093704e-05
-0.4792671152332332,-0.4792671152332332,1.0001256444125368,8.028563975634654e-05
-0.47915520776296033,-0.47915520776296033,1.0000422562367093,8.241496587776998e-05
-0.4789981964742765,-0.4789981964742765,0.999960426701659,8.050019215916291e-05
-0.47885071754208186,-0.47885071754208186,1.0000707467392496,8.04354259969317e-05
-0.4787313993983844,-0.4787313993983844,0.9999318042444196,7.919401862307235e-05
-0.4786373377304699,-0.4786373377304699,1.000026316509068,8.124031535737295e-05
-0.4785051395985647,-0.4785051395985647,1.000020232820634,8.009692246993774e-05
-0.47836546743128566,-0.47836546743128566,0.999789193573046,8.089673242653536e-05
-0.47831184450624276,-0.47831184450624276,1.0000666867422126,8.000712938095888e-05
-0.47823518331933884,-0.47823518331933884,1.0001160648321865,7.990769879437154e-05
-0.47806364594216577,-0.47806364594216577,1.0000499114232553,7.970269179749951e-05
-0.4779187276617449,-0.4779187276617449,1.0000465957334774,8.137488558859879e-05
-0.4778191195400723,-0.4778191195400723,1.000056749356303,8.136827159678059e-05
-0.47773447745203157,-0.47773447745203157,0.999897272581914,7.914565360135831e-05
-0.4776722213369794,-0.4776722213369794,0.9999398207773622,8.109568416256431e-05
-0.4775579087494407,-0.4775579087494407,0.9998838469250391,8.674670396240651e-05
-0.477434737362637,-0.477434737362637,1.0000314319613024,7.911884084192855e-05
-0.47731831398778013,-0.47731831398778013,1.0001319135135756,8.223060428329364e-05
-0.47716712196488514,-0.47716712196488514,1.000091794771676,7.97517042648378e-05
-0.4770695816972875,-0.4770695816972875,1.0001174273695246,7.904511559023721e-05
-0.4770159360014077,-0.4770159360014077,0.9999653766673585,8.031964114690009e-05
-0.476914988354838,-0.476914988354838,1.0000396739968793,8.032258199641343e-05
-0.47684254683408656,-0.47684254683408656,1.0000061448491275,7.900127183201649e-05
-0.4767391196648532,-0.4767391196648532,0.9999944510254328,8.235427802491672e-05
-0.4766012936088373,-0.4766012936088373,1.0000938227898326,8.107608179074431e-05
-0.47643008956729316,-0.47643008956729316,1.0000558054624205,8.006576166234554e-05
-0.47627501423630747,-0.47627501423630747,0.9999466218615346,8.129702369763875e-05
-0.4761703620089975,-0.4761703620089975,0.9998436372973065,7.983864819308066e-05
-0.4759892468588077,-0.4759892468588077,1.000010088516254,8.074968474086523e-05
-0.4758899815598852,-0.4758899815598852,1.0000444961567299,8.002880241601021e-05
-0.4758306273484777,-0.4758306273484777,1.0001160164786267,7.978448428594436e-05
-0.475680374707008,-0.475680374707008,1.0000808253677826,7.991594056379572e-05
-0.47550130946110586,-0.47550130946110586,0.9999609849668334,8.098331329115346e-05
-0.47539510018905273,-0.47539510018905273,1.0000598564053984,8.094107425350193e-05
-0.47530044898448975,-0.47530044898448975,0.9999598927197189,7.916542945922963e-05
-0.47521084366744615,-0.47521084366744615,0.9998938127830289,8.452070157311526e-05
-0.4750854288125993,-0.4750854288125993,0.9999253141864498,8.159909356226993e-05
-0.4749422462162329,-0.4749422462162329,0.9999561918453498,8.104059413789304e-05
-0.4748560237523634,-0.4748560237523634,0.9999003558803384,8.011924840690881e-05
-0.47471691794198706,-0.47471691794198706,0.9999786760764472,8.180229639477248e-05
-0.47463863705852416,-0.47463863705852416,1.0000010387146399,7.874821021862866e-05
-0.47455462496218387,-0.47455462496218387,1.0000846727079378,7.996771432024041e-05
-0.47444663324276914,-0.47444663324276914,1.0000347552830546,7.957677620820947e-05
-0.47435106069242466,-0.47435106069242466,1.000067814208593,8.14545949760462e-05
-0.4742537595964677,-0.4742537595964677,0.9999336615548019,7.937706829901401e-05
-0.4741410359936708,-0.4741410359936708,0.9999251712938593,8.093140040336415e-05
-0.4740195673490234,-0.4740195673490234,1.0000846325486408,8.029060586926999e-05
-0.47385956340222035,-0.47385956340222035,0.9999762544931888,8.06938617036062e-05
-0.4737035998557985,-0.4737035998557985,1.0000019064906658,8.193554943742169e-05
-0.47351354647325933,-0.47351354647325933,1.0000222262106706,8.030723179102413e-05
-0.4734386483600247,-0.4734386483600247,1.000015023432233,8.05447783768049e-05
-0.4733685319813958,-0.4733685319813958,1.0000044351276602,7.94452821297602e-05
-0.47318826983246254,-0.47318826983246254,1.0000418552636425,7.982733928495524e-05
-0.47302830334883766,-0.47302830334883766,1.0000136757522398,8.059673527756956e-05
-0.472903617250995,-0.472903617250995,1.0000022267110418,7.992120559553042e-05
-0.4727722074712801,-0.4727722074712801,1.0000632055111565,8.220787883347951e-05
-0.4726561253439286,-0.4726561253439286,1.0000247277153922,8.292275494270903e-05
-0.472530058198754,-0.472530058198754,0.9999717583727517,8.201904955922858e-05
-0.4724032930796966,-0.4724032930796966,1.000036266910709,7.919580505725676e-05
-0.4723020670564438,-0.4723020670564438,1.0001364058373263,8.048431257584651e-05
-0.4722462138619449,-0.4722462138619449,1.0000587475005693,7.974644419364074e-05
-0.4721904630714562,-0.4721904630714562,0.9999443419341514,7.871485812293605e-05
-0.4720826816868794,-0.4720826816868794,0.9999763694616384,7.979075526817593e-05
-0.471981804270763,-0.471981804270763,1.000081402164722,7.961814218675301e-05
-0.47190779098746133,-0.47190779098746133,1.000132231002916,8.113868915398393e-05
-0.47183310322507166,-0.47183310322507166,1.0000399174120926,8.085102431873847e-05
-0.4717468247465149,-0.4717468247465149,1.0000033851781565,7.95342573060989e-05
-0.4716081719212525,-0.4716081719212525,0.9999339878499691,8.124952824265418e-05
-0.47147589824307945,-0.47147589824307945,1.0000220473023482,8.065025935182557e-05
