time,time,flux,flux_err
-0.4999631385031878,-0.4999631385031878,0.9998951618574505,0.0002819146496249777
-0.4998928519603025,-0.4998928519603025,1.0000260191930415,0.00028195789499138813
-0.4998225654193422,-0.4998225654193422,0.9999442921956416,0.0002818694206324028
-0.4997581360917887,-0.4997581360917887,1.0002797042450884,0.00025743339118800923
-0.49969956397724075,-0.49969956397724075,0.9997436976450877,0.0002573600610654409
-0.4996409918640519,-0.4996409918640519,1.0001705529003582,0.0002573347454157311
-0.4995824197521513,-0.4995824197521513,1.0000460448193729,0.0002573061920702961
-0.49952384764160185,-0.49952384764160185,0.9999731730846833,0.00025732812633054035
-0.49946527553237585,-0.49946527553237585,1.0001225340440316,0.000257322816337834
-0.4994067034244737,-0.4994067034244737,0.9997998138257926,0.0002573233407543031
-0.4993481313179141,-0.4993481313179141,1.0002050949453527,0.0002573237606733854
-0.4992895592126555,-0.4992895592126555,0.9997539357780656,0.0002572654860738609
-0.49923098710873176,-0.49923098710873176,1.000112150406944,0.00025722168179597024
-0.499172415006132,-0.499172415006132,0.9999916686971648,0.0002572505235219691
-0.4991138429048593,-0.4991138429048593,1.0001408732157457,0.00025717387595312376
-0.49905527080490647,-0.49905527080490647,0.9997876937948682,0.00025725802201020297
-0.49899669870627716,-0.49899669870627716,1.0000988170393128,0.0002572040838929751
-0.49893812660895626,-0.49893812660895626,1.0001599552092872,0.00025723598600184335
-0.4988795545129664,-0.4988795545129664,0.9998006088757035,0.0002573460332398106
-0.49882098241829953,-0.49882098241829953,0.9999625382704311,0.00025724673173813285
-0.49876241032494556,-0.49876241032494556,1.0001267273326062,0.0002572224387941113
-0.49870383823291087,-0.49870383823291087,0.9998801368797796,0.000257188318288937
-0.49864526614220006,-0.49864526614220006,0.9999003163481504,0.0002571088473546728
-0.49858669405279993,-0.49858669405279993,1.0000613922889352,0.00025707115057482864
-0.4985281219647247,-0.4985281219647247,0.9999629185991287,0.0002572105611996576
-0.498469549877957,-0.498469549877957,1.000031749379085,0.000257197964518463
-0.49841097779252086,-0.49841097779252086,0.9999963483352292,0.00025715290839457844
-0.498352405708384,-0.498352405708384,0.9999542628843099,0.00025722036762985734
-0.49829383362558727,-0.49829383362558727,1.0002999069841003,0.0002571698440283853
-0.4982352615440866,-0.4982352615440866,0.9999766241617349,0.0002571725172432057
-0.49817668946391763,-0.49817668946391763,1.0000469032015562,0.0002571140800028225
-0.4981181173850594,-0.4981181173850594,0.9998529725253615,0.0002571853546553742
-0.49805954530751767,-0.49805954530751767,1.0002362806618452,0.000257327844623749
-0.49800097323128406,-0.49800097323128406,0.9998202930774875,0.000257178930237329
-0.4979424011563779,-0.4979424011563779,1.0000270104721574,0.0002572850704790004
-0.4978838290827789,-0.4978838290827789,1.0001612537485651,0.0002572791549876258
-0.49782525701047653,-0.49782525701047653,0.9999974791606036,0.00025722988629237325
-0.4977666849395178,-0.4977666849395178,0.9999714559900437,0.0002572030416774894
-0.4977081128698588,-0.4977081128698588,1.0001211206007816,0.00025719971712218737
-0.49764954080152696,-0.49764954080152696,0.9999322634819633,0.00025725172198999595
-0.4975909687345229,-0.4975909687345229,1.0001110365453862,0.00025727185365162877
-0.49753239666880356,-0.49753239666880356,0.999924546287015,0.00025728394323443725
-0.4974738246044076,-0.4974738246044076,0.9999026730665651,0.00025737093006193153
-0.4974152525413504,-0.4974152525413504,1.000199634234077,0.0002575311232205067
-0.49735668047958603,-0.49735668047958603,0.9998267365113452,0.0002573942273625121
-0.49729810841915334,-0.49729810841915334,1.0001996462322889,0.0002574478876276418
-0.4972395363600322,-0.4972395363600322,0.9998818722108339,0.0002573750179429987
-0.49718096430222997,-0.49718096430222997,1.0000638226746448,0.0002574502756919355
-0.4971223922457525,-0.4971223922457525,0.9999417829229161,0.00025746050746813657
-0.4970638201905865,-0.4970638201905865,0.9999322587745562,0.0002576181418679854
-0.49700524813674385,-0.49700524813674385,1.0000418692301738,0.0002574988212319995
-0.49694667608422066,-0.49694667608422066,0.9999704494481181,0.0002576757721639032
-0.49688810403302164,-0.49688810403302164,0.9999779784779737,0.0002574671353816055
-0.4968295319831384,-0.4968295319831384,1.0001032386574278,0.0002575921162885202
-0.4967709599345782,-0.4967709599345782,0.9999948908185436,0.0002575339852688624
-0.49671238788734196,-0.49671238788734196,0.9999699224532753,0.0002576534101967314
-0.49665381584142976,-0.49665381584142976,1.0000186855406124,0.0002576408275322646
-0.4965952437968485,-0.4965952437968485,1.000039906683741,0.00025770283176781343
-0.49653667175358274,-0.49653667175358274,0.9999303999812069,0.00025770388750388627
-0.4964780997116448,-0.4964780997116448,0.9998616712772026,0.0002576188995419816
-0.4964195276710311,-0.4964195276710311,1.0003081402512524,0.00025768427626175424
-0.49636095563175564,-0.49636095563175564,0.9996843180045619,0.0002576820092518549
-0.4963023835937966,-0.4963023835937966,1.0000893879592012,0.0002578337631262388
-0.4962438115571845,-0.4962438115571845,0.9999408097749314,0.0002576396800081215
-0.49618523952188454,-0.49618523952188454,1.0001418340701793,0.0002577171471788231
-0.4961266674879311,-0.4961266674879311,1.0000053369922255,0.00025771636961187465
-0.4960680954553095,-0.4960680954553095,0.9998182910517779,0.00025776086898042
-0.4960095234240276,-0.4960095234240276,0.9999480708591845,0.0002576924266917317
-0.49593914327303923,-0.49593914327303923,1.0001351903197075,0.00025779596577712955
-0.49587597919768867,-0.49587597919768867,0.9997877688888103,0.00025777650842436406
-0.495817407170766,-0.495817407170766,1.0002113304845195,0.0002578744496601378
-0.4957588351452144,-0.4957588351452144,0.9997451301801051,0.0002577324040499817
-0.4957002631210017,-0.4957002631210017,1.00030561632822,0.00025791657373890037
-0.49564169109810513,-0.49564169109810513,0.9997956127831946,0.0002577995478615406
-0.4955831190765874,-0.4955831190765874,1.0002604858400672,0.00025784714925037786
-0.4955245470564037,-0.4955245470564037,0.9998974300858607,0.00025785341372431056
-0.4954659750375646,-0.4954659750375646,0.9999001266254541,0.00025791515256284983
-0.49540740302007646,-0.49540740302007646,1.0000890682646844,0.00025780869471353783
-0.4953488310039429,-0.4953488310039429,1.000003191756844,0.0002577660673665722
-0.49529025898916024,-0.49529025898916024,1.0000197445893717,0.0002578932017339076
-0.4952316869757218,-0.4952316869757218,0.9999586512455162,0.00025784395203790137
-0.4951731149636614,-0.4951731149636614,1.0001581048371606,0.000257878917243145
-0.49511454295295554,-0.49511454295295554,1.000094333548652,0.0002577769585052384
-0.4950559709436092,-0.4950559709436092,1.00009216561878,0.00025783319223755683
-0.4949973989356261,-0.4949973989356261,0.9999662239837324,0.00025779115169279
-0.49493882692900104,-0.49493882692900104,1.0000211284964187,0.000257750971301041
-0.4948802549237471,-0.4948802549237471,1.0000291081820687,0.00025779590599003734
-0.49482168291986833,-0.49482168291986833,0.9998315349713656,0.0002577811150094937
-0.4947631109173597,-0.4947631109173597,1.000053192044318,0.00025780123291129604
-0.4947045389162218,-0.4947045389162218,1.0000404965602754,0.00025776589919119673
-0.49464596691647467,-0.49464596691647467,1.0000592633726788,0.00025788141117814666
-0.49458739491809417,-0.49458739491809417,0.9999807404631831,0.0002577935559284161
-0.49452882292110384,-0.49452882292110384,1.000020019608431,0.0002577705299523916
-0.4944702509254886,-0.4944702509254886,0.9998649997416063,0.0002578254209023637
-0.4944116789312714,-0.4944116789312714,1.0001802412255698,0.0002580159019696472
-0.49435310693844015,-0.49435310693844015,0.9998484450520039,0.00025780592740531287
-0.49429453494699616,-0.49429453494699616,0.9999717136995194,0.0002579435997502377
-0.49423596295695804,-0.49423596295695804,1.0001201706149623,0.0002578157434790166
-0.4941773909683217,-0.4941773909683217,1.000048488628851,0.0002578491298569222
-0.4941188189810718,-0.4941188189810718,0.999919225924733,0.00025772570646412075
-0.4940602469952406,-0.4940602469952406,0.9997927895882552,0.00025778285220605656
-0.49400167501080283,-0.49400167501080283,1.000083233267147,0.00025777199840341063
-0.493943103027791,-0.493943103027791,1.000078896848957,0.000257848599885961
-0.4938845310461777,-0.4938845310461777,0.999903152017767,0.0002578149239903992
-0.4938259590660019,-0.4938259590660019,1.0000009733607653,0.0002577198318439003
-0.49376738708723567,-0.49376738708723567,1.0002172909859406,0.00025786406564861557
-0.4937088151098955,-0.4937088151098955,0.9998751254619824,0.0002577762889402217
-0.4936502431339771,-0.4936502431339771,0.9999341851267655,0.00025785238108252224
-0.4935916711595037,-0.4935916711595037,1.0002768740465895,0.0002579032253311216
-0.49353309918646443,-0.49353309918646443,0.9997011474924035,0.00025788484737022434
-0.4934745272148667,-0.4934745272148667,1.0001573294896742,0.0002579203311581629
-0.49341595524470544,-0.49341595524470544,1.0001015687969186,0.0002579108840670457
-0.49335738327598666,-0.49335738327598666,0.9997860699297304,0.00025783209821463634
-0.493298811308725,-0.493298811308725,1.0001254139899176,0.00025778074552314657
-0.49324023934292394,-0.49324023934292394,0.9998575664338831,0.0002577222941219768
-0.4931816673785801,-0.4931816673785801,1.0000838342498148,0.0002578263076526692
-0.49312309541570165,-0.49312309541570165,1.0000494999612066,0.0002578152795675049
-0.4930645234542917,-0.4930645234542917,0.9999864505913901,0.0002578447253902696
-0.49300595149436255,-0.49300595149436255,1.0001991401949533,0.00025781270904382545
-0.4929473795359026,-0.4929473795359026,1.000163903726673,0.00025779982337251493
-0.49288880757893117,-0.49288880757893117,0.9998538345133158,0.00025782255670736147
-0.4928302356234478,-0.4928302356234478,1.0001234070413225,0.0002577569278074296
-0.4927716636694419,-0.4927716636694419,0.9999366982214111,0.00025772978837421774
-0.4927130917169478,-0.4927130917169478,1.000026286389387,0.0002576733403255383
-0.4926545197659616,-0.4926545197659616,1.0000840277773038,0.00025757191785123924
-0.49259594781647237,-0.49259594781647237,0.9997497738572368,0.0002575743669104617
-0.4925373758685109,-0.4925373758685109,1.0002220410875202,0.0002576493265546799
-0.49247880392207255,-0.49247880392207255,0.9999783665406576,0.0002575583209581144
-0.4924202319771397,-0.4924202319771397,0.9998085980482534,0.000257620753146755
-0.49236166003374626,-0.49236166003374626,1.0002320743558741,0.0002576183340887859
-0.4923030880918836,-0.4923030880918836,0.999862385460084,0.0002577064263061876
-0.4922445161515772,-0.4922445161515772,1.0001592157667933,0.0002576243889962626
-0.49218594421281825,-0.49218594421281825,0.9997346958859901,0.00025755002239442805
-0.4921273722756022,-0.4921273722756022,1.000123820202845,0.00025764098687156066
-0.49206880033996175,-0.49206880033996175,1.000084675830148,0.0002574848247319433
-0.4920102284058846,-0.4920102284058846,0.999978151214299,0.00025759370187685294
-0.4919516564733897,-0.4919516564733897,0.9999240992842819,0.0002574710541056002
-0.4918930845424624,-0.4918930845424624,1.0001136684791514,0.0002576225455944055
-0.49183451261313743,-0.49183451261313743,0.9999348500890489,0.0002575285971136633
-0.49177594068540315,-0.49177594068540315,1.0000004414697563,0.000257613525011823
-0.49171736875927496,-0.49171736875927496,0.9999437074027782,0.0002576417744953529
-0.4916587968347498,-0.4916587968347498,0.9998611722883799,0.0002575774374635454
-0.4916002249118424,-0.4916002249118424,1.0000466841793618,0.0002575707544285869
-0.4915416529905885,-0.4915416529905885,1.000143399268974,0.00025745937072184854
-0.49148308107095334,-0.49148308107095334,0.9995950676046391,0.0002575252134443067
-0.4914245091529515,-0.4914245091529515,1.0004168853398874,0.00025761483468267387
-0.4913659372366112,-0.4913659372366112,0.9997564695446123,0.00025757708086323976
-0.49130736532192876,-0.49130736532192876,1.000107403099323,0.0002575393856571857
-0.49124879340891514,-0.49124879340891514,0.9998976097225898,0.00025754226503586335
-0.49119022149758607,-0.49119022149758607,1.0000419244492629,0.00025760952525058874
-0.49113164958793104,-0.49113164958793104,0.9999612756747677,0.0002576435632756162
-0.4910730776799842,-0.4910730776799842,1.0003931214064183,0.0002577238503899143
-0.4910145057737453,-0.4910145057737453,1.0000230313052871,0.0002575915439731536
-0.4909559338692079,-0.4909559338692079,1.000097648035359,0.0002576190411899746
-0.49089736196640993,-0.49089736196640993,0.9997725054382214,0.00025750524649294216
-0.4908387900653598,-0.4908387900653598,1.0001181807016102,0.0002575811549183659
-0.4907802181660303,-0.4907802181660303,0.9999419959616264,0.0002575587499477795
-0.49072164626846815,-0.49072164626846815,1.000079150661135,0.0002575205154811598
-0.4906466742421812,-0.4906466742421812,0.9999728552790763,0.00025758552567029067
-0.4905881023486606,-0.4905881023486606,1.0002466317355307,0.0002576705008930681
-0.49052953045695863,-0.49052953045695863,0.9997503752021174,0.0002575882630706997
-0.4904709585670585,-0.4904709585670585,1.0000800143541642,0.00025765258982908215
-0.49041238667895837,-0.49041238667895837,0.9998690938601108,0.00025766302207534556
-0.4903538147927077,-0.4903538147927077,0.9998753598846017,0.0002575127971334235
-0.4902952429082985,-0.4902952429082985,0.9998846200340588,0.00025775124818048833
-0.4902366710257516,-0.4902366710257516,1.000214519346075,0.00025778390157237094
-0.4901780991450747,-0.4901780991450747,0.9999234733101614,0.00025779070089397376
-0.49011952726626645,-0.49011952726626645,0.9999368635700782,0.0002576999582398178
-0.49006095538937916,-0.49006095538937916,1.0001288150959393,0.00025766212913576683
-0.49000238351440484,-0.49000238351440484,0.999895170618645,0.00025774826017910377
-0.4899438116413427,-0.4899438116413427,0.9999098941811043,0.00025771864243921103
-0.4898852397702488,-0.4898852397702488,1.0001676731939118,0.0002576652626700365
-0.4898266679010993,-0.4898266679010993,0.9998972861328108,0.000257652969490489
-0.48976809603392846,-0.48976809603392846,1.000044944991577,0.000257742270537407
-0.4897095241687535,-0.4897095241687535,0.9999954723904263,0.00025778112653031444
-0.4896509523055938,-0.4896509523055938,0.9999972967193067,0.0002576854522658385
-0.4895923804444558,-0.4895923804444558,1.0001092933661617,0.00025772726304712523
-0.4895338085853724,-0.4895338085853724,0.9996071731314388,0.0002577298805801772
-0.4894752367283318,-0.4894752367283318,1.000539872355003,0.0002577392055948966
-0.4894166648733919,-0.4894166648733919,0.9996200134391877,0.0002576350288449324
-0.4893580930205534,-0.4893580930205534,1.0002725215480517,0.00025780373386487926
-0.4892995211698283,-0.4892995211698283,0.9998667850442622,0.0002576916584809028
-0.4892409493212592,-0.4892409493212592,1.0000735809330326,0.00025768217220372986
-0.48918237747484605,-0.48918237747484605,1.0000781239771404,0.0002575788648337831
-0.4891238056306212,-0.4891238056306212,0.9999942600341548,0.00025768357897536004
-0.4890652337885995,-0.4890652337885995,0.999919028816965,0.0002576737591631701
-0.48900666194879294,-0.48900666194879294,1.000040631547646,0.00025760066815065847
-0.4889480901112644,-0.4889480901112644,1.0000386777099792,0.00025761176761224106
-0.4888895182759906,-0.4888895182759906,0.9999178617057849,0.0002577508990290664
-0.48883094644304503,-0.48883094644304503,1.0000582632945398,0.00025770101238423415
-0.4887723746124177,-0.4887723746124177,1.0001186608002066,0.0002576534724820352
-0.48871380278413123,-0.48871380278413123,0.9996375725885395,0.0002576654377502767
-0.4886552309582356,-0.4886552309582356,1.0000678030062502,0.000257734263560515
-0.4885966591347407,-0.4885966591347407,0.9997018648712872,0.000257791695131981
-0.48853808731369286,-0.48853808731369286,1.0003611995972375,0.00025776938298749586
-0.48847951549510704,-0.48847951549510704,0.9998161248972549,0.00025770126275224384
-0.48842094367901545,-0.48842094367901545,1.000117963942167,0.0002575885936497233
-0.48836237186545733,-0.48836237186545733,1.0002705583287936,0.00025767205883987505
-0.4883038000544401,-0.4883038000544401,0.9998230656969195,0.00025757666777761833
-0.4882452282460311,-0.4882452282460311,1.0000523067526603,0.00025767695907513943
-0.48818665644023396,-0.48818665644023396,1.0000017346329566,0.00025770661539642546
-0.48812808463709956,-0.48812808463709956,1.0001507351028063,0.0002576526160794307
-0.48806951283665956,-0.48806951283665956,0.9998233585562568,0.00025756259101906585
-0.4880109410389495,-0.4880109410389495,1.0000072942052232,0.00025777460741090174
-0.48795236924400454,-0.48795236924400454,1.000167636204295,0.0002576728787202885
-0.4878937974518632,-0.4878937974518632,0.9999738329348183,0.0002577031373652724
-0.48783522566256626,-0.48783522566256626,0.999925769405247,0.0002575839672572281
-0.4877766538761638,-0.4877766538761638,1.0000839281552636,0.00025759386106478097
-0.48771808209265943,-0.48771808209265943,1.0001574453375752,0.0002576340352918026
-0.4876595103121484,-0.4876595103121484,1.0000526165806756,0.0002575534145954541
-0.4876009385346226,-0.4876009385346226,0.9999500734631397,0.000257618126339116
-0.48754236676016366,-0.48754236676016366,1.0000715010475043,0.00025764061337460394
-0.48748379498878397,-0.48748379498878397,0.9998617979153057,0.00025767086665355105
-0.48742522322054693,-0.48742522322054693,0.9999397881023093,0.00025763594363183606
-0.4873666514555066,-0.4873666514555066,1.0002684904587862,0.00025754791025816665
-0.4873080796936792,-0.4873080796936792,0.9997471244734178,0.0002577312365060159
-0.48724950793513155,-0.48724950793513155,1.0001743787914108,0.0002577763027535441
-0.4871909361798791,-0.4871909361798791,1.0001669609416746,0.00025771593339134874
-0.48713236442800767,-0.48713236442800767,1.00002360409905,0.0002576454068515538
-0.48707379267953455,-0.48707379267953455,0.999781158531254,0.0002577440429590714
-0.48701522093450567,-0.48701522093450567,1.000123754298612,0.000257731940099568
-0.4869566491929599,-0.4869566491929599,1.0001394413891083,0.0002577826454731759
-0.48689807745491853,-0.48689807745491853,0.9999763814656735,0.00025787636624563536
-0.48683950572043944,-0.48683950572043944,0.9998401777182032,0.00025782235472843337
-0.4867809339895337,-0.4867809339895337,1.0002716833304492,0.00025783265604193583
-0.4867223622622145,-0.4867223622622145,0.9997968090406802,0.0002579351015917784
-0.4866637905385245,-0.4866637905385245,1.0001409438828894,0.0002579265232542039
-0.48660521881843993,-0.48660521881843993,1.0000137111800083,0.0002579883128348714
-0.4865466471019606,-0.4865466471019606,1.0001477562827135,0.000258021346233365
-0.48648807538907146,-0.48648807538907146,1.0001120365573624,0.00025810118543513497
-0.4272272944378958,-0.4272272944378958,1.0003185062200004,0.00029571967849130823
-0.39386747991459253,-0.39386747991459253,0.9995178976507262,0.00031471400773362413
-0.39380890806480917,-0.39380890806480917,1.000171008586709,0.00031439061154000104
-0.393750336215816,-0.393750336215816,0.9999750301849997,0.00031418558060250263
-0.393691764367602,-0.393691764367602,0.9999173134983392,0.00031383862669528463
-0.39363319252017914,-0.39363319252017914,0.9998864595869413,0.0003136274365129793
-0.39357462067352655,-0.39357462067352655,1.0002466752739045,0.0003132555402411882
-0.3935160488276555,-0.3935160488276555,0.9999368232582084,0.00031283911723371664
-0.393457476982572,-0.393457476982572,1.00007804152363,0.00031244049333534706
-0.3933989051382579,-0.3933989051382579,1.000095981880442,0.0003125025092913922
-0.39334033329471996,-0.39334033329471996,0.9999219919614056,0.00031261307347133914
-0.39328176145194593,-0.39328176145194593,0.9999547862438387,0.00031253108458082185
-0.39322318960995484,-0.39322318960995484,1.0002155060627813,0.00031231241136275704
