time,time,flux,flux_err
-0.499836474843202,-0.499836474843202,0.9998465619870625,0.0017607001963986586
-0.4995504461773332,-0.4995504461773332,0.998243600162498,0.0020900378565815044
-0.4993116525232229,-0.4993116525232229,1.0002234360216078,0.0019009126721271706
-0.4991457501302648,-0.4991457501302648,1.0012480375843313,0.0018555615624052536
-0.4989093021969893,-0.4989093021969893,0.9996989755506464,0.0019180170520382057
-0.49867913979469447,-0.49867913979469447,0.9996096185698118,0.0017739557928966251
-0.49851010970014614,-0.49851010970014614,1.0018708717466271,0.0018189269398684795
-0.498165921245527,-0.498165921245527,1.0003382035049877,0.001620258517499413
-0.49771045564484667,-0.49771045564484667,0.998694210412275,0.0017427202361566256
-0.4972246832214296,-0.4972246832214296,0.9983029884008277,0.0015978822343024374
-0.4968643067877565,-0.4968643067877565,1.001192889786975,0.0016004613650336505
-0.4965596901594836,-0.4965596901594836,0.9996405206784413,0.0017584154186567954
-0.496366368951567,-0.496366368951567,0.9996825574382685,0.0017438538701748916
-0.4962998509596218,-0.4962998509596218,1.001794830509328,0.0017569866820972915
-0.49612401713893634,-0.49612401713893634,0.9989984317695437,0.0017493966459140784
-0.49579471566758004,-0.49579471566758004,0.999368848354002,0.0018087761267746205
-0.49558053297878357,-0.49558053297878357,1.0004345232847034,0.001728756906076197
-0.4952153970356449,-0.4952153970356449,1.0003168701639615,0.0016790292401441926
-0.49488353280248704,-0.49488353280248704,1.0005513335712644,0.00168342792646941
-0.49455765852617334,-0.49455765852617334,0.9979193613650132,0.001782704668663232
-0.494165458533098,-0.494165458533098,1.0041698746215846,0.0018152919662179669
-0.4938246196041291,-0.4938246196041291,1.0001656195040367,0.0015587215371107425
-0.49337223420589,-0.49337223420589,0.9997892620232962,0.0015578889242902798
-0.49307787834768535,-0.49307787834768535,1.001830424425626,0.0019030578103898701
-0.492971794911864,-0.492971794911864,0.9998328183734648,0.0017998828166632924
-0.4928697551404184,-0.4928697551404184,0.9996128985313432,0.0016147389009509843
-0.49269096070784146,-0.49269096070784146,0.9996050166946429,0.001857079552810613
-0.4924984721736109,-0.4924984721736109,1.0013380965486447,0.0019224222318314156
-0.4923398374259705,-0.4923398374259705,1.0000690692078074,0.0016632781848042674
-0.49203847636454157,-0.49203847636454157,0.9998602347709692,0.0017619946040266093
-0.4917853479702899,-0.4917853479702899,0.9994843013317297,0.0014650516216156229
-0.49145703591711937,-0.49145703591711937,0.9989150936156106,0.001732272236763563
-0.49090741574254937,-0.49090741574254937,1.000116652330127,0.001678154377446689
-0.4905093318346189,-0.4905093318346189,0.9990536545007599,0.001690847408290572
-0.49011835032870293,-0.49011835032870293,0.9998084074690272,0.0015632767916182288
-0.48991460468096193,-0.48991460468096193,0.999399166550571,0.001622373208434413
-0.4897373619962309,-0.4897373619962309,1.000174152802158,0.001879477566009714
-0.4894395915391215,-0.4894395915391215,0.9994434886511476,0.0017702036711722588
-0.4893448061360687,-0.4893448061360687,0.999509760788284,0.00186691647478537
-0.4891593585794908,-0.4891593585794908,1.0003146129177467,0.001977518800046399
-0.4888337121265067,-0.4888337121265067,0.9990532802105576,0.0016158561038732966
-0.4884674362037913,-0.4884674362037913,1.0008237359323284,0.0017137562644747972
-0.4878379232584848,-0.4878379232584848,1.002553311309464,0.0017596057730055608
-0.48737956870318155,-0.48737956870318155,0.9999704968139624,0.0016041035061730153
-0.48710233220335797,-0.48710233220335797,0.9996401816350342,0.001603309390632661
-0.48675342799397187,-0.48675342799397187,1.0018067393291037,0.0017561011559550355
-0.486570028719143,-0.486570028719143,0.9997933396342837,0.001908114600786838
-0.4865082144715416,-0.4865082144715416,1.0001764495999643,0.0018210077042815677
-0.4864771497712354,-0.4864771497712354,0.9999066256189983,0.001537486498479402
-0.4863727628318884,-0.4863727628318884,0.9973603847289834,0.001832497994949694
-0.4860559941640531,-0.4860559941640531,0.9991766785368712,0.001958715388875114
-0.485868546677375,-0.485868546677375,0.9998266487959675,0.001736766743746174
-0.4855559761344921,-0.4855559761344921,1.000467417262827,0.0016757875675511805
-0.48520869518470133,-0.48520869518470133,1.0010012343037007,0.0016366201065758461
-0.48481330766517206,-0.48481330766517206,1.001496723562198,0.0017715532224947793
-0.4844150951204938,-0.4844150951204938,1.0008733943008914,0.0017458173455023446
-0.48394159269082593,-0.48394159269082593,0.9997921181592622,0.00157188273438365
-0.4836875704284466,-0.4836875704284466,1.0011188587261024,0.0015631218572729293
-0.4834009152938961,-0.4834009152938961,0.9986559316145499,0.001826802634426155
-0.4832714095144183,-0.4832714095144183,1.0000053778802047,0.0018754763193820404
-0.4831127537334396,-0.4831127537334396,0.9989992505948508,0.0017181440065483413
-0.48296933013625676,-0.48296933013625676,1.0010947608637923,0.001857303958174709
-0.4826459692041681,-0.4826459692041681,0.9991795612962406,0.001882011943335891
-0.48235084065963746,-0.48235084065963746,1.0010064219356245,0.001721070591670123
-0.481998774530075,-0.481998774530075,0.9986760562956128,0.0015567631927239007
-0.48170225593494254,-0.48170225593494254,1.000422775789057,0.0017494009625464795
-0.48130713579739676,-0.48130713579739676,1.0003494063410534,0.0017328864981711954
-0.4809518445159483,-0.4809518445159483,1.0005096937590698,0.0016229731484335315
-0.48055953847506316,-0.48055953847506316,1.000285607881339,0.0016330416243785634
-0.48019164828947397,-0.48019164828947397,0.9992045809699206,0.0014951091271178728
-0.48008592788828536,-0.48008592788828536,0.9996753965044775,0.0017970575788417383
-0.48000504527735754,-0.48000504527735754,1.000210236422538,0.0017499476327556367
-0.4797146606411843,-0.4797146606411843,0.999930772621536,0.0019533393597092512
-0.47954762195804507,-0.47954762195804507,0.999815682281047,0.001804197555539546
-0.47946005801204594,-0.47946005801204594,0.9990410920530657,0.001900821810446971
-0.47927380531546077,-0.47927380531546077,1.0001699779097728,0.001806841963331364
-0.47883368235561646,-0.47883368235561646,1.0000749295528482,0.0017364987036366131
-0.47831550872288064,-0.47831550872288064,0.9990409179126655,0.001745481943758709
-0.4776306362073228,-0.4776306362073228,0.9993909084272271,0.0015740370537138016
-0.4772369064106897,-0.4772369064106897,1.000856897642055,0.0016248866101995416
-0.4768233285562019,-0.4768233285562019,1.0000313874440798,0.0018783146698163767
-0.4767316945304628,-0.4767316945304628,0.9997147921291502,0.0017974917572749223
-0.4766600064722297,-0.4766600064722297,1.0009366711953904,0.001618899942149922
-0.4764025963981112,-0.4764025963981112,0.9982966296128325,0.0019806969122124238
-0.47605533170644776,-0.47605533170644776,1.0015560689622265,0.0017852083524915214
-0.4757578179975098,-0.4757578179975098,1.001064725269329,0.0016543043922737758
-0.47543557000972214,-0.47543557000972214,0.9998258892777192,0.0016489052509929276
-0.47499397802748716,-0.47499397802748716,0.9990575138142261,0.0017744783381908227
-0.47459909834942665,-0.47459909834942665,0.9993445304121187,0.0016891821914358097
-0.4741881646958063,-0.4741881646958063,0.9997761609047284,0.0017009733929819232
-0.4738564505489194,-0.4738564505489194,0.999724896067851,0.0015241873637168528
-0.4736478904786054,-0.4736478904786054,1.0002411355128928,0.0018667831646397063
-0.4734804844214523,-0.4734804844214523,1.0016043354849895,0.001891139982051519
-0.4732827509520575,-0.4732827509520575,0.9982698536818486,0.0017419161158225144
-0.47313363861685503,-0.47313363861685503,1.000643230234402,0.0018037039814901765
-0.4729100659911637,-0.4729100659911637,0.9997936960298066,0.0018711151923516498
-0.4726546831218002,-0.4726546831218002,1.0002937302033876,0.0018034482457320211
-0.47240755818784236,-0.47240755818784236,1.0015649163224052,0.0017166779677778381
-0.47203354312805457,-0.47203354312805457,0.9984822170465819,0.0016429288605533834
-0.4715806963053183,-0.4715806963053183,1.0027379991627139,0.001746569031968916
-0.47108512464983504,-0.47108512464983504,0.9986001135657959,0.0015608197206931694
-0.47081573541217947,-0.47081573541217947,0.9990320364204669,0.001690753920414002
-0.4704690424056025,-0.4704690424056025,1.000033858505518,0.001632002399116594
-0.4703314848782611,-0.4703314848782611,1.000594786971707,0.0017213838859664091
-0.4702611509455892,-0.4702611509455892,1.0013306449887325,0.0018037484763287915
-0.4701508579062647,-0.4701508579062647,0.9995147240381943,0.001761265356512089
-0.4698767936140939,-0.4698767936140939,0.9976042514627668,0.0016751008609209347
-0.4696452751755714,-0.4696452751755714,1.0003188954173226,0.0018156074027288478
-0.469330751884263,-0.469330751884263,1.0008653738174067,0.0015793249271740379
-0.4688955120698665,-0.4688955120698665,1.0001479760325527,0.0017402403098615866
-0.4685007232212229,-0.4685007232212229,1.0025191261217996,0.0017865281258000263
-0.4679735648620408,-0.4679735648620408,1.001356898261817,0.0016821845107385248
-0.46739411190646935,-0.46739411190646935,1.000590528947602,0.0015567880775116795
-0.46703705756517594,-0.46703705756517594,1.000152163329568,0.001886498275454302
-0.4669354144309182,-0.4669354144309182,1.0001689335362456,0.0018126381707815106
-0.46682846810872436,-0.46682846810872436,0.9993058039225742,0.0016045913684280474
-0.4666226179469959,-0.4666226179469959,0.9996475515685793,0.0018807299370616933
-0.46637963951216077,-0.46637963951216077,0.9999395514338214,0.0018252137652706591
-0.4661742036834767,-0.4661742036834767,1.0004695899885239,0.001721682041825692
-0.4658630464451562,-0.4658630464451562,0.9999403161752592,0.0016600836842269456
-0.46566473454222435,-0.46566473454222435,0.9993549762293119,0.0016639273444626318
-0.46530483047026794,-0.46530483047026794,0.9993150315378309,0.0016752350377946547
-0.46482483894433246,-0.46482483894433246,0.9991366524627354,0.001700474198875582
-0.4642585019326361,-0.4642585019326361,1.0004715163995557,0.0015969546269695642
-0.4639561402720574,-0.4639561402720574,1.001292321714347,0.0015629865309828984
-0.4637729016969388,-0.4637729016969388,0.9984641952084786,0.0018400386346397203
-0.46342416629195216,-0.46342416629195216,0.9985486300038253,0.001803695677245802
-0.4633014556922717,-0.4633014556922717,0.9993791563064267,0.001761405207339376
-0.4630493173019204,-0.4630493173019204,0.9992551219295109,0.0019389461893715998
-0.4627809964928019,-0.4627809964928019,1.0020303253029872,0.001669201865494238
-0.46258394519682045,-0.46258394519682045,1.000111969218119,0.0017961461201258112
-0.46216947632783556,-0.46216947632783556,0.9980328827330032,0.0016509523337827274
-0.4615716676875309,-0.4615716676875309,1.0004386796567903,0.0016581449343710131
-0.46115642679360463,-0.46115642679360463,1.0015154922965297,0.0016328140812886499
-0.460805269429693,-0.460805269429693,0.9995371894870442,0.0016935691869887758
-0.4605598768779601,-0.4605598768779601,0.9972765039258495,0.0018708471111233316
-0.46048208161519144,-0.46048208161519144,1.0003168802701228,0.001800827356664905
-0.4604295657300099,-0.4604295657300099,1.0005215489432138,0.001618135158379476
-0.4602884020714555,-0.4602884020714555,0.9994615313618993,0.0017918023087508718
-0.4600361258046178,-0.4600361258046178,0.9993981054356592,0.0020015402908828838
-0.45986598626986963,-0.45986598626986963,0.9997509247075248,0.0016628878622331617
-0.45952548677887534,-0.45952548677887534,1.0028121013923816,0.0016626309529900875
-0.45926342754028154,-0.45926342754028154,0.998816268463291,0.0017859059469871046
-0.45897733302699634,-0.45897733302699634,0.9999264975578397,0.0016614223059926603
-0.4586255652240652,-0.4586255652240652,0.998863719470355,0.001823695746853408
-0.45807929540096665,-0.45807929540096665,1.0004050470842987,0.0017240112218610923
-0.4576584372043726,-0.4576584372043726,0.9992553305519273,0.0016284269424215343
-0.4574158131377771,-0.4574158131377771,0.9981936700943159,0.0017843445437587594
-0.4572687938612944,-0.4572687938612944,0.9997186935776753,0.0019485773672739959
-0.4571682613925077,-0.4571682613925077,1.000886215956994,0.0018667996754727322
-0.4570041245096945,-0.4570041245096945,1.0002260475683804,0.001621106782366133
-0.4568891279777745,-0.4568891279777745,0.999526857065633,0.0019263402376421194
-0.4565397724967625,-0.4565397724967625,1.00058596975383,0.001788739695999823
-0.4562379072769545,-0.4562379072769545,1.0020398008080427,0.0017251591431849081
-0.45594188519389717,-0.45594188519389717,0.9988914492341611,0.0015253338003780369
-0.45565811980486615,-0.45565811980486615,1.0000894277545869,0.0017685498979093065
-0.4553787606251717,-0.4553787606251717,0.9994983208538717,0.001754048674592441
-0.45498173076484816,-0.45498173076484816,1.0013475396889318,0.001652436628964427
-0.45451474812798554,-0.45451474812798554,1.0003851112240145,0.0016313936870123215
-0.454126503423322,-0.454126503423322,0.999429579269474,0.0015623117154071945
-0.45401142401751715,-0.45401142401751715,1.0002003708972176,0.0017432987196626954
-0.4538505557553435,-0.4538505557553435,0.9997439412052337,0.0018735395964292775
-0.45359629704616966,-0.45359629704616966,1.0003187013514654,0.0018319641606450096
-0.45346264979307305,-0.45346264979307305,0.9991239377943805,0.0017375682591329236
-0.4533139744540676,-0.4533139744540676,1.0026306724043461,0.0019126150543950725
-0.45285507594744556,-0.45285507594744556,1.0022420278056277,0.0017374588126384909
-0.45237381560800716,-0.45237381560800716,0.997166509987632,0.0016359161717007353
-0.4519369196423213,-0.4519369196423213,0.999950617713153,0.001761451998367217
-0.45131820850801885,-0.45131820850801885,0.9997304379196068,0.0016291358440270755
-0.45093040953652236,-0.45093040953652236,1.0001641175872416,0.0017677686279445747
-0.4507325952450628,-0.4507325952450628,0.999860214908056,0.0018975036186337738
-0.450673373513564,-0.450673373513564,1.000527842850727,0.001805452832843692
-0.45059256539680065,-0.45059256539680065,1.0000450792225066,0.001604736620966544
-0.45039927597536006,-0.45039927597536006,0.9986879534020161,0.0019386647995293326
-0.4500101650999568,-0.4500101650999568,0.999546815334144,0.0017869173949198187
-0.4497570203697251,-0.4497570203697251,0.9971459179787457,0.0017722758416739291
-0.4493591114609444,-0.4493591114609444,1.000455465149065,0.0016199532040752848
-0.44887898982851765,-0.44887898982851765,0.9994893704157853,0.0017974448951356514
-0.44847032149991717,-0.44847032149991717,1.0014943039788375,0.001664256963885018
-0.4481950255249103,-0.4481950255249103,1.0004870579516538,0.0017085813120237769
-0.447995864184486,-0.447995864184486,0.9978688522195809,0.0016032116407451434
-0.44768097838386894,-0.44768097838386894,1.0000178552442913,0.0017667656717820785
-0.44746790886492815,-0.44746790886492815,1.0000961905126953,0.0019778040458018334
-0.44735564280563267,-0.44735564280563267,0.9987834980770497,0.001781415854190504
-0.4471822300067288,-0.4471822300067288,1.0000361289524518,0.0017595892172731318
-0.44705210066385914,-0.44705210066385914,1.0010132445096576,0.0019242740787198474
-0.44672289284862926,-0.44672289284862926,1.0012475884192935,0.00179465718529124
-0.446417207892955,-0.446417207892955,1.0007021090342245,0.0017465479739794544
-0.44607290206258765,-0.44607290206258765,0.9997488613372933,0.0016029252618367396
-0.4456525393448828,-0.4456525393448828,1.0000524118764051,0.0017914530946879423
-0.4452483975961513,-0.4452483975961513,1.0012853455338797,0.0016955305311398422
-0.44493887429125606,-0.44493887429125606,1.0005263963824607,0.0016940886752601005
-0.4446854147441627,-0.4446854147441627,0.9992625523749401,0.0015897017721543984
-0.4443759095913265,-0.4443759095913265,0.9999065037962607,0.0016848797075076714
-0.44423645307688275,-0.44423645307688275,0.9989957756110595,0.0018107661280828882
-0.44417025072179966,-0.44417025072179966,0.9996003820152366,0.001700961185056862
-0.4439179741035332,-0.4439179741035332,0.9981163459441857,0.001923331457128542
-0.44366656300335305,-0.44366656300335305,0.9994396003882116,0.0017955148754939167
-0.4434626939255395,-0.4434626939255395,1.000649111006664,0.001753806639872936
-0.4430310315961833,-0.4430310315961833,1.0002126176523864,0.001660471819531592
-0.44245354124723235,-0.44245354124723235,1.0012640817690155,0.0017751429656942795
-0.4418497342383489,-0.4418497342383489,0.9997078446212644,0.001598287335215514
-0.4414325520963757,-0.4414325520963757,1.000393088239195,0.0016252945400744058
-0.4409820697459509,-0.4409820697459509,0.9980766727124484,0.001891167281223047
-0.44088298526839936,-0.44088298526839936,1.0010538540593028,0.0018078110070236582
-0.44078223007672934,-0.44078223007672934,0.9987982602429579,0.0016016253949185215
-0.4406443434112589,-0.4406443434112589,1.0037631273275254,0.0018136599787572643
-0.4404139686324925,-0.4404139686324925,1.0007752495614788,0.001835128234053357
-0.44022770462033806,-0.44022770462033806,0.9992631056055428,0.0017287473546022292
-0.43994316544703904,-0.43994316544703904,1.0020018054368625,0.0017742702982126146
-0.4396890667390835,-0.4396890667390835,0.9991663893873992,0.001465009876713679
-0.43946339371905196,-0.43946339371905196,1.0016306628509277,0.0017709268958838256
-0.43899532184004786,-0.43899532184004786,1.0001763596997293,0.0017686176372725495
-0.43845399952406294,-0.43845399952406294,0.9996571272000934,0.0016621282115991023
-0.4379817781766178,-0.4379817781766178,0.9999392429800975,0.0015249109132794143
-0.43777878507535206,-0.43777878507535206,1.0024535803322046,0.0017993434846176719
-0.43747317533852764,-0.43747317533852764,1.0009557063637704,0.001791450414254013
-0.4373018896600115,-0.4373018896600115,1.0001357643553583,0.0017774838596194317
-0.4371326604850765,-0.4371326604850765,0.998286942285749,0.0018740188293574686
-0.43682698469710884,-0.43682698469710884,0.998929694872498,0.001779418695582061
-0.4365516591118649,-0.4365516591118649,0.9990897182155057,0.0016982740697833332
-0.4361483852546371,-0.4361483852546371,0.9981453912688604,0.0017152392718050853
-0.43560260542799367,-0.43560260542799367,0.9995218393410583,0.0017395182326792225
-0.4352003832173068,-0.4352003832173068,0.9995392382667369,0.0015423619447255698
-0.43499259628224535,-0.43499259628224535,1.000412954628143,0.0015334826769437262
-0.43464783355593684,-0.43464783355593684,1.0008001429416968,0.0018272238069262838
-0.4344608681240061,-0.4344608681240061,1.0005438769662658,0.0016969704787921564
-0.4343990659181145,-0.4343990659181145,0.9986496267241225,0.0018108986930372487
-0.43431483965032386,-0.43431483965032386,1.0014851809071377,0.0016731295601391583
-0.434060342185694,-0.434060342185694,1.0007030715433565,0.0019156805846475005
-0.43384397430199895,-0.43384397430199895,0.9989409189234462,0.0017248362902367563
-0.43360422933328663,-0.43360422933328663,0.9994449987892654,0.0017215685766703796
-0.43323907357189456,-0.43323907357189456,1.0006963966843272,0.0017346867847678736
-0.4328869717181078,-0.4328869717181078,0.9985067732381939,0.00169633645762262
-0.4325773707816552,-0.4325773707816552,0.9986948839112744,0.001885360779218485
-0.4321002591648721,-0.4321002591648721,0.9995387530467099,0.001684332635280989
-0.4315206546176341,-0.4315206546176341,1.0008112588754536,0.0015588154154128216
-0.431217253694922,-0.431217253694922,0.9993825798174536,0.0019128821063771231
-0.43108703702891943,-0.43108703702891943,0.9994694442918959,0.001826424497744954
-0.43093097864475566,-0.43093097864475566,1.000396715163233,0.0016548390930166347
-0.4307477136644593,-0.4307477136644593,1.0011866598750445,0.0019117770988282135
-0.4305314749857644,-0.4305314749857644,0.9991019342536754,0.001827939285002646
-0.4302573858767573,-0.4302573858767573,1.0002225950661425,0.0017347396045114534
-0.4299315660071443,-0.4299315660071443,1.001823667175334,0.0015240563589909964
-0.42965453532233366,-0.42965453532233366,1.0007119581411692,0.001715104456956959
