time,time,flux,flux_err
-0.4995630723691041,-0.4995630723691041,0.9998481888658447,0.00010929280778837185
-0.4985901636973722,-0.4985901636973722,0.9999373173390382,0.00010931226120417938
-0.4976891014642509,-0.4976891014642509,1.0001916608843875,0.00010948265476787302
-0.49715732855547684,-0.49715732855547684,0.9999684651420948,9.962667301477395e-05
-0.49642121699580455,-0.49642121699580455,1.000036518984785,9.949653870112785e-05
-0.49561346995760686,-0.49561346995760686,1.0000573891041282,9.988379752121845e-05
-0.49496429983119017,-0.49496429983119017,0.9999432955324409,9.938946599762808e-05
-0.4944848117651418,-0.4944848117651418,1.0000665353251224,0.00010006088112415345
-0.49406955478189046,-0.49406955478189046,1.0000532354450422,9.979674811109731e-05
-0.4930060578335542,-0.4930060578335542,1.0000538272800548,9.952106992792105e-05
-0.4923280634568073,-0.4923280634568073,0.9999383310306061,9.948808355596207e-05
-0.49153223778412214,-0.49153223778412214,1.0000296134093227,9.963713389905631e-05
-0.4905701169976965,-0.4905701169976965,0.9999936273446259,9.911091059496418e-05
-0.48999346838681956,-0.48999346838681956,1.0000771381831468,9.967382196483393e-05
-0.4890708937193267,-0.4890708937193267,1.000082327006861,9.956709688319698e-05
-0.4882177181687439,-0.4882177181687439,0.9999025860826437,0.00010024848616730023
-0.48686684223648624,-0.48686684223648624,1.0000005257172,9.968686752796232e-05
-0.48563651331642177,-0.48563651331642177,0.9998937843472975,9.970412516995629e-05
-0.48507008228625637,-0.48507008228625637,0.9999266977110073,9.979116385029076e-05
-0.4843521760456497,-0.4843521760456497,0.9999208961008715,9.916866413859485e-05
-0.4837098089774372,-0.4837098089774372,0.999884411565058,9.948175009074343e-05
-0.48334071070421486,-0.48334071070421486,0.9999060383954317,9.975604688990821e-05
-0.48275773840141484,-0.48275773840141484,1.000030962216772,9.982666533174169e-05
-0.48165778832917566,-0.48165778832917566,1.0000040346885777,0.00010006428283247338
-0.4806667040567845,-0.4806667040567845,1.0001128346232446,0.00010008817118518194
-0.47965394826605917,-0.47965394826605917,1.0000014646664677,0.00010007446950762999
-0.4789829409361118,-0.4789829409361118,0.9999963111531793,9.973753699097322e-05
-0.4779580926115159,-0.4779580926115159,1.0000696154503153,9.962840357012217e-05
-0.47686878174135927,-0.47686878174135927,0.9999514235226549,9.93354150947881e-05
-0.4762162595812697,-0.4762162595812697,0.9999057939160734,9.979815648726285e-05
-0.47585260117775763,-0.47585260117775763,1.000037013945965,9.909957339682806e-05
-0.4750086769025074,-0.4750086769025074,1.000173215279973,9.965630885481864e-05
-0.4741861926071579,-0.4741861926071579,1.0001393875035438,9.935295325730838e-05
-0.4728560961520998,-0.4728560961520998,0.9998719011445406,0.00010016947378403927
-0.47204123658302705,-0.47204123658302705,1.0001411757058203,9.982476872183988e-05
-0.47106608432659414,-0.47106608432659414,0.9999214533859766,9.954123510259316e-05
-0.46986211022303903,-0.46986211022303903,0.9998307050444252,9.959038383060777e-05
-0.4691822842985857,-0.4691822842985857,1.0001386573450102,0.00010140988949467378
-0.4686528727033874,-0.4686528727033874,1.0000536175536276,9.9727437763472e-05
-0.46790539028297645,-0.46790539028297645,1.0000773379884595,0.00010020259360377443
-0.467496404692065,-0.467496404692065,1.000143653336878,9.965723285345505e-05
-0.466882460549823,-0.466882460549823,1.0000132309331082,9.963957057596384e-05
-0.46587110612599647,-0.46587110612599647,0.9999861773244803,9.955739020715443e-05
-0.46504813922510946,-0.46504813922510946,1.000004473357349,9.938740090842876e-05
-0.46438632234057875,-0.46438632234057875,1.0001610886253522,0.00010007495796526078
-0.46358635688084177,-0.46358635688084177,1.0000823731938684,9.962549414268098e-05
-0.46302226615953257,-0.46302226615953257,0.9999795093681898,9.982766555349848e-05
-0.46228276804904456,-0.46228276804904456,1.0000774852199201,9.9157206233969e-05
-0.46162982006499076,-0.46162982006499076,1.0001772619613765,9.944405956621076e-05
-0.46127062243176625,-0.46127062243176625,0.999966137019786,9.965658176311902e-05
-0.46070953882008325,-0.46070953882008325,0.9998650603602324,9.978793558354924e-05
-0.46000901034567504,-0.46000901034567504,1.000023390363682,9.937073135863821e-05
-0.4589660138211912,-0.4589660138211912,0.9997767591298186,9.984087389769646e-05
-0.4581443898146972,-0.4581443898146972,1.0000014386247698,9.932084426534816e-05
-0.45682173159148076,-0.45682173159148076,1.000092603853587,9.940714139808612e-05
-0.4561386006331304,-0.4561386006331304,1.0001214089834647,0.00010255295870112682
-0.4551432988489978,-0.4551432988489978,1.0002566840993232,9.959568747701898e-05
-0.45404373499331996,-0.45404373499331996,0.9999895898438732,0.0001008194703012926
-0.4534270325879334,-0.4534270325879334,1.0000636485374208,9.938161024938945e-05
-0.45291305706778073,-0.45291305706778073,0.9999915542715003,9.986337648896394e-05
-0.45254626724054103,-0.45254626724054103,0.9999689193312259,9.938805320300714e-05
-0.45184532571292946,-0.45184532571292946,0.9998812155437513,9.944459828485893e-05
-0.451149929134408,-0.451149929134408,1.0000511841753459,0.00010018993824236971
-0.45029988209134897,-0.45029988209134897,1.0000155635333419,9.950858587152501e-05
-0.44949726459453815,-0.44949726459453815,1.000053035738669,0.00010022408389096496
-0.448544141362072,-0.448544141362072,0.9998635343321449,0.00010006107200839128
-0.44790601198910734,-0.44790601198910734,0.9999459530846888,9.969058254036241e-05
-0.4469405678944895,-0.4469405678944895,1.0000961492533547,9.995102664147104e-05
-0.4460777988861082,-0.4460777988861082,1.0001248789879054,9.969633978580575e-05
-0.44550648172444196,-0.44550648172444196,1.0000451921830722,9.976083945067768e-05
-0.44509081704891285,-0.44509081704891285,1.000028112436396,9.98450042758073e-05
-0.4444067287055077,-0.4444067287055077,0.999997703239503,0.00010042781665004259
-0.44364807540841866,-0.44364807540841866,1.0001032368456177,9.929003373042417e-05
-0.4429606652032817,-0.4429606652032817,0.999971692250529,9.954653584621714e-05
-0.44194255040492864,-0.44194255040492864,0.9998839569047175,9.933211655781976e-05
-0.4413503453397425,-0.4413503453397425,0.9997764149832804,9.942066677364648e-05
-0.4407091053610202,-0.4407091053610202,0.999870949528256,9.957005911214226e-05
-0.4399326753977221,-0.4399326753977221,1.0000721495787448,0.00010171601906543546
-0.43893064985459207,-0.43893064985459207,0.9999980285807387,0.00010028541470626887
-0.4376651758531807,-0.4376651758531807,0.9999742493982791,9.977900565743845e-05
-0.43638885915570425,-0.43638885915570425,1.0000709239501386,9.97266999322888e-05
-0.43602537846018097,-0.43602537846018097,0.9998743444675124,9.978376716332941e-05
-0.4353801920922706,-0.4353801920922706,0.9998734530406056,9.917187155338747e-05
-0.4347813247470185,-0.4347813247470185,0.9998684210049232,9.944397050625796e-05
-0.43433852987363936,-0.43433852987363936,0.9998896429061844,9.947147908341508e-05
-0.4338249589316547,-0.4338249589316547,0.9999297624708582,9.934464491940147e-05
-0.43330095262499524,-0.43330095262499524,1.0000393868094157,0.00010011944198520827
-0.43186687178676947,-0.43186687178676947,0.9999325274875546,0.00010013723071756702
-0.43092816399876027,-0.43092816399876027,0.9998192302956893,0.00010041120529873091
-0.4303098032978596,-0.4303098032978596,1.000115372934858,0.00010008886567565857
-0.42915348026435823,-0.42915348026435823,1.0000005740558637,9.993368525837872e-05
-0.4283688370458549,-0.4283688370458549,0.999788129055292,9.948637873898836e-05
-0.4274651555431774,-0.4274651555431774,1.0001103624427103,9.965302076338334e-05
-0.42706985310069284,-0.42706985310069284,1.0000188813843742,9.927954820867391e-05
-0.42647293607878967,-0.42647293607878967,0.9999653192994711,9.939900950498384e-05
-0.4255128843622515,-0.4255128843622515,1.0001930521017837,0.00010012519640758646
-0.4246509456599597,-0.4246509456599597,0.9999275207509172,9.931769148384235e-05
-0.42334862939314916,-0.42334862939314916,1.000028767760764,0.0001002796855315308
-0.42239963620959314,-0.42239963620959314,0.9999494787770337,9.918130069335506e-05
-0.42122128676564896,-0.42122128676564896,0.999968701045271,9.957753738797144e-05
-0.4204299705394078,-0.4204299705394078,1.0000682640041476,9.955365026093567e-05
-0.419922364820377,-0.419922364820377,0.9999141879655165,0.00010126316786366026
-0.4193022964667762,-0.4193022964667762,1.0000918948917967,9.963111499564096e-05
-0.41867301081947517,-0.41867301081947517,1.0000261550566116,9.999188275558193e-05
-0.418046419104212,-0.418046419104212,0.999937903247919,9.960337237596236e-05
-0.4169320125802187,-0.4169320125802187,1.0001243583969888,9.992442752925134e-05
-0.41606995260808616,-0.41606995260808616,1.000045471052394,9.985720576431759e-05
-0.41532953614660073,-0.41532953614660073,0.9998584353430395,9.998733018926534e-05
-0.41438807429221924,-0.41438807429221924,0.9998742356226737,9.963217603731194e-05
-0.413900598656619,-0.413900598656619,0.9999943840975796,9.96261187129559e-05
-0.4130846244515851,-0.4130846244515851,1.0000782590398323,9.915287414489764e-05
-0.41258162511512636,-0.41258162511512636,0.9998585054031599,9.939682981392834e-05
-0.41219825999287424,-0.41219825999287424,0.999979437241354,9.987454949120479e-05
-0.41163836272316984,-0.41163836272316984,1.0000435588002463,9.95027944724539e-05
-0.410928441566648,-0.410928441566648,0.9999286310033721,9.941384413273797e-05
-0.41001712477591357,-0.41001712477591357,1.0000547219077558,0.00010048766089083539
-0.40917840296169744,-0.40917840296169744,1.0000166996739879,9.953765948950114e-05
-0.40794275326188656,-0.40794275326188656,0.999965542315348,9.943094833445354e-05
-0.4071711277094437,-0.4071711277094437,1.0000500345176966,0.00010148595448183665
-0.4062845809909049,-0.4062845809909049,1.000096784024533,9.976048371545993e-05
-0.40539612354477866,-0.40539612354477866,1.0001073688226412,9.974345682097891e-05
-0.40462764964613596,-0.40462764964613596,1.0001414059349643,0.00010029473495126301
-0.40408951858407816,-0.40408951858407816,1.0000674468170314,0.00010218681582631326
-0.4036992843582993,-0.4036992843582993,1.0000611484912902,9.932555688257723e-05
-0.4033202819438884,-0.4033202819438884,0.9999941845076968,9.961440976600781e-05
-0.4021161574288271,-0.4021161574288271,1.000127719377597,9.991746422322221e-05
-0.4015535122278379,-0.4015535122278379,0.9999525658091285,0.00010001861901197356
-0.4005409985082224,-0.4005409985082224,1.0000817429000775,9.975154315006022e-05
-0.399759856716264,-0.399759856716264,0.9998616287247648,9.970849557121106e-05
-0.3991426827822579,-0.3991426827822579,1.0000864795116329,9.981581409280579e-05
-0.39853553851426116,-0.39853553851426116,0.9999295549559883,9.975887447342635e-05
-0.3976446152315475,-0.3976446152315475,1.0000619113599873,9.994905942736826e-05
-0.39685493533615956,-0.39685493533615956,0.9997829930721773,9.93824697217874e-05
-0.3963560133735882,-0.3963560133735882,0.9999289662931605,0.00010007248627209965
-0.39601149132940916,-0.39601149132940916,0.9999519292797645,0.00010009348526301267
-0.39523018384352326,-0.39523018384352326,0.9996984163401119,0.00010179168458910414
-0.39454526265326423,-0.39454526265326423,1.000023932805486,9.93134856609045e-05
-0.39390921558078845,-0.39390921558078845,1.0000752324517506,9.95414503477039e-05
-0.393082620415953,-0.393082620415953,0.9999401051571661,9.95500527309989e-05
-0.3924568236601772,-0.3924568236601772,0.9999224842150406,9.942532655476128e-05
-0.3920192187477369,-0.3920192187477369,1.000168124467798,9.937196273605676e-05
-0.3911050553346286,-0.3911050553346286,0.999973655529856,9.92389732204635e-05
-0.39016513600654434,-0.39016513600654434,1.0000707470231778,0.00010040055361060342
-0.38888456008280625,-0.38888456008280625,1.000080573034431,9.965046677261687e-05
-0.387701374993776,-0.387701374993776,0.9997461513539099,9.933523078889586e-05
-0.3870976600301219,-0.3870976600301219,0.9999350252016402,0.00010010304417282072
-0.3866045325383311,-0.3866045325383311,1.000066320602589,9.910159414019051e-05
-0.38595787539961746,-0.38595787539961746,1.0000463969088318,9.967621769369926e-05
-0.3854437823203625,-0.3854437823203625,1.0000393082044923,9.929210586417979e-05
-0.38489145764906424,-0.38489145764906424,1.0001324466500123,9.983770219790797e-05
-0.38380918532493524,-0.38380918532493524,1.0000585677698728,0.00010003187613219746
-0.38221217003883795,-0.38221217003883795,0.9998772180475,9.968230008815461e-05
-0.38137826867750846,-0.38137826867750846,0.9999688494403021,0.00010007569282884081
-0.3804483593412442,-0.3804483593412442,1.0000498411605918,9.963494679051166e-05
-0.3796883761737263,-0.3796883761737263,1.000028577721352,9.960827646524767e-05
-0.37893926256801935,-0.37893926256801935,1.0000094181273163,9.958698244043148e-05
-0.378196226831642,-0.378196226831642,0.9999660136221866,9.955297756624845e-05
-0.3777394285745686,-0.3777394285745686,0.9999483653397758,9.909538349063978e-05
-0.37690003263996913,-0.37690003263996913,0.9999149284009435,9.938038160583204e-05
-0.37619158781017176,-0.37619158781017176,0.9999135461607921,9.966082873816515e-05
-0.37532681043376215,-0.37532681043376215,0.999887445826111,0.00010060086419078269
-0.37414976168074643,-0.37414976168074643,1.0001234935070478,0.00010004059051149736
-0.3733638464473188,-0.3733638464473188,0.9999099245347469,9.927006574165648e-05
-0.3723337899427861,-0.3723337899427861,1.0000248709940405,9.964927255144378e-05
-0.37119571610237473,-0.37119571610237473,1.0000898326276164,0.00010079723369773119
-0.37066369753156325,-0.37066369753156325,0.9999759592056712,9.989805570625796e-05
-0.36995976271573455,-0.36995976271573455,1.0001204515971274,9.98677256622054e-05
-0.3695775279251393,-0.3695775279251393,0.9999972288368033,9.974650631123909e-05
-0.3689950558473356,-0.3689950558473356,0.9999765993673163,9.940743977325014e-05
-0.3682023357541766,-0.3682023357541766,1.000146129276645,0.00010122967822365546
-0.3674218915402889,-0.3674218915402889,1.000109303040621,9.974028075672935e-05
-0.3665254622232169,-0.3665254622232169,0.999933065385514,9.97587419228778e-05
-0.3659234636463225,-0.3659234636463225,0.999895642148544,9.982935650894862e-05
-0.36515781208581755,-0.36515781208581755,1.0001410214616677,9.940463168354981e-05
-0.3648213549837237,-0.3648213549837237,1.0001657301131992,0.00010067052759458791
-0.3641750786249759,-0.3641750786249759,0.9999764823453414,9.918278552063938e-05
-0.36348797066893895,-0.36348797066893895,1.0001605259577175,9.962358026439214e-05
-0.3630682345450623,-0.3630682345450623,0.999866108760267,9.965021771197685e-05
-0.3623143109376542,-0.3623143109376542,1.0000228244148812,9.95173878523672e-05
-0.3614891898992937,-0.3614891898992937,1.0001514042105484,9.955276356105294e-05
-0.360457817761926,-0.360457817761926,1.0000662011944903,9.957584607821577e-05
-0.35926244290894827,-0.35926244290894827,0.9998878069471653,9.93784788323384e-05
-0.3582626751769567,-0.3582626751769567,0.9997844942385221,0.00010183118246070514
-0.35722278255561835,-0.35722278255561835,1.0001339021960958,0.00010075160553669
-0.35619344494480176,-0.35619344494480176,0.999878644849279,9.975450088519063e-05
-0.3553463014482986,-0.3553463014482986,1.0000442918825074,9.965510298801846e-05
-0.3549596776167164,-0.3549596776167164,0.9999007994160948,0.0001017892982415023
-0.3545262604311574,-0.3545262604311574,0.9999558862659683,9.975276928433575e-05
-0.3539231929578818,-0.3539231929578818,0.9999659275058278,9.922079289197143e-05
-0.35311375417513774,-0.35311375417513774,0.9999143368768394,9.983846607121163e-05
-0.3525827624951489,-0.3525827624951489,1.000171722322715,9.954857514314745e-05
-0.35199687813583297,-0.35199687813583297,0.9998274105250153,9.966138162668648e-05
-0.35122281877847855,-0.35122281877847855,1.0000612303727192,0.00010001654161475623
-0.35064201255736405,-0.35064201255736405,1.0000166119497136,9.959985267816494e-05
-0.34995264375174884,-0.34995264375174884,1.0001043732855828,9.991774351152774e-05
-0.34888597911631225,-0.34888597911631225,1.0000155392695855,9.995264530556291e-05
-0.3478002661722712,-0.3478002661722712,1.0000242205204666,9.939183624051288e-05
-0.3473086474288721,-0.3473086474288721,0.9999353498144042,0.00010034417944371672
-0.3470276267209556,-0.3470276267209556,0.9999532069026997,9.927297944798391e-05
-0.3463591272942722,-0.3463591272942722,0.9999078030665448,0.00010027773433946665
-0.3457928975665709,-0.3457928975665709,1.0000221017306135,0.00010150483968987259
-0.34518858505762184,-0.34518858505762184,1.0000462688253462,9.950577787127833e-05
-0.34454935806570575,-0.34454935806570575,1.0000151964363457,9.964300428682851e-05
-0.3440382692060666,-0.3440382692060666,1.0000304594916787,9.935236724388306e-05
-0.3435557904012967,-0.3435557904012967,0.9999667961694569,9.933570068377821e-05
-0.3430814854451455,-0.3430814854451455,1.0000444312901042,0.00010144787420521834
-0.3424546668771654,-0.3424546668771654,1.0000041738775156,9.956185091955794e-05
-0.34119755888241343,-0.34119755888241343,0.9999060022160842,0.000100024830909729
-0.3398932676471304,-0.3398932676471304,1.00004813208239,9.97337470479169e-05
-0.33899645716301163,-0.33899645716301163,1.0001434834606093,9.927784912163325e-05
-0.33810047480801586,-0.33810047480801586,0.9999507845748292,9.99962375599938e-05
-0.3377333740791073,-0.3377333740791073,0.9998520529341555,9.992110176943069e-05
-0.3372220911580371,-0.3372220911580371,1.0001010897828198,9.970215842676406e-05
-0.3366075033409288,-0.3366075033409288,1.0001097297352228,9.950393881040763e-05
-0.336102953896625,-0.336102953896625,1.0001606741957478,9.937677701555276e-05
-0.3354091444169171,-0.3354091444169171,1.0000594882342462,0.0001018926053597275
-0.33390455692133403,-0.33390455692133403,0.9999766908413807,0.00010021432626021055
-0.3329196938429959,-0.3329196938429959,1.0000531420602705,9.977895337219696e-05
-0.33222918829706033,-0.33222918829706033,0.99968620237644,0.00010002891862238318
-0.33114460243377836,-0.33114460243377836,1.0000418369931439,9.966742808536989e-05
-0.3303950365050696,-0.3303950365050696,1.0001050679572219,9.959719037537871e-05
-0.32951380585727746,-0.32951380585727746,0.9998690864060032,9.934406191507393e-05
-0.32900242394243834,-0.32900242394243834,0.9998133632749537,9.939594833808588e-05
-0.32836839485389646,-0.32836839485389646,1.000254650616896,9.940955678123717e-05
-0.32748210093413943,-0.32748210093413943,1.0000299335279499,9.964244666664079e-05
-0.32663365903135855,-0.32663365903135855,0.9999283298546526,9.983194361567987e-05
-0.32503735402424355,-0.32503735402424355,0.9999832381437056,0.00010000455345424008
-0.32403223643486856,-0.32403223643486856,1.0000348337131684,9.91733884643395e-05
-0.3227494464837946,-0.3227494464837946,1.0000466808863775,9.972652463312274e-05
-0.3220308742020279,-0.3220308742020279,1.0000376172298622,0.00010096043481008404
-0.3215135470731184,-0.3215135470731184,0.9999182848280725,9.972055436955725e-05
-0.32083442418661434,-0.32083442418661434,0.999996915839336,9.979575325616667e-05
-0.32053105457453057,-0.32053105457453057,1.0000266717381536,9.974854787529101e-05
-0.3199434436392039,-0.3199434436392039,0.9998421620974254,9.939548055193767e-05
-0.31913009691343175,-0.31913009691343175,0.9999895484404316,0.00010016984155759086
-0.3182862688525347,-0.3182862688525347,0.9999595201516073,9.965371653821639e-05
-0.3174765785166528,-0.3174765785166528,1.0001158822528518,9.97637229522936e-05
-0.31673847429046875,-0.31673847429046875,1.000129642883795,9.986857596644099e-05
-0.31602010887290816,-0.31602010887290816,0.9999005254053728,9.93559399488483e-05
-0.3151319444092223,-0.3151319444092223,0.9999095113032492,9.968940618451198e-05
-0.31426493866019883,-0.31426493866019883,1.0001900938241985,9.991840838506375e-05
-0.3136944961705012,-0.3136944961705012,0.999946453413702,9.973405060129607e-05
-0.3130060948227765,-0.3130060948227765,1.0000370680820219,9.918764586023068e-05
-0.31174062603677155,-0.31174062603677155,0.9999477164389987,9.976890278366905e-05
