time,time,flux,flux_err
-0.4997782735323805,-0.4997782735323805,1.000036451600167,0.00043774218334414106
-0.49925652637466555,-0.49925652637466555,1.0000123100023572,0.0004130016718075868
-0.4989996247216671,-0.4989996247216671,1.000271974834148,0.0004228172137697572
-0.4983929897163762,-0.4983929897163762,1.0002326543008526,0.0004052758543352503
-0.4979402487777406,-0.4979402487777406,0.9999475939120422,0.0004000749892333276
-0.4976107528258581,-0.4976107528258581,1.00022046867923,0.0003548012190039042
-0.4973974679247476,-0.4973974679247476,0.9996717583448109,0.0003942722555815198
-0.4968074849486584,-0.4968074849486584,0.9997221710490498,0.0004052261755484078
-0.4963631422899198,-0.4963631422899198,1.000079297510251,0.00039997236320997085
-0.4960126381221926,-0.4960126381221926,0.9998200842155741,0.0003546343035520481
-0.4958184316725237,-0.4958184316725237,1.0000032071987277,0.00039418653415025493
-0.49522199808561707,-0.49522199808561707,1.0000969382431255,0.00040519133421299317
-0.4947860548098106,-0.4947860548098106,1.0000414186726556,0.0004000426529424413
-0.49441912487382067,-0.49441912487382067,0.9997790957098941,0.00037078119828541173
-0.4942348150216276,-0.4942348150216276,0.9997261191457432,0.00037899116409891996
-0.4937283444101922,-0.4937283444101922,0.9999968496778152,0.0003967386218426374
-0.4933042678952916,-0.4933042678952916,1.0000338083513243,0.00039479628311286263
-0.4928860286890995,-0.4928860286890995,1.0001179173636836,0.00036971651555922766
-0.4926807037234539,-0.4926807037234539,0.9995465482966219,0.0003942213919083669
-0.49218515636748633,-0.49218515636748633,0.9999424776270608,0.0003963514626848034
-0.4917205175908748,-0.4917205175908748,1.000242735738023,0.00039499219601830677
-0.49132946878380607,-0.49132946878380607,1.0001701445493756,0.00036949996585672914
-0.49113130519690457,-0.49113130519690457,0.9996026292924162,0.0003799982559955841
-0.4907346995925764,-0.4907346995925764,1.0003025327017254,0.00039529806356054353
-0.4902277394256089,-0.4902277394256089,0.9998478717127158,0.0003959800991528035
-0.4897996689775027,-0.4897996689775027,1.0000522757000836,0.0003838377999766614
-0.489572904992383,-0.489572904992383,1.000231211383229,0.00038535661268809443
-0.4892693730973406,-0.4892693730973406,0.9994985146778251,0.0003815979275727661
-0.4887137989891926,-0.4887137989891926,0.9999935154520669,0.0003899244069008725
-0.48829290216672233,-0.48829290216672233,1.0000848167086942,0.0004135894630998056
-0.4879876006918494,-0.4879876006918494,0.9998987366146403,0.000369754806073672
-0.4876799190387828,-0.4876799190387828,0.9999914619399182,0.0003818694897275867
-0.4871226291608764,-0.4871226291608764,0.9998321988931783,0.00038989427872409275
-0.4867243025219068,-0.4867243025219068,0.999916859289302,0.0004135868805834806
-0.486397445917828,-0.486397445917828,0.9995266089193937,0.0003696208785309791
-0.48609047640056813,-0.48609047640056813,1.0002543805617417,0.00038203461174555656
-0.48553147277852987,-0.48553147277852987,1.000415756486649,0.0003898868008072671
-0.48515572349715513,-0.48515572349715513,0.9992513910007933,0.00041329955671050766
-0.4848073108470999,-0.4848073108470999,0.999321300962879,0.00036966945291511165
-0.48450104473740796,-0.48450104473740796,0.9997542684898401,0.0003824789572710231
-0.4839946559572127,-0.4839946559572127,1.0000537074161004,0.00038994500007057017
-0.4836844406410819,-0.4836844406410819,1.0002113401754507,0.00039881436647841396
-0.48325291350192856,-0.48325291350192856,1.0001468514229082,0.00038515181683493565
-0.4830190628883429,-0.4830190628883429,1.00006807918848,0.0003678565824479113
-0.48247461695282257,-0.48247461695282257,0.9997345909807548,0.0003899455116207279
-0.48217004352482035,-0.48217004352482035,0.99971501064299,0.00039979782683269267
-0.4817451526527293,-0.4817451526527293,0.9996573285528191,0.00039881146002399584
-0.48144673753122336,-0.48144673753122336,0.9998054543048422,0.0003684983409924626
-0.4808991139667341,-0.4808991139667341,0.9996670780736441,0.00042746714340994283
-0.48059312732948456,-0.48059312732948456,1.0000345064497063,0.00039981413235008
-0.4801831942051649,-0.4801831942051649,1.000133668933625,0.00041327391311496154
-0.47992343233781865,-0.47992343233781865,0.9996351131733497,0.0003518492152280735
-0.4794085242523579,-0.4794085242523579,1.0004117782061634,0.000433409439604785
-0.4790580832166597,-0.4790580832166597,0.9997905753360712,0.0003946958810312497
-0.47870311073202176,-0.47870311073202176,0.9999773056741293,0.0004122323336477441
-0.4783838505827589,-0.4783838505827589,1.0002317118437318,0.00036535693086774715
-0.4779087022354361,-0.4779087022354361,1.0006813857025132,0.0004001038987859774
-0.47747540010605005,-0.47747540010605005,0.9997071962225629,0.0003946276689087467
-0.47713668128999415,-0.47713668128999415,1.0004589103073263,0.0004124380081456555
-0.47671803299163,-0.47671803299163,1.0002874987541264,0.000353193525058269
-0.47619766039424577,-0.47619766039424577,1.0002737222231504,0.00040551993136635515
-0.47586249515006784,-0.47586249515006784,0.9995437561243266,0.00039999479086265616
-0.47555164841760417,-0.47555164841760417,1.0000042763473271,0.0004074105207828592
-0.47511535401281435,-0.47511535401281435,1.0002161921839332,0.0003537262713318455
-0.47461427437956444,-0.47461427437956444,1.0001002115207531,0.00041167383117261943
-0.47428381301870104,-0.47428381301870104,1.0002433936318262,0.0003938332928652128
-0.47397962646209635,-0.47397962646209635,0.9999687616238745,0.00040752762170777134
-0.4735126898245653,-0.4735126898245653,0.9996122856621519,0.0003542643475762825
-0.4730331639671931,-0.4730331639671931,0.9999762393081302,0.0004115470607634037
-0.4727028962544864,-0.4727028962544864,0.999566191198818,0.00039362941161431923
-0.4724076302605681,-0.4724076302605681,1.000041943739524,0.0004074397238370285
-0.47191004017659,-0.47191004017659,1.0006468537265345,0.00035499622587183496
-0.4715298374328995,-0.4715298374328995,0.9998962598953586,0.00040551605958788153
-0.47116446395230016,-0.47116446395230016,0.9997305908347638,0.00040819824153610093
-0.4708938305644551,-0.4708938305644551,1.0001083157189268,0.000393724851235314
-0.47041472508281,-0.47041472508281,0.9999266701595492,0.0003640503512352299
-0.4700456085120095,-0.4700456085120095,0.9999093295988633,0.00040281777887479195
-0.469616971508367,-0.469616971508367,1.0001378339555433,0.0004035219912967127
-0.4693911637616111,-0.4693911637616111,1.0003476537947988,0.00039370621663115964
-0.4690216913004406,-0.4690216913004406,1.0001798001371813,0.000393732013419494
-0.4686113390955143,-0.4686113390955143,0.9998471435642078,0.00037993317757856003
-0.46816574879921974,-0.46816574879921974,0.9996011446813412,0.0004033601564935317
-0.46796576771594117,-0.46796576771594117,0.9999869478155452,0.0004075383209519644
-0.46769321807078085,-0.46769321807078085,0.999940452036314,0.0003946302009048652
-0.4672242923319573,-0.4672242923319573,0.9996521096582877,0.00036416497686233635
-0.46687691427359823,-0.46687691427359823,0.9995385924347102,0.00040409907874948707
-0.4664633832115214,-0.4664633832115214,0.9996669725841544,0.0004083451484575997
-0.4662892809225013,-0.4662892809225013,0.9997565508477482,0.0003873143995583234
-0.4659656054107472,-0.4659656054107472,1.0000544270478808,0.0003999052565192703
-0.46547647943370973,-0.46547647943370973,1.0005126749198407,0.000374973372793737
-0.4650869198318105,-0.4650869198318105,1.000143524789243,0.000409444945139664
-0.46484516220807565,-0.46484516220807565,0.9998488809307602,0.0004023487750329436
-0.4645773471216671,-0.4645773471216671,0.9999099878729887,0.0003948334812986535
-0.46416713240614627,-0.46416713240614627,0.9995740994286383,0.00039491422271486376
-0.4638100992684485,-0.4638100992684485,1.0000943630978327,0.0003652767311406296
-0.4634430634760065,-0.4634430634760065,0.9998860210076703,0.0004132630427898053
-0.463263274502242,-0.463263274502242,0.9999570608760202,0.0004024277461540433
-0.46299687266000544,-0.46299687266000544,0.9996969856965793,0.00039365940694281634
-0.4625856043101521,-0.4625856043101521,1.0003162253304616,0.000396054015551106
-0.4621858453756431,-0.4621858453756431,0.9998371798460794,0.00037493249360967274
-0.4617996144661447,-0.4617996144661447,0.9997165446812171,0.0004177516254688625
-0.4616566413344117,-0.4616566413344117,0.9998674252695052,0.00040238379639052403
-0.4613636510097422,-0.4613636510097422,0.9994936770906625,0.00039377195229552174
-0.46096178886073175,-0.46096178886073175,1.0003774664820018,0.0003959666564634746
-0.4605896246241173,-0.4605896246241173,0.9998950561632111,0.00037570160243963213
-0.46022693543927745,-0.46022693543927745,1.0000099713545212,0.00041699918862696977
-0.4600756784406258,-0.4600756784406258,1.0001640309442075,0.0004025061337546239
-0.4597846147487871,-0.4597846147487871,0.9995491212100991,0.0003935149911032898
-0.45927886181161737,-0.45927886181161737,1.0008389718358668,0.0003822591912000669
-0.45885529525985475,-0.45885529525985475,1.0000406912115118,0.0004083634579302575
-0.45859648141486103,-0.45859648141486103,0.9998183992883958,0.00041353389021052845
-0.4583624332182808,-0.4583624332182808,0.9998844310131727,0.0004023216201400646
-0.45807486277481074,-0.45807486277481074,1.0000711540561642,0.0003960161916841929
-0.457495321839815,-0.457495321839815,0.999624816724668,0.0003772760557402337
-0.457134695869172,-0.457134695869172,0.9997354928611715,0.00041093709565775423
-0.456957009396865,-0.456957009396865,1.0001960053727204,0.00040782285964463614
-0.45667350447911303,-0.45667350447911303,0.9996747859388314,0.0003935953940211637
-0.45624029930913823,-0.45624029930913823,1.0002086077292138,0.0003908013964104796
-0.4557502199750161,-0.4557502199750161,0.9996671340875339,0.0003936104279762817
-0.45548820741823876,-0.45548820741823876,0.9998848539600033,0.000414372607323471
-0.4552634982217569,-0.4552634982217569,0.99993198699272,0.0004022756917473032
-0.4550324716168689,-0.4550324716168689,1.0001627936249329,0.000394769270262523
-0.4543618679977953,-0.4543618679977953,0.9999921238220096,0.0003819142877860669
-0.45403791837452445,-0.45403791837452445,0.9999173669803533,0.00040907151413132795
-0.45384719337453133,-0.45384719337453133,1.0003531622779318,0.0004134591564546175
-0.45357240074663424,-0.45357240074663424,1.0003380794962875,0.00040223141716581726
-0.4531868716934696,-0.4531868716934696,0.9994973537601591,0.00039077650088254124
-0.45267154000757726,-0.45267154000757726,0.9994635552599312,0.0003715981272040291
-0.4524036836111918,-0.4524036836111918,1.000088280844611,0.00040865697765567546
-0.45223030751221815,-0.45223030751221815,0.9999286942094454,0.0004086153618690117
-0.4519474052853184,-0.4519474052853184,0.9995050517069582,0.00040823976282416627
-0.45146246731164863,-0.45146246731164863,1.0002596116612925,0.000375499123884314
-0.45104657144402155,-0.45104657144402155,1.0002906500773106,0.00041155059073260113
-0.4508279431378469,-0.4508279431378469,0.9999198126134093,0.0004085258647026872
-0.45065354196703994,-0.45065354196703994,0.9993215862916583,0.0004083787763852095
-0.4503724860056536,-0.4503724860056536,1.000696586274077,0.00040841415661343073
-0.4498715939756949,-0.4498715939756949,1.0003558016873675,0.0003907880588133108
-0.449424377080868,-0.449424377080868,0.9999662854558791,0.0003678903731757758
-0.44921966990223156,-0.44921966990223156,0.9999868569614566,0.00041341702929689023
-0.4490090710110962,-0.4490090710110962,0.9996761917931869,0.00040866881318801204
-0.44875082014186773,-0.44875082014186773,0.9995181764895931,0.0004033891698945003
-0.4481903738080291,-0.4481903738080291,0.999902565131352,0.00039090635159957714
-0.4478221588418819,-0.4478221588418819,1.0001494187340587,0.0003693324004519124
-0.44764882391900757,-0.44764882391900757,0.999909939615079,0.00041321093805122297
-0.44743308431934564,-0.44743308431934564,0.999803108238231,0.00040844405975549194
-0.44716957385244316,-0.44716957385244316,0.999908972524862,0.0004032780588584856
-0.44660391558136325,-0.44660391558136325,0.999621329109908,0.0003907971623797027
-0.4462226777599426,-0.4462226777599426,1.0001431206314746,0.0003764811852092217
-0.44607527636981104,-0.44607527636981104,0.9994849887345861,0.0004078475536704755
-0.4458580700622406,-0.4458580700622406,0.9998500263706367,0.00041337483704268244
-0.445587399660144,-0.445587399660144,1.0005448501924887,0.00039840360826260367
-0.4450174804078415,-0.4450174804078415,1.0004199759236134,0.0003908109553282282
-0.44462624433799647,-0.44462624433799647,1.0000467733714857,0.0003779809710197342
-0.4444987154070986,-0.4444987154070986,1.000396350127349,0.00040800542957057423
-0.44424128828104587,-0.44424128828104587,0.9993660738674895,0.0004132667846219154
-0.4439401319861645,-0.4439401319861645,0.9999246296572515,0.00038333526012459716
-0.44330485482933,-0.44330485482933,0.9996211980886898,0.0003909597838202594
-0.44299088715924884,-0.44299088715924884,1.000116830910882,0.0003883746061223411
-0.4429131168697495,-0.4429131168697495,1.0007655759639256,0.0003993905918987971
-0.44267371330352034,-0.44267371330352034,1.0002184509974352,0.00041322754263826717
-0.4423460191639606,-0.4423460191639606,1.000241393076857,0.00038338392241668974
-0.4417181525903288,-0.4417181525903288,1.0001336359708435,0.00039098844161323404
-0.44140447689278517,-0.44140447689278517,0.9999984109076461,0.0003985685727214486
-0.44134506078553387,-0.44134506078553387,0.9994998514341112,0.0003841266489447803
-0.44117484387825245,-0.44117484387825245,0.9999672472538045,0.00041369176420516984
-0.44082399976614395,-0.44082399976614395,1.0004436974905837,0.0003985618603488816
-0.44025830586615483,-0.44025830586615483,0.9998204154439316,0.00039062806648811397
-0.4398557837732369,-0.4398557837732369,1.0005790004259372,0.00038714575632684575
-0.4397690298006637,-0.4397690298006637,1.000219127987708,0.000396963118473717
-0.43966061547689606,-0.43966061547689606,1.000171256636424,0.00039993224450777886
-0.4393157013779273,-0.4393157013779273,0.9994433878961726,0.00040361046422769767
-0.4389036008855328,-0.4389036008855328,1.000114953156554,0.0003962421017467562
-0.4384001748927403,-0.4384001748927403,0.9998679637215815,0.000387370002614384
-0.43820064277388154,-0.43820064277388154,0.999845938834536,0.00041511695658329195
-0.4381451396388002,-0.4381451396388002,0.9998769729315254,0.0003861816524942226
-0.4377851336146705,-0.4377851336146705,0.9996531354304936,0.00040252401581660705
-0.43746642114419954,-0.43746642114419954,0.9998477078523902,0.0003947621076039855
-0.4369949889485724,-0.4369949889485724,0.9998764055098149,0.0004006378792090601
-0.4366952456126455,-0.4366952456126455,1.0003777825501885,0.000392683348842557
-0.4365917052666191,-0.4365917052666191,0.9999889093339759,0.0004221813371563029
-0.4364540364418644,-0.4364540364418644,1.000227512302061,0.0003852384899898429
-0.4361057474714471,-0.4361057474714471,1.0001011211140611,0.0004034697813406132
-0.43566132372943683,-0.43566132372943683,0.9996339004400239,0.00039969099881225124
-0.4352839052589843,-0.4352839052589843,0.999849215341228,0.00038209114661292914
-0.43505481043539473,-0.43505481043539473,0.9995977207860118,0.00040118686483177834
-0.4349812788510462,-0.4349812788510462,0.9989819422224484,0.00041652983698384834
-0.43472065941023175,-0.43472065941023175,0.9995677739719018,0.00039891545567546
-0.43437573555565906,-0.43437573555565906,1.0002772266117053,0.0003834686708704507
-0.4338372440775856,-0.4338372440775856,0.9999857177446458,0.00039836752471500886
-0.4335452131374041,-0.4335452131374041,1.000114502525469,0.00039791133974920845
-0.4334266816440504,-0.4334266816440504,0.9998707368797639,0.00040335570765978775
-0.4332808933744673,-0.4332808933744673,1.0005001705266674,0.0004023558016825801
-0.43294415932614355,-0.43294415932614355,0.9998302752212155,0.0004033516559208409
-0.4324474343418842,-0.4324474343418842,1.0007406584437828,0.0003895869634502028
-0.4320512416161364,-0.4320512416161364,0.9995049162598288,0.00038721822956559466
-0.4318895190837793,-0.4318895190837793,1.0001118852176376,0.00040728252024243173
-0.43174439498980066,-0.43174439498980066,0.9998746430223978,0.00037978177724345394
-0.4314271015027771,-0.4314271015027771,0.9992804156134518,0.00040855547108514963
-0.430991704648477,-0.430991704648477,0.9998679226748965,0.000389569744294471
-0.43052043436910026,-0.43052043436910026,0.9997457491436265,0.00039624531449628344
-0.430332285296754,-0.430332285296754,0.999694304084587,0.0003926141708753089
-0.43019074637268206,-0.43019074637268206,0.9999310939979861,0.0003807544193638485
-0.42992948267492465,-0.42992948267492465,0.9999631622390721,0.00041356426153322634
-0.4295804248395143,-0.4295804248395143,1.0000906533442293,0.00038337850009902006
-0.42900527140591294,-0.42900527140591294,1.0006311933796874,0.00039723203581769914
-0.42877589843410535,-0.42877589843410535,1.000413755217887,0.00039787735981627463
-0.42864014382939786,-0.42864014382939786,0.9998172324167399,0.0003895006067401364
-0.428426379681332,-0.428426379681332,0.9999219688663029,0.00039899748222420805
-0.4281328512937762,-0.4281328512937762,1.000151785487001,0.0004047852444098442
-0.42761678949173076,-0.42761678949173076,0.9992497690069729,0.0003882327920591385
-0.42727064504579176,-0.42727064504579176,0.9994372249406325,0.00040153715747710356
-0.4271493240928976,-0.4271493240928976,1.0003033942377724,0.0003893007319508622
-0.4269783523894148,-0.4269783523894148,1.0002658584901023,0.0003937848901295816
-0.42669807894853873,-0.42669807894853873,1.0000330372937902,0.00040132991115100856
-0.42628991027304436,-0.42628991027304436,0.9999579809081063,0.0003830061239885052
-0.4257736570405541,-0.4257736570405541,1.000559476662455,0.00039612186344449823
-0.4255992878897814,-0.4255992878897814,0.9999196292513133,0.00039906392069290577
-0.4254375338670798,-0.4254375338670798,1.0000103765665718,0.00040233745381298443
-0.42519602151296565,-0.42519602151296565,0.9992765255902428,0.00038625344634575347
-0.4248181186907459,-0.4248181186907459,0.9996963351818968,0.0003973373893343321
-0.4243442178179976,-0.4243442178179976,1.0001488891290993,0.0003884070437212779
-0.42409173686173746,-0.42409173686173746,1.0000174686369712,0.0004064995985515944
-0.4239216066285735,-0.4239216066285735,0.9997211673066133,0.00038927092242199604
-0.423729749119957,-0.423729749119957,0.9998454761397324,0.00038508600088823835
-0.4233868271141546,-0.4233868271141546,0.9997612448084625,0.00040382427188118076
-0.4228641369641991,-0.4228641369641991,0.9990375247417557,0.0003882676637185617
-0.422532560036052,-0.422532560036052,1.0002592162665789,0.0004012433332248263
-0.42237393437535503,-0.42237393437535503,0.9995574489147021,0.00039481251604202305
-0.4222031108714873,-0.4222031108714873,0.9997426563154868,0.0003936890433235366
-0.4219406019838061,-0.4219406019838061,0.9995090872387774,0.00037982427597489
-0.42140625179745256,-0.42140625179745256,1.0001962338269919,0.0003884739345504061
-0.42098089966166297,-0.42098089966166297,0.9995394614355149,0.00039603289720224045
-0.4208309937239392,-0.4208309937239392,1.0001721975897861,0.0003936450205270843
-0.42066617106611376,-0.42066617106611376,0.9997130812808293,0.0004084085235670971
-0.4204353080625879,-0.4204353080625879,1.0000316423676594,0.00037087559785085324
-0.41992033093702047,-0.41992033093702047,0.9999987153061058,0.0003832512359271525
-0.4194699791521998,-0.4194699791521998,1.0002045999615736,0.000410665549582192
-0.41933697416388893,-0.41933697416388893,0.999798367674018,0.00040224953060816134
-0.4191394019668223,-0.4191394019668223,0.9998122641642027,0.0003883280295032323
-0.41893330377642995,-0.41893330377642995,0.9998139579367006,0.0003848849687626157
-0.41843660022714174,-0.41843660022714174,1.0005300532564774,0.00038327322715203335
-0.41796091612195596,-0.41796091612195596,0.9997450526457333,0.0004169478218368189
-0.41778422706120183,-0.41778422706120183,1.0001122139879122,0.0004012190303777885
-0.4175838206137996,-0.4175838206137996,1.0003147990879897,0.00039486603751210156
