time,time,flux,flux_err
-0.4995844750541257,-0.4995844750541257,0.9999485389402594,8.571176127953519e-05
-0.4986513848125824,-0.4986513848125824,1.00009790112232,8.572196755487207e-05
-0.49771829458200284,-0.49771829458200284,1.0000832204094052,8.572401087549859e-05
-0.4968453093498937,-0.4968453093498937,1.000188958797274,7.823253559362142e-05
-0.49607376783599194,-0.49607376783599194,0.9998265721175505,7.826551243451748e-05
-0.49529602738115275,-0.49529602738115275,0.9999248604591241,7.828690465066238e-05
-0.4944352573402796,-0.4944352573402796,0.9999208839851006,7.826950078633866e-05
-0.4936541465442389,-0.4936541465442389,0.9999833323039597,7.82393634809245e-05
-0.4928886555643544,-0.4928886555643544,0.9998957243172111,7.828152820843262e-05
-0.4920838656221207,-0.4920838656221207,1.0001679223161548,7.826878876842673e-05
-0.49128410248924015,-0.49128410248924015,0.9999920518875515,7.822617884269598e-05
-0.4905186070557903,-0.4905186070557903,1.000104444094264,7.827514372559844e-05
-0.4897511355890515,-0.4897511355890515,0.9999280479545544,7.825321431549985e-05
-0.4889513817411995,-0.4889513817411995,1.0001410366147543,7.821888115066619e-05
-0.4881858818510921,-0.4881858818510921,0.9999753833722943,7.82641907274819e-05
-0.4874034763361834,-0.4874034763361834,0.9998517615755931,7.824459586726039e-05
-0.48656640838942733,-0.48656640838942733,1.0000176102516407,7.821411808584405e-05
-0.4857971716805878,-0.4857971716805878,0.9999988152961243,7.82634821141166e-05
-0.48502969051148737,-0.48502969051148737,1.0000554391388443,7.825387279830585e-05
-0.4842112936211976,-0.4842112936211976,1.0000400382082575,7.821620499465829e-05
-0.48346444661976024,-0.48346444661976024,0.9999685203374111,7.826717075633864e-05
-0.4826969606923683,-0.4826969606923683,0.9999716072654901,7.825731060840815e-05
-0.48187857309216897,-0.48187857309216897,1.0000713136228319,7.822479600050405e-05
-0.48113172162590845,-0.48113172162590845,0.9998958733707688,7.826814894153405e-05
-0.4803642309464976,-0.4803642309464976,1.0000324056985739,7.82650702489729e-05
-0.47954585263507,-0.47954585263507,0.9999632809249972,7.822836456471739e-05
-0.4787915319886736,-0.4787915319886736,1.0001297885483091,7.827829547508561e-05
-0.47799417766151747,-0.47799417766151747,0.9999929700391894,7.827097332286063e-05
-0.4771791508722146,-0.4771791508722146,1.0000386233141039,7.827746456392693e-05
-0.4763397622738978,-0.4763397622738978,0.9999622921760777,7.82322596066421e-05
-0.4755606745884421,-0.4755606745884421,0.9999220791190885,7.826812843834545e-05
-0.47474938531048283,-0.47474938531048283,1.0000205656311665,7.826879952345885e-05
-0.47396322007582514,-0.47396322007582514,1.000227097777837,7.828067951104257e-05
-0.47320085262320505,-0.47320085262320505,0.9999156421145529,7.822685101023432e-05
-0.47238680201215855,-0.47238680201215855,0.9999297017495452,7.826340920743144e-05
-0.47161182898209975,-0.47161182898209975,0.9999878147894906,7.827398105154283e-05
-0.47083080921576936,-0.47083080921576936,1.000107449602164,7.822815547511862e-05
-0.47004661271901965,-0.47004661271901965,0.9999959300818974,7.826937310027465e-05
-0.46927909956971803,-0.46927909956971803,1.0000720039111024,7.828480443028603e-05
-0.46849808910596097,-0.46849808910596097,0.9998909605482018,7.82188164481031e-05
-0.46771388814061654,-0.46771388814061654,0.9998869336781968,7.825991432892918e-05
-0.4669463702298856,-0.4669463702298856,1.0000838070654319,7.828195856730366e-05
-0.4661616367473272,-0.4661616367473272,1.0000307981888998,7.821904628762075e-05
-0.46531159447505105,-0.46531159447505105,1.000021037921619,7.826882927470811e-05
-0.46446434618056853,-0.46446434618056853,1.0000025586336665,7.827327675738214e-05
-0.46356350426143533,-0.46356350426143533,0.9999601206761521,7.825763117063817e-05
-0.4627325283143023,-0.4627325283143023,0.9999506220963145,7.826496428229851e-05
-0.4619291499692366,-0.4619291499692366,1.0000476287447537,7.82164526879037e-05
-0.46112761121868856,-0.46112761121868856,1.0000517934160356,7.827095654854703e-05
-0.4603312810459926,-0.4603312810459926,1.0000848218090055,7.825915820696963e-05
-0.459500298434142,-0.459500298434142,0.9998711273292399,7.826023358709702e-05
-0.45873798865455057,-0.45873798865455057,0.9999367091473008,7.821469268863756e-05
-0.4579537689132763,-0.4579537689132763,1.00008987006902,7.826136769943773e-05
-0.4571675693952784,-0.4571675693952784,1.0001296484032391,7.827209512522459e-05
-0.4563940719603693,-0.4563940719603693,0.9999294638314652,7.821787503359475e-05
-0.4555463982809016,-0.4555463982809016,0.9998823430298565,7.8249625392242e-05
-0.45479751721150025,-0.45479751721150025,0.9999837592819473,7.82688396075017e-05
-0.45399790284017455,-0.45399790284017455,0.9999655082820464,7.821501382133524e-05
-0.45321367415170927,-0.45321367415170927,1.0001730160004167,7.825467054714259e-05
-0.45246478831652726,-0.45246478831652726,1.0000927329656244,7.826644781651942e-05
-0.4516651832602975,-0.4516651832602975,0.9999929727943643,7.820955577296325e-05
-0.4508748007241536,-0.4508748007241536,0.9999325368542848,7.826023544785484e-05
-0.45009715332874123,-0.45009715332874123,1.000008777460133,7.824689024605952e-05
-0.44929514054172726,-0.44929514054172726,0.999929826895593,7.820696917957678e-05
-0.4485271426638235,-0.4485271426638235,1.000080591497301,7.826804397012834e-05
-0.44776442936726824,-0.44776442936726824,0.9999696346559844,7.82472084538386e-05
-0.4469624211095294,-0.4469624211095294,1.0000099693459537,7.820622267491651e-05
-0.4461944139615753,-0.4461944139615753,0.9999052526180285,7.825750734499174e-05
-0.4454317054764374,-0.4454317054764374,0.9999117703178481,7.823468793210743e-05
-0.44462970174800204,-0.44462970174800204,1.0000676031571143,7.821085286723019e-05
-0.4438616853294036,-0.4438616853294036,1.000150675715931,7.826544104248206e-05
-0.443098981661376,-0.443098981661376,1.0002231669936346,7.824261283192236e-05
-0.44229698246594185,-0.44229698246594185,0.9998421137483223,7.820222027487224e-05
-0.4415289567704349,-0.4415289567704349,0.9999518268181149,7.826101011676371e-05
-0.4407662579157517,-0.4407662579157517,1.0000057596212673,7.824628996959545e-05
-0.4399642632514599,-0.4399642632514599,0.9998351831652389,7.819657542186858e-05
-0.4391626367284516,-0.4391626367284516,1.0000973615984479,7.826449008031233e-05
-0.4383887456553651,-0.4383887456553651,0.9999382471269691,7.823325302481652e-05
-0.4375680942939312,-0.4375680942939312,0.9998762449009468,7.819517755286825e-05
-0.4367477964491485,-0.4367477964491485,1.0001758750334762,7.825784571710597e-05
-0.4358773392081304,-0.4358773392081304,1.0000144389957024,7.819195846354154e-05
-0.43507895779021055,-0.43507895779021055,1.000031859322944,7.827876587028424e-05
-0.43425376596716203,-0.43425376596716203,1.000003499623364,7.81889169298054e-05
-0.4334139882405964,-0.4334139882405964,0.9999709581273738,7.817580565142928e-05
-0.4326645892604688,-0.4326645892604688,0.999979234637931,7.824672342174168e-05
-0.4316792454867766,-0.4316792454867766,1.000104907923683,7.825168365915264e-05
-0.43073447704889817,-0.43073447704889817,0.9999801951458445,7.828665349145571e-05
-0.4298794522081465,-0.4298794522081465,0.9999344751053018,7.817614768460064e-05
-0.42903172698536307,-0.42903172698536307,0.9998046349277369,7.820364674722524e-05
-0.42826039759450796,-0.42826039759450796,1.0001735352492034,7.825310189736627e-05
-0.4274310302845635,-0.4274310302845635,0.9999226136946545,7.81698041232229e-05
-0.42667660952984077,-0.42667660952984077,1.0001295628836102,7.822022258454467e-05
-0.42585675471354706,-0.42585675471354706,1.0000547366094417,7.824856385114988e-05
-0.4250530322920554,-0.4250530322920554,1.0000023292203075,7.821585380907496e-05
-0.424262265377709,-0.424262265377709,0.9999324039227961,7.818094454147204e-05
-0.42344812060225934,-0.42344812060225934,1.000100973426901,7.822608126421002e-05
-0.4226543856130348,-0.4226543856130348,0.9999639945639988,7.825881148653511e-05
-0.42182454343832204,-0.42182454343832204,0.9998575507332437,7.822071924492082e-05
-0.42103005052380527,-0.42103005052380527,0.9999961757910052,7.819428229542863e-05
-0.42021715169140633,-0.42021715169140633,0.999992823809103,7.826596341203664e-05
-0.4194544967767314,-0.4194544967767314,1.0000922584218253,7.823130790214501e-05
-0.41866000840904577,-0.41866000840904577,1.0000543177080439,7.818980099330617e-05
-0.41784958520962334,-0.41784958520962334,0.999970234291351,7.822517699509128e-05
-0.4170856976236621,-0.4170856976236621,0.9999972816222578,7.82597139129229e-05
-0.4162638398688273,-0.4162638398688273,0.9998023714701649,7.818589720155627e-05
-0.4154982004658592,-0.4154982004658592,1.0000334163133782,7.823094014766545e-05
-0.4147305757483622,-0.4147305757483622,1.0000578236729596,7.826323854828615e-05
-0.41393112148400346,-0.41393112148400346,1.0000964048360148,7.819672851293235e-05
-0.41316547758117395,-0.41316547758117395,0.9999619580284689,7.822007184268343e-05
-0.41239784808848867,-0.41239784808848867,0.9999886023724315,7.825775919700418e-05
-0.411598403172988,-0.411598403172988,0.9998500084899293,7.817270175560059e-05
-0.4108327547715504,-0.4108327547715504,1.0000285280416286,7.821324684967131e-05
-0.41006512050246047,-0.41006512050246047,1.000078697608604,7.825600535397463e-05
-0.40926568493707693,-0.40926568493707693,1.0000177021478527,7.817844926302569e-05
-0.4085000320345074,-0.4085000320345074,1.0001389396522888,7.821734478659477e-05
-0.4077323929896153,-0.4077323929896153,0.9999376726901289,7.825162251275733e-05
-0.4069329667755966,-0.4069329667755966,0.9999908782026313,7.818180854345512e-05
-0.4061673093700648,-0.4061673093700648,0.9999517727839311,7.821664393319939e-05
-0.40536980669618006,-0.40536980669618006,0.9999862627976552,7.825919718680508e-05
-0.40456292511946684,-0.40456292511946684,1.0000322091708578,7.818539467451002e-05
-0.403815924996718,-0.403815924996718,1.00003145861375,7.821574725978748e-05
-0.403029614613169,-0.403029614613169,0.9999405696915662,7.82630729197404e-05
-0.40223020710878643,-0.40223020710878643,1.0000363291833918,7.818749077067975e-05
-0.4014832024799205,-0.4014832024799205,0.9999983861944106,7.821315946064595e-05
-0.400696887318702,-0.400696887318702,0.999992800018172,7.826250377533871e-05
-0.3998974891738044,-0.3998974891738044,1.0000944935881155,7.819009759935916e-05
-0.3991355507633159,-0.3991355507633159,0.9998630490729539,7.820207260296794e-05
-0.3983454985062025,-0.3983454985062025,0.9999856871075341,7.826538111847727e-05
-0.39752744812957985,-0.39752744812957985,1.0000157642700986,7.818152969499143e-05
-0.3967804344853391,-0.3967804344853391,1.0000173077342835,7.820896338357743e-05
-0.3960127713581386,-0.3960127713581386,1.0000843123645462,7.826327605255667e-05
-0.39519473034474684,-0.39519473034474684,1.0000115939891223,7.817899277390228e-05
-0.3944477121900064,-0.3944477121900064,0.9999322239088336,7.820284680440303e-05
-0.39368004428266656,-0.39368004428266656,0.9999119173105557,7.826502049548408e-05
-0.3928614592127445,-0.3928614592127445,1.0000053396270503,7.821293642582485e-05
-0.39204089626194333,-0.39204089626194333,1.0000402807851858,7.817698463361233e-05
-0.39121922466333103,-0.39121922466333103,0.9999942378154472,7.820733965795208e-05
-0.39044035299761504,-0.39044035299761504,0.999924495033896,7.826793723382831e-05
-0.38958445112527046,-0.38958445112527046,1.000048967771232,7.821949068985799e-05
-0.3888124151903867,-0.3888124151903867,1.0001436067592042,7.81862234301913e-05
-0.3880105845108773,-0.3880105845108773,0.9999893265763493,7.827709047351061e-05
-0.38717391352672337,-0.38717391352672337,0.9998824276730677,7.817288269705832e-05
-0.3862402602995104,-0.3862402602995104,1.0000633258836997,7.822529463830588e-05
-0.3853786541394243,-0.3853786541394243,0.9999498951713208,7.817137636737994e-05
-0.3844903560241306,-0.3844903560241306,0.9999865652398043,7.817269975402675e-05
-0.3835753607642317,-0.3835753607642317,0.9999770110021723,7.820769260853261e-05
-0.3826342336492644,-0.3826342336492644,1.0000157327061574,7.826127432293794e-05
-0.3814616735590164,-0.3814616735590164,1.0001837273404168,7.817927205733575e-05
-0.3803804645497735,-0.3803804645497735,0.9998607181536535,7.821003710397305e-05
-0.3794249816226937,-0.3794249816226937,1.0000044916830093,7.821808338497719e-05
-0.3786386213414062,-0.3786386213414062,0.9999897613982511,7.825843195634463e-05
-0.3778579735850599,-0.3778579735850599,0.9999667660130432,7.81723391866674e-05
-0.37709225987482853,-0.37709225987482853,1.0000526345271172,7.821983341205297e-05
-0.37630589481213406,-0.37630589481213406,1.0000352825096153,7.827040712418801e-05
-0.37552525643096146,-0.37552525643096146,0.999903768706849,7.818308296070872e-05
-0.3747296793664191,-0.3747296793664191,1.000044262100992,7.823608833803279e-05
-0.3738985212691063,-0.3738985212691063,0.9999801077325605,7.828113758572713e-05
-0.3730992310541069,-0.3730992310541069,1.0000278681615629,7.820527609382706e-05
-0.3723148463449292,-0.3723148463449292,0.9999502479427,7.825545559902593e-05
-0.37156579488874114,-0.37156579488874114,0.9999509333339802,7.829848520262272e-05
-0.3707665140532953,-0.3707665140532953,1.000108319662133,7.822741794987758e-05
-0.36998212482173753,-0.36998212482173753,0.9998845809786795,7.826869956721478e-05
-0.36923306857972593,-0.36923306857972593,1.000092873066345,7.831343268379523e-05
-0.36843379712876756,-0.36843379712876756,0.9999731156489735,7.824025777077446e-05
-0.36764940337170343,-0.36764940337170343,1.000080466069143,7.828897687237036e-05
-0.36690034234639485,-0.36690034234639485,0.9999884492516393,7.831421651277544e-05
-0.3661010802787388,-0.3661010802787388,1.0000966546316676,7.826310929151275e-05
-0.3653166819942754,-0.3653166819942754,0.9998332955942482,7.829865541970622e-05
-0.36456761618691474,-0.36456761618691474,1.0000569152331562,7.83334429606762e-05
-0.3637683635018817,-0.3637683635018817,1.0000037355649558,7.828117245704968e-05
-0.3629839606893938,-0.3629839606893938,1.0000305308669448,7.83346789069425e-05
-0.36223489009873616,-0.36223489009873616,1.0000941711390154,7.835028498966143e-05
-0.36139832363768676,-0.36139832363768676,0.9999935798254892,7.830280350069939e-05
-0.3606113135842463,-0.3606113135842463,1.0000245800878549,7.836783165940104e-05
-0.3597629374357069,-0.3597629374357069,0.9998724794703089,7.836116744602503e-05
-0.35899095993905233,-0.35899095993905233,1.0001143717056469,7.834410339253235e-05
-0.3582039398003218,-0.3582039398003218,0.9999533538037637,7.838378233299587e-05
-0.3574227515268859,-0.3574227515268859,0.999997014430394,7.83954124089889e-05
-0.3566582433930847,-0.3566582433930847,0.9999915645275912,7.836474931086764e-05
-0.3558712139148895,-0.3558712139148895,0.9999783890218931,7.839292609576075e-05
-0.3550719957772458,-0.3550719957772458,0.9999332093389206,7.838638816069528e-05
-0.3540381346462226,-0.3540381346462226,1.0001223096446552,7.840609201550824e-05
-0.3531498367711663,-0.3531498367711663,1.000053475506529,7.841762077232881e-05
-0.35236541311612085,-0.35236541311612085,1.0000169713350235,7.84521499686551e-05
-0.35155287115152306,-0.35155287115152306,0.9999420938323602,7.841720261014878e-05
-0.3507797972511071,-0.3507797972511071,0.9999182361631533,7.844637094484416e-05
-0.3499953690642883,-0.3499953690642883,1.0000350976864478,7.848329954150944e-05
-0.3492089485265808,-0.3492089485265808,1.0001130391900737,7.844096705417311e-05
-0.3484470809672871,-0.3484470809672871,1.0000076068222818,7.847430673387104e-05
-0.3476477189788255,-0.3476477189788255,0.9999243130856049,7.851300177813872e-05
-0.3468575613458341,-0.3468575613458341,0.9999609862867981,7.845337514729047e-05
-0.3460770416004976,-0.3460770416004976,1.0001147821555851,7.85130651872297e-05
-0.34529260433698994,-0.34529260433698994,0.9999633938156673,7.855236744432665e-05
-0.3445248358145392,-0.3445248358145392,1.0000099130015438,7.847762839745075e-05
-0.34374432546623834,-0.34374432546623834,0.9999948912908717,7.853985359924757e-05
-0.34295988366217217,-0.34295988366217217,1.000007692266126,7.858050347014413e-05
-0.34219211036079855,-0.34219211036079855,0.9999692468009483,7.849217931368663e-05
-0.341411609404517,-0.341411609404517,1.0001474694107846,7.857706763705449e-05
-0.34062716306121954,-0.34062716306121954,0.9998688586375384,7.861040309441736e-05
-0.3398593849784163,-0.3398593849784163,1.0000461034817791,7.85126710485728e-05
-0.3390788934160639,-0.3390788934160639,0.9999678307722654,7.860997527452143e-05
-0.3382944425303037,-0.3382944425303037,0.9999978823275126,7.864986614674126e-05
-0.337526659666085,-0.337526659666085,1.0000937721588827,7.853433779562042e-05
-0.33674617750263847,-0.33674617750263847,1.0000068134302293,7.86487135188005e-05
-0.3359243981730913,-0.3359243981730913,0.9999659597245163,7.867369620148266e-05
-0.33512260834236257,-0.33512260834236257,1.0000244721212626,7.867170467210687e-05
-0.3343728160535903,-0.3343728160535903,0.9998823774762885,7.85497309776838e-05
-0.3335543538916312,-0.3335543538916312,0.9998926720687749,7.869141768940965e-05
-0.33278989255470603,-0.33278989255470603,1.0001022921815026,7.868727776496581e-05
-0.3320400909170672,-0.3320400909170672,1.0001481103316818,7.85672819901329e-05
-0.331206704167181,-0.331206704167181,1.0000305600345771,7.870796932127524e-05
-0.330382529773928,-0.330382529773928,1.0001002114916497,7.870631249891626e-05
-0.32963271878807915,-0.32963271878807915,1.0000257184342014,7.85789480902681e-05
-0.32885158980877804,-0.32885158980877804,0.9998955437025749,7.871678804616261e-05
-0.32804981413334533,-0.32804981413334533,1.0000228119709118,7.871772331467741e-05
-0.3272999938004858,-0.3272999938004858,0.9998720611939765,7.857756026203241e-05
-0.3265188696413901,-0.3265188696413901,0.9999758189934365,7.872601978190813e-05
-0.3257170985659258,-0.3257170985659258,1.0000167694298374,7.871276209166461e-05
-0.3249672688835744,-0.3249672688835744,1.0000583064406183,7.858506067791585e-05
-0.32418614954657415,-0.32418614954657415,1.0000343818323625,7.873181865700073e-05
-0.32338438306861406,-0.32338438306861406,1.000066336840566,7.8714115601337e-05
-0.32263454403676806,-0.32263454403676806,0.9999294471491709,7.858655908843097e-05
-0.3218534295231194,-0.3218534295231194,0.9999206783010951,7.873975406046734e-05
-0.32105166764636406,-0.32105166764636406,1.0000538176638574,7.872892000505038e-05
-0.32030181926565715,-0.32030181926565715,1.0000599292523216,7.860955105438591e-05
-0.3195207095659498,-0.3195207095659498,1.0000586284641955,7.876133704759758e-05
-0.31871895229230346,-0.31871895229230346,0.9999666320492804,7.874035558424112e-05
-0.3179690945658621,-0.3179690945658621,0.9999354841546811,7.862384663686478e-05
-0.31718798968203143,-0.31718798968203143,0.9999514968958024,7.876955799368617e-05
-0.31638623700771973,-0.31638623700771973,1.0000523258618768,7.877095922157945e-05
-0.3156363699367944,-0.3156363699367944,1.000154772622699,7.865510297632095e-05
-0.3148552698668823,-0.3148552698668823,0.9999598361892609,7.879040372944007e-05
-0.31405352179820056,-0.31405352179820056,0.9999146833370958,7.879460857277836e-05
-0.31330364537904815,-0.31330364537904815,0.9999267176115219,7.866228862551806e-05
-0.31252255011933416,-0.31252255011933416,1.0000245035392097,7.881681592768972e-05
-0.3117208066543725,-0.3117208066543725,1.0000765789666577,7.882471608147317e-05
-0.31097092089387673,-0.31097092089387673,1.0000793101242316,7.867895437645371e-05
-0.3101898304418711,-0.3101898304418711,0.999926365576005,7.883990187829165e-05
-0.30938466680289023,-0.30938466680289023,1.0000638161766842,7.868504301251346e-05
-0.30861176275183483,-0.30861176275183483,0.9999840781569947,7.885073090166647e-05
-0.30781978769516344,-0.30781978769516344,0.9999153649592879,7.887245304352553e-05
-0.3070332808678728,-0.3070332808678728,1.0001492181126337,7.870779163818956e-05
-0.3062715831454369,-0.3062715831454369,1.0000334731668095,7.889063608815524e-05
-0.30546094195887574,-0.30546094195887574,0.9999247287656786,7.89094995619482e-05
-0.3046818950041995,-0.3046818950041995,0.9999139588323874,7.871881846887162e-05
