time,time,flux,flux_err
-0.49969989697274286,-0.49969989697274286,1.0000288655607512,0.00011909316362818791
-0.49882659154051606,-0.49882659154051606,0.9999936564579693,0.00011948085761300012
-0.4978396931910538,-0.4978396931910538,1.0001004452331899,0.00011907606605376887
-0.49649843227477203,-0.49649843227477203,1.000076427062996,0.0001182213531299465
-0.4951267423573881,-0.4951267423573881,1.0000746689994977,0.00010864868991683531
-0.4944658191961935,-0.4944658191961935,0.99998950717449,0.0001087699370411587
-0.49384767616866154,-0.49384767616866154,1.0000997724529501,0.00010878479643780181
-0.4929177225974854,-0.4929177225974854,0.9999573180408629,0.00010862114373947735
-0.4917708890337963,-0.4917708890337963,1.000004998776714,0.00010851320319172661
-0.4914072851854144,-0.4914072851854144,1.0001639777786744,0.00010880175717745382
-0.49086649692617357,-0.49086649692617357,0.9999294834062568,0.00010891265973622174
-0.49013169228855985,-0.49013169228855985,1.0001072905131325,0.00011939925210331294
-0.4892812473786762,-0.4892812473786762,1.0000251166491845,0.00010822749153482786
-0.48846317191491834,-0.48846317191491834,1.0000341455122483,0.00010887713328880308
-0.4875282756140223,-0.4875282756140223,1.0000173120477762,0.0001086740102631982
-0.4867088561499259,-0.4867088561499259,1.0000811638307372,0.00010977276436518479
-0.48562798855418804,-0.48562798855418804,1.0001137641854352,0.00010948064083608196
-0.4844825580948964,-0.4844825580948964,1.0000580791321454,0.00010864739694847121
-0.4835884715837892,-0.4835884715837892,0.9999733751870347,0.0001089724983595784
-0.48305207847442944,-0.48305207847442944,1.000123833809786,0.00011054709038199094
-0.48251026692450977,-0.48251026692450977,0.9998850614435464,0.00010879711491196495
-0.4813313692691736,-0.4813313692691736,1.0000452957551016,0.00010990064406136369
-0.4799716694105882,-0.4799716694105882,1.0000277397948127,0.00010863367049836626
-0.47899325568869244,-0.47899325568869244,0.9998385750966786,0.00010891281353347651
-0.4781865964323515,-0.4781865964323515,0.9998308458194598,0.00010889423159430986
-0.47753464145644103,-0.47753464145644103,1.000037896816377,0.00011125896161360866
-0.4770532870694296,-0.4770532870694296,0.9999959011417563,0.00010915433970581756
-0.4758283720089821,-0.4758283720089821,0.9999967623210395,0.00010957227266358656
-0.47500544697686564,-0.47500544697686564,1.0002175533913424,0.0001092642388526347
-0.47446126844151876,-0.47446126844151876,1.0000337853424281,0.00010867468780130954
-0.4735633873991901,-0.4735633873991901,1.0000325738692992,0.00010875629870675772
-0.47295335453527515,-0.47295335453527515,1.0000343236474918,0.00010865776118197002
-0.4714326694404008,-0.4714326694404008,0.9999875582238051,0.00010878187981457983
-0.47058050021878445,-0.47058050021878445,1.0000698289563001,0.00010893513884991702
-0.46996305932698307,-0.46996305932698307,1.0000021179637453,0.00010879141615406051
-0.46913318349979816,-0.46913318349979816,1.000046062165813,0.00010892010138862664
-0.4683106930810027,-0.4683106930810027,0.9999966158777994,0.00010767376459552499
-0.467375649837777,-0.467375649837777,0.9998595413755114,0.00010846837205718329
-0.4662766516499687,-0.4662766516499687,0.9999326437011977,0.00010898920749584701
-0.46518288539082275,-0.46518288539082275,0.9999011447489312,0.00010860696584833989
-0.46436606035276784,-0.46436606035276784,1.0000014425865285,0.00010898970303366303
-0.4629843499656999,-0.4629843499656999,1.000072899203002,0.00010876894695173586
-0.46251699050189926,-0.46251699050189926,1.000116738782185,0.00010865109969628473
-0.46208745518524663,-0.46208745518524663,0.9999826500118939,0.00010891805720225883
-0.46124328511359636,-0.46124328511359636,1.0002098126682974,0.00012097957225795917
-0.46043128182645887,-0.46043128182645887,1.0001125237613457,0.00010814770522603749
-0.45930994221416765,-0.45930994221416765,1.0000399929628205,0.00010906585673379232
-0.45801809133554344,-0.45801809133554344,1.00000465575842,0.00010893114389856336
-0.45690371029486415,-0.45690371029486415,0.9999499495050426,0.00010986013929070524
-0.45589363596518523,-0.45589363596518523,1.0002158515082074,0.00010877592595976778
-0.45490265426051335,-0.45490265426051335,0.9999585183876192,0.00010879593853714124
-0.4543249185895547,-0.4543249185895547,0.999914318815088,0.00010883977729026631
-0.45384353287518026,-0.45384353287518026,1.0002129406861688,0.00011106598048035692
-0.4529467778513208,-0.4529467778513208,0.9998996800212232,0.00010974161440523034
-0.4515640008554328,-0.4515640008554328,1.000170254382919,0.00010883281382413222
-0.4505187867966015,-0.4505187867966015,1.000194549860686,0.00010962893512385227
-0.44977004097308965,-0.44977004097308965,1.000088098418503,0.00010892874969375546
-0.44903550751914734,-0.44903550751914734,0.9997795528422355,0.00010894708741410511
-0.4483239966473775,-0.4483239966473775,0.9999155676536665,0.00010847723290470314
-0.4472827804973349,-0.4472827804973349,1.0001180000391374,0.00010817128898786197
-0.4459809732827125,-0.4459809732827125,1.0001372636405175,0.0001092639474729163
-0.4453477691102307,-0.4453477691102307,0.999933457853647,0.0001091137460655029
-0.44437909726111685,-0.44437909726111685,1.000025796040628,0.00010883538576770678
-0.44365360858500935,-0.44365360858500935,0.9999731967035373,0.00010912415080591128
-0.44250572713208386,-0.44250572713208386,1.000004366120295,0.00010849709925068178
-0.4418892491783481,-0.4418892491783481,1.0000885208969925,0.00010875283850896066
-0.44096996369480623,-0.44096996369480623,1.000069171429136,0.0001089544811183802
-0.4398561484005768,-0.4398561484005768,1.0000295448293322,0.00010793790729328767
-0.43901053596346173,-0.43901053596346173,0.9998670162116742,0.00010834480983233736
-0.43822460756637155,-0.43822460756637155,0.9999026016109032,0.00010863573219360412
-0.43722650964045895,-0.43722650964045895,1.0000059947479971,0.00010893631787683908
-0.43630701894580853,-0.43630701894580853,0.9999859246054367,0.00010911158124769492
-0.4356707196449861,-0.4356707196449861,1.0000412891266652,0.00011223798888080449
-0.4342774013726739,-0.4342774013726739,1.0000992236654578,0.00010866929224588081
-0.4337991097854683,-0.4337991097854683,1.0001571532142413,0.00010863789861136002
-0.43342718090862037,-0.43342718090862037,0.9999831847111444,0.0001084681477236
-0.43282880522310735,-0.43282880522310735,0.9999842210542533,0.00012366028014831448
-0.4321056834043702,-0.4321056834043702,0.9999151925487638,0.00010860673440342116
-0.43114350726245904,-0.43114350726245904,0.9997661546122544,0.0001086697865348953
-0.4295326728111831,-0.4295326728111831,1.0000758534013425,0.00010882535799853461
-0.42842431042518003,-0.42842431042518003,1.0000212043902867,0.00011029422241919478
-0.4275087496760534,-0.4275087496760534,1.0000250071257404,0.00010875074059488238
-0.4262043956929119,-0.4262043956929119,0.9999733962366708,0.00010878466430040018
-0.4254507171572186,-0.4254507171572186,0.9999516917747628,0.00010931809589292684
-0.42493593551043884,-0.42493593551043884,0.9999140466164226,0.00010865833232977634
-0.4241195208393037,-0.4241195208393037,1.0001699436717895,0.0001087640540399839
-0.42274002595804633,-0.42274002595804633,1.0000817892899567,0.00010888982363788018
-0.4216453503671801,-0.4216453503671801,1.0000995522828677,0.0001086477588652076
-0.42098409546597393,-0.42098409546597393,1.0000253451323027,0.0001089201974813418
-0.4202444383787224,-0.4202444383787224,0.9998816288378821,0.0001089578835950025
-0.4193307537119836,-0.4193307537119836,1.0000331280892287,0.00010872317344249719
-0.4180965345993172,-0.4180965345993172,0.9999073194170636,0.00010741805715628961
-0.4169160508114146,-0.4169160508114146,0.9999846726685526,0.00010897600109504384
-0.41596447651099877,-0.41596447651099877,1.000084854120217,0.00010876220882477666
-0.41524085560813545,-0.41524085560813545,0.9998949156547491,0.00010880598602529199
-0.41439045348961373,-0.41439045348961373,1.0001595709135285,0.00010865298566738364
-0.4135902531765169,-0.4135902531765169,1.0000481755936974,0.0001085167276125802
-0.41325621903233695,-0.41325621903233695,1.0000999566134574,0.00010865151964017182
-0.4127933784242487,-0.4127933784242487,0.9999459722165531,0.00010904522626897092
-0.4119588953908533,-0.4119588953908533,1.0000088969589822,0.0001174517497701823
-0.4110801261471352,-0.4110801261471352,1.0000826472291933,0.00010807906115009078
-0.410610385981272,-0.410610385981272,0.9999320974196403,0.00010882777884124297
-0.4097468744992511,-0.4097468744992511,1.0000706899851262,0.00011468526554964508
-0.40905546767171475,-0.40905546767171475,1.000140682644194,0.00010967893210005091
-0.4083359957381617,-0.4083359957381617,1.0001162763347438,0.00010902954826832309
-0.4074380229838425,-0.4074380229838425,0.9999983302753048,0.00010907502669678117
-0.4067368093965342,-0.4067368093965342,1.0000782637326204,0.00011300836659921885
-0.40559794768923896,-0.40559794768923896,0.9999948634592236,0.00010883991418616362
-0.4050245865277248,-0.4050245865277248,1.0000269057190314,0.00010864691241717903
-0.40474776465271134,-0.40474776465271134,0.9998522584464178,0.00010972692250915087
-0.4042580949899275,-0.4042580949899275,0.9999409131126431,0.00010863716596961819
-0.4035723322245758,-0.4035723322245758,0.9998834187364649,0.00010956798261015595
-0.4025726222753292,-0.4025726222753292,1.0001216355592144,0.00010871960140388789
-0.40108368745131884,-0.40108368745131884,0.999959293746169,0.00010898529283412658
-0.40025083846994675,-0.40025083846994675,1.0000976038796747,0.00010971283411658954
-0.39939900728932115,-0.39939900728932115,1.0000437803294173,0.00011055170655892097
-0.3984960009722272,-0.3984960009722272,0.9999100470031632,0.00010959355288630762
-0.39708078096446114,-0.39708078096446114,0.9999294500879572,0.00010901726915214017
-0.39633757531119046,-0.39633757531119046,1.0000893876124914,0.00010850409860604522
-0.39568565017543733,-0.39568565017543733,0.9999322187150128,0.00010877720313959178
-0.3945209462719504,-0.3945209462719504,0.9999792726874686,0.00010893926830080655
-0.3930296648963122,-0.3930296648963122,1.000006712699778,0.00010877107758212618
-0.392234631915926,-0.392234631915926,1.0000067883897228,0.00010891287198597858
-0.3914535139396321,-0.3914535139396321,0.999956330460724,0.0001089625244970395
-0.3906571482686559,-0.3906571482686559,1.0001547022942119,0.00010861461336912834
-0.3901854872907279,-0.3901854872907279,0.9999612418923283,0.00010741319171824845
-0.3886583394778427,-0.3886583394778427,0.9996668703978233,0.00010878953130731275
-0.38767261731554753,-0.38767261731554753,1.0000184812787871,0.00010880003760816582
-0.38697563533787616,-0.38697563533787616,1.0002416263719431,0.00010846519713980914
-0.38635761752957476,-0.38635761752957476,1.0000865319030532,0.0001088932969040342
-0.38534228430653455,-0.38534228430653455,0.9999427904558807,0.00010846806916858361
-0.38464704481884837,-0.38464704481884837,0.9999974289386744,0.00010864446469447317
-0.384228935779538,-0.384228935779538,0.999888992661256,0.00010891325761020525
-0.38349913779238703,-0.38349913779238703,0.9998584591721957,0.00010879680714315557
-0.3829794450954068,-0.3829794450954068,0.9997403952365683,0.00011870713313034559
-0.3821851470565889,-0.3821851470565889,0.9999814757852619,0.00010802460331412348
-0.3814675987494411,-0.3814675987494411,0.999930973549225,0.00010883436844209343
-0.38053703020559626,-0.38053703020559626,0.999790249286472,0.00010866478925619896
-0.37978922749462074,-0.37978922749462074,1.0000193476658565,0.00010965125739110994
-0.3787570414424408,-0.3787570414424408,0.9999492313839726,0.00010931972255454272
-0.3779436262702802,-0.3779436262702802,1.0001783001442468,0.00011398589062641573
-0.37715641682734713,-0.37715641682734713,1.0000076624749368,0.0001088752791740773
-0.3763207723328378,-0.3763207723328378,0.9999980973430466,0.00010880812473666645
-0.37587848541152197,-0.37587848541152197,1.0000046594696583,0.00011010425253286222
-0.3752753318694886,-0.3752753318694886,0.9999362113150532,0.00010895519413743051
-0.37396521092450713,-0.37396521092450713,0.9998951713852302,0.00010890294395330628
-0.37245105142355894,-0.37245105142355894,1.0000913109935956,0.00010889632112565848
-0.37155286346096544,-0.37155286346096544,1.0001683027065726,0.00010978430631102521
-0.3707429259142373,-0.3707429259142373,1.0000522192657844,0.00010882284772836886
-0.3703030177799519,-0.3703030177799519,1.0000301219003185,0.00011067175820357983
-0.369516353259678,-0.369516353259678,1.0000265969577857,0.00010972356327994801
-0.36811897966545076,-0.36811897966545076,1.0000626277207818,0.00010913790461140256
-0.3674688587896526,-0.3674688587896526,1.0000137554438082,0.00010866817231472103
-0.36650928598537574,-0.36650928598537574,1.0001805611638304,0.00010876556548356092
-0.3658079960150644,-0.3658079960150644,1.0002322012192353,0.00010865069039974382
-0.36448598226998,-0.36448598226998,1.0001256469133952,0.00010847303427978575
-0.3637363599293167,-0.3637363599293167,1.0001866249807356,0.00010895972606957275
-0.36294492411834656,-0.36294492411834656,0.9999176284617366,0.00010906186617885126
-0.362121633841889,-0.362121633841889,1.000092316059152,0.00010877819519920495
-0.36138222088920885,-0.36138222088920885,0.9999834253508997,0.00010758846964910162
-0.3602483163471334,-0.3602483163471334,0.9997554418004377,0.00010863377803150777
-0.359322798033827,-0.359322798033827,0.9999714723460512,0.00010865010264384798
-0.35877987429557834,-0.35877987429557834,1.0001249757221589,0.00010865110925525014
-0.35816698097914923,-0.35816698097914923,1.00005013868148,0.00010846173336778939
-0.3575589084182866,-0.3575589084182866,1.000032713708223,0.00010896894292236123
-0.35633990487258416,-0.35633990487258416,0.9999407893847639,0.00010847200915277974
-0.35575730258133265,-0.35575730258133265,0.9999281247097388,0.00010878957011694086
-0.35537298282142726,-0.35537298282142726,0.9998572580212206,0.00010874887745686564
-0.3545265339198522,-0.3545265339198522,0.999825577681164,0.00012015792112729947
-0.3536494311614661,-0.3536494311614661,1.0001577877557604,0.00010826920403949548
-0.35275315743347163,-0.35275315743347163,1.0001288451875823,0.00010889237190699215
-0.35172505455557257,-0.35172505455557257,0.999982286732652,0.00010930650450786594
-0.35088169992959595,-0.35088169992959595,0.9999861465757984,0.00010877553821456367
-0.3499451543815667,-0.3499451543815667,1.0000812219455189,0.00010969590440811524
-0.3490416985558113,-0.3490416985558113,0.9999286145864218,0.00010892331818583173
-0.3479754559986759,-0.3479754559986759,1.0000300088705247,0.00010883668644059761
-0.34738618936389687,-0.34738618936389687,1.0001200793232319,0.00010880734635939957
-0.34696964058675805,-0.34696964058675805,1.0000114681386225,0.00011059210238301956
-0.34613446104340256,-0.34613446104340256,0.9999563571917248,0.00010987828805116115
-0.34500079969875513,-0.34500079969875513,0.9998442864674644,0.00010879552356617624
-0.34375648595450914,-0.34375648595450914,1.0002891354718695,0.00010877634336627234
-0.34276345119287727,-0.34276345119287727,0.9998649960866903,0.0001090582279461097
-0.3419327576266369,-0.3419327576266369,1.0001315795373458,0.00011141131236351196
-0.3413955468946369,-0.3413955468946369,0.9998800729237681,0.00010847827454944816
-0.3406268740509404,-0.3406268740509404,1.0000473446230784,0.00010740844930666518
-0.3393664383009309,-0.3393664383009309,0.9999330081648112,0.0001091137940339537
-0.3387898129527457,-0.3387898129527457,1.000079752741295,0.00010869383975193483
-0.33813024575356393,-0.33813024575356393,1.000236863564163,0.00010948356716484351
-0.3372891127452021,-0.3372891127452021,1.000081905127661,0.0001087988282208479
-0.3365546640736284,-0.3365546640736284,1.0001301150171782,0.00010860668081795397
-0.33551736671070104,-0.33551736671070104,0.9999951524610161,0.00010851277266676483
-0.33486114514234944,-0.33486114514234944,1.000034561840892,0.00010895332487054033
-0.3342615013534669,-0.3342615013534669,0.9998977510296634,0.00010877082730225459
-0.3335768610762898,-0.3335768610762898,0.9999236222817072,0.00010907239203794665
-0.33275932718534024,-0.33275932718534024,1.0001847078652157,0.00010773385815429565
-0.3320901411527302,-0.3320901411527302,0.9999511932985307,0.00010849580330500914
-0.3313596223626519,-0.3313596223626519,0.9998115015468215,0.00010862207798005756
-0.33024039120355153,-0.33024039120355153,0.999900069510564,0.00010880827204034341
-0.32934666993096473,-0.32934666993096473,1.0000858813169309,0.00010862361806395031
-0.32870702353538944,-0.32870702353538944,1.000044557467044,0.00011227552522347514
-0.3275747750507435,-0.3275747750507435,1.0000115596719579,0.00010863171697002633
-0.3268689818796702,-0.3268689818796702,0.999988108677084,0.00010880249269500451
-0.32637706470268313,-0.32637706470268313,1.0000840466909984,0.00010863054492313954
-0.3255776387173682,-0.3255776387173682,1.0001378244333157,0.00012178146206992882
-0.3248009868111694,-0.3248009868111694,0.9999732411461227,0.00010817279774371377
-0.3240225916058989,-0.3240225916058989,0.9999360581050697,0.00010890182069053814
-0.32267500761081463,-0.32267500761081463,1.0000887282455468,0.00010881309793244918
-0.3218126369261881,-0.3218126369261881,0.99997609505175,0.0001089386534102645
-0.32096065923105926,-0.32096065923105926,0.9998564582714536,0.00011039716898948683
-0.3198944258823758,-0.3198944258823758,0.9998982726837733,0.00010875796030054866
-0.318962059635669,-0.318962059635669,1.0000370114131676,0.00010886993585708434
-0.31835918024298737,-0.31835918024298737,1.000119524097022,0.0001111341911811009
-0.31771864879119677,-0.31771864879119677,0.9998912284953404,0.00010893919835496023
-0.31628731292439627,-0.31628731292439627,1.0000409441281743,0.00010884383090370726
-0.314821497828234,-0.314821497828234,0.9999223720877886,0.00010878825140751406
-0.31397529719688466,-0.31397529719688466,1.0001015157499036,0.00010891750126101985
-0.3132388396450551,-0.3132388396450551,1.000145838223284,0.00010894887547711021
-0.3125145255908137,-0.3125145255908137,1.0002621328364498,0.00010848619761145001
-0.3116293001541635,-0.3116293001541635,0.999959507554065,0.00010745705479562396
-0.3104312858369667,-0.3104312858369667,1.000097924732965,0.00011010521514258614
-0.30975826097419484,-0.30975826097419484,1.0001540640488764,0.00010897403243318325
-0.308694176535937,-0.308694176535937,1.0000316406646736,0.00010891791006891918
-0.308196520092315,-0.308196520092315,1.0001367186675547,0.00010857873482219222
-0.3069403916655574,-0.3069403916655574,0.9999775648890736,0.00010847941934922986
-0.30629210869956297,-0.30629210869956297,0.9999024016955225,0.00010879929895868492
-0.30565924464026467,-0.30565924464026467,1.0000260993981094,0.00010888898018371876
-0.3049333405127982,-0.3049333405127982,0.999984544666358,0.00011666419090757986
-0.3041224034444895,-0.3041224034444895,1.0000398636084031,0.00010845647337800583
-0.3034159298229497,-0.3034159298229497,1.0001462361262756,0.00010774415545047105
-0.3026196402264759,-0.3026196402264759,0.9999526339898452,0.00010846945977243194
-0.3016858189192135,-0.3016858189192135,1.00000318031583,0.00010898654654937163
-0.30060694566345775,-0.30060694566345775,0.9998744238420662,0.00010861633449365477
-0.3000623051455477,-0.3000623051455477,1.0001831915215498,0.00011299314497520746
-0.29885067146096844,-0.29885067146096844,1.0001809661399714,0.00010865315737733505
-0.29823074883024675,-0.29823074883024675,0.9999640145717145,0.00010850752809677932
-0.2979015348595567,-0.2979015348595567,1.0001540687733097,0.00010877488727358857
-0.29737741441058463,-0.29737741441058463,0.9999774409458061,0.00010974826916355503
-0.29675467233173547,-0.29675467233173547,1.0002074335126019,0.00012400269063236522
-0.29600277057033964,-0.29600277057033964,1.0000998407682662,0.00010824393258037265
-0.29461342307622546,-0.29461342307622546,1.0000194114217873,0.00010913500493685358
-0.2931258939992404,-0.2931258939992404,0.9999933194071382,0.0001090846998521238
-0.2921141709637595,-0.2921141709637595,1.0000225334026032,0.00011014840013013759
