time,time,flux,flux_err
-0.49901539176668547,-0.49901539176668547,0.9999926800973779,7.051575280563692e-05
-0.4974397785893719,-0.4974397785893719,1.0000422399379625,7.023173988879448e-05
-0.49647721457343624,-0.49647721457343624,1.0000230276594375,7.086971555052293e-05
-0.49570468387537403,-0.49570468387537403,0.999867256181615,7.115002009353375e-05
-0.49469447375740855,-0.49469447375740855,0.9999807038242873,6.423412271685883e-05
-0.49428520248038693,-0.49428520248038693,1.0000070230578104,6.482265040954191e-05
-0.49402713617746485,-0.49402713617746485,1.0001040813716955,6.351240256824115e-05
-0.4935224268396269,-0.4935224268396269,1.0000337971146718,6.499177136039537e-05
-0.49295233919110615,-0.49295233919110615,0.9998834225285596,6.527437723627345e-05
-0.49250438945746283,-0.49250438945746283,0.999967961921677,6.381009558578828e-05
-0.4914583297941135,-0.4914583297941135,1.0000537925088016,6.501774045533514e-05
-0.4899683872557944,-0.4899683872557944,0.9999663191217458,6.416896486861999e-05
-0.48841362176754044,-0.48841362176754044,0.999990851718794,6.417293107157148e-05
-0.4871150954597397,-0.4871150954597397,1.0000834301262287,6.45278936280903e-05
-0.48630907273181945,-0.48630907273181945,1.0000571847903865,6.519571247508857e-05
-0.4855872102052672,-0.4855872102052672,0.9999609203113546,6.472734104415913e-05
-0.48504761145304653,-0.48504761145304653,0.999935821708622,6.481489537785546e-05
-0.4845403567815083,-0.4845403567815083,0.9999753766751661,6.37904641750224e-05
-0.4840273656271165,-0.4840273656271165,1.000025481892743,6.509118253943979e-05
-0.48359941079688723,-0.48359941079688723,0.9999340244879121,6.445821776364518e-05
-0.4829545267057256,-0.4829545267057256,1.0000104969884873,6.424296060788943e-05
-0.481091486015066,-0.481091486015066,0.9999945667248585,6.44906006173033e-05
-0.4794089971925132,-0.4794089971925132,0.99991028838967,6.417844590480675e-05
-0.47824905493471304,-0.47824905493471304,1.0001161700205832,6.501838123841084e-05
-0.4776054136134917,-0.4776054136134917,0.999911239909738,6.451551302871856e-05
-0.47686492081411413,-0.47686492081411413,0.9999100453583754,6.515375469862963e-05
-0.4763725357450312,-0.4763725357450312,0.9999428779721546,6.481862617918297e-05
-0.4759184749724227,-0.4759184749724227,1.000040383912605,6.396713211199683e-05
-0.47551667080406335,-0.47551667080406335,1.0000211386883635,6.341809024945568e-05
-0.47491054501006147,-0.47491054501006147,1.0001073401911231,6.509346480275128e-05
-0.4744079360505566,-0.4744079360505566,1.0001449899310089,6.481698952394955e-05
-0.4733568735755398,-0.4733568735755398,0.9999222151224989,6.423254720625813e-05
-0.47190159575548024,-0.47190159575548024,0.9998720763506705,6.408772089431695e-05
-0.47106594189390305,-0.47106594189390305,0.9999982826490923,6.432432951539158e-05
-0.469498220004607,-0.469498220004607,0.9999803379312464,6.515181906504151e-05
-0.46870713657699525,-0.46870713657699525,1.0000206407363985,6.485330565991723e-05
-0.46757472368335584,-0.46757472368335584,1.0000203882703578,6.549336952770985e-05
-0.4668907707076869,-0.4668907707076869,1.0000196751000758,6.418134538163932e-05
-0.46662576616072327,-0.46662576616072327,1.0000746071664577,6.414117653796196e-05
-0.46624954642320515,-0.46624954642320515,1.0000835927557177,6.317183676996497e-05
-0.4656798435520614,-0.4656798435520614,1.0000245238770202,6.509741769808233e-05
-0.46515358561591713,-0.46515358561591713,0.999939911062827,6.450636877376885e-05
-0.4641180867387448,-0.4641180867387448,0.9998253620848476,6.420936556271466e-05
-0.46265801831177666,-0.46265801831177666,0.9999286244174599,6.380986568202826e-05
-0.46139282765507234,-0.46139282765507234,1.0000530818532263,6.42185348334101e-05
-0.46026831028138987,-0.46026831028138987,1.000262567459752,6.448356153644065e-05
-0.4596330531538115,-0.4596330531538115,0.9998180803819775,6.481707991580844e-05
-0.4590866758793709,-0.4590866758793709,0.9999647317153384,6.646032725386817e-05
-0.458228481025435,-0.458228481025435,0.9998914231460698,6.480818111959676e-05
-0.45775277340580944,-0.45775277340580944,0.9999738204402412,6.477827095593261e-05
-0.45746224459726365,-0.45746224459726365,0.9999874918990811,6.37172954913145e-05
-0.45687489256088154,-0.45687489256088154,1.0000375811137239,6.54190787096128e-05
-0.45626006885577225,-0.45626006885577225,1.0001205347205155,6.479104578083629e-05
-0.4558230457027094,-0.4558230457027094,1.0000221252165238,6.448141230833488e-05
-0.4549885810498381,-0.4549885810498381,1.0001221276227603,6.529725362093558e-05
-0.45376028455066264,-0.45376028455066264,1.0000313275911203,6.427039026931515e-05
-0.4522007340172422,-0.4522007340172422,0.9999784549501918,6.422080682433514e-05
-0.4507624533987837,-0.4507624533987837,1.000059666336374,6.485909910247302e-05
-0.4501032313957694,-0.4501032313957694,1.000069541807391,6.489322767485753e-05
-0.44922761300840647,-0.44922761300840647,1.0001013486998491,6.572621876583093e-05
-0.448574085556902,-0.448574085556902,0.9999554005884528,6.479335373047524e-05
-0.44835860266757666,-0.44835860266757666,1.0000003735599852,6.355679576385875e-05
-0.44774633594643093,-0.44774633594643093,0.9999263706599335,6.518974165088906e-05
-0.4472354589757742,-0.4472354589757742,1.0001129582120432,6.529715410984512e-05
-0.4468304930298473,-0.4468304930298473,1.00008481870682,6.417393969268702e-05
-0.4460007350789965,-0.4460007350789965,0.9999133786510612,6.491776016871518e-05
-0.44524941957788544,-0.44524941957788544,1.0000521112082246,6.52927840829151e-05
-0.443875791937171,-0.443875791937171,1.0000954319520234,6.417892542462138e-05
-0.4425636913641938,-0.4425636913641938,0.9999617949014187,6.379042743983666e-05
-0.44135875489155296,-0.44135875489155296,1.000058325021375,6.51638288324252e-05
-0.4405073730595177,-0.4405073730595177,0.9998922091117664,6.456888637467984e-05
-0.43938284658506743,-0.43938284658506743,0.9998195611489095,6.480458343190264e-05
-0.4391478576071677,-0.4391478576071677,0.9999581430328283,6.334845856423163e-05
-0.43860805403382985,-0.43860805403382985,0.9999304930908574,6.51658914640215e-05
-0.4381079146754928,-0.4381079146754928,0.9999567370946219,6.60991049479969e-05
-0.43743909753393384,-0.43743909753393384,0.9998713319690232,6.479132955852523e-05
-0.43636998580477665,-0.43636998580477665,0.9999836899195824,6.568216253464876e-05
-0.43514625229436205,-0.43514625229436205,0.9999494149262121,6.448639846586458e-05
-0.4334657750761835,-0.4334657750761835,1.0000797681922968,6.38199314749508e-05
-0.4324328440736281,-0.4324328440736281,0.9998929351252835,6.500263133558281e-05
-0.4317902147537097,-0.4317902147537097,1.0000106868851686,6.486719493856667e-05
-0.4308850944347796,-0.4308850944347796,0.9999635468007948,6.522567065498662e-05
-0.43030237271013905,-0.43030237271013905,0.999989155782471,6.410736887183739e-05
-0.4299816523693153,-0.4299816523693153,0.9999626640723912,6.513422711169316e-05
-0.4294658721060841,-0.4294658721060841,0.9999198696070497,6.375823835449376e-05
-0.4290405217325315,-0.4290405217325315,0.9999628410574232,6.497549167532764e-05
-0.42843853617232525,-0.42843853617232525,0.9999678127455622,6.445448101482651e-05
-0.4277911490033148,-0.4277911490033148,0.9998848486167107,6.498546527628084e-05
-0.42608056625031165,-0.42608056625031165,0.9999234308668312,6.38502685500973e-05
-0.42493355160258944,-0.42493355160258944,0.9999271970463475,6.400840536700102e-05
-0.4236914695138694,-0.4236914695138694,0.9999348880694375,6.452066784458943e-05
-0.4226979257829953,-0.4226979257829953,0.999961614158582,6.450790313279774e-05
-0.4218227236124221,-0.4218227236124221,0.9999663856205331,6.514750835548946e-05
-0.4211189636218478,-0.4211189636218478,0.9998840333062702,6.440277653451446e-05
-0.4206625081525999,-0.4206625081525999,0.9999660963690105,6.369611631039156e-05
-0.4200335589091992,-0.4200335589091992,0.999955000218199,6.54528048635133e-05
-0.4194591876119375,-0.4194591876119375,0.9999464404083153,6.509451878760353e-05
-0.41878615353780335,-0.41878615353780335,0.9999416903039764,6.41662281054773e-05
-0.41730033822532275,-0.41730033822532275,0.9999618763541205,6.387357506323189e-05
-0.415778099988529,-0.415778099988529,0.9999172144120638,6.420671465045438e-05
-0.41457733098504834,-0.41457733098504834,0.9999527869221281,6.504077465419477e-05
-0.41358019974431953,-0.41358019974431953,0.9999948622445723,6.450265182162273e-05
-0.41295923910220156,-0.41295923910220156,1.0000461844423516,6.495729786292471e-05
-0.4121028419875074,-0.4121028419875074,1.0000554650726499,6.49180880706028e-05
-0.4116318307016627,-0.4116318307016627,0.9999367334822942,6.416214171089261e-05
-0.41137891709222457,-0.41137891709222457,1.000002424362943,6.296667331482382e-05
-0.4107938949789968,-0.4107938949789968,0.9999886083649315,6.514409026841598e-05
-0.4103204485785682,-0.4103204485785682,1.000033917989043,6.489851537310322e-05
-0.40987576820625693,-0.40987576820625693,0.9998481902577658,6.450942084358549e-05
-0.4085431154002436,-0.4085431154002436,0.999920733326759,6.388899801571419e-05
-0.4070975385111524,-0.4070975385111524,1.0000272733441486,6.415938659772799e-05
-0.4050793495218386,-0.4050793495218386,1.0000629053510648,6.496688422386026e-05
-0.404554990757606,-0.404554990757606,0.9998865108523048,6.482040480330426e-05
-0.40376233244896864,-0.40376233244896864,0.9999999353788354,6.741161180988655e-05
-0.4028289481109823,-0.4028289481109823,0.9999088857988717,6.511988122495494e-05
-0.4024964844356873,-0.4024964844356873,0.9999637272682443,6.350093131084668e-05
-0.40221000906749393,-0.40221000906749393,0.9999714456081115,6.280798254376981e-05
-0.401698057790054,-0.401698057790054,0.9999627800864286,6.52653034919975e-05
-0.40122351002210055,-0.40122351002210055,1.0000259052854776,6.478691231331784e-05
-0.4004472747605178,-0.4004472747605178,0.9999824892384549,6.448876647461445e-05
-0.39916621395532276,-0.39916621395532276,0.9998496206466744,6.424344175991835e-05
-0.3971047408500453,-0.3971047408500453,0.9998843518972583,6.460395699836184e-05
-0.39569290800718593,-0.39569290800718593,0.9999604754826171,6.482053509960158e-05
-0.39493775817973076,-0.39493775817973076,0.9998756147520597,6.668559957658711e-05
-0.39386040714744014,-0.39386040714744014,1.0000584613255212,6.498404773975948e-05
-0.39345932009600804,-0.39345932009600804,1.0000486955261514,6.446721500268774e-05
-0.3931621777708642,-0.3931621777708642,0.9999602049102997,6.400819397593963e-05
-0.3924664810096147,-0.3924664810096147,1.0000767809228184,6.542754849656908e-05
-0.3918690036560292,-0.3918690036560292,0.9999630348442631,6.41576909246944e-05
-0.39130022911849666,-0.39130022911849666,1.0000760515953413,6.479008212818427e-05
-0.3904310995625565,-0.3904310995625565,1.0001121615965072,6.522732332520013e-05
-0.38823109579534504,-0.38823109579534504,0.9998900018810813,6.418846926896629e-05
-0.3865412974191713,-0.3865412974191713,0.9999772536118943,6.48786039084484e-05
-0.3857202861385304,-0.3857202861385304,0.9999054876391902,6.6247561079123e-05
-0.38460784498456635,-0.38460784498456635,0.9999300922447029,6.491248069323743e-05
-0.38421967552858405,-0.38421967552858405,1.0001581161086637,6.449189059042449e-05
-0.3838358887413051,-0.3838358887413051,1.0001145377104486,6.415835341609113e-05
-0.3830222074699122,-0.3830222074699122,1.0000844273565876,6.541387615174635e-05
-0.3826062512642238,-0.3826062512642238,1.0000395483016384,6.417209792363996e-05
-0.3817729760587099,-0.3817729760587099,1.0001809921930893,6.492342916887449e-05
-0.3810191184267751,-0.3810191184267751,0.9998899222828485,6.525557718536824e-05
-0.3795772312732879,-0.3795772312732879,0.999936385748399,6.455474791915873e-05
-0.3783703688139212,-0.3783703688139212,1.0000301649714465,6.382424965037857e-05
-0.37743413032731044,-0.37743413032731044,0.999956011984428,6.51606063535478e-05
-0.3768060294823954,-0.3768060294823954,1.0000236379069893,6.453620058332746e-05
-0.3755005621962482,-0.3755005621962482,0.9999962346303327,6.471517379027013e-05
-0.37505609794607153,-0.37505609794607153,1.0000861751192947,6.449632676942173e-05
-0.3746974086854607,-0.3746974086854607,1.0000724425365022,6.392648061725193e-05
-0.3741658822807949,-0.3741658822807949,1.000074675148436,6.516355186284783e-05
-0.3735255632025655,-0.3735255632025655,0.9999184693831925,6.479628903606001e-05
-0.3728981004023808,-0.3728981004023808,0.9999639139478058,6.452192552516672e-05
-0.37167458218027605,-0.37167458218027605,0.9999729163002498,6.539174131910899e-05
-0.36980386284849376,-0.36980386284849376,0.999866408894189,6.419893210723123e-05
-0.36875725045683794,-0.36875725045683794,0.9998802403250053,6.452342442906587e-05
-0.36777343945141183,-0.36777343945141183,0.9999790243895437,6.485554955158054e-05
-0.3666534499861882,-0.3666534499861882,1.0000565870155003,6.55471994705033e-05
-0.36607808575645323,-0.36607808575645323,0.999947017645969,6.408728586567545e-05
-0.3657478348090081,-0.3657478348090081,0.9998975748899603,6.5126701845669e-05
-0.3652285942647723,-0.3652285942647723,0.999978315186028,6.402594804918036e-05
-0.36458095033012794,-0.36458095033012794,0.9999967855577946,6.496037617739517e-05
-0.36413852712285005,-0.36413852712285005,1.000028948713919,6.412745011293991e-05
-0.3634786495968001,-0.3634786495968001,0.9999428437432695,6.495195993254542e-05
-0.36208703989104835,-0.36208703989104835,0.9999439984469335,6.381988776158392e-05
-0.36078605695947774,-0.36078605695947774,0.9999910495404709,6.401703722604476e-05
-0.35972609849704895,-0.35972609849704895,0.9999946541667466,6.449486015131519e-05
-0.3585934657618054,-0.3585934657618054,0.9999608356807432,6.453414260181985e-05
-0.35799765643896536,-0.35799765643896536,1.000049634275076,6.482015804190037e-05
-0.35711874300614,-0.35711874300614,0.9999693364440754,6.467838437628432e-05
-0.3565855533714057,-0.3565855533714057,0.9999117535671955,6.480732357158721e-05
-0.35606692284636665,-0.35606692284636665,0.9999159390662677,6.365042394089698e-05
-0.3554280434953398,-0.3554280434953398,0.9999568719039426,6.509829384518263e-05
-0.35486400420195424,-0.35486400420195424,0.9999471885984172,6.482399415487984e-05
-0.35364444336446466,-0.35364444336446466,1.000183055627783,6.418727004765874e-05
-0.35178915153228446,-0.35178915153228446,0.9999191483117041,6.419895763284102e-05
-0.3502817824570229,-0.3502817824570229,1.0000635568993577,6.49578700297408e-05
-0.3494685787765775,-0.3494685787765775,1.0000940369573466,6.484905646383209e-05
-0.3483671319714631,-0.3483671319714631,1.0002588169024862,6.559888631481366e-05
-0.3476611296806368,-0.3476611296806368,0.9999729537164326,6.425608643187297e-05
-0.34731550020951546,-0.34731550020951546,1.0000295530567673,6.44593351011525e-05
-0.3469271382462466,-0.3469271382462466,1.0001188227097637,6.329288966238557e-05
-0.3463311368788709,-0.3463311368788709,0.9998326546735132,6.477946862457916e-05
-0.34569166246656097,-0.34569166246656097,0.9999071365903369,6.482952697194687e-05
-0.3441851235329523,-0.3441851235329523,0.9998849626980298,6.386688427058375e-05
-0.34267524673341543,-0.34267524673341543,1.0000783794325527,6.42026894811846e-05
-0.3410575090936618,-0.3410575090936618,1.0001237008577217,6.483236781925036e-05
-0.3403311698421021,-0.3403311698421021,1.0000076364568016,6.482102944998808e-05
-0.33952775855286743,-0.33952775855286743,1.0000162417100182,6.73137863517773e-05
-0.33859699612512484,-0.33859699612512484,0.9999688387898227,6.510469808094364e-05
-0.33828976401709954,-0.33828976401709954,0.9999512451383994,6.347689070092702e-05
-0.3379498105525272,-0.3379498105525272,0.9998647365859045,6.508938852013302e-05
-0.3371806706069037,-0.3371806706069037,0.9999333391628319,6.51065080573376e-05
-0.3363913873195997,-0.3363913873195997,1.000029235147569,6.448543420955972e-05
-0.3352253530130838,-0.3352253530130838,0.9999151455761434,6.452711529275696e-05
-0.3337848618539283,-0.3337848618539283,1.000067778982427,6.422587883228234e-05
-0.3321261558390688,-0.3321261558390688,0.9999395924853477,6.451248218063369e-05
-0.33104801557346947,-0.33104801557346947,0.9999186929196149,6.517987662282771e-05
-0.3300009925485938,-0.3300009925485938,0.9999469819759336,6.674457606040888e-05
-0.32934033660421846,-0.32934033660421846,0.9999089539738879,6.477643616722121e-05
-0.3291055997877265,-0.3291055997877265,1.000034310483968,6.334961275444741e-05
-0.32852612455171765,-0.32852612455171765,0.9999879151186057,6.541290979769022e-05
-0.32791477842110905,-0.32791477842110905,0.9999432669336255,6.49623053054843e-05
-0.3274822883788147,-0.3274822883788147,1.0000314379305402,6.416765557841871e-05
-0.3267215962274349,-0.3267215962274349,0.999994188786714,6.555505960016887e-05
-0.32521154781861694,-0.32521154781861694,0.9999738119880052,6.480762960160709e-05
-0.3234196240635356,-0.3234196240635356,1.0000411066179296,6.387431457136362e-05
-0.3221168465184746,-0.3221168465184746,0.999881561519215,6.517110014130221e-05
-0.32129448667546967,-0.32129448667546967,1.0001236483135802,6.616105989388666e-05
-0.3202179478917969,-0.3202179478917969,1.0000433127257655,6.489597514010096e-05
-0.31995525175880174,-0.31995525175880174,1.000036143199884,6.415974750941273e-05
-0.3194273481538403,-0.3194273481538403,0.9998107156687018,6.444349784927693e-05
-0.3186992943024961,-0.3186992943024961,1.0000025962217052,6.509265101671114e-05
-0.318289346297388,-0.318289346297388,0.9999356750653442,6.416821825089983e-05
-0.31731462890602413,-0.31731462890602413,0.9998901926694476,6.531447861606047e-05
-0.3162683499278501,-0.3162683499278501,0.9999645699794929,6.484763468345698e-05
-0.315000041355961,-0.315000041355961,1.0000817911604911,6.41980201648709e-05
-0.3140671547880629,-0.3140671547880629,1.0000344087066761,6.3817384785839e-05
-0.3132079274699208,-0.3132079274699208,1.0001068832670947,6.516917555398996e-05
-0.3125826503077406,-0.3125826503077406,0.9998647085239482,6.454153161518348e-05
-0.31127017486433034,-0.31127017486433034,1.0001331723530635,6.470530868228622e-05
-0.310770497393969,-0.310770497393969,0.9998743244200096,6.480307609232069e-05
-0.31025178184645485,-0.31025178184645485,1.0000587755676373,6.427125365538943e-05
-0.30970341841311894,-0.30970341841311894,0.9999080632671081,6.497837859325818e-05
-0.30909585769550174,-0.30909585769550174,1.0001014176192755,6.413941814328824e-05
-0.3079072753243963,-0.3079072753243963,1.0000024375785999,6.543217822242208e-05
-0.3063780811586184,-0.3063780811586184,0.9998438774092013,6.452318669625732e-05
-0.3050326736731222,-0.3050326736731222,0.999950906330284,6.38197797560087e-05
-0.3039719801119645,-0.3039719801119645,1.0000219720361536,6.520235276584276e-05
-0.30323999998217915,-0.30323999998217915,1.00006227378168,6.451573125562089e-05
-0.3022401417823858,-0.3022401417823858,0.9999878806099307,6.520085116065025e-05
-0.30165279840730364,-0.30165279840730364,1.0000012139470364,6.441797385791086e-05
-0.3012145570653956,-0.3012145570653956,1.0000509790508134,6.394542150521058e-05
-0.30058743410772876,-0.30058743410772876,0.9999507583504161,6.541406212851733e-05
-0.3001238095268491,-0.3001238095268491,0.9999302070743203,6.479320096164601e-05
-0.2997495280811563,-0.2997495280811563,0.9999190761653395,6.416415255336942e-05
-0.29857367166987386,-0.29857367166987386,0.9997805573945641,6.489961848011873e-05
-0.2970775133246207,-0.2970775133246207,0.9998081308086441,6.398137021406967e-05
-0.2959242861295934,-0.2959242861295934,0.9998887241999631,6.41784351290249e-05
-0.29461832678789507,-0.29461832678789507,1.0000699578515764,6.520530559320277e-05
-0.29411309703427835,-0.29411309703427835,0.9998950939284095,6.417159823259177e-05
-0.2932116754251183,-0.2932116754251183,1.0000186915038747,6.537908559307917e-05
-0.292663160203665,-0.292663160203665,0.9999560867680748,6.435912552630675e-05
-0.2922632331115892,-0.2922632331115892,0.9999029420686181,6.323696487408321e-05
-0.2917251852137269,-0.2917251852137269,1.0000412163739625,6.547270966812826e-05
-0.2910386365867453,-0.2910386365867453,1.0001888586009984,6.47856151472625e-05
-0.29039198837417646,-0.29039198837417646,0.9999206298139361,6.45740648359675e-05
