time,time,flux,flux_err
-0.4993774463528098,-0.4993774463528098,0.9993111165656315,0.0013638141098665673
-0.4989864666495123,-0.4989864666495123,1.0001446261801756,0.0013062056094174847
-0.4981370910201804,-0.4981370910201804,1.0006705221318046,0.0011003181488550024
-0.4975339102005819,-0.4975339102005819,0.9996543896578348,0.0013600509292138094
-0.496792313617334,-0.496792313617334,0.999712140058643,0.0010152142905920701
-0.4963730917479552,-0.4963730917479552,0.9980329772155256,0.0012185378505292165
-0.4960522265166219,-0.4960522265166219,0.9991308300462762,0.0012258616418534644
-0.49548004034077164,-0.49548004034077164,1.000742470114896,0.0012469926767320557
-0.49476759199314985,-0.49476759199314985,1.0005434673452165,0.0012931340594588934
-0.4939981339011865,-0.4939981339011865,1.0012452661356601,0.0011501915458989726
-0.4934375629200076,-0.4934375629200076,0.9981539974743197,0.0012278495042374166
-0.49263561466068495,-0.49263561466068495,1.0016051492330267,0.0014139585507235196
-0.4918698477478756,-0.4918698477478756,1.0006929359123384,0.0012314757054291586
-0.49127621416409967,-0.49127621416409967,0.9979205387356183,0.001165546404606818
-0.49101001208327943,-0.49101001208327943,1.000633067223945,0.001163837607130053
-0.4905685345394886,-0.4905685345394886,1.0003836526699703,0.0010062903839127687
-0.48969565415827676,-0.48969565415827676,0.9990848219243433,0.0013666357995260575
-0.4888504945207387,-0.4888504945207387,0.9994480570097066,0.0011550356042381337
-0.4884071880733245,-0.4884071880733245,0.9987012111473839,0.0011615165465774264
-0.4879981964957551,-0.4879981964957551,0.9989224870065636,0.0012265197726431332
-0.4866772855937597,-0.4866772855937597,0.9986540506132442,0.0012446859979788412
-0.48571882228570756,-0.48571882228570756,1.0000757675924752,0.001287019581638949
-0.4849418063378835,-0.4849418063378835,1.001240223585441,0.0010973983521163759
-0.48439795559315824,-0.48439795559315824,0.9984359352706488,0.0012374595952677598
-0.4836473547431524,-0.4836473547431524,1.000015006306644,0.001218411183502693
-0.48313677418336737,-0.48313677418336737,0.9990514852609916,0.0010823667173596853
-0.4826548904668016,-0.4826548904668016,1.0004327540179938,0.0011761670407650687
-0.4814999758731574,-0.4814999758731574,0.9997706309685093,0.0012338393698737577
-0.4804958601685939,-0.4804958601685939,1.0008324629186993,0.0011621484763821564
-0.4796196458904888,-0.4796196458904888,1.0009385186681636,0.0014322359272985262
-0.4786884545974317,-0.4786884545974317,1.002767861560076,0.0012558531045348338
-0.478182962442952,-0.478182962442952,0.9988603350575413,0.0011655409080178227
-0.4777246036901488,-0.4777246036901488,1.0006323730467384,0.0012321500378961318
-0.47683027155799207,-0.47683027155799207,1.0006225440558647,0.0013087129033220915
-0.4763227321098384,-0.4763227321098384,0.9993880074674326,0.0012943188530943164
-0.47528456764339355,-0.47528456764339355,0.9998840715264723,0.0012157111971426702
-0.47470804210242934,-0.47470804210242934,1.0020659939778551,0.0011627240240753597
-0.4741639109684911,-0.4741639109684911,0.9992781637014625,0.0012467570502497556
-0.4731674097260111,-0.4731674097260111,0.9996650665706841,0.0012384375430069447
-0.47278027783468135,-0.47278027783468135,1.000582375677158,0.0011728516875604846
-0.4722992092007189,-0.4722992092007189,0.9997531013847901,0.001153012897699764
-0.4713213103728776,-0.4713213103728776,0.9991674397082819,0.0013401102567191753
-0.4704425100579101,-0.4704425100579101,1.000326838703427,0.0013711485448427891
-0.4700335350484238,-0.4700335350484238,1.000502998408269,0.0011538162866761355
-0.46968283974565567,-0.46968283974565567,0.9990523512238528,0.0009985831486348448
-0.4689054930509883,-0.4689054930509883,0.9994040990628854,0.0013078839904435613
-0.46810716412437614,-0.46810716412437614,0.9998508076646221,0.0011561276241242135
-0.46754277064901545,-0.46754277064901545,0.9998232558609997,0.001164049880554634
-0.46717785169239506,-0.46717785169239506,1.0010976365431037,0.001159260892217569
-0.46643055454915155,-0.46643055454915155,0.9986413690326087,0.0013159276447505521
-0.46587917549841223,-0.46587917549841223,0.999898193155602,0.0011592171111591862
-0.4652130365910125,-0.4652130365910125,1.000028198413689,0.0013180489847370587
-0.4645219058736984,-0.4645219058736984,1.0001069700238994,0.0010728503700511713
-0.46353984588058667,-0.46353984588058667,1.0003077799228053,0.0012944923271948849
-0.4627681869889784,-0.4627681869889784,0.9998322030779956,0.001321676536823711
-0.4620711344105075,-0.4620711344105075,0.9997156111945452,0.0011679625260953247
-0.46177547636907545,-0.46177547636907545,1.0015306669818116,0.0010066413542800324
-0.4613138456064917,-0.4613138456064917,1.0012092999580449,0.0011683364820445738
-0.4605624108902703,-0.4605624108902703,0.9997640346129135,0.0013039024373665384
-0.45969887571773144,-0.45969887571773144,1.0000674511260121,0.001158477480944414
-0.459296621435351,-0.459296621435351,1.000735514355767,0.0011625080549625543
-0.45893764568827466,-0.45893764568827466,0.999062330555957,0.0012259565305879519
-0.4583971172738529,-0.4583971172738529,1.0024575050210451,0.0011840131610545914
-0.4577797241632652,-0.4577797241632652,0.9990523070681363,0.0012611011964319934
-0.45701372772018656,-0.45701372772018656,1.001199089720355,0.0012339532534867367
-0.4561196249713248,-0.4561196249713248,0.9989362484594254,0.001269445803228847
-0.4555299256309809,-0.4555299256309809,1.0007545280615306,0.0012419370821336229
-0.4548417548496218,-0.4548417548496218,1.0003723408942422,0.0012217955635952205
-0.4541760667183553,-0.4541760667183553,0.9988933779452435,0.0010825041271845057
-0.4537031349929748,-0.4537031349929748,0.9997949292346288,0.001174727917245192
-0.45283452841031246,-0.45283452841031246,0.9991329635355871,0.001235214440638245
-0.4516582620701229,-0.4516582620701229,1.0002174636348733,0.0011569320704038117
-0.45090136854851154,-0.45090136854851154,0.9997289115286982,0.001247009795171184
-0.44982993056473786,-0.44982993056473786,1.0000978720960916,0.0012619917764317664
-0.4493471628091356,-0.4493471628091356,1.000604063191848,0.0012349898742137822
-0.448707865903998,-0.448707865903998,1.001851597928243,0.001232164421730347
-0.4475136622902937,-0.4475136622902937,1.0005199634353281,0.001360667650423142
-0.4467118974600453,-0.4467118974600453,1.0011892673714384,0.0012315639270333966
-0.4462706065758539,-0.4462706065758539,1.0012030342148388,0.001147713042616292
-0.44561874162973253,-0.44561874162973253,0.9993142956786951,0.0013151771577235942
-0.44438427803179364,-0.44438427803179364,0.9997602327983441,0.0012263691372922656
-0.44392020928644343,-0.44392020928644343,0.9977372820538527,0.0011577340790597098
-0.44342547834166907,-0.44342547834166907,0.9986354557443334,0.0011827843307754171
-0.44286761774346817,-0.44286761774346817,1.0012118927931002,0.0013468126904334576
-0.4420274447344127,-0.4420274447344127,0.9993102534249253,0.0013184790836409297
-0.44124792433794935,-0.44124792433794935,1.0012108565297275,0.0012538131785134854
-0.44081098885726533,-0.44081098885726533,1.0004884786251533,0.0010834404166063898
-0.43967900473799093,-0.43967900473799093,0.9992158470361335,0.0013629211206557623
-0.4389065298688365,-0.4389065298688365,1.0002404537827683,0.0010058969735124031
-0.438556066131423,-0.438556066131423,1.0004259766062862,0.0010894890110403586
-0.43823418506945017,-0.43823418506945017,0.9979923062669369,0.0012303379115717688
-0.4374712263706897,-0.4374712263706897,1.000325681711585,0.0012528424496795797
-0.436652584814874,-0.436652584814874,1.0006850665228069,0.0012979426822450643
-0.43601123794869634,-0.43601123794869634,1.0002615720528136,0.0011764515032697744
-0.43540798752947013,-0.43540798752947013,0.9999745746942501,0.001147366093495149
-0.4346829410445935,-0.4346829410445935,0.9994052283899244,0.0013289621891551123
-0.4341892174081295,-0.4341892174081295,1.0007866959957024,0.0012562830808103885
-0.433398623996618,-0.433398623996618,0.9991992363582082,0.0011495303484091314
-0.4329648620434455,-0.4329648620434455,1.0008558893961268,0.0011019559918979253
-0.4325744450419734,-0.4325744450419734,1.0006880087131234,0.0010770220991072996
-0.43191298087476754,-0.43191298087476754,0.9992696133196295,0.0013070790413310363
-0.4309844705487194,-0.4309844705487194,0.9984942059033258,0.0011645991270101083
-0.43049406523932704,-0.43049406523932704,1.0009114743066303,0.0012271520886449501
-0.4299082153716881,-0.4299082153716881,0.9992635732434426,0.001175639658256402
-0.4291047935133975,-0.4291047935133975,0.9990055446264755,0.0012630402991368284
-0.42850671117412276,-0.42850671117412276,0.9986751412432546,0.0012537909461054174
-0.4279793936359056,-0.4279793936359056,0.9998297006057457,0.0011510512638806994
-0.4273877780884504,-0.4273877780884504,0.9997795186349538,0.001120300327120555
-0.4267734740533342,-0.4267734740533342,0.9995266919283277,0.0012447933938570103
-0.42639746999630007,-0.42639746999630007,0.9989603336310955,0.001166521646018678
-0.425615195401042,-0.425615195401042,0.9996556436556683,0.0012216353302100052
-0.42515287056958184,-0.42515287056958184,1.001673259543988,0.0011504836379721745
-0.42457244389879634,-0.42457244389879634,0.9999917479735343,0.0012521742881640128
-0.42375634874551904,-0.42375634874551904,1.0007551141950715,0.0010790315396003401
-0.4225820653802657,-0.4225820653802657,0.9996599348658177,0.0012237750738948688
-0.4212764340598369,-0.4212764340598369,1.0012115181040293,0.0012239178002478885
-0.4205411092909344,-0.4205411092909344,0.9987720005904588,0.0012367815390165696
-0.41999172198193263,-0.41999172198193263,0.9995508570184544,0.001286946925922332
-0.418968820432201,-0.418968820432201,0.9998454777346272,0.001234181100177501
-0.41837323722138536,-0.41837323722138536,0.9994472465347982,0.0013033683438124677
-0.4177562593467883,-0.4177562593467883,1.0010751005337875,0.001089296965272778
-0.41732781604296176,-0.41732781604296176,1.0007943781090463,0.0011488635264945474
-0.41696944570649064,-0.41696944570649064,1.0004924085737326,0.0012829068646134595
-0.4163631891962723,-0.4163631891962723,0.9998198279139452,0.0012527449469863848
-0.41550847046164563,-0.41550847046164563,0.9991567954327378,0.0012230479476283726
-0.41478576695808445,-0.41478576695808445,0.999772302741752,0.0012208348993659264
-0.41428420172524055,-0.41428420172524055,0.9993351942452712,0.0012200097614968306
-0.4137389732815791,-0.4137389732815791,1.0011640025196056,0.0010966588737817676
-0.4128863024438033,-0.4128863024438033,0.9999060730573491,0.0012781835964463344
-0.41228118416984216,-0.41228118416984216,0.9992408364621724,0.001179388048490741
-0.41187159499313564,-0.41187159499313564,1.0004465756294318,0.0011548359960686049
-0.4107394949933223,-0.4107394949933223,0.9995978798669605,0.001364061435896772
-0.4099146025873779,-0.4099146025873779,0.9994828914668481,0.0010892800240533897
-0.40948404333830696,-0.40948404333830696,0.99936113124767,0.0010894057364031402
-0.40913178899063496,-0.40913178899063496,1.0008287305524122,0.0012852470423765797
-0.4085650088614784,-0.4085650088614784,0.9998607575848997,0.0012574034484490707
-0.40760258283262374,-0.40760258283262374,0.9996405880790178,0.0012388950733726394
-0.4069311140301579,-0.4069311140301579,0.9998313505794677,0.001226997292227382
-0.4063282605493441,-0.4063282605493441,1.0001296596623779,0.0010767270942818826
-0.40559564318318736,-0.40559564318318736,0.9993402164268191,0.0013013108500710506
-0.40483032793126766,-0.40483032793126766,1.0012984465091717,0.0012955989092390736
-0.40416033616565983,-0.40416033616565983,1.0001793370829397,0.0010907700991053967
-0.40380155020902747,-0.40380155020902747,0.9995920898851773,0.001084797194779908
-0.40328630521253217,-0.40328630521253217,0.9998334416528797,0.0011809047812160888
-0.40282442649040606,-0.40282442649040606,0.9997095177529705,0.0011495594142555347
-0.40203389318921834,-0.40203389318921834,0.9997187856348013,0.0010795041624479611
-0.40182340977844433,-0.40182340977844433,1.000562227191292,0.0010784751503198867
-0.40151392003535874,-0.40151392003535874,1.0019351610104124,0.0012345626049866814
-0.4008350996497029,-0.4008350996497029,1.0007268971749421,0.0013305057542253205
-0.4002577424122137,-0.4002577424122137,1.0007224228132248,0.0012624961525012283
-0.39964870603798774,-0.39964870603798774,1.0009392295624273,0.0012606137111740756
-0.3989879943488631,-0.3989879943488631,0.9994178153744775,0.0012177652517752942
-0.39857308912687583,-0.39857308912687583,0.9997758139288357,0.0011243309089090164
-0.39789063486241505,-0.39789063486241505,1.0002004514633658,0.0011676677056162662
-0.3975381370764808,-0.3975381370764808,0.9990123678920091,0.0012304191270798386
-0.3965832307047094,-0.3965832307047094,1.000157391745541,0.001220219472409472
-0.39610892672717457,-0.39610892672717457,0.997956078941115,0.0011481503676068314
-0.39535700582127903,-0.39535700582127903,0.9990215719188912,0.0013223838588303232
-0.3947737343623885,-0.3947737343623885,0.9988357909342096,0.0011457686843313044
-0.39408384602938895,-0.39408384602938895,0.9994705592573068,0.0012230275642956998
-0.39348814323457193,-0.39348814323457193,1.0011512156458742,0.0012135821367550924
-0.392165382578969,-0.392165382578969,1.000139242932615,0.0012276537353486127
-0.3914305606034759,-0.3914305606034759,1.0001524294198048,0.0012150897952356513
-0.3909189222016721,-0.3909189222016721,1.0001186705776308,0.001157301513558364
-0.39010665070381945,-0.39010665070381945,0.9999683300882134,0.001175669332654134
-0.38949255163097407,-0.38949255163097407,0.9998850355024219,0.0012951181307779502
-0.38889939941000196,-0.38889939941000196,0.9990901022152517,0.0010152625087646093
-0.38849688232221524,-0.38849688232221524,0.9998211058938903,0.001148623247661708
-0.3882377159665339,-0.3882377159665339,1.0009415697524364,0.0012226996744678937
-0.3877149785381334,-0.3877149785381334,0.999089510553695,0.0013195171260760614
-0.38685215273799256,-0.38685215273799256,0.9988196044887679,0.0012845775081405104
-0.3858590987423668,-0.3858590987423668,0.9999902004449313,0.0012268847201280131
-0.3852041864905914,-0.3852041864905914,1.000372297269334,0.0012824616711922961
-0.3844142872170778,-0.3844142872170778,0.9980926316678105,0.0013005969324677133
-0.38378124275768644,-0.38378124275768644,0.9992494211226935,0.001161582403058037
-0.38332537917376613,-0.38332537917376613,0.9999269516530823,0.0011700301570342715
-0.38299854981232784,-0.38299854981232784,0.9991317483728224,0.0011622335448136347
-0.3824275138111261,-0.3824275138111261,0.9998780302724877,0.001183266966266923
-0.38158920541536645,-0.38158920541536645,0.9979272867858506,0.00122635118515028
-0.38087726616868167,-0.38087726616868167,0.9991505663564672,0.0011528415054385364
-0.3804056737048086,-0.3804056737048086,0.9988245191784749,0.001160716102246592
-0.3797624094426283,-0.3797624094426283,0.9999318192690769,0.0012988848999966052
-0.3783328877972963,-0.3783328877972963,0.9982355494788802,0.001241674311316859
-0.37779095553196385,-0.37779095553196385,1.0003428095138545,0.0011463401580041564
-0.3770483559041168,-0.3770483559041168,0.9998099202042514,0.001098466130199815
-0.3765029837966722,-0.3765029837966722,0.9999995810372896,0.0012377391515376096
-0.3757529318500019,-0.3757529318500019,0.9989930019751034,0.0012174984104413452
-0.37524352177060794,-0.37524352177060794,1.0012500305057461,0.0010829744469379407
-0.3748893713418511,-0.3748893713418511,1.0000742318416183,0.0010947182259812669
-0.3738568710912659,-0.3738568710912659,0.9995038643958694,0.001311656689239028
-0.37266184829422855,-0.37266184829422855,1.0002879673910032,0.001223970865590797
-0.3720136833646393,-0.3720136833646393,0.9983368929972171,0.001339164140590815
-0.3712949851302255,-0.3712949851302255,1.0009825641429915,0.001357321250314836
-0.37052708630944836,-0.37052708630944836,1.000856251161838,0.001161133020047569
-0.3700231664617604,-0.3700231664617604,0.9991263643891015,0.0011633225680734694
-0.36935105910451965,-0.36935105910451965,0.9988679661666499,0.001290260054954916
-0.368757302830636,-0.368757302830636,0.9992422853509393,0.001296543145236355
-0.36794544514414157,-0.36794544514414157,1.0003918747206229,0.0012958669745916232
-0.3672386529186042,-0.3672386529186042,1.0000822316580578,0.0010761645286522686
-0.366415875912935,-0.366415875912935,0.9995682321012117,0.0013255199943044411
-0.3653514795092633,-0.3653514795092633,0.9998362577160057,0.001293055354450507
-0.36481173394276994,-0.36481173394276994,1.001072710400796,0.001171580627486579
-0.3642057366516383,-0.3642057366516383,0.9990860648938451,0.0012790333391283683
-0.3632895404982264,-0.3632895404982264,0.9992917478005777,0.001294921117589568
-0.3624225792649668,-0.3624225792649668,1.0011112892599063,0.0011978093122345017
-0.3619871066315682,-0.3619871066315682,0.9997840432039824,0.0011552369882666014
-0.3612001767083711,-0.3612001767083711,0.9989201276031133,0.001176560142263834
-0.36066710971354043,-0.36066710971354043,0.9972396779653078,0.0012935854834020299
-0.35993562972507787,-0.35993562972507787,1.0006779035573725,0.0010143823444676802
-0.35950488700182176,-0.35950488700182176,1.0002415926067771,0.0011585550001806404
-0.35904851870582205,-0.35904851870582205,0.9983617125727221,0.0012923250353020668
-0.35838793719667594,-0.35838793719667594,1.000483692835108,0.0012564074268531199
-0.3578697137250856,-0.3578697137250856,0.9991787101886522,0.0011592047505504482
-0.3573436671256786,-0.3573436671256786,1.0002691326215591,0.001261625138076088
-0.35676333008595973,-0.35676333008595973,1.0012119007588651,0.0011451546882445696
-0.3559365518653067,-0.3559365518653067,0.999549927545535,0.0012248503142188957
-0.3553000823550974,-0.3553000823550974,1.0011239827619602,0.0012745992293265662
-0.35446427821589166,-0.35446427821589166,0.9981112220129805,0.0012172057222659199
-0.35403156286047305,-0.35403156286047305,1.0004091647804614,0.00109232715877528
-0.3536282206863689,-0.3536282206863689,0.9997808899893107,0.0011716526213603703
-0.352667195538379,-0.352667195538379,0.9996852672346309,0.001304298867074213
-0.35189579944344584,-0.35189579944344584,0.9993750129457648,0.0010793551956317414
-0.35146207599827906,-0.35146207599827906,1.0001065549453205,0.0012315309715072056
-0.35104265571862925,-0.35104265571862925,0.9999045725229285,0.001227229041314041
-0.3505028878193116,-0.3505028878193116,0.9987247723507494,0.0011844517791360152
-0.3498007941692777,-0.3498007941692777,1.000397405679186,0.0012612082461225106
-0.3489471799075545,-0.3489471799075545,1.0014644761867348,0.0012906016828256842
-0.3484114546299679,-0.3484114546299679,1.0010580133852756,0.0011261882156246893
-0.3477680295902246,-0.3477680295902246,1.0004782420270995,0.0012365261592853281
-0.3473305417326628,-0.3473305417326628,1.0004971558075222,0.0011716846949463042
-0.34643216335607574,-0.34643216335607574,1.0008370967505162,0.0011452459240937037
-0.3460825367139478,-0.3460825367139478,1.00173292777952,0.0010910109265136042
-0.3453269490877574,-0.3453269490877574,1.0002495792468273,0.001355081265244505
-0.34451051867945354,-0.34451051867945354,0.9996813562808301,0.0010912765459401882
-0.3436391111987177,-0.3436391111987177,0.9985495619531288,0.001157979750887707
-0.34279362638553723,-0.34279362638553723,0.9990350091203345,0.0013060676997741275
-0.3417187234503217,-0.3417187234503217,0.9997054650335503,0.0011968621494049942
-0.341227838343184,-0.341227838343184,0.9987675015403278,0.001157456786324972
-0.3403955144880456,-0.3403955144880456,0.9994895023540966,0.001299668849921576
-0.3394811707752524,-0.3394811707752524,1.000592090837387,0.0012940401213955776
-0.3385162010141357,-0.3385162010141357,0.9991416638988545,0.0011527259715093476
-0.33800304499673073,-0.33800304499673073,1.0015493152886865,0.001234808229349855
-0.3367806391164777,-0.3367806391164777,1.0001340254761835,0.0012480461713751969
-0.33592062264651756,-0.33592062264651756,0.9982961532934681,0.0011517604225394545
-0.3354204736657266,-0.3354204736657266,1.0004230583557654,0.0012508188406373764
