time,time,flux,flux_err
-0.4998765019970885,-0.4998765019970885,0.9998909825602867,0.00027111704875964424
-0.49965795694913595,-0.49965795694913595,0.9999498918613692,0.00025917795906259115
-0.4993398256957562,-0.4993398256957562,1.0001971312843982,0.0002672901653061379
-0.4992093354655481,-0.4992093354655481,1.0004573798133107,0.0002485241574775212
-0.49908283599313563,-0.49908283599313563,1.0000305333577026,0.00024079398615255891
-0.49898504077416417,-0.49898504077416417,1.0000406066310217,0.0002504591721203196
-0.4988646047107295,-0.4988646047107295,0.9998837591210924,0.00025381575702223625
-0.49871000832833945,-0.49871000832833945,1.0000411860124383,0.00023878896213205578
-0.4986191267631739,-0.4986191267631739,1.000446152964988,0.0002515845062125972
-0.4984304531505813,-0.4984304531505813,0.9998137812443272,0.00024010995327574915
-0.49830492897674505,-0.49830492897674505,1.0001505298364215,0.000255888919053925
-0.49816502027033494,-0.49816502027033494,0.9998673882536009,0.00023525486232361725
-0.4979469163239173,-0.4979469163239173,1.0003143982170581,0.0002513590961769921
-0.49779249587857066,-0.49779249587857066,0.9998571695891167,0.0002442806007338244
-0.49769754151955115,-0.49769754151955115,1.000288742162193,0.0002479503481122477
-0.49761963446035223,-0.49761963446035223,1.000325144886906,0.0002403689768873821
-0.4975178431808217,-0.4975178431808217,1.0002764202886063,0.00025169756781756554
-0.4974218536294984,-0.4974218536294984,1.0000804990167624,0.00024358259574527993
-0.4973451003419541,-0.4973451003419541,1.0000173549001088,0.00024164661480365868
-0.4972114931617625,-0.4972114931617625,1.0002757716685147,0.00025640596165634545
-0.4970664730715043,-0.4970664730715043,0.9998519243888488,0.00023491609852192957
-0.4969737455417089,-0.4969737455417089,0.9999349685593323,0.0002466925786286542
-0.49676740832646826,-0.49676740832646826,0.9999936450060151,0.0002353255430371243
-0.4965821949573865,-0.4965821949573865,0.9998836555533298,0.00023635595596974311
-0.4962964173137152,-0.4962964173137152,1.000138535675734,0.00024510709917095383
-0.4961849298405241,-0.4961849298405241,0.9999936476684079,0.00025107836682959644
-0.49605608037807086,-0.49605608037807086,1.0001313041214785,0.000238399889418466
-0.49593956316400634,-0.49593956316400634,1.0003088072896318,0.0002505703172895812
-0.4958470750537117,-0.4958470750537117,0.9996710062661833,0.0002502592174191428
-0.49567724733312846,-0.49567724733312846,1.0002777683450177,0.00024066133226609038
-0.4956027533874021,-0.4956027533874021,0.9998961759145027,0.0002560745956090932
-0.4954058825699349,-0.4954058825699349,0.9999613520040906,0.00023933838297064756
-0.4952561979594975,-0.4952561979594975,1.0002319481563493,0.0002494134746711795
-0.49511148074377614,-0.49511148074377614,1.0005107074585637,0.00023535202726137952
-0.4949014211390022,-0.4949014211390022,0.9995042812097955,0.0002468485527222918
-0.4947659155539895,-0.4947659155539895,1.0000784423589528,0.0002443050072131068
-0.4946606341132565,-0.4946606341132565,0.99995294987037,0.0002484555159257669
-0.49459000598299097,-0.49459000598299097,0.9996984879007712,0.00024371422191156407
-0.49447548750661097,-0.49447548750661097,0.9998992688847803,0.00024755885841535376
-0.4943912229473881,-0.4943912229473881,0.9999086307012188,0.0002457495643534397
-0.49430373900725044,-0.49430373900725044,0.999898639715141,0.00023944788569835786
-0.49417807389888824,-0.49417807389888824,0.9998987850168399,0.00024417016410397275
-0.4940129490857316,-0.4940129490857316,0.9999744093522569,0.00023494927303030545
-0.4939202139295048,-0.4939202139295048,0.99955557173137,0.0002467647368359261
-0.4937138581711906,-0.4937138581711906,1.000265889211722,0.00023528972788590947
-0.4935575201563324,-0.4935575201563324,0.9997247457416408,0.0002505728584998411
-0.4932863477097726,-0.4932863477097726,0.9998934469932076,0.00023399215073332361
-0.49315353038068677,-0.49315353038068677,0.9998716942618726,0.00026170054180643795
-0.4930281498152908,-0.4930281498152908,0.9996581851832801,0.00023842654624752028
-0.4929030458584748,-0.4929030458584748,0.9996101597373581,0.00025249722146809236
-0.4928285997630155,-0.4928285997630155,0.9999156605539883,0.0002474230816218346
-0.4926412039202205,-0.4926412039202205,0.9998453715671076,0.00024069121786149085
-0.4925491999055566,-0.4925491999055566,0.9997722273821722,0.00025619303914845346
-0.4923523419225603,-0.4923523419225603,1.0000137579389945,0.00023944799447467752
-0.4922026574412712,-0.4922026574412712,1.0000224296428297,0.00024938707803733994
-0.4920579412250845,-0.4920579412250845,0.9996509354433861,0.0002352880554263662
-0.4918398472450917,-0.4918398472450917,0.9998492381242639,0.0002512268440833497
-0.4916854271694319,-0.4916854271694319,1.0001465700514112,0.00024437617929281847
-0.491590480834725,-0.491590480834725,1.0001616824789004,0.0002479569863590832
-0.4915125485137651,-0.4915125485137651,0.9999093118258491,0.00024038598225595113
-0.4914107695856501,-0.4914107695856501,0.9997438288700076,0.00025170503208211525
-0.4913147538199155,-0.4913147538199155,1.0002355531357514,0.00024357466316266653
-0.49122207996135786,-0.49122207996135786,1.0004471350602788,0.00024316094276192378
-0.4910383685418765,-0.4910383685418765,0.9997358858327832,0.0002455369979523608
-0.49094183675686054,-0.49094183675686054,0.9999782720987269,0.00022769696152253517
-0.4907632790575008,-0.4907632790575008,1.00009375637856,0.00025076979558455686
-0.4906292408269337,-0.4906292408269337,1.0004056967702808,0.00023317342988373103
-0.49046486495426506,-0.49046486495426506,0.9999310240932138,0.00025097794411643926
-0.4901893973025381,-0.4901893973025381,0.9998532539483123,0.0002450599045989014
-0.4900779614195926,-0.4900779614195926,0.9998883939625932,0.00025110435283095953
-0.48994895919997816,-0.48994895919997816,1.0001776792310106,0.0002383922652726246
-0.48983244867347364,-0.48983244867347364,0.9999768292969945,0.0002505867165857664
-0.48974002983229636,-0.48974002983229636,0.9997169793323583,0.0002501928930873561
-0.48956496068228716,-0.48956496068228716,0.9996659478803387,0.00024162626249037746
-0.4894585057116501,-0.4894585057116501,0.9999072101369842,0.00025148757136046415
-0.4892697830133102,-0.4892697830133102,0.9996213512730645,0.00024026123861412599
-0.4891205812323278,-0.4891205812323278,1.000175695850952,0.00025238797166701624
-0.48898217144590034,-0.48898217144590034,0.99960027714178,0.0002355690086515413
-0.4888263612380797,-0.4888263612380797,0.9999744227067566,0.00025355935621672223
-0.48865886539906567,-0.48865886539906567,0.999840051296095,0.00024442381793795913
-0.4885556901356722,-0.4885556901356722,0.9993787325043586,0.0002460810959158346
-0.48849476646864787,-0.48849476646864787,0.9999583004867103,0.00023918774046573893
-0.4883888079677945,-0.4883888079677945,0.9996835414638576,0.0002385489029750071
-0.48830496612506524,-0.48830496612506524,0.9999877005404162,0.0002572372846978058
-0.4882081355265882,-0.4882081355265882,0.9999221385363232,0.0002430496916693523
-0.4880709804328262,-0.4880709804328262,1.000299940277272,0.0002441555209080549
-0.4879059011185518,-0.4879059011185518,0.9998994232921433,0.00023496294517326563
-0.4877787756405496,-0.4877787756405496,0.9998281295643625,0.0002496571339250968
-0.4875918012660577,-0.4875918012660577,0.9997350332358579,0.000230583356410836
-0.48745049621818454,-0.48745049621818454,0.9999839930848522,0.000250615506058431
-0.48720300477859835,-0.48720300477859835,0.9995808916763556,0.00023580013286282462
-0.48706317512721853,-0.48706317512721853,0.9998860614074003,0.0002480935715376723
-0.48695411207818323,-0.48695411207818323,1.000106757841443,0.0002492612207918253
-0.4868124728994644,-0.4868124728994644,0.9997956773775399,0.00025224161911243173
-0.486747954469206,-0.486747954469206,1.000633237374538,0.000250349768302358
-0.486564077101184,-0.486564077101184,1.000186775130376,0.00024093735127842826
-0.48645685961364504,-0.48645685961364504,1.000236847000363,0.00025616515197848816
-0.4862921560202039,-0.4862921560202039,1.0001704881695745,0.00023609113799878716
-0.4861261660514856,-0.4861261660514856,0.9998002274393201,0.00025062236849758454
-0.48597696931274187,-0.48597696931274187,0.9998349888378604,0.00023767751922172653
-0.48581525928236713,-0.48581525928236713,1.000124889398023,0.00025364298424505053
-0.4856315605819873,-0.4856315605819873,1.0000973223071612,0.00024490917274303073
-0.4855178535808591,-0.4855178535808591,0.99996780588657,0.0002460626077090738
-0.4854412506361996,-0.4854412506361996,1.0000395949702434,0.00023921001489211213
-0.4853352544305608,-0.4853352544305608,0.9998853796756105,0.0002385986390912271
-0.48525139668970496,-0.48525139668970496,1.0001447706986615,0.00025727398177098593
-0.4851545941539371,-0.4851545941539371,0.9998629301526568,0.00024304962128938963
-0.48503543097995133,-0.48503543097995133,0.9996610227065371,0.00023694467828301317
-0.48486333693188044,-0.48486333693188044,0.9996768551447175,0.00024168277459593823
-0.48477248420012986,-0.48477248420012986,1.0002330218852282,0.00024520725262023316
-0.4845577538120779,-0.4845577538120779,0.999897653981477,0.0002327260302323841
-0.4844285830724857,-0.4844285830724857,1.000201506788888,0.00025094095733052345
-0.4842002291847166,-0.4842002291847166,0.9997831336608375,0.00023361804168306764
-0.4840356435042395,-0.4840356435042395,0.9995920481765678,0.0002482158411087728
-0.48391769924780875,-0.48391769924780875,0.9999667794003873,0.0002528467776659022
-0.48378717368659635,-0.48378717368659635,0.9998773398295553,0.0002485870262443375
-0.48370790021917853,-0.48370790021917853,1.0000117145541532,0.0002401213853262814
-0.4835545599808938,-0.4835545599808938,1.0000240204838196,0.0002523200361551317
-0.4834214230443649,-0.4834214230443649,0.9997021725328533,0.0002550197650272904
-0.4832767479609174,-0.4832767479609174,1.0002968911182717,0.0002339653000956701
-0.4831040978501278,-0.4831040978501278,1.0000718244016944,0.0002526622549503416
-0.48295704308141013,-0.48295704308141013,0.999851206285267,0.0002379482777237399
-0.4827940921410345,-0.4827940921410345,0.9997691479476798,0.0002536441169730916
-0.4826060689062615,-0.4826060689062615,1.0000443970079924,0.00023446200349980223
-0.482487524255248,-0.482487524255248,0.9998656565182685,0.000246439360790629
-0.4823985751530245,-0.4823985751530245,1.0004782857695185,0.000253463363230139
-0.48230408658782836,-0.48230408658782836,0.9997775077393367,0.00023815093359275257
-0.48221914083328554,-0.48221914083328554,0.9994880562205015,0.0002509996439118616
-0.48211860589183286,-0.48211860589183286,1.0001776019067172,0.0002453651059942029
-0.48200865766118567,-0.48200865766118567,1.0000183169283061,0.00024192856134219045
-0.48183611833760553,-0.48183611833760553,1.0002771840934988,0.00024087223098882824
-0.481718939606958,-0.481718939606958,0.9999973864244623,0.0002451033048001572
-0.48152020707536847,-0.48152020707536847,1.0002097233098048,0.0002333102266869364
-0.4814014229820714,-0.4814014229820714,0.9999411525005237,0.00024722713550602603
-0.48123478828097177,-0.48123478828097177,0.9999913082801462,0.00023965469331462992
-0.48102886730393946,-0.48102886730393946,1.000221288952138,0.0002450460936361908
-0.48091750896137453,-0.48091750896137453,0.9998258179896213,0.0002510316610979214
-0.4807882774425252,-0.4807882774425252,1.0002923102241277,0.00023842764963925953
-0.48067177698576413,-0.48067177698576413,0.9999300781863584,0.00025053944172875024
-0.48057946206658925,-0.48057946206658925,0.9997421150355776,0.00025019926028046883
-0.48040431896915836,-0.48040431896915836,1.0000676203337957,0.00024223879192458798
-0.4802978847591248,-0.4802978847591248,1.000139798424795,0.0002516330048686359
-0.48010911302337717,-0.48010911302337717,1.0000044586818906,0.0002406159252658445
-0.4799599644983118,-0.4799599644983118,1.0000198295117504,0.0002523410652287551
-0.479818672429019,-0.479818672429019,0.9997797334117935,0.00023859128966072598
-0.4796257092506721,-0.4796257092506721,1.00003029417571,0.0002513281688167392
-0.4794712897684576,-0.4794712897684576,1.000078323786867,0.00024430422340400627
-0.4793763596788267,-0.4793763596788267,0.9999553225180774,0.00024794323677544846
-0.47929837683432197,-0.47929837683432197,0.9999914521141229,0.0002403122101202118
-0.4791966223594272,-0.4791966223594272,1.000003789435222,0.00025166498887492045
-0.4791005542585026,-0.4791005542585026,1.0003611266237633,0.0002434780747949883
-0.4790078223001501,-0.4790078223001501,0.9998476232540294,0.00024307885231359487
-0.47884914208682405,-0.47884914208682405,1.0000499167331718,0.00024089281606782514
-0.4787290138982826,-0.4787290138982826,0.9999225488016389,0.00023190651851954163
-0.4785187079543448,-0.4785187079543448,0.9997678307207257,0.00025048408897038264
-0.4783743260636356,-0.4783743260636356,1.000025267228427,0.00023105510494915953
-0.47821540602035384,-0.47821540602035384,1.0004504461639447,0.0002520770212390227
-0.47800117010503984,-0.47800117010503984,1.0002713770862144,0.00023280780144591457
-0.4778861099570122,-0.4778861099570122,1.0001285514460119,0.00026166449616383977
-0.47776048031146273,-0.47776048031146273,0.9999175532495677,0.00023844754502655224
-0.4776352401767099,-0.4776352401767099,0.9998793347205162,0.00025246027464674396
-0.4775609802623194,-0.4775609802623194,0.9996933792954661,0.0002472949511350381
-0.4773734417018204,-0.4773734417018204,1.0000233599207564,0.00024158362194151624
-0.47728143258129874,-0.47728143258129874,0.9996252070388332,0.0002562048108806992
-0.4770780407512575,-0.4770780407512575,0.9998416058316023,0.00023606086804390717
-0.4769171253898321,-0.4769171253898321,1.0001369287710888,0.0002530755661808397
-0.4767902438120245,-0.4767902438120245,1.0004277108262936,0.0002353587930914003
-0.47662964092176024,-0.47662964092176024,1.000241951137626,0.0002564311671784012
-0.4764709524707314,-0.4764709524707314,0.9999882041575873,0.0002449333963210496
-0.47635721976841977,-0.47635721976841977,1.000339494724221,0.000246099726094101
-0.4762760037654289,-0.4762760037654289,1.0002177197776763,0.00024435728716703446
-0.47615430239511625,-0.47615430239511625,0.9999822385571212,0.00024751403678041867
-0.4760697967999022,-0.4760697967999022,0.9999522237380216,0.0002457252017377909
-0.4759761307205054,-0.4759761307205054,1.0000877361611002,0.00024364582598586587
-0.4758321418641572,-0.4758321418641572,1.0002253708636466,0.00023946400180447359
-0.47568901280610587,-0.47568901280610587,1.0004595918459678,0.00023469150776463484
-0.47551212968032813,-0.47551212968032813,1.0002023643625382,0.0002495698898792487
-0.4753518944931329,-0.4753518944931329,0.9996186207619834,0.00023283146024812669
-0.47519729326591004,-0.47519729326591004,0.9994152536339879,0.0002510449306263553
-0.4749868983198439,-0.4749868983198439,1.0001901133024642,0.00023354327213749156
-0.4748492146346962,-0.4748492146346962,0.9999491177110313,0.00024810071302068244
-0.47474005227832095,-0.47474005227832095,1.0000700586314462,0.0002492984811482334
-0.474598218837923,-0.474598218837923,0.999988018559365,0.0002522372993544058
-0.4745338551324039,-0.4745338551324039,1.0001851424668773,0.00025029109646551335
-0.47434989789287557,-0.47434989789287557,1.0001425971224676,0.00024157962777222414
-0.47424263791911014,-0.47424263791911014,1.0004209162376791,0.0002563339885070357
-0.4740779320701449,-0.4740779320701449,1.0000078017751277,0.00023645547846864803
-0.4738814145760898,-0.4738814145760898,0.9998969302114074,0.00024934606479089455
-0.4737367043636141,-0.4737367043636141,1.0001769299710341,0.0002353329115543717
-0.4735586787658576,-0.4735586787658576,1.0001213976088903,0.00025322806229809093
-0.4733944474664895,-0.4733944474664895,1.0001408559215619,0.00024866476070865926
-0.4733036751990312,-0.4733036751990312,0.9997893178179762,0.0002460326930250302
-0.47320542923528136,-0.47320542923528136,1.0002646896676723,0.00024492530421627197
-0.473089548734265,-0.473089548734265,1.0001475854028108,0.0002516273823390207
-0.47299563158937874,-0.47299563158937874,1.0000964948659,0.0002409075163940848
-0.47292257079625416,-0.47292257079625416,0.9998086002915161,0.00024366741874701881
-0.4727786088693847,-0.4727786088693847,0.999454143017342,0.0002394960104663823
-0.4726354713781575,-0.4726354713781575,1.0001228863484057,0.00023469595889045466
-0.47245858350245273,-0.47245858350245273,0.9999636235154297,0.00024954649108821384
-0.47229835880295923,-0.47229835880295923,0.9998864143153738,0.0002328855511230557
-0.47214377891027653,-0.47214377891027653,1.0004057100986234,0.00025110316794589414
-0.4719333833371138,-0.4719333833371138,0.9998545058463517,0.0002336038554616427
-0.4717957245658454,-0.4717957245658454,1.0000159900682037,0.0002480814464910318
-0.47168653736455324,-0.47168653736455324,0.9999419073552401,0.0002492518919156838
-0.4715446553172796,-0.4715446553172796,0.9999732923216775,0.0002522499672366735
-0.4714803303286089,-0.4714803303286089,0.9998548585495101,0.0002503486115015011
-0.4712963531501373,-0.4712963531501373,0.9997548184838143,0.0002417694118551238
-0.47118908251054564,-0.47118908251054564,1.0001643775362399,0.0002561732633182787
-0.47102437612195447,-0.47102437612195447,1.0000260599802782,0.00023654340198249395
-0.4708278741418326,-0.4708278741418326,1.000009866065878,0.0002493618874454029
-0.4706831649245487,-0.4706831649245487,1.0001850374801593,0.00023532653329576898
-0.4705051423145278,-0.4705051423145278,0.999964886405114,0.00025310853131529806
-0.4703569029788923,-0.4703569029788923,1.0000295498706637,0.00024818150246386114
-0.4702678867153736,-0.4702678867153736,1.0001066854713343,0.00023584930883929802
-0.47017979975071283,-0.47017979975071283,0.9998299081578479,0.00025826013050928
-0.47004724065236586,-0.47004724065236586,1.0000933201313813,0.0002474958351606705
-0.469962654794017,-0.469962654794017,1.0000115077688512,0.00024575548357303346
-0.469869010883167,-0.469869010883167,1.0001759823419474,0.0002436184371265904
-0.4697036579108499,-0.4697036579108499,0.9996852452164349,0.00024269914980435542
-0.4695692216132329,-0.4695692216132329,1.0000374704704345,0.00023128233881430007
-0.4694050373275104,-0.4694050373275104,1.0001005176573479,0.0002495118687324765
-0.4692448231388653,-0.4692448231388653,1.000091879877828,0.00023289060285946317
-0.46909026455034564,-0.46909026455034564,1.0001056347538333,0.00025110097791199913
-0.4688798683575442,-0.4688798683575442,1.0000833767424022,0.00023357295819611
-0.46874223451184205,-0.46874223451184205,1.000101169959774,0.00024814338072154824
-0.46863302246542843,-0.46863302246542843,0.9996613242055522,0.00024923432767810116
-0.46849109179968307,-0.46849109179968307,0.999967442374329,0.00025227368613105563
-0.46842680553411353,-0.46842680553411353,0.9998039876674694,0.0002503460275464336
-0.46824280843309224,-0.46824280843309224,1.000174335807706,0.0002419319831138008
-0.468135527106665,-0.468135527106665,0.9998793661851041,0.00025616665758744614
-0.46797082018902075,-0.46797082018902075,1.00014979708745,0.00023682125602087455
-0.46777433371223653,-0.46777433371223653,0.9999816512097677,0.00024936508140255764
-0.46762962549569237,-0.46762962549569237,0.9999730973954278,0.0002353191247631649
-0.4674516058833206,-0.4674516058833206,1.00022908017999,0.0002530844097807952
-0.46728739534830765,-0.46728739534830765,1.0000632803463447,0.00024864438827587143
-0.46719658613510545,-0.46719658613510545,0.9999115575480678,0.0002460831806046506
-0.46709833679576607,-0.46709833679576607,0.9997575114433419,0.0002449618296545093
-0.46698247509166324,-0.46698247509166324,1.0001309189253724,0.00025172087399654255
-0.4668863547810588,-0.4668863547810588,0.9998275540173018,0.00024345775018996314
-0.46679356481299694,-0.46679356481299694,1.000021471176193,0.00024298784083524386
-0.46661001089569254,-0.46661001089569254,0.9999175097474943,0.00024558497618522404
-0.4665056515323386,-0.4665056515323386,1.0003505436324307,0.00022678876733672474
-0.4663051932152257,-0.4663051932152257,0.9997745538982172,0.00023929910493207196
