time,time,flux,flux_err
-0.4994091140398306,-0.4994091140398306,1.0001338749120376,0.0006976992023550393
-0.4974757827988583,-0.4974757827988583,1.0001075889464193,0.0006851812037119453
-0.4957614255723115,-0.4957614255723115,0.9994926302807333,0.0006955989147853313
-0.49385308077243434,-0.49385308077243434,0.999156104029955,0.0006969741132418189
-0.4920503509520131,-0.4920503509520131,1.000390763635501,0.0006259589857293724
-0.49075077773632075,-0.49075077773632075,1.0002365775030628,0.0006365972769534643
-0.48892248298525376,-0.48892248298525376,1.0004860719836217,0.000625828231229091
-0.487677245987652,-0.487677245987652,1.000488130028168,0.0006368400643353315
-0.4858308518740387,-0.4858308518740387,1.0005709544881243,0.0006383587694238246
-0.48449065198230984,-0.48449065198230984,0.9999509112668692,0.000623882198500629
-0.4828790200421963,-0.4828790200421963,1.0000470310534741,0.0006376900404521692
-0.4812990000941454,-0.4812990000941454,1.0005315673943178,0.0006260069673772815
-0.47986302683470966,-0.47986302683470966,0.9997912665601923,0.0006359815520389566
-0.478160278766336,-0.478160278766336,0.9996731979304624,0.0006259029111721664
-0.4768607499898053,-0.4768607499898053,1.0003583469436006,0.0006359063643223037
-0.4750323502884385,-0.4750323502884385,1.000313050713779,0.0006254787521693069
-0.47378719905445904,-0.47378719905445904,0.999443751367002,0.0006359161664115859
-0.471940714959851,-0.471940714959851,1.0000007161950086,0.000637484212263845
-0.47060064648462685,-0.47060064648462685,0.9999621461696421,0.000623862088251223
-0.46898891346233995,-0.46898891346233995,0.9996212535965736,0.0006375767324171769
-0.46740897725769626,-0.46740897725769626,0.9999379060222582,0.0006256403553934161
-0.46597292796668627,-0.46597292796668627,0.9995911168562053,0.0006349936058526971
-0.4642702075492252,-0.4642702075492252,1.0004012119722765,0.0006258378473766016
-0.4629707228691814,-0.4629707228691814,1.0002093407437003,0.0006350803458907393
-0.46114221847096815,-0.46114221847096815,0.9997031351966787,0.000625089852535114
-0.45989715268760845,-0.45989715268760845,1.0002576164309,0.0006353130598985259
-0.4580505788431992,-0.4580505788431992,1.000310585532284,0.0006370283844030387
-0.4567106420080336,-0.4567106420080336,1.0004601221605465,0.0006237690282881818
-0.4550988074188808,-0.4550988074188808,1.0001483646086438,0.0006363467122244122
-0.4535189553901091,-0.4535189553901091,1.0005296256047749,0.0006259114677746149
-0.45208282969467745,-0.45208282969467745,1.0002838454465695,0.0006348494670158811
-0.45038013730084003,-0.45038013730084003,0.9997670336288296,0.0006252607904485673
-0.44908069642658577,-0.44908069642658577,0.999713472171897,0.0006343695222072933
-0.4472520875550117,-0.4472520875550117,0.9996385078033849,0.0006253903349551503
-0.4460071069391233,-0.4460071069391233,1.0001762212744996,0.0006343030757681104
-0.4441604434862711,-0.4441604434862711,0.9995039878842498,0.0006355198661145767
-0.44282063858918264,-0.44282063858918264,1.000066861268075,0.000624024390277246
-0.4412087018894681,-0.4412087018894681,1.0007513886713244,0.0006357174341705015
-0.4396289344388379,-0.4396289344388379,0.999436228211222,0.0006258465167427506
-0.4381927320114073,-0.4381927320114073,0.999185941250716,0.0006341449173092673
-0.4364456200251425,-0.4364456200251425,0.999502783204982,0.0006251097943821141
-0.4351906706619502,-0.4351906706619502,1.0010618258942343,0.0006336958885709982
-0.43325083759882543,-0.43325083759882543,0.9998251160737119,0.0006255276349135382
-0.4321170617794678,-0.4321170617794678,0.999813508309561,0.0006331806369302341
-0.43015918899236566,-0.43015918899236566,0.9998963448739934,0.0006345658728340848
-0.4289306361913532,-0.4289306361913532,0.9992165137183588,0.0006237964674221325
-0.42720747694729655,-0.42720747694729655,1.000044957102874,0.0006343748097184601
-0.42569567054290475,-0.42569567054290475,0.9994296656229386,0.0006237821843814693
-0.42423475891050655,-0.42423475891050655,1.000121352514294,0.0006345108498591401
-0.4225160015849042,-0.4225160015849042,1.0002567486595448,0.00062377710241009
-0.42125129953353735,-0.42125129953353735,1.0007716866761522,0.0006336687804451372
-0.41930706830264625,-0.41930706830264625,1.0006610639242497,0.0006334218336290505
-0.4181695363323115,-0.4181695363323115,1.0002611771492735,0.0006240000580506251
-0.41618897676539746,-0.41618897676539746,1.000906563228528,0.0006335240013958187
-0.4150095922192577,-0.4150095922192577,0.9995346315477643,0.0006241323190902793
-0.41314122945163945,-0.41314122945163945,0.9997569836499247,0.0006332750298721067
-0.4113768258182972,-0.4113768258182972,0.9998189740848481,0.000625473415390724
-0.4100108321972584,-0.4100108321972584,1.000691350974654,0.000631939554798135
-0.4081949460612805,-0.4081949460612805,0.9998542528647428,0.0006323981233771792
-0.4068352785199522,-0.4068352785199522,0.9998232784460264,0.0006236170576291455
-0.4050769085392858,-0.4050769085392858,0.9996121754070263,0.0006323756222465756
-0.40367531150036484,-0.40367531150036484,1.0000689097454254,0.000623662884227858
-0.4020291763605428,-0.4020291763605428,0.999436577219259,0.0006325272506742237
-0.4005363133659102,-0.4005363133659102,0.9991412351701451,0.0006234023702471036
-0.3989828605013372,-0.3989828605013372,0.99988270209322,0.0006327959069262776
-0.39735435918657913,-0.39735435918657913,0.9999247471773659,0.0006304480889309838
-0.3958962145050691,-0.3958962145050691,1.0007885560307297,0.000625182973099374
-0.3942363697723522,-0.3942363697723522,1.0001085492294932,0.0006305639187413613
-0.39286485561394785,-0.39286485561394785,1.0005146271211809,0.0006257166017124381
-0.39107570404289616,-0.39107570404289616,0.9997121658651809,0.0006317952155568984
-0.3897852645142166,-0.3897852645142166,0.9997260351261013,0.0006241143897673899
-0.3880279904704366,-0.3880279904704366,0.9991939652091222,0.0006320056154279338
-0.38664621807376987,-0.38664621807376987,0.9999696168665269,0.000623705423578274
-0.3850261949133483,-0.3850261949133483,0.9997783135837264,0.0006318228053421927
-0.38346417809418654,-0.38346417809418654,1.0004899811487815,0.0006299275970744103
-0.382006226123508,-0.382006226123508,1.0001357518790266,0.0006250556414866195
-0.3803462563216954,-0.3803462563216954,0.9994880175766252,0.0006302632195477471
-0.3789748197828885,-0.3789748197828885,1.0005893549563525,0.0006256693193018683
-0.3771856203751668,-0.3771856203751668,1.0009335832920692,0.0006314241554699857
-0.3758952186756915,-0.3758952186756915,1.0002905419415093,0.0006239572340796635
-0.3741379250957834,-0.3741379250957834,0.9989233123393493,0.0006316968002521622
-0.3727561239289571,-0.3727561239289571,1.0007842845144677,0.0006232387485699383
-0.3711362019567332,-0.3711362019567332,1.0005983187775143,0.0006317310375494033
-0.36957399791822354,-0.36957399791822354,1.0001079972370175,0.0006293704315806189
-0.3681162385167909,-0.3681162385167909,1.0001675132777383,0.0006252119423407323
-0.36645614380990993,-0.36645614380990993,0.9995274705737909,0.0006298188902781349
-0.3650847847269006,-0.3650847847269006,1.0001203255176914,0.0006249823525069689
-0.3632955375865322,-0.3632955375865322,0.9994501219071349,0.0006311767301384325
-0.36200517395477616,-0.36200517395477616,1.000013216749982,0.0006239623924741837
-0.3602478602278779,-0.3602478602278779,0.9992964637188798,0.0006311665056609518
-0.35886603093917985,-0.35886603093917985,1.0005100626388561,0.0006236459065033538
-0.357246209633422,-0.357246209633422,1.000191204152281,0.0006317919789913157
-0.3556838186736059,-0.3556838186736059,0.999805130918873,0.0006299000814681255
-0.35422625160294957,-0.35422625160294957,0.99945252321988,0.0006251444743999579
-0.3525660322890872,-0.3525660322890872,0.999315258670384,0.000629538601190445
-0.35119475039348347,-0.35119475039348347,1.0006467107993404,0.0006249814900579777
-0.34940545568449577,-0.34940545568449577,1.0001261631160052,0.0006310961950018021
-0.3481151304483774,-0.3481151304483774,0.9997557510926267,0.0006240720364515107
-0.3463577958888209,-0.3463577958888209,1.0006197001600778,0.000631441841815939
-0.344975939133883,-0.344975939133883,1.0006935123792582,0.0006237930421706751
-0.3433562179584214,-0.3433562179584214,0.999701007570993,0.000631377197201693
-0.34179364039032406,-0.34179364039032406,1.0002085476557439,0.0006300979485656985
-0.3403362654417606,-0.3403362654417606,0.9990286851162088,0.0006253347782995023
-0.3386759217742338,-0.3386759217742338,0.9999037207937549,0.0006298843683409958
-0.33701874856496944,-0.33701874856496944,1.0000110824755024,0.0006251378847575852
-0.3352166096008432,-0.3352166096008432,1.0000154970034782,0.0006312366824853602
-0.3338263299960545,-0.3338263299960545,0.9998149113915641,0.0006235520253960251
-0.3321244043561592,-0.3321244043561592,0.9998204013883105,0.000631174097056292
-0.3305790799066017,-0.3305790799066017,1.0003018331470037,0.0006297222176228467
-0.32906683207838794,-0.32906683207838794,1.0004504659686995,0.0006248802452322826
-0.327499039798181,-0.327499039798181,1.0001788099130278,0.0006300633621299219
-0.3259704512729513,-0.3259704512729513,0.9996675345656512,0.0006251941197144581
-0.32440331059324307,-0.32440331059324307,1.000003667026927,0.00063084977753049
-0.32289081583423923,-0.32289081583423923,1.0002617593100154,0.0006240058903697752
-0.32132657043177915,-0.32132657043177915,1.000707091106739,0.000631336688545394
-0.31978064862253175,-0.31978064862253175,0.999909761385289,0.0006234282234916001
-0.3182343564319353,-0.3182343564319353,0.9998134926488793,0.0006306945877892037
-0.31668896075605063,-0.31668896075605063,0.9994546530218351,0.0006293833140771079
-0.3151768099873607,-0.3151768099873607,0.9998643458109064,0.0006250730520415102
-0.3136089683725686,-0.3136089683725686,0.9999422793993947,0.0006293164326295369
-0.3120804191302568,-0.3120804191302568,0.9998430230958771,0.000625239750449456
-0.310513231284358,-0.310513231284358,1.0001508925758475,0.0006309682521544632
-0.30900077569581297,-0.30900077569581297,1.0010703449491771,0.0006236172264663954
-0.30743653194806486,-0.30743653194806486,0.9994783734672946,0.0006307047703480757
-0.3058905359022219,-0.3058905359022219,0.9998819155796163,0.000623748619440398
-0.30434430918578526,-0.30434430918578526,0.9999104327381465,0.0006308965104066661
-0.30279884264095924,-0.30279884264095924,1.0004008291060391,0.000629694227158665
-0.30128678872322323,-0.30128678872322323,0.9999887326249693,0.0006251600722152601
-0.2997188979751854,-0.2997188979751854,1.0004367831990433,0.0006296798675129217
-0.2981903877401919,-0.2981903877401919,0.9997581636345718,0.0006246950530959174
-0.29662315295909136,-0.29662315295909136,0.9992466430125937,0.0006310396278879206
-0.2951107368090561,-0.2951107368090561,1.0004742279603434,0.0006240557168658918
-0.29354649412766776,-0.29354649412766776,0.9994912640278886,0.0006305952590970191
-0.29200042428458345,-0.29200042428458345,0.9999262980880665,0.0006236312707818615
-0.29045426256552676,-0.29045426256552676,0.999635910952556,0.000630425105981034
-0.2889087255767208,-0.2889087255767208,1.0001503498943662,0.0006296462299826613
-0.28739676825643984,-0.28739676825643984,1.0009458623722671,0.0006254183923992793
-0.2858288285835897,-0.2858288285835897,1.000152052647745,0.0006295527905233658
-0.28430035716971813,-0.28430035716971813,0.9990554929204801,0.0006248517933590661
-0.2827330755948424,-0.2827330755948424,1.0002510134435338,0.0006303931226160353
-0.2812206991815856,-0.2812206991815856,1.0003224666280333,0.0006240268970580468
-0.27965645700023745,-0.27965645700023745,0.9997100567971196,0.0006300267759790973
-0.2781103138069739,-0.2781103138069739,0.999540471039791,0.0006235242695961237
-0.27656421661604325,-0.27656421661604325,1.0008407466723046,0.0006299979528610088
-0.2750186095628351,-0.2750186095628351,0.9991622261362659,0.0006287987027467572
-0.2735067486165462,-0.2735067486165462,1.0001003417816223,0.0006246091237339291
-0.2719387602202687,-0.2719387602202687,1.000385127550427,0.0006292819658407494
-0.2704103273516921,-0.2704103273516921,1.000470848205082,0.0006246541875091318
-0.26884299926632593,-0.26884299926632593,0.9998268740680482,0.0006302078008227596
-0.2673306628430282,-0.2673306628430282,1.0002804906149396,0.0006240803846142395
-0.26576642057307254,-0.26576642057307254,0.9992646858725566,0.0006296119808549907
-0.2642202044768055,-0.2642202044768055,1.0006675487080505,0.0006236187543099728
-0.26267417130713966,-0.26267417130713966,1.000960107366766,0.0006296851411116699
-0.26112849463686416,-0.26112849463686416,0.9996486258717432,0.0006285467292343209
-0.25961672978903605,-0.25961672978903605,0.9995698734190256,0.0006246021447400859
-0.2580486929224435,-0.2580486929224435,0.9999311337733487,0.0006281822015901165
-0.2565202983458903,-0.2565202983458903,0.9998948718166396,0.0006246317202276076
-0.25495292394364244,-0.25495292394364244,1.000217837771038,0.0006291986717817602
-0.25344062783112803,-0.25344062783112803,0.999986122772835,0.0006235323296255833
-0.2518763848388744,-0.2518763848388744,0.9997875758606443,0.0006297573222664688
-0.2503300963538777,-0.2503300963538777,1.0000633308026097,0.0006235740817013594
-0.24878412673599543,-0.24878412673599543,0.9993257431421082,0.000629109869228803
-0.2472383808213408,-0.2472383808213408,1.0000495081330503,0.0006280550720812583
-0.24572671184814682,-0.24572671184814682,0.9999504685385568,0.0006245664184503318
-0.24415862672005914,-0.24415862672005914,1.0002711565737723,0.0006275624005324116
-0.24263027011504618,-0.24263027011504618,1.000883841729608,0.0006247095150272967
-0.2407643567910327,-0.2407643567910327,1.000255689932667,0.0006290007230717827
-0.23907018865540977,-0.23907018865540977,1.0008367752556173,0.0006278855771855834
-0.23739270148598735,-0.23739270148598735,1.0000307357174258,0.0006246889219340837
-0.23557065936272464,-0.23557065936272464,1.0003660203800322,0.0006286927530188148
-0.23391909152207974,-0.23391909152207974,0.9995035322541084,0.0006232255657169206
-0.23211607407617976,-0.23211607407617976,0.9997522695951833,0.000628830456784328
-0.2303969408549392,-0.2303969408549392,0.9996173138924455,0.0006277155228667088
-0.22874024271134202,-0.22874024271134202,1.0002222542705983,0.0006251548475755258
-0.22687432233842628,-0.22687432233842628,0.9996675679195327,0.0006285176142192064
-0.22518003253985625,-0.22518003253985625,0.9998239928299709,0.0006274182313215965
-0.22350268484913158,-0.22350268484913158,0.9996675883399264,0.0006251592907635255
-0.22168059991920472,-0.22168059991920472,0.9998934847551787,0.0006285441112387554
-0.22002902450010425,-0.22002902450010425,0.9999877614905064,0.0006238925486411341
-0.2182260310026777,-0.2182260310026777,1.0003839424456715,0.0006287518494567335
-0.21650685314118617,-0.21650685314118617,1.0004501937855814,0.0006273611074457897
-0.21485021614930702,-0.21485021614930702,0.9998528949262591,0.0006246536665554179
-0.2130448198266322,-0.2130448198266322,0.9997991323960598,0.0006666301736724012
-0.2116949847249998,-0.2116949847249998,0.9995780663421231,0.0006233605687134986
-0.2100439438218018,-0.2100439438218018,0.9997855276589609,0.0006666451159544785
-0.208489622087518,-0.208489622087518,1.0006100335860606,0.0006270072858141015
-0.20702404620510606,-0.20702404620510606,0.999400980090636,0.0006615992477395236
-0.20528366387029565,-0.20528366387029565,1.0005732899560207,0.0006273403857544458
-0.20399204190894124,-0.20399204190894124,0.9997698853048421,0.0006609026738696634
-0.20213943151386501,-0.20213943151386501,0.999991539094721,0.000662548266873489
-0.20084907083046347,-0.20084907083046347,1.000509157385729,0.0006251985238389523
-0.19915474992919827,-0.19915474992919827,1.000326979541346,0.0006629765708889419
-0.19769379952708732,-0.19769379952708732,0.9999386562817907,0.0006232636703066954
-0.19615394803370237,-0.19615394803370237,0.9996642120011341,0.0006625175771044695
-0.19451057164137636,-0.19451057164137636,0.99960460026352,0.0006272287894302485
-0.1931340567132338,-0.1931340567132338,1.0001836439010576,0.0006584165631117889
-0.1913935773562571,-0.1913935773562571,0.998906701673179,0.0006269628041597547
-0.19010200533286933,-0.19010200533286933,1.0000689180296047,0.0006579284702692878
-0.18824937033421066,-0.18824937033421066,1.0004842253673492,0.0006593062084283886
-0.18695904592282203,-0.18695904592282203,0.9998745377091313,0.0006244854943262799
-0.1852646803967673,-0.1852646803967673,1.0001234190852668,0.0006595935897146878
-0.1838037348223452,-0.1838037348223452,1.000242162396936,0.0006234582986736957
-0.18226395276731183,-0.18226395276731183,0.9999648735281532,0.000659738470811305
-0.18062041750786192,-0.18062041750786192,1.0000259816790036,0.0006271670661171686
-0.17924406782478855,-0.17924406782478855,0.9994563811634254,0.0006554450634366292
-0.1775034915426204,-0.1775034915426204,1.0009271051992918,0.0006268870507472586
-0.17621196936038358,-0.17621196936038358,1.000281240544029,0.0006553004347284721
-0.17435930957165055,-0.17435930957165055,0.999896780626005,0.0006571329163131275
-0.17306902187199286,-0.17306902187199286,1.0001205470038552,0.0006247777145373443
-0.17137461128154427,-0.17137461128154427,0.9997989866548253,0.0006577597541493429
-0.16991367103405536,-0.16991367103405536,1.0001992951993066,0.0006233770330437723
-0.1683739580446854,-0.1683739580446854,1.0002427017707007,0.0006573117540561111
-0.16673026400758317,-0.16673026400758317,0.99959079196397,0.0006268086540286688
-0.1653540795921799,-0.1653540795921799,1.0007860052754534,0.00065405745554498
-0.16361340639193714,-0.16361340639193714,1.0000029608707435,0.0006271491034983084
-0.16232193407315662,-0.16232193407315662,0.9993457565945804,0.0006535692070220695
-0.160469249256289,-0.160469249256289,0.999238218049238,0.0006553853282637236
-0.15917899868545646,-0.15917899868545646,0.9999437806036834,0.0006246891229596238
-0.15748454256138303,-0.15748454256138303,0.9998357531583713,0.0006558366075430285
-0.1560236081100584,-0.1560236081100584,0.9999732680788718,0.0006237817372810879
-0.15448396391061578,-0.15448396391061578,0.9998850394170427,0.0006562110131988245
-0.15284011113319593,-0.15284011113319593,1.0001646619478008,0.0006270318715053333
-0.1514640919852809,-0.1514640919852809,0.9996582742687046,0.0006523586676413334
-0.1497233219642112,-0.1497233219642112,1.000046859634757,0.0006269186605443583
-0.14843189947898736,-0.14843189947898736,0.9996448683492906,0.0006520412496370323
-0.14657918933587552,-0.14657918933587552,1.0009321631136165,0.0006542753236810666
-0.1452889763410667,-0.1452889763410667,0.9998703156493786,0.0006245831640402917
-0.14359447421370533,-0.14359447421370533,0.9997247216341378,0.000654967854941345
-0.1421335460728642,-0.1421335460728642,1.0004007288760997,0.0006239673247954185
-0.1405939703354761,-0.1405939703354761,1.0000913679833439,0.000654713290244351
-0.13883883790003892,-0.13883883790003892,1.0003074026037715,0.0006265370865293902
-0.13757410502687434,-0.13757410502687434,0.9999628057198093,0.0006507477755909893
-0.13572211719990718,-0.13572211719990718,0.9997362446573825,0.0006263765954845848
-0.1344307445261393,-0.1344307445261393,1.0005727942853853,0.0006509043298639465
-0.13268912989237833,-0.13268912989237833,0.9999038930797516,0.000652208310004904
-0.131287833853753,-0.131287833853753,1.0003256514318486,0.0006242774947146611
-0.12970440631315797,-0.12970440631315797,0.9998952349203079,0.0006530473056780971
-0.12813236397491892,-0.12813236397491892,1.0003217713670889,0.0006239442356456139
-0.12670397739368583,-0.12670397739368583,0.998993215668591,0.0006528379175332223
-0.12494868635194507,-0.12494868635194507,1.0004519397874376,0.0006265434806138341
-0.12368411873144396,-0.12368411873144396,0.999849432944195,0.0006495431114752019
-0.1218320341357412,-0.1218320341357412,1.0000853910013991,0.0006264606842618055
-0.12054071132522495,-0.12054071132522495,0.9996187783457149,0.0006496114261392656
-0.11879907091088171,-0.11879907091088171,1.0005004612021988,0.0006506547833595215
