time,time,flux,flux_err
-0.4999183564808239,-0.4999183564808239,0.9999612304865826,3.656642992599455e-05
-0.49962607589623076,-0.49962607589623076,1.000042943290038,3.655532717396587e-05
-0.49939068751579424,-0.49939068751579424,1.0000110488725469,3.664380775375685e-05
-0.49915418732052785,-0.49915418732052785,0.9999308799380717,3.34356901703067e-05
-0.49899178055711674,-0.49899178055711674,1.000014626710581,3.381701256462542e-05
-0.49890116346869035,-0.49890116346869035,1.0000431765064792,3.327621078675617e-05
-0.4988010882661911,-0.4988010882661911,1.0000391150969303,3.428787195483487e-05
-0.4986796846416837,-0.4986796846416837,0.9999547596947942,3.361971287146632e-05
-0.4985893522483821,-0.4985893522483821,1.0000493764654863,3.360244163086607e-05
-0.4985127469859435,-0.4985127469859435,0.9999504478593357,3.331827345780169e-05
-0.4983777636611194,-0.4983777636611194,1.0000699831089839,3.354221027192298e-05
-0.4980110152777343,-0.4980110152777343,1.0000199503254874,3.3629542279124e-05
-0.49776852310023967,-0.49776852310023967,1.0000088171058152,3.351760838831256e-05
-0.4975919034724939,-0.4975919034724939,0.9999857360039803,3.346520028084877e-05
-0.49745817635048295,-0.49745817635048295,1.0000199922109962,3.354781492025884e-05
-0.4973509087561979,-0.4973509087561979,0.9999501189642739,3.364406958562446e-05
-0.49729223520043886,-0.49729223520043886,1.0000201472223316,3.368776282366448e-05
-0.49714972043875605,-0.49714972043875605,0.9999956366842457,3.3515178799799944e-05
-0.4970088706439128,-0.4970088706439128,1.000052529076801,3.352777404128702e-05
-0.49687262133084004,-0.49687262133084004,1.0000026257093393,3.355958935501108e-05
-0.4967646069046168,-0.4967646069046168,0.9999665756559504,3.3475703975743754e-05
-0.49670668718099475,-0.49670668718099475,1.0000688493052414,3.3624383063521355e-05
-0.49661573205448806,-0.49661573205448806,0.9999207432775293,3.3632839290965644e-05
-0.4964868728609872,-0.4964868728609872,1.0000134579553959,3.355269173692413e-05
-0.49633432664559224,-0.49633432664559224,1.0000531457585056,3.334878537658166e-05
-0.49616925454392913,-0.49616925454392913,1.0000399312221135,3.345366890507554e-05
-0.49602545874004134,-0.49602545874004134,0.9999324662242042,3.3601950881562866e-05
-0.49585160111601,-0.49585160111601,1.0000074468191122,3.357402702531173e-05
-0.4956277154829877,-0.4956277154829877,1.0000187446411037,3.3660720063015595e-05
-0.49546007054668734,-0.49546007054668734,0.999956556128546,3.3757471917604735e-05
-0.4953509368526284,-0.4953509368526284,1.0000129185707918,3.336825489770486e-05
-0.4951832737693621,-0.4951832737693621,0.9999880837344917,3.3710626398963773e-05
-0.494973654711066,-0.494973654711066,0.9999903367989905,3.348514524373549e-05
-0.4948578115989221,-0.4948578115989221,0.9999645658508498,3.365449142554644e-05
-0.49477263731023413,-0.49477263731023413,0.9999738139529516,3.340251564247725e-05
-0.4946343576571962,-0.4946343576571962,0.9999579908733173,3.3409260994373464e-05
-0.49435653334294327,-0.49435653334294327,1.0000168781689975,3.3362989024331715e-05
-0.4942972443517647,-0.4942972443517647,1.0000170201767844,3.356862406347844e-05
-0.49411671117704825,-0.49411671117704825,1.0000125818140266,3.343202963804967e-05
-0.49392891169554787,-0.49392891169554787,1.0000502313148605,3.3390302853191544e-05
-0.4937857443910616,-0.4937857443910616,0.999949749489146,3.349105219969937e-05
-0.49364801126284874,-0.49364801126284874,1.0000839483821362,3.376072948490241e-05
-0.49352743579947855,-0.49352743579947855,1.0000640480547893,3.369408554398077e-05
-0.49321696967308526,-0.49321696967308526,1.0000539000220745,3.3836658104445985e-05
-0.4930731331842253,-0.4930731331842253,1.0000410917303924,3.3737489889037254e-05
-0.4929643472722091,-0.4929643472722091,1.0000386379449264,3.3634697022680415e-05
-0.4928524506627582,-0.4928524506627582,0.999957568918003,3.355202611244629e-05
-0.4927109838856268,-0.4927109838856268,0.9999450403047154,3.348244387426615e-05
-0.49259207347931805,-0.49259207347931805,1.000055414905459,3.361353972594442e-05
-0.4924846696994791,-0.4924846696994791,1.0000364518626674,3.333359875444339e-05
-0.492274350477237,-0.492274350477237,0.9999631877926326,3.324394396752149e-05
-0.4920932137858472,-0.4920932137858472,1.0000052660496062,3.351008912675738e-05
-0.491929593259556,-0.491929593259556,1.0000269024306878,3.344661413888195e-05
-0.4916979902569437,-0.4916979902569437,0.9999783137496101,3.3449926932526155e-05
-0.49152847549848955,-0.49152847549848955,1.0000183444419055,3.3726535444983506e-05
-0.49145422918445547,-0.49145422918445547,0.9999781598354607,3.332480275888483e-05
-0.49127150570275263,-0.49127150570275263,0.9999851049900818,3.3645642386725676e-05
-0.49119269503498797,-0.49119269503498797,1.0000384037307506,3.377058634065991e-05
-0.4910866430072929,-0.4910866430072929,1.0000700516426604,3.3539451770661284e-05
-0.4909801255875209,-0.4909801255875209,1.0000408743889584,3.3670519854566635e-05
-0.4907588402391411,-0.4907588402391411,0.999958497669289,3.3758287677076446e-05
-0.4904951626725961,-0.4904951626725961,1.000056342299303,3.355369598514055e-05
-0.49031241375705575,-0.49031241375705575,1.0000080386211985,3.35252638521592e-05
-0.4901262729268637,-0.4901262729268637,1.000030995595374,3.355069671653164e-05
-0.4900082207364903,-0.4900082207364903,1.000040567702111,3.3432548008945136e-05
-0.48987204499717335,-0.48987204499717335,1.0000808769506448,3.3676772976937565e-05
-0.48974018498629446,-0.48974018498629446,1.0000165591903118,3.386924134972725e-05
-0.48959276400855745,-0.48959276400855745,1.0000393924240827,3.3514659405291354e-05
-0.4894776933120738,-0.4894776933120738,0.9999661112979229,3.332528829488682e-05
-0.4893261204699229,-0.4893261204699229,0.9999988920339595,3.3598854599310385e-05
-0.4892070933288778,-0.4892070933288778,1.000005270955713,3.356358794836019e-05
-0.48912737697246483,-0.48912737697246483,1.000033191653842,3.35628672587934e-05
-0.48900030551230883,-0.48900030551230883,1.000027658415882,3.3476893310082606e-05
-0.48883748547086725,-0.48883748547086725,1.0000893152046262,3.343827117016739e-05
-0.4886756447718653,-0.4886756447718653,1.0000477774954295,3.339738692136633e-05
-0.48854994087960224,-0.48854994087960224,1.0000620280115222,3.364120530000429e-05
-0.48837451093568235,-0.48837451093568235,0.9999960025154271,3.3563163610091116e-05
-0.48807658664081827,-0.48807658664081827,1.0000394657766947,3.347959396185668e-05
-0.4879707669460913,-0.4879707669460913,1.0000337558715144,3.386320557595452e-05
-0.48783973644167417,-0.48783973644167417,1.0000143588894805,3.33487941025011e-05
-0.4876501862781879,-0.4876501862781879,1.000004293214592,3.377802380337608e-05
-0.48742573026829633,-0.48742573026829633,0.9999717261202005,3.3551770784197764e-05
-0.4873206673830282,-0.4873206673830282,1.0000326440404286,3.3448220347788805e-05
-0.48723705881930074,-0.48723705881930074,1.000023517587774,3.3456081275452907e-05
-0.4870605405594688,-0.4870605405594688,0.9999987918534504,3.354491628636643e-05
-0.48691642645935646,-0.48691642645935646,1.0000121466284742,3.3398544955302605e-05
-0.4868160539641394,-0.4868160539641394,1.0000054499186435,3.3529647593930524e-05
-0.48663806687400213,-0.48663806687400213,1.0000238306500728,3.3423061850903985e-05
-0.48648941516075866,-0.48648941516075866,1.000079357070494,3.338941889609188e-05
-0.48637686973088423,-0.48637686973088423,1.000017456574508,3.349989464009434e-05
-0.48630971699458314,-0.48630971699458314,0.9999953220578603,3.355628141731076e-05
-0.4861363767835428,-0.4861363767835428,0.9999913406798268,3.380940075305398e-05
-0.4860141232449678,-0.4860141232449678,1.0000243066412036,3.3775668973221315e-05
-0.48574283016714614,-0.48574283016714614,1.0000656023463779,3.362223083803701e-05
-0.48550717356192763,-0.48550717356192763,0.9999795428457465,3.360507160452998e-05
-0.48541458775216595,-0.48541458775216595,1.0000409890757695,3.362106831122138e-05
-0.4853175938827917,-0.4853175938827917,0.9999085685284843,3.357982953856848e-05
-0.4852133758933633,-0.4852133758933633,1.0000030478252784,3.349499514024431e-05
-0.48499501895930736,-0.48499501895930736,0.9999921582724951,3.334445460275185e-05
-0.4848054109366785,-0.4848054109366785,0.9999922754126143,3.3314032500875065e-05
-0.4846583344733517,-0.4846583344733517,1.0001197698766817,3.349888193713655e-05
-0.48458744060553727,-0.48458744060553727,1.0000670910458518,3.350250838813739e-05
-0.4843778370792279,-0.4843778370792279,1.0000363434939428,3.3425346869728625e-05
-0.4842506623404915,-0.4842506623404915,0.999990427146478,3.3687416358620735e-05
-0.48411053093295775,-0.48411053093295775,1.0000430912182252,3.368745067972984e-05
-0.4839375328127062,-0.4839375328127062,1.0001865106010903,3.3413307055462464e-05
-0.4837703533019521,-0.4837703533019521,0.9999865535921149,3.373856876372419e-05
-0.48366468920648914,-0.48366468920648914,0.9999856508928209,3.3620189860684764e-05
-0.4835571890376741,-0.4835571890376741,1.0000266101554829,3.369053729400588e-05
-0.48348530020739416,-0.48348530020739416,1.0000246531198864,3.3698519266350196e-05
-0.48329457411673504,-0.48329457411673504,0.9999951759037605,3.370089977317065e-05
-0.4831487327501236,-0.4831487327501236,0.9999729848499271,3.351989813671523e-05
-0.4829524885280989,-0.4829524885280989,1.0000044447000898,3.354127224595363e-05
-0.48275303537011494,-0.48275303537011494,0.9999889754841942,3.3402020167407854e-05
-0.4825980577901646,-0.4825980577901646,0.9999451497778209,3.340110443433326e-05
-0.48241250909195516,-0.48241250909195516,0.9999774807019641,3.362033304993622e-05
-0.4822861412729253,-0.4822861412729253,1.0000031173217538,3.379488914771163e-05
-0.48214053313058686,-0.48214053313058686,0.9999833783176918,3.329075780008631e-05
-0.4820486301119672,-0.4820486301119672,0.9999820502468676,3.368437637215181e-05
-0.4819113717741857,-0.4819113717741857,0.9999949177384151,3.34852516757327e-05
-0.48178090880028324,-0.48178090880028324,1.0000177835295276,3.362506891327646e-05
-0.48168438937864266,-0.48168438937864266,0.9999445114468767,3.363327975069182e-05
-0.4815879076682904,-0.4815879076682904,1.0000292374326356,3.3686831799492e-05
-0.48149194698053177,-0.48149194698053177,1.0000434424426292,3.320333115936102e-05
-0.4812715264182771,-0.4812715264182771,1.0000994470388012,3.354113695648387e-05
-0.481090645094082,-0.481090645094082,0.9999714867227057,3.36070915246395e-05
-0.4808392781378643,-0.4808392781378643,1.0000289592047737,3.3486711019371084e-05
-0.4805997095128987,-0.4805997095128987,0.9999965470188323,3.343277875275371e-05
-0.480483200008166,-0.480483200008166,0.9999616577337289,3.348963148067464e-05
-0.4804334644926712,-0.4804334644926712,0.9999671537637338,3.359806917999334e-05
-0.4803399738280859,-0.4803399738280859,1.0000421884617008,3.370300740010783e-05
-0.4801506325340597,-0.4801506325340597,1.000027169722149,3.370740557308603e-05
-0.479988809691713,-0.479988809691713,1.0000417712914953,3.362473509299867e-05
-0.4798612010839861,-0.4798612010839861,0.9999849317868954,3.3350147891991924e-05
-0.47976644700756876,-0.47976644700756876,0.9999864651264682,3.3523855085200946e-05
-0.47960321037899123,-0.47960321037899123,0.9999669184524919,3.347124027971037e-05
-0.4795107671539881,-0.4795107671539881,0.9999425982603874,3.347238224465373e-05
-0.47938259343936807,-0.47938259343936807,0.9999302543481943,3.353500733498658e-05
-0.47922015586154887,-0.47922015586154887,0.9999816796285312,3.343636981789387e-05
-0.4790723866346525,-0.4790723866346525,0.9999923350760003,3.348354851554021e-05
-0.4788942091036006,-0.4788942091036006,1.000076775954722,3.342279795007863e-05
-0.47878484721295533,-0.47878484721295533,1.0000194174086137,3.365029072939824e-05
-0.4786640759280999,-0.4786640759280999,1.000007675524216,3.3732001547418465e-05
-0.4785771432703768,-0.4785771432703768,1.0000390531589773,3.3817089128738134e-05
-0.4783232445421163,-0.4783232445421163,1.000037468080315,3.341310863211982e-05
-0.478064900841855,-0.478064900841855,0.9999900721456647,3.354763944040166e-05
-0.47795697311885305,-0.47795697311885305,1.0000253928369993,3.362905351548033e-05
-0.4778888437569549,-0.4778888437569549,0.9999625199379715,3.365797104140704e-05
-0.4777876966487383,-0.4777876966487383,1.0000208937204138,3.350342230799494e-05
-0.4775542786970618,-0.4775542786970618,0.9999930243963904,3.34499363246987e-05
-0.4772971748134296,-0.4772971748134296,0.9999634513524697,3.3263533422502936e-05
-0.4771915085046203,-0.4771915085046203,0.9999866161434834,3.360846934987064e-05
-0.47704957247478885,-0.47704957247478885,0.9999490608136515,3.3473533752676954e-05
-0.4768436918464431,-0.4768436918464431,1.000064775924305,3.333850389439402e-05
-0.47672549097042066,-0.47672549097042066,1.0000750018848,3.394783609372007e-05
-0.47658495261421197,-0.47658495261421197,1.0000246968160287,3.369698525860837e-05
-0.47642285477631957,-0.47642285477631957,0.9999810631044704,3.351832063980996e-05
-0.4762510126944107,-0.4762510126944107,1.00003324998278,3.3663661388617816e-05
-0.4761530909985595,-0.4761530909985595,0.9999991997283273,3.366513363814389e-05
-0.4760557739711658,-0.4760557739711658,1.000037202868054,3.36721217555178e-05
-0.4760062168803415,-0.4760062168803415,0.9999970629687042,3.372629112092188e-05
-0.4757432055506797,-0.4757432055506797,0.999988573464314,3.349965075540912e-05
-0.47561050917065584,-0.47561050917065584,1.000034365188517,3.3409858499087756e-05
-0.47547143032206807,-0.47547143032206807,1.0000030615847497,3.3519543390550616e-05
-0.475259586131142,-0.475259586131142,1.000020697221021,3.338558977859764e-05
-0.47499125476606424,-0.47499125476606424,0.9999971209550264,3.3474785311785495e-05
-0.47482511949929174,-0.47482511949929174,0.9999951598864086,3.3630990659661124e-05
-0.4746837279577448,-0.4746837279577448,0.999993035576398,3.3513479988029604e-05
-0.47457518240553326,-0.47457518240553326,0.9999233191763974,3.364613015037833e-05
-0.47443716931520613,-0.47443716931520613,1.0000178726638456,3.349333788139774e-05
-0.4743365293928946,-0.4743365293928946,0.9999996283489019,3.367738747502487e-05
-0.4741873842263885,-0.4741873842263885,0.9999599046390912,3.370343129450778e-05
-0.4741136195138097,-0.4741136195138097,0.9998984062505487,3.3638525462169394e-05
-0.4740303119062446,-0.4740303119062446,1.0000163175174206,3.3215374210255834e-05
-0.47367746465606614,-0.47367746465606614,1.0000997205731847,3.3794436308351524e-05
-0.4733588339302514,-0.4733588339302514,0.9999928363443964,3.347690444390344e-05
-0.473106086817279,-0.473106086817279,0.9999237193039662,3.3403681623581124e-05
-0.4730103443871485,-0.4730103443871485,0.9999715623115941,3.352873544668691e-05
-0.4729535398982989,-0.4729535398982989,0.9999981451626281,3.3677522871555504e-05
-0.4728988381262752,-0.4728988381262752,1.0000159403013773,3.370551657346007e-05
-0.47265937386328005,-0.47265937386328005,1.0000249537189965,3.364691760383104e-05
-0.47251041927447657,-0.47251041927447657,1.0000228611185205,3.348926159561922e-05
-0.47237601382003047,-0.47237601382003047,1.0000229432567551,3.3541965272838477e-05
-0.4722768642961455,-0.4722768642961455,1.0000223828206685,3.3491620987958716e-05
-0.4721759045343788,-0.4721759045343788,1.0000285901409431,3.353259284326567e-05
-0.47202678517496677,-0.47202678517496677,1.000011806312168,3.335543556808452e-05
-0.47177900960596164,-0.47177900960596164,1.0000383311258596,3.343472656756804e-05
-0.4715643656825705,-0.4715643656825705,1.0000012068419435,3.345777025143175e-05
-0.4714102011806972,-0.4714102011806972,0.9999899741588371,3.356799165870739e-05
-0.4712432835774962,-0.4712432835774962,0.9999844318896157,3.362759990385411e-05
-0.47107904623117064,-0.47107904623117064,1.0000618678242241,3.393601407834907e-05
-0.47095019967819096,-0.47095019967819096,1.0000539886631874,3.332723313688965e-05
-0.4707005034179019,-0.4707005034179019,1.0000695245646773,3.365374691353171e-05
-0.4705174456947134,-0.4705174456947134,0.9999644347528832,3.3527883640313935e-05
-0.47042743907804835,-0.47042743907804835,0.9999850438645528,3.35442139002542e-05
-0.47036157118782285,-0.47036157118782285,0.999975724574384,3.3534316032778046e-05
-0.4702624413614103,-0.4702624413614103,0.9999767944842457,3.3589470563456066e-05
-0.469996478556277,-0.469996478556277,0.9999472302715805,3.335990929726091e-05
-0.4698551147033868,-0.4698551147033868,0.9999673469491162,3.3318171508716736e-05
-0.4697449514467735,-0.4697449514467735,1.000044460475065,3.37170391204998e-05
-0.46963431558106095,-0.46963431558106095,1.0000434177043929,3.339611862010769e-05
-0.4694246390819899,-0.4694246390819899,1.000045966463399,3.336267323184209e-05
-0.4692307641125808,-0.4692307641125808,1.000015606664714,3.390979398844662e-05
-0.46913290865995805,-0.46913290865995805,0.9999914621804544,3.36230957901577e-05
-0.4689775738916069,-0.4689775738916069,1.000012545780759,3.351001883331923e-05
-0.46877677984521143,-0.46877677984521143,1.0000742404768779,3.3708303361632835e-05
-0.46867541684405295,-0.46867541684405295,0.9999795540964362,3.3708265630783384e-05
-0.4685705345174938,-0.4685705345174938,1.000045896200144,3.376339694882134e-05
-0.46847202901772106,-0.46847202901772106,1.000062633097242,3.373384387250992e-05
-0.46829573207432984,-0.46829573207432984,1.0000669037737697,3.3510778204822234e-05
-0.46811424736879415,-0.46811424736879415,1.0000566632708394,3.347153675983682e-05
-0.467987742524565,-0.467987742524565,0.9999993878550285,3.336802674051456e-05
-0.46771470910534846,-0.46771470910534846,0.9999616735516058,3.3414341590926507e-05
-0.4675400899155647,-0.4675400899155647,1.0000488556242417,3.3461394265925934e-05
-0.4673200439239736,-0.4673200439239736,1.000010994397267,3.331979311493138e-05
-0.46711060719317177,-0.46711060719317177,1.00000345509422,3.3753069075990784e-05
-0.46700059639188113,-0.46700059639188113,1.0000456243265223,3.330506159276553e-05
-0.46689663507422663,-0.46689663507422663,1.0000479104310533,3.456145363121679e-05
-0.466762519643089,-0.466762519643089,0.9999355335879327,3.3619212076569133e-05
-0.4666619321615144,-0.4666619321615144,0.9999855448682163,3.3601480130869835e-05
-0.46659619805795954,-0.46659619805795954,0.9999694790938285,3.332472498896878e-05
-0.46645450740325034,-0.46645450740325034,0.9999836654709933,3.346182465750765e-05
-0.4661550550816173,-0.4661550550816173,0.9999975046745837,3.3642858897955654e-05
-0.4658456555611338,-0.4658456555611338,0.9999337361470804,3.354025120046976e-05
-0.46563341673099784,-0.46563341673099784,1.0000091942885132,3.35003744410144e-05
-0.4655044469567656,-0.4655044469567656,1.0000003832482685,3.342962427190187e-05
-0.4654390615061857,-0.4654390615061857,0.9999719579435823,3.387694044505753e-05
-0.4653185163260787,-0.4653185163260787,0.999995009274158,3.356611814602824e-05
-0.4651691404120356,-0.4651691404120356,0.9999715422022408,3.351086880474421e-05
-0.465030787318392,-0.465030787318392,0.9999824738181692,3.336608226696671e-05
-0.46491615710910994,-0.46491615710910994,1.0000245556485508,3.354442379614255e-05
-0.4648195694338938,-0.4648195694338938,0.9999835995274996,3.3571165051694474e-05
-0.4647672831932141,-0.4647672831932141,0.9999442953624975,3.364503224595068e-05
-0.4646552427351708,-0.4646552427351708,1.0000149192719445,3.354298752848275e-05
-0.46444935834297213,-0.46444935834297213,1.0000221060407246,3.327959700177893e-05
-0.4642355984382448,-0.4642355984382448,0.9999848455125961,3.351467340309001e-05
-0.4640329677007685,-0.4640329677007685,0.9999398032977493,3.348707154301427e-05
-0.46386716442648324,-0.46386716442648324,1.0000380233081438,3.3683565467927354e-05
-0.4636622183774307,-0.4636622183774307,0.9999846722145096,3.351384801414703e-05
-0.46354929217268365,-0.46354929217268365,1.0000036980488833,3.386120977602194e-05
-0.4634328906846349,-0.4634328906846349,0.999966384271546,3.340052787245395e-05
-0.4632647838530829,-0.4632647838530829,0.9999437997377496,3.370738787008241e-05
-0.4630754078963946,-0.4630754078963946,0.9999537464825894,3.352210115030403e-05
-0.4629706219981017,-0.4629706219981017,1.0000114985647817,3.365921102171354e-05
