time,time,flux,flux_err
-0.4995737253387536,-0.4995737253387536,1.000045592027958,3.867074772052091e-05
-0.4988291176517426,-0.4988291176517426,0.9999584455259193,3.870851178846493e-05
-0.4984359004077608,-0.4984359004077608,0.9999508295766398,3.886647964615849e-05
-0.498144552053418,-0.498144552053418,1.000004467168945,3.5451618804138684e-05
-0.4977436491179105,-0.4977436491179105,0.9999508621591284,3.5548222175057546e-05
-0.49736261318175823,-0.49736261318175823,0.9999112283344507,3.5121636327822965e-05
-0.49677621623268353,-0.49677621623268353,0.9999601688133298,3.5061280337595214e-05
-0.49610735479727736,-0.49610735479727736,0.9999992794177419,3.5795256328968385e-05
-0.4957376210142684,-0.4957376210142684,0.9999394008499956,3.5176573336612713e-05
-0.49532237266976153,-0.49532237266976153,0.9999790024418896,3.5743369284770386e-05
-0.4948231169502833,-0.4948231169502833,1.0000625028774848,3.554988155284573e-05
-0.4944844928875682,-0.4944844928875682,0.9999955035517367,3.519415454257043e-05
-0.49385922377041425,-0.49385922377041425,0.9999487274136758,3.54594162879316e-05
-0.49326340889092535,-0.49326340889092535,0.9999507421306507,3.594328400366658e-05
-0.4928721792930446,-0.4928721792930446,1.0000482740708019,3.523224916319754e-05
-0.49239107476823846,-0.49239107476823846,1.000012301457761,3.542701705237889e-05
-0.49207861649774715,-0.49207861649774715,1.0000090015057748,3.558542007940002e-05
-0.4915602235974802,-0.4915602235974802,0.9999553834979628,3.519936696448136e-05
-0.4908352741891576,-0.4908352741891576,1.000049997256411,3.532985960333851e-05
-0.4894703803009179,-0.4894703803009179,0.999982172329814,3.5970326716655354e-05
-0.4889964248082833,-0.4889964248082833,1.0000545038252255,3.5670366679678465e-05
-0.4886815822850622,-0.4886815822850622,1.000007525967969,3.516734202963815e-05
-0.4884524433320621,-0.4884524433320621,0.9999906730930197,3.557508715869691e-05
-0.4879968605375325,-0.4879968605375325,0.9999348452802137,3.533167012617733e-05
-0.48752316465906914,-0.48752316465906914,0.9999903885850123,3.524420861738914e-05
-0.48710991057087083,-0.48710991057087083,1.000109967733478,3.51210161569826e-05
-0.48634221974934916,-0.48634221974934916,1.0000814243767846,3.551924044452339e-05
-0.48591534468578174,-0.48591534468578174,0.9999566146584247,3.554405776248241e-05
-0.4854848929673608,-0.4854848929673608,0.9999857580998774,3.600769860094289e-05
-0.4851372849618201,-0.4851372849618201,0.9999825496437043,3.524868238988974e-05
-0.4848696719076543,-0.4848696719076543,0.9999500590664642,3.5325799577527965e-05
-0.48428806800802704,-0.48428806800802704,0.9999621662641657,3.569133031577676e-05
-0.48360200259339764,-0.48360200259339764,1.0000360124617775,3.561925564388447e-05
-0.4829487124428852,-0.4829487124428852,0.9999037551546553,3.552994769210175e-05
-0.48243365154849016,-0.48243365154849016,0.9999462660538366,3.5671908159868885e-05
-0.4819650113640819,-0.4819650113640819,0.999949377927361,3.512063583934552e-05
-0.4816829590825364,-0.4816829590825364,0.9999592353251339,3.532887583560205e-05
-0.48104138763665105,-0.48104138763665105,1.0000292526639352,3.5343897212531724e-05
-0.4802021544892341,-0.4802021544892341,1.0000220345265374,3.5189552297881845e-05
-0.4798038772656582,-0.4798038772656582,1.0000344062998217,3.5575715177158764e-05
-0.47920453651167916,-0.47920453651167916,1.0000418248545713,3.5416514193268125e-05
-0.47874403030946266,-0.47874403030946266,0.9999201199062935,3.54101824086471e-05
-0.4782323901141353,-0.4782323901141353,0.9999811574226669,3.51154095764905e-05
-0.47724798124982043,-0.47724798124982043,1.0000131962136236,3.528641270802682e-05
-0.47642832413184805,-0.47642832413184805,1.0000215647408048,3.532438925058128e-05
-0.47604232467201657,-0.47604232467201657,0.9999891591891215,3.549308421520695e-05
-0.4757528461748734,-0.4757528461748734,1.000022484659373,3.5451930522228555e-05
-0.47529870817234043,-0.47529870817234043,1.000058860517876,3.527306988406099e-05
-0.47474623280722883,-0.47474623280722883,0.9999180568304717,3.519300898122099e-05
-0.47390075313523994,-0.47390075313523994,1.0000026099223986,3.530585222706379e-05
-0.473320839805092,-0.473320839805092,0.9999920619892384,3.525869004589441e-05
-0.4728899959503906,-0.4728899959503906,0.9999660211635819,3.553423607734225e-05
-0.4724914872851514,-0.4724914872851514,1.000039367586575,3.5547340853280365e-05
-0.4721480078645982,-0.4721480078645982,1.0000226051763725,3.5322197504666306e-05
-0.4714674014459888,-0.4714674014459888,0.9999484139864668,3.5338035518859954e-05
-0.47084457446981104,-0.47084457446981104,0.9999707852275679,3.5580879622005864e-05
-0.4702471440708905,-0.4702471440708905,1.0000670282705661,3.553811321332569e-05
-0.4697135856971727,-0.4697135856971727,0.999974177358039,3.571286661483927e-05
-0.46934151700043003,-0.46934151700043003,1.000014611650561,3.5140774314712635e-05
-0.4690710581984604,-0.4690710581984604,1.0000211269270984,3.540939672984519e-05
-0.4680372010298015,-0.4680372010298015,0.9999821539726377,3.5137928238712686e-05
-0.4669374899262039,-0.4669374899262039,0.9999882229920812,3.6170785359401685e-05
-0.46649961657385575,-0.46649961657385575,1.0000201289733597,3.554033334028391e-05
-0.46619670096188204,-0.46619670096188204,0.9999979223143247,3.515670758198436e-05
-0.46595723371719944,-0.46595723371719944,0.9999346987016615,3.5540801771046204e-05
-0.4655310626949358,-0.4655310626949358,1.0000542805125512,3.520656070656916e-05
-0.46510590458929074,-0.46510590458929074,0.9999779322894108,3.537418283805869e-05
-0.4644321249863424,-0.4644321249863424,0.9999488256527735,3.5271153134877325e-05
-0.46365963481148353,-0.46365963481148353,0.9999561907353918,3.540768596017471e-05
-0.4632434617415129,-0.4632434617415129,0.9999854936336314,3.6351591222494184e-05
-0.46283884369113365,-0.46283884369113365,1.0000129219122438,3.558441142423591e-05
-0.4625247360338108,-0.4625247360338108,1.00002613288181,3.520000096499867e-05
-0.4618570437487506,-0.4618570437487506,1.0000183036464683,3.5376630907476254e-05
-0.4609664671974315,-0.4609664671974315,0.999982048788965,3.5815473150302746e-05
-0.46063065622947763,-0.46063065622947763,1.0000017184736256,3.544911822397161e-05
-0.4602392842862173,-0.4602392842862173,1.0000795145990833,3.5662186607644476e-05
-0.4597762974946818,-0.4597762974946818,1.0000303450768706,3.526192868259311e-05
-0.45949640862454544,-0.45949640862454544,0.9999948915116021,3.5202138424392614e-05
-0.4590196702592948,-0.4590196702592948,0.9999751989987342,3.533825148690511e-05
-0.4584971779222542,-0.4584971779222542,1.0000331322539033,3.537847242729211e-05
-0.45792001516747405,-0.45792001516747405,1.0000331351644902,3.5317577141314646e-05
-0.4572902738844277,-0.4572902738844277,1.0000620430834517,3.565828912516714e-05
-0.4566615345327591,-0.4566615345327591,1.0000036348326236,3.541461589686191e-05
-0.4563111240604485,-0.4563111240604485,1.0000597509815958,3.5325011965151964e-05
-0.4555028033522831,-0.4555028033522831,1.0000465249768071,3.5095386562749674e-05
-0.45427088428114076,-0.45427088428114076,0.9999766918781017,3.550916673528485e-05
-0.45381689205387377,-0.45381689205387377,1.0000140664929509,3.542395082866289e-05
-0.45359154938414575,-0.45359154938414575,0.999956964516868,3.532415558624364e-05
-0.453361203368695,-0.453361203368695,0.9999640094060309,3.5451871280201005e-05
-0.4529156795993913,-0.4529156795993913,0.9999942614376437,3.532258291180268e-05
-0.4523529249134299,-0.4523529249134299,0.9999629851576171,3.520339890756573e-05
-0.45151804073393575,-0.45151804073393575,1.000007150057038,3.530239957495293e-05
-0.4509073348483071,-0.4509073348483071,1.0000143557498444,3.5253776293396105e-05
-0.4505040593496233,-0.4505040593496233,1.0000230334365798,3.553395878602902e-05
-0.45010638248350004,-0.45010638248350004,1.000032765333788,3.554697881353747e-05
-0.4497161484025128,-0.4497161484025128,0.9998866721381935,3.5193128819993355e-05
-0.4491579681147414,-0.4491579681147414,0.9999868113981017,3.5599069965098225e-05
-0.44859410792851123,-0.44859410792851123,0.9999832373066585,3.516435679325296e-05
-0.4479517443091027,-0.4479517443091027,1.0000002632658354,3.524536834219009e-05
-0.4474872466831584,-0.4474872466831584,0.9999673448336516,3.585312684179315e-05
-0.4471322344514192,-0.4471322344514192,1.0000025095568426,3.5257077077147566e-05
-0.44675173828509285,-0.44675173828509285,1.000011212910207,3.534552834773934e-05
-0.4464122867073456,-0.4464122867073456,1.0000337298422055,3.552978161800879e-05
-0.4455195792557788,-0.4455195792557788,0.9999546022195881,3.5085059340476984e-05
-0.444542932031618,-0.444542932031618,1.0000470608044516,3.574185033330942e-05
-0.4439808080031071,-0.4439808080031071,0.9999452289908668,3.546225332479385e-05
-0.4437159485511074,-0.4437159485511074,0.9999635190440929,3.536952498558946e-05
-0.4434594383441436,-0.4434594383441436,1.0000057256802903,3.546431162553881e-05
-0.4430560601016623,-0.4430560601016623,1.000005680767004,3.52416014623589e-05
-0.4425078299907909,-0.4425078299907909,0.9999272185294148,3.508512391871501e-05
-0.44157922366430286,-0.44157922366430286,0.9999461125715084,3.550955343454646e-05
-0.441065165110922,-0.441065165110922,1.0000960307986642,3.681975706237863e-05
-0.4406728763016872,-0.4406728763016872,1.000027610312104,3.556593078360925e-05
-0.44027143972780325,-0.44027143972780325,0.9999417789125971,3.546215077071183e-05
-0.43986254488117993,-0.43986254488117993,0.9999977715372633,3.5084301527586446e-05
-0.43896643911430144,-0.43896643911430144,1.000041386226134,3.5981250108349775e-05
-0.43831879071585717,-0.43831879071585717,1.0000043219277455,3.5235111346924354e-05
-0.4379116962045373,-0.4379116962045373,1.0000776346182816,3.611284539168807e-05
-0.43735741117343424,-0.43735741117343424,0.9999950891353053,3.5549121385839634e-05
-0.43701466734710265,-0.43701466734710265,0.9999381102191135,3.5193564358167024e-05
-0.43629812071812923,-0.43629812071812923,0.9999744640153088,3.533839805378648e-05
-0.43590249462577046,-0.43590249462577046,0.9999974450236337,3.566082881516349e-05
-0.43529048936979964,-0.43529048936979964,1.0000167504567856,3.5317012343950095e-05
-0.43469894868976555,-0.43469894868976555,1.0000256903627829,3.545500884844745e-05
-0.4343608646042412,-0.4343608646042412,0.9999775555197686,3.547647880057743e-05
-0.4340224926359951,-0.4340224926359951,0.9999757304754813,3.5405420077564616e-05
-0.43290688856504855,-0.43290688856504855,1.000004471522454,3.5175119570669786e-05
-0.4315978190839814,-0.4315978190839814,0.9999726820567728,3.56653061637001e-05
-0.43137136320292485,-0.43137136320292485,0.9999890298143412,3.5132885359481815e-05
-0.4311242405237863,-0.4311242405237863,1.0000001815382957,3.518928233763929e-05
-0.4307558729960874,-0.4307558729960874,1.000049052147959,3.5629167235519575e-05
-0.4302193402894773,-0.4302193402894773,1.000031889967058,3.521317916856922e-05
-0.42950762821565147,-0.42950762821565147,0.999960741184427,3.507094114310076e-05
-0.428762433394877,-0.428762433394877,1.0000709952540785,3.551752794797565e-05
-0.42830896739324087,-0.42830896739324087,0.9999955042828956,3.57740808921586e-05
-0.4277430238078523,-0.4277430238078523,1.000024681954953,3.5409877012027765e-05
-0.42733208064091743,-0.42733208064091743,0.9999273384624214,3.519206869741753e-05
-0.426825141676818,-0.426825141676818,1.0000537162275283,3.537845263134303e-05
-0.42647456228223746,-0.42647456228223746,1.000036297286885,3.545372927602794e-05
-0.42575986317970094,-0.42575986317970094,0.9999981147792074,3.52316833350956e-05
-0.4253016218950506,-0.4253016218950506,0.9999939303815794,3.570939843630231e-05
-0.42486651554063426,-0.42486651554063426,0.9999854724863997,3.547669104638853e-05
-0.4244088098974316,-0.4244088098974316,0.999950789829185,3.519896331764146e-05
-0.42396942794148346,-0.42396942794148346,1.0000195480546492,3.601044791395587e-05
-0.42325510869632127,-0.42325510869632127,0.9999550452309196,3.5197021494081704e-05
-0.4224573316059832,-0.4224573316059832,0.9999860378938459,3.545000297066583e-05
-0.4218425031627703,-0.4218425031627703,1.0000336014582623,3.5550173175457213e-05
-0.4213678033709584,-0.4213678033709584,0.9999940583990823,3.5240433002846436e-05
-0.4211516829243919,-0.4211516829243919,1.0000296508010098,3.5340797135113326e-05
-0.42076443960904725,-0.42076443960904725,0.9999639656846899,3.5330136011327664e-05
-0.42002487792415194,-0.42002487792415194,1.0000321136412587,3.513028085703351e-05
-0.4190443672217953,-0.4190443672217953,1.0000359397344334,3.5522961055938495e-05
-0.4185918708622921,-0.4185918708622921,0.9999992962827186,3.537110020008184e-05
-0.418252401281643,-0.418252401281643,1.0000141014799167,3.553624614850144e-05
-0.41780048616128623,-0.41780048616128623,0.9999732317829773,3.534360921552078e-05
-0.41723131560793264,-0.41723131560793264,1.0000661834002207,3.5051286783351454e-05
-0.4163031130010495,-0.4163031130010495,0.9999228769928206,3.56884233301062e-05
-0.4159243628710101,-0.4159243628710101,1.0000038710319878,3.5451378971713436e-05
-0.4153149414632935,-0.4153149414632935,1.000000570868385,3.58307829514972e-05
-0.41480598625348647,-0.41480598625348647,1.0000606376509935,3.533706089019825e-05
-0.41443103182027696,-0.41443103182027696,1.0000371259292242,3.532438185433931e-05
-0.4136593648152484,-0.4136593648152484,0.9999863103400859,3.5504656437556647e-05
-0.4131701458696625,-0.4131701458696625,0.9999162189399158,3.53782744390227e-05
-0.4126658099659835,-0.4126658099659835,0.9999220061491043,3.575435402330543e-05
-0.4122294333377795,-0.4122294333377795,0.9999550282353733,3.5455078895800644e-05
-0.411827003829967,-0.411827003829967,1.0000014950684346,3.536328390393641e-05
-0.4114720072582713,-0.4114720072582713,0.9999862795835275,3.541022144505216e-05
-0.41009545286069626,-0.41009545286069626,0.9998992082497432,3.530426242008202e-05
-0.4091755628687679,-0.4091755628687679,0.9999741583932172,3.554426820512952e-05
-0.40893618080517624,-0.40893618080517624,0.9999440392990249,3.525631081984781e-05
-0.40868321538873714,-0.40868321538873714,1.0000300794932582,3.527453016571358e-05
-0.408262583110627,-0.408262583110627,1.0000204350874413,3.5543419152920985e-05
-0.40778207785624543,-0.40778207785624543,0.9999500009384086,3.524047846539078e-05
-0.40733929203561275,-0.40733929203561275,1.0000096749160652,3.533471661849914e-05
-0.4065794977112091,-0.4065794977112091,1.0000768106097289,3.530409845771709e-05
-0.4059893146230024,-0.4059893146230024,1.0000979297408952,3.554439875192941e-05
-0.405499573443376,-0.405499573443376,0.9999868958604481,3.5773209510732396e-05
-0.4050522113619081,-0.4050522113619081,0.9999670367471152,3.520085330771258e-05
-0.4045180356239143,-0.4045180356239143,0.9999952814068328,3.5370613709166326e-05
-0.40409658220087297,-0.40409658220087297,0.9999947887983233,3.556075468360008e-05
-0.4034730182516796,-0.4034730182516796,1.0000180173042763,3.517187482874715e-05
-0.40289604851132027,-0.40289604851132027,0.9999495534889341,3.566362861995313e-05
-0.4023574574908707,-0.4023574574908707,0.9999660670173682,3.534587775848426e-05
-0.4019714233400009,-0.4019714233400009,1.0000900050893358,3.541130745788686e-05
-0.40149595275361205,-0.40149595275361205,1.0000718408031108,3.537428205953462e-05
-0.4009610934946977,-0.4009610934946977,0.999988428227562,3.5422309115118736e-05
-0.4002904030152422,-0.4002904030152422,1.0000142009251713,3.5113302524023045e-05
-0.39978279358983854,-0.39978279358983854,0.9999725150335583,3.558179566157562e-05
-0.3992035473987926,-0.3992035473987926,0.9999695619496455,3.533024817648309e-05
-0.39892361765014356,-0.39892361765014356,1.000040560617275,3.554146126263364e-05
-0.3985323912253079,-0.3985323912253079,1.0000107829045857,3.532908626977762e-05
-0.39780999183712995,-0.39780999183712995,1.0000261685950593,3.499956242303888e-05
-0.3969671165803447,-0.3969671165803447,0.9999838797920129,3.5510457527846376e-05
-0.3964701716402487,-0.3964701716402487,0.9999891682938186,3.5458777921176855e-05
-0.396132626535109,-0.396132626535109,1.000006182877385,3.540810809947849e-05
-0.39586596477311103,-0.39586596477311103,0.9999279173578943,3.553824780628517e-05
-0.3954141653855913,-0.3954141653855913,1.000020951156432,3.536990011755965e-05
-0.3951102420454845,-0.3951102420454845,0.9999536916750096,3.5221481660437155e-05
-0.39453697147910133,-0.39453697147910133,0.9998362477745181,3.506040635433051e-05
-0.3939434537292982,-0.3939434537292982,1.000011537046498,3.5436938872782576e-05
-0.3934972396666126,-0.3934972396666126,0.9999613487301662,3.517752118526868e-05
-0.3930841862827947,-0.3930841862827947,1.000000608365292,3.574414521939969e-05
-0.3926801250941935,-0.3926801250941935,1.0000119842861035,3.546086163736322e-05
-0.3923038475848443,-0.3923038475848443,0.9999997775247055,3.541083589302214e-05
-0.3917191839580482,-0.3917191839580482,0.9999721625032281,3.533170129050823e-05
-0.391024012145499,-0.391024012145499,0.9999488989820055,3.595641654755875e-05
-0.3906574630404066,-0.3906574630404066,0.999945000248301,3.5304004079213895e-05
-0.39018497885626857,-0.39018497885626857,1.0000021670027968,3.5548356701119284e-05
-0.38983931223338003,-0.38983931223338003,1.0000179132787992,3.558499992291805e-05
-0.3893218323617475,-0.3893218323617475,1.0000231138284001,3.520249545513932e-05
-0.388630992409162,-0.388630992409162,0.9999981569982636,3.54519708313983e-05
-0.38741205859041655,-0.38741205859041655,0.9999613515898409,3.5402359217713495e-05
-0.38683016083596156,-0.38683016083596156,0.9999733357447311,3.60362197907159e-05
-0.38649304873106305,-0.38649304873106305,0.99994744777277,3.538207540341267e-05
-0.3862526402474032,-0.3862526402474032,0.9999647665174901,3.5358886830338666e-05
-0.3858630101225572,-0.3858630101225572,0.9999973981649358,3.541891453188557e-05
-0.3853474962364999,-0.3853474962364999,0.9999472065538126,3.515631574178231e-05
-0.3849441628786735,-0.3849441628786735,0.9999894929801417,3.533991880479136e-05
-0.3842473379256262,-0.3842473379256262,1.0000069387741262,3.530293502462375e-05
-0.3837716040565283,-0.3837716040565283,0.9999808530977944,3.5544117293933474e-05
-0.3833310982452531,-0.3833310982452531,0.9999618477592852,3.611478421060841e-05
-0.3829132971150102,-0.3829132971150102,0.9999926501416464,3.537661895135265e-05
-0.3826692953567544,-0.3826692953567544,1.0000218914995884,3.520137472854816e-05
-0.38204891737477736,-0.38204891737477736,1.000002765415833,3.570339523449656e-05
-0.3811976016222616,-0.3811976016222616,1.0000562918262736,3.581387346831369e-05
-0.38061270662292374,-0.38061270662292374,1.0000296902731685,3.5542058625258625e-05
-0.38014230486005546,-0.38014230486005546,0.9999800940478767,3.546225849716012e-05
-0.3796971978707006,-0.3796971978707006,0.9999834950201855,3.5210605296245794e-05
-0.3793175827973755,-0.3793175827973755,0.9999706878141772,3.5327009302250114e-05
-0.3786386152591149,-0.3786386152591149,1.0000358982447068,3.5292460838364777e-05
-0.37788622838124863,-0.37788622838124863,1.0000068327649996,3.523451798078914e-05
-0.37746938680211317,-0.37746938680211317,0.999986247478826,3.558550617595527e-05
-0.37695022873376727,-0.37695022873376727,0.9999478771093404,3.533040099828741e-05
-0.37650578969332854,-0.37650578969332854,0.9999896365951406,3.5410481652976714e-05
-0.37599325709961706,-0.37599325709961706,1.0000046426894371,3.511665267947999e-05
-0.37489453546513685,-0.37489453546513685,1.0000615369290364,3.529812737706106e-05
-0.3741902587382356,-0.3741902587382356,0.9999609645843084,3.524307570879343e-05
-0.373859130339406,-0.373859130339406,1.0000134805979064,3.550230113819725e-05
-0.37354982112665314,-0.37354982112665314,1.000067090594355,3.5241855585633364e-05
-0.3731759260030231,-0.3731759260030231,0.9999075403701226,3.5483392233210686e-05
-0.37264680688967927,-0.37264680688967927,0.999984518016818,3.5245378071790616e-05
-0.37167537519781035,-0.37167537519781035,1.0000078174614164,3.511592766389795e-05
-0.37110422846817526,-0.37110422846817526,1.000016384327954,3.525442943537212e-05
-0.3706514001438336,-0.3706514001438336,1.0000143249342521,3.5534535914847624e-05
