time,time,flux,flux_err
-0.49990996586711844,-0.49990996586711844,0.9999903781163696,6.512193554696116e-05
-0.49980753313866444,-0.49980753313866444,1.0000154958526775,6.49251571333898e-05
-0.4996351473564573,-0.4996351473564573,1.0000370384018875,6.487333402288055e-05
-0.4994787487848953,-0.4994787487848953,0.9998806102905601,6.530078136641206e-05
-0.49935536034608957,-0.49935536034608957,1.0000031902800885,5.889893146270853e-05
-0.4991777549512335,-0.4991777549512335,0.999903505385153,6.005461089134212e-05
-0.49903146434226076,-0.49903146434226076,0.9999627178554074,5.936708869479797e-05
-0.4989258133326075,-0.4989258133326075,1.0000148905408335,5.99049874348333e-05
-0.4987953307907446,-0.4987953307907446,1.0000298618637529,5.954784403709707e-05
-0.49869333730021026,-0.49869333730021026,1.0000098215503064,5.9543982750497505e-05
-0.49862284202245066,-0.49862284202245066,1.000072976616499,5.97380270090012e-05
-0.49847252486651994,-0.49847252486651994,1.0000006386812255,5.9459364775338646e-05
-0.49837968083156736,-0.49837968083156736,1.0001026523770116,5.955634807066071e-05
-0.49827305331273236,-0.49827305331273236,0.9999716452796295,5.873421526416102e-05
-0.49812643616314745,-0.49812643616314745,0.9998683523122466,6.0069773285078674e-05
-0.49794686620880385,-0.49794686620880385,1.0001356423729848,5.898802008282162e-05
-0.4978264918594505,-0.4978264918594505,1.0000096183524774,5.9412360963035706e-05
-0.4977113265471417,-0.4977113265471417,1.0001507204720899,5.961736963980697e-05
-0.4976226103986846,-0.4976226103986846,1.0000623938485755,5.966488066146281e-05
-0.49756094227050196,-0.49756094227050196,1.0001399720681998,5.962582182060135e-05
-0.49745586927456314,-0.49745586927456314,1.0000458955157123,6.0148407095015176e-05
-0.4972775059606647,-0.4972775059606647,1.0000309005637196,5.91371358546152e-05
-0.4971108092649956,-0.4971108092649956,0.9999994880056564,5.9008561092793614e-05
-0.49701544051931706,-0.49701544051931706,0.9999940875136086,6.021955632851829e-05
-0.4969693972991081,-0.4969693972991081,1.000076601137975,5.944095950686962e-05
-0.49683726472285344,-0.49683726472285344,0.9999458153389146,5.9612695372583216e-05
-0.49669410670758224,-0.49669410670758224,0.9999419220938867,5.9772244578318044e-05
-0.49659633956325705,-0.49659633956325705,1.0001239438478289,5.909417598854192e-05
-0.4964323650841834,-0.4964323650841834,1.0000737420806087,5.946497282666651e-05
-0.4962769028526964,-0.4962769028526964,1.0000342549491188,5.968692902573397e-05
-0.49616547870245997,-0.49616547870245997,1.000054734879178,5.9659026750929806e-05
-0.4960692604072392,-0.4960692604072392,0.9998614173683158,5.948406334002263e-05
-0.4959024193609366,-0.4959024193609366,1.000112502630633,6.00009682642124e-05
-0.4957633997575613,-0.4957633997575613,1.0000151762776546,5.977515453464945e-05
-0.4956333207184798,-0.4956333207184798,1.000092531849902,5.955554565916512e-05
-0.4955626595023205,-0.4955626595023205,1.0000175755070482,5.948636120089091e-05
-0.49544899836182593,-0.49544899836182593,1.000074774251359,5.87180258724516e-05
-0.49534761248942233,-0.49534761248942233,1.0000760479970077,5.966882332383443e-05
-0.49519782607530943,-0.49519782607530943,0.999972145589308,5.992491707659224e-05
-0.4950376739638159,-0.4950376739638159,0.9999390800755604,5.981227362748581e-05
-0.49492010953690624,-0.49492010953690624,1.0000046972506358,6.021774843230331e-05
-0.49483976830670146,-0.49483976830670146,1.0000136887893418,5.8860289980131875e-05
-0.49477133427571973,-0.49477133427571973,1.0000539725001107,5.991629744121674e-05
-0.49465133706398773,-0.49465133706398773,0.999971375674875,5.957154275041362e-05
-0.4945385195198469,-0.4945385195198469,1.000012639963891,5.951442846688645e-05
-0.49440735320094975,-0.49440735320094975,1.0000826969432615,5.934680653741498e-05
-0.49425166007713417,-0.49425166007713417,1.0000251713944592,5.959287630144224e-05
-0.4941423309122911,-0.4941423309122911,0.9999556470186945,5.949050573776065e-05
-0.4940727398497984,-0.4940727398497984,0.9999545366762218,5.966300284592787e-05
-0.49394486063683873,-0.49394486063683873,0.9999809023214506,5.990441888792502e-05
-0.4938388323920663,-0.4938388323920663,1.0000674673248307,6.011441962465573e-05
-0.4937553023119108,-0.4937553023119108,0.9999802614144327,5.968348281719034e-05
-0.4936475953523768,-0.4936475953523768,0.9999712557118698,5.939562601874139e-05
-0.49354533844307297,-0.49354533844307297,1.0001081302770576,6.003642517381187e-05
-0.49348957518232056,-0.49348957518232056,0.9999934565502597,5.97528319899582e-05
-0.4934069239621749,-0.4934069239621749,0.9999810499268657,5.9365668320425306e-05
-0.4932939752470702,-0.4932939752470702,1.0000646257636852,5.928115869434826e-05
-0.49313177917938444,-0.49313177917938444,1.0000098906494017,5.9865489744703e-05
-0.49301720454386666,-0.49301720454386666,1.0000738362851636,6.00676519063865e-05
-0.49290165767160943,-0.49290165767160943,1.0000441826868585,5.944383507287338e-05
-0.49279215440910773,-0.49279215440910773,1.0000045559942472,5.931467258424591e-05
-0.49266090173186966,-0.49266090173186966,0.9998809039379069,5.934779805994891e-05
-0.49256949098053154,-0.49256949098053154,1.000087021533131,5.934476284199106e-05
-0.4924667080747895,-0.4924667080747895,0.9999803704047674,6.253621770625837e-05
-0.4923642524358002,-0.4923642524358002,0.9999301739992967,5.956820625802385e-05
-0.49213694070640485,-0.49213694070640485,0.999976465815957,5.968751610046712e-05
-0.4920409837810439,-0.4920409837810439,0.9999882336678626,5.928768151145109e-05
-0.4919095554680098,-0.4919095554680098,1.000024414358844,6.010999677443774e-05
-0.49173161452490605,-0.49173161452490605,0.9999733453715682,5.946219485865297e-05
-0.4915730114633334,-0.4915730114633334,1.0000012783449477,5.9293386178919764e-05
-0.49142402143770597,-0.49142402143770597,1.0001093016793048,5.9823611386621546e-05
-0.4913419375021476,-0.4913419375021476,1.00016689290781,5.934995118853822e-05
-0.4912580790318316,-0.4912580790318316,0.9999608120098238,6.011656341770121e-05
-0.4911745490331668,-0.4911745490331668,1.0000275267851078,5.979680869604532e-05
-0.49109004452620864,-0.49109004452620864,0.9999977473314325,5.945463937561472e-05
-0.4909680676006246,-0.4909680676006246,1.0001100541950374,5.9178967634349134e-05
-0.4908696164377034,-0.4908696164377034,0.9998928828818163,5.97440466528252e-05
-0.49069369123899376,-0.49069369123899376,0.999976314257436,5.962511991661577e-05
-0.4905647521954961,-0.4905647521954961,1.0000136126363977,5.9899567435933246e-05
-0.49041498478472934,-0.49041498478472934,1.0000835556807437,5.937878365152624e-05
-0.49020692698541096,-0.49020692698541096,0.9999692912642413,6.005714228650129e-05
-0.4899973454783321,-0.4899973454783321,0.9998889784554198,5.9320434785255726e-05
-0.48983848030184163,-0.48983848030184163,1.0000218249907227,5.937778573647678e-05
-0.4896921284045675,-0.4896921284045675,1.000022688496068,5.947826717873655e-05
-0.48949868287018033,-0.48949868287018033,0.9999546647183809,5.9750056747785665e-05
-0.4892597186146304,-0.4892597186146304,1.0001081250866188,6.000923742525438e-05
-0.489207088452531,-0.489207088452531,1.0000021103280665,5.967989804714717e-05
-0.489153364993399,-0.489153364993399,0.999989926783112,5.9045242897910005e-05
-0.4890892994517344,-0.4890892994517344,1.000082094396878,5.981560665017008e-05
-0.488930022517161,-0.488930022517161,0.9999502545681928,5.928053297590629e-05
-0.48873131527216174,-0.48873131527216174,0.9999592389181926,6.03200383939735e-05
-0.48865639470168387,-0.48865639470168387,0.9999263936184258,5.9217174010467045e-05
-0.4885286168515449,-0.4885286168515449,1.0000157053586407,5.9421675367701135e-05
-0.48840106080751866,-0.48840106080751866,0.99987700843668,5.9818897502462e-05
-0.48826834366045657,-0.48826834366045657,0.9999267988835205,5.9441619179858036e-05
-0.48813955156656447,-0.48813955156656447,1.0000393484649435,5.918583702627234e-05
-0.4880589390202658,-0.4880589390202658,0.999966137084612,5.948485697877122e-05
-0.48793391880753917,-0.48793391880753917,0.9999624525767938,5.993220254306769e-05
-0.487732940618298,-0.487732940618298,1.000014660179499,5.9919118118397584e-05
-0.4875692181056365,-0.4875692181056365,1.0000041437045941,5.972571478012232e-05
-0.48742647454491816,-0.48742647454491816,0.9999836822801862,6.003132269434039e-05
-0.4873189779682434,-0.4873189779682434,0.9999873549160242,5.9474351234535875e-05
-0.48721146674943155,-0.48721146674943155,0.9999423500323055,5.952953745666066e-05
-0.48708636555675183,-0.48708636555675183,0.9999327035424855,5.958038501416645e-05
-0.48696750507078834,-0.48696750507078834,0.9999091140365637,5.942604774275249e-05
-0.4868099109720788,-0.4868099109720788,1.0000226921755027,5.930462694318222e-05
-0.4866346041031647,-0.4866346041031647,1.000011292508077,6.0499043336887747e-05
-0.4864362728287233,-0.4864362728287233,0.9999331417261701,5.9633227324639035e-05
-0.4863592897221679,-0.4863592897221679,0.9999386558848367,5.913215552201306e-05
-0.4862515814937069,-0.4862515814937069,1.0000016131464338,5.92945166933496e-05
-0.48614916767546673,-0.48614916767546673,0.9999261536972048,5.964360421507488e-05
-0.4859781660299632,-0.4859781660299632,0.9999612079298721,5.9760379792703773e-05
-0.4858147166247363,-0.4858147166247363,1.0000650524813548,6.011080504279987e-05
-0.485629912330478,-0.485629912330478,0.9999443025055879,5.966531594284428e-05
-0.4855192889153841,-0.4855192889153841,0.999980787703684,5.996079233278386e-05
-0.485386169096455,-0.485386169096455,1.0000087165947646,5.9135181302453514e-05
-0.4852679414922022,-0.4852679414922022,1.0000257923312919,5.984588754480683e-05
-0.48516502093843883,-0.48516502093843883,1.0000732140813682,5.958068631526706e-05
-0.48499413116369394,-0.48499413116369394,0.999989051498307,6.001910285190154e-05
-0.48485853790916733,-0.48485853790916733,1.0000306635620544,5.974999958315554e-05
-0.4847616085113259,-0.4847616085113259,1.0000882031906104,5.9042397465899726e-05
-0.4846684219577583,-0.4846684219577583,0.9999081303026959,6.0401053766575034e-05
-0.484588904195698,-0.484588904195698,0.9999442972613313,5.944984646983548e-05
-0.48448540916870114,-0.48448540916870114,0.9999967326641501,5.8771359828303096e-05
-0.48439557036181213,-0.48439557036181213,1.0000128967881234,6.017055115083587e-05
-0.48424174163810674,-0.48424174163810674,1.0000099131314102,5.884455915070974e-05
-0.4841506347802351,-0.4841506347802351,0.9998904081697269,6.019955508443915e-05
-0.4840383188740816,-0.4840383188740816,0.9999954527878554,5.9937116865354354e-05
-0.483887373188918,-0.483887373188918,0.9999278484549142,5.972553724038286e-05
-0.4837586838635616,-0.4837586838635616,1.0000575675726504,5.948333435014863e-05
-0.4836095709673828,-0.4836095709673828,1.000051852327659,5.894446434512761e-05
-0.4835458303670748,-0.4835458303670748,1.0000408315720615,5.9403342164942586e-05
-0.4834120643805363,-0.4834120643805363,0.9999910136233666,5.993031168192444e-05
-0.4832855372616905,-0.4832855372616905,0.999962985209951,5.939419293023194e-05
-0.4831200021566474,-0.4831200021566474,1.000067484319691,6.0456882398430507e-05
-0.48296855192020305,-0.48296855192020305,0.9998948904670388,5.9317479456224195e-05
-0.48280829005816484,-0.48280829005816484,1.0000566737563226,5.9156233270034535e-05
-0.482687418871501,-0.482687418871501,0.9999579832185574,5.989769164434581e-05
-0.4825818249999429,-0.4825818249999429,1.0000830807774261,5.8937338360383645e-05
-0.48248293110955276,-0.48248293110955276,0.9998836127067834,5.9115314510626885e-05
-0.48239931157295357,-0.48239931157295357,0.9999959627494718,5.967443763909605e-05
-0.4822734632602078,-0.4822734632602078,0.9998430006085778,5.9358064348699895e-05
-0.4821143252382171,-0.4821143252382171,0.9999337076845294,5.9490306910383665e-05
-0.4819853794222581,-0.4819853794222581,0.9999672622836719,5.948427552435999e-05
-0.48191843769600384,-0.48191843769600384,0.9999898096895737,5.977614916993553e-05
-0.4818446441597189,-0.4818446441597189,0.9999685741921012,5.9512932485937094e-05
-0.4817532292829128,-0.4817532292829128,1.0000780854875386,5.937816028489207e-05
-0.48160690898657776,-0.48160690898657776,1.0000585385824898,5.9440056752136295e-05
-0.481434667018766,-0.481434667018766,1.0002099959391422,5.8805733959381746e-05
-0.4812957266971353,-0.4812957266971353,1.0000560653276613,5.998395770215631e-05
-0.4811998062810744,-0.4811998062810744,0.9999112989611906,5.98118470944079e-05
-0.4810701210284606,-0.4810701210284606,0.9999955620948147,5.938485703010626e-05
-0.48088405701419107,-0.48088405701419107,0.9999820402889537,5.9698970805318164e-05
-0.4807178470844519,-0.4807178470844519,0.9998883607566157,5.942671799757122e-05
-0.48058864818449365,-0.48058864818449365,0.9999971525353561,5.968193932569218e-05
-0.48040789834340103,-0.48040789834340103,1.0000662994330487,5.889541959225342e-05
-0.4802541841097991,-0.4802541841097991,0.9999856873839501,6.01013616378709e-05
-0.48011694235319735,-0.48011694235319735,1.0000245266269832,5.939100444072794e-05
-0.48000802698807093,-0.48000802698807093,1.0000568712033977,5.9621377099410194e-05
-0.47985497053887227,-0.47985497053887227,0.999975713126419,5.943954175559575e-05
-0.479772545855667,-0.479772545855667,0.9998884103228894,5.9324119113607964e-05
-0.47967137779924085,-0.47967137779924085,0.9999279760428358,5.908380602912753e-05
-0.47956914786045673,-0.47956914786045673,0.999949947892179,5.991625093528716e-05
-0.4794483200035756,-0.4794483200035756,0.9999523004750841,5.892295337604971e-05
-0.4793261678016279,-0.4793261678016279,0.9999142547644523,5.934576894582057e-05
-0.47918372096610257,-0.47918372096610257,1.000061797821209,5.934994581562266e-05
-0.4791037208531634,-0.4791037208531634,1.0002290183312126,5.966226174877907e-05
-0.4790353789067012,-0.4790353789067012,1.000037110282311,5.972282623627488e-05
-0.47893227365566415,-0.47893227365566415,1.0001066254166964,5.974156232777421e-05
-0.4787701430133893,-0.4787701430133893,1.0000692240047542,5.944659237666846e-05
-0.47850748064520304,-0.47850748064520304,0.9999811795765504,5.971181687061208e-05
-0.4783783190388931,-0.4783783190388931,0.9999970465486072,6.020224486208048e-05
-0.47827655737200986,-0.47827655737200986,1.000063012653444,5.936705452751552e-05
-0.4781308248217101,-0.4781308248217101,0.9999155014221944,6.01132044698043e-05
-0.4779840521747246,-0.4779840521747246,0.9999577727101008,5.9899826612145496e-05
-0.47787392537138657,-0.47787392537138657,0.9999780444149046,5.937055403059115e-05
-0.47767561943619513,-0.47767561943619513,0.9999713634507728,5.921765336155923e-05
-0.4774986197066028,-0.4774986197066028,0.9999338774735731,5.937976540843619e-05
-0.4773835933752707,-0.4773835933752707,0.9999370169408497,5.940335519854295e-05
-0.4771926943110884,-0.4771926943110884,1.0000620101771418,5.919134239920706e-05
-0.47703075457684463,-0.47703075457684463,1.000014683721499,6.030593296724435e-05
-0.4769444690522505,-0.4769444690522505,0.9999162900897799,5.881476403751494e-05
-0.4768361253285548,-0.4768361253285548,0.999962026312665,5.976726113637003e-05
-0.4766698411258403,-0.4766698411258403,1.0001085915749681,5.928837511027757e-05
-0.47649745959497525,-0.47649745959497525,0.9999569060697135,5.921426427429674e-05
-0.4763591303053545,-0.4763591303053545,0.9999577655287213,5.955655548793824e-05
-0.4762970727373613,-0.4762970727373613,1.0001105851691174,6.014831800543647e-05
-0.4762189311470138,-0.4762189311470138,1.000079907200302,5.963194109517905e-05
-0.4761151341954246,-0.4761151341954246,0.9999057233576417,5.981816635579711e-05
-0.4760176057825447,-0.4760176057825447,0.9999199653123444,5.968846532779683e-05
-0.47591744339006253,-0.47591744339006253,0.9998754421716655,5.923678211616446e-05
-0.4757493595141568,-0.4757493595141568,0.9998525068508105,5.9195608301543866e-05
-0.4756006375711877,-0.4756006375711877,0.9999399156770234,5.93941134983568e-05
-0.47543995646119586,-0.47543995646119586,0.9999847517423941,6.006169098107915e-05
-0.4753649569160189,-0.4753649569160189,1.000083061305505,5.969598879444756e-05
-0.4751847753985203,-0.4751847753985203,0.9999169981936837,5.907617467260164e-05
-0.47511074820358773,-0.47511074820358773,0.9999452610258274,5.902913656559274e-05
-0.47496370742010185,-0.47496370742010185,0.9999840556140007,5.9722843899210415e-05
-0.47477834896417337,-0.47477834896417337,0.9999641776387834,5.932641734157994e-05
-0.4746864222222939,-0.4746864222222939,1.0001191454896496,5.945989079269631e-05
-0.4746022371444269,-0.4746022371444269,0.9998862733706977,5.9804587304990514e-05
-0.4744685407509678,-0.4744685407509678,0.9999918880295896,5.9355768923999576e-05
-0.474354815701372,-0.474354815701372,0.9999686696573352,5.988930217031131e-05
-0.47425468952860683,-0.47425468952860683,1.0000207270680992,5.9709747117095804e-05
-0.47413056227524064,-0.47413056227524064,0.9999231726519268,5.9714635236701326e-05
-0.47400530597224133,-0.47400530597224133,0.9999816784000016,5.910381575157576e-05
-0.47379929725284453,-0.47379929725284453,0.9999421966785235,6.0108510326420405e-05
-0.4735826314237784,-0.4735826314237784,1.0000066769744613,5.9384034424374605e-05
-0.4734741222666344,-0.4734741222666344,0.99984883996809,5.9954343570555566e-05
-0.4733511793368962,-0.4733511793368962,0.9999118948318862,5.9064044616588604e-05
-0.473292955524812,-0.473292955524812,1.0001135463057405,6.024097268697433e-05
-0.473176118642732,-0.473176118642732,1.0001204715622456,5.9678196602277976e-05
-0.47306032000051346,-0.47306032000051346,0.9998810647250073,5.906945492383091e-05
-0.4729326566317468,-0.4729326566317468,1.0000345247624856,5.8925822110062646e-05
-0.47284639335412065,-0.47284639335412065,1.0001277762849345,5.938842142783088e-05
-0.47268954906758154,-0.47268954906758154,1.0000119160917378,5.9406799990085156e-05
-0.4725571466347901,-0.4725571466347901,0.9999107515767802,5.9793099076777945e-05
-0.4724266947232536,-0.4724266947232536,1.0001218229331195,5.931256461318274e-05
-0.47228544679965123,-0.47228544679965123,1.0000190709559735,5.9692505291143024e-05
-0.4721684565709438,-0.4721684565709438,1.000002645113637,6.098631134855029e-05
-0.4720529666505172,-0.4720529666505172,0.9998866785787882,6.008146196503876e-05
-0.4718701174293528,-0.4718701174293528,1.0000169393825633,5.944375555290631e-05
-0.4717301917960867,-0.4717301917960867,1.0000374429352692,5.99544698853993e-05
-0.4716466666213819,-0.4716466666213819,0.9999769576775301,5.9104844779308066e-05
-0.471476163425541,-0.471476163425541,1.000055615109451,5.906095749057743e-05
-0.4713466255518142,-0.4713466255518142,1.0000541911960128,5.97773877834943e-05
-0.4712527313429746,-0.4712527313429746,1.0000900443943883,5.9358076170366716e-05
-0.47115150124736827,-0.47115150124736827,1.0000989052487146,5.921607591252203e-05
-0.4709632053039968,-0.4709632053039968,0.999990816773263,5.9719665305376744e-05
-0.4708096238449798,-0.4708096238449798,1.000002177956849,5.976185913515192e-05
-0.4707193968075444,-0.4707193968075444,0.9999013769766482,5.9193480045446164e-05
-0.4705686630302807,-0.4705686630302807,0.9999441723750728,5.951047589955145e-05
-0.4705095651719603,-0.4705095651719603,1.000025185401903,5.9852627979321785e-05
-0.4704183455731254,-0.4704183455731254,1.0000720880875293,5.977565038118879e-05
-0.47026101592782654,-0.47026101592782654,0.999926819058183,5.976748398389016e-05
-0.47011784127826106,-0.47011784127826106,0.9999348064079913,5.882188593661618e-05
-0.46999261130113157,-0.46999261130113157,1.0000223089489935,5.973993662287305e-05
-0.4697549428383354,-0.4697549428383354,0.9999046611866106,5.978640201853907e-05
-0.46961399559804706,-0.46961399559804706,0.9999543154859711,6.0055968641373464e-05
-0.469501413188118,-0.469501413188118,1.0000077847520985,5.9319363997832736e-05
-0.4694292147207307,-0.4694292147207307,0.999913368339808,5.9924503683011726e-05
-0.4693560665255063,-0.4693560665255063,1.0000197448063974,5.9500154780753694e-05
-0.4692169608882978,-0.4692169608882978,0.9999398239654079,5.9733048507461935e-05
-0.4690675924444804,-0.4690675924444804,0.9998439354644807,5.97250407815895e-05
