time,time,flux,flux_err
-0.49982388817109796,-0.49982388817109796,1.0012234947788488,0.0002966041497152898
-0.4996322422906815,-0.4996322422906815,1.0000843552234824,0.0002637729059525517
-0.49947341427614445,-0.49947341427614445,1.0001350530846758,0.0002781085484878177
-0.499253175222475,-0.499253175222475,0.9998424455111333,0.00027821433083350647
-0.4989683119696565,-0.4989683119696565,1.0034484924614793,0.00026679081193911255
-0.4988437074589456,-0.4988437074589456,1.0012163916789352,0.0002837358868052012
-0.4987325477606646,-0.4987325477606646,0.9994293369602587,0.00026849602219046004
-0.4985929447226226,-0.4985929447226226,0.9986088372661068,0.0002746177541553354
-0.49841218785222735,-0.49841218785222735,0.999724477155684,0.0002656553032627521
-0.4982544585433061,-0.4982544585433061,1.000582526442698,0.00027148157863122015
-0.49814788085823236,-0.49814788085823236,1.0008773904931718,0.00026384792868753545
-0.4980450714356266,-0.4980450714356266,0.9994059907111428,0.00027068004510381725
-0.4978950003216596,-0.4978950003216596,0.9993204911730207,0.0002675840541971757
-0.4976833713157248,-0.4976833713157248,1.0005191833877984,0.00027444285715376546
-0.49754232310006047,-0.49754232310006047,1.0011272488659233,0.0002711252602302618
-0.4974246209651028,-0.4974246209651028,0.9996420762657028,0.00026215260592729736
-0.49726506671941023,-0.49726506671941023,1.0008568143934666,0.00026734503449005154
-0.49709013975989363,-0.49709013975989363,1.0006479935204227,0.00026767640588120636
-0.4969166173235863,-0.4969166173235863,1.0000532498277743,0.00027191953502651715
-0.4967623368989734,-0.4967623368989734,1.0009347461846507,0.00026361301897571786
-0.49650229698381737,-0.49650229698381737,1.0015720202045724,0.0002826953740738471
-0.4961825696322194,-0.4961825696322194,1.0009298609714392,0.00027062352354480695
-0.4960709611783386,-0.4960709611783386,0.9998099843321835,0.00027795395022170986
-0.49597903561152634,-0.49597903561152634,0.9997102667676956,0.00026520444093659903
-0.4958481010631658,-0.4958481010631658,1.0010553730549347,0.0002677104748657229
-0.4957584846390091,-0.4957584846390091,0.9985719721760775,0.00027206925150085573
-0.49553818631902685,-0.49553818631902685,1.0006903524801554,0.0002675798603432332
-0.4954066987556871,-0.4954066987556871,1.0006110631105831,0.00027274454305620005
-0.49529074421807306,-0.49529074421807306,0.999986848517555,0.0002729269933474259
-0.4950172901983024,-0.4950172901983024,1.0004835444187172,0.0002593388774510451
-0.49489480606534925,-0.49489480606534925,1.0008421479353733,0.0002717617345485299
-0.4947562194935017,-0.4947562194935017,1.0010030139157486,0.00026677439419705396
-0.4946584060340683,-0.4946584060340683,1.00013262268751,0.0002684883053302201
-0.494532547171184,-0.494532547171184,1.0002477729313375,0.00027110315697373183
-0.49428851792399653,-0.49428851792399653,1.0006307376540124,0.00025999968312265606
-0.49408450846531193,-0.49408450846531193,1.0002261302578126,0.0002798078027414849
-0.49363041507604066,-0.49363041507604066,1.0013325563671072,0.00026988380259061566
-0.4933988883756683,-0.4933988883756683,1.000376913550022,0.00025995035172117763
-0.49325882928278586,-0.49325882928278586,1.0005254881579295,0.0002774846982931629
-0.4931218229809019,-0.4931218229809019,1.0000557116093307,0.00026750281424993747
-0.49293490701747944,-0.49293490701747944,1.0007161560212463,0.0002857658123989826
-0.4926576045811089,-0.4926576045811089,0.9996514277146835,0.0002740048170606012
-0.4925767440927302,-0.4925767440927302,0.9998990364669682,0.00026512847598399885
-0.492471548606045,-0.492471548606045,1.0001366107239196,0.00026974872600763367
-0.49226780326935116,-0.49226780326935116,0.9993535088963428,0.00027051447967878055
-0.49217984537135634,-0.49217984537135634,0.999853923629157,0.0002665971535546085
-0.49204215274621677,-0.49204215274621677,1.000247291769678,0.00027366040041116305
-0.4919818051308539,-0.4919818051308539,1.0001835971907056,0.00027464834789535104
-0.4919034632264811,-0.4919034632264811,1.0012957546807402,0.0002859259549434593
-0.4917253055027686,-0.4917253055027686,1.0001949315745526,0.00027515311278614987
-0.49150574623527066,-0.49150574623527066,0.999354895561907,0.0002649579497342135
-0.491265108031439,-0.491265108031439,0.9999379755103032,0.0002742633593691138
-0.49101037338514286,-0.49101037338514286,0.9987952422517059,0.0002809405917177249
-0.4907602980569209,-0.4907602980569209,1.001386320415777,0.00027061570956787585
-0.49043969459235087,-0.49043969459235087,0.9992375355778149,0.00027610506161214845
-0.49035310806866617,-0.49035310806866617,1.0000711085134846,0.0002780255664877469
-0.4902448132939753,-0.4902448132939753,0.9991684574146878,0.0002668105077215327
-0.4900144566629024,-0.4900144566629024,1.0000354992193539,0.000276180704762089
-0.4898224298187415,-0.4898224298187415,1.0001519980161442,0.0002645511465931759
-0.4896652160256053,-0.4896652160256053,0.99948909147322,0.00026865305665722366
-0.48949763802629603,-0.48949763802629603,0.9994850007687182,0.0002749815396864389
-0.4894006780414202,-0.4894006780414202,1.0007692251795688,0.0002706760271162297
-0.48925868903934316,-0.48925868903934316,0.9996496857546571,0.00026745528565836143
-0.48919459273456595,-0.48919459273456595,1.0024755311517932,0.0002695240711886511
-0.4891070916721219,-0.4891070916721219,0.9997343289132878,0.0002794531629209321
-0.4889521463213896,-0.4889521463213896,1.000409324109188,0.0002669461195367492
-0.4887733303847199,-0.4887733303847199,0.9996360748376947,0.00027483798073417085
-0.48856019640115844,-0.48856019640115844,0.9993346188890518,0.0002707878491160022
-0.48826236134409556,-0.48826236134409556,0.999574096599782,0.0002618405284501301
-0.48782852500407897,-0.48782852500407897,1.0001660401179537,0.00027731874785054265
-0.48766627904151394,-0.48766627904151394,1.0004335123793249,0.0002767361218287324
-0.48756230426843106,-0.48756230426843106,1.0001250161757171,0.00028187991290481854
-0.4874063737996039,-0.4874063737996039,1.0003176423669102,0.00026719874011264734
-0.4872241198998381,-0.4872241198998381,0.9993951709627347,0.00027775380104296795
-0.48712191528538823,-0.48712191528538823,1.0039770897637648,0.00026187151270862594
-0.4869957179409539,-0.4869957179409539,0.9984082717770111,0.0002661937686698724
-0.4868171414498647,-0.4868171414498647,1.0000871852488362,0.000268855755501625
-0.48668314508686306,-0.48668314508686306,0.9992517818138262,0.0002672303705374164
-0.486588721283988,-0.486588721283988,0.9998173283133471,0.0002624527177403985
-0.48647013650625015,-0.48647013650625015,0.9993745465516612,0.00026701173703458597
-0.4864189821539185,-0.4864189821539185,0.9999217784030148,0.0002738830879150041
-0.48630452102297567,-0.48630452102297567,1.0008255450399566,0.00028757224965342943
-0.48610687110267464,-0.48610687110267464,0.9998662323323118,0.0002648578976104822
-0.48595709409564736,-0.48595709409564736,1.008714133937549,0.00026775707540170943
-0.48573932785257057,-0.48573932785257057,0.9980599267755516,0.0002701993428256051
-0.4855444764587446,-0.4855444764587446,1.0028187976479195,0.00027085655662757605
-0.4850978641625261,-0.4850978641625261,1.0003594197962555,0.0002721688855216497
-0.4849019441018754,-0.4849019441018754,0.999953549171706,0.00027331256739025615
-0.4848008127009962,-0.4848008127009962,0.9991935859117277,0.0002775857309088248
-0.48461310133425284,-0.48461310133425284,1.0007812161314564,0.0002840105856670496
-0.48443366281753697,-0.48443366281753697,1.000971725224375,0.0002610447907898792
-0.48429572736313276,-0.48429572736313276,1.0082473370730713,0.00026609870731698464
-0.48414908952217955,-0.48414908952217955,1.0006820080689727,0.0002641032670317422
-0.4840182973381161,-0.4840182973381161,1.0004257207251641,0.0002771034477813886
-0.4838847126422479,-0.4838847126422479,0.9995786591713074,0.0002704946567240718
-0.48376953560691616,-0.48376953560691616,0.9991243850867499,0.000271206785886622
-0.48361177935803423,-0.48361177935803423,1.0008105750479257,0.00027444746295917624
-0.48344927899852336,-0.48344927899852336,1.0000366818943431,0.0002769688186076472
-0.4833531151180068,-0.4833531151180068,0.9999255551283435,0.0002675665306873367
-0.4832225180696696,-0.4832225180696696,1.0001948559007674,0.000269124847387618
-0.48305127290368544,-0.48305127290368544,0.9995527260966162,0.0002698208495277337
-0.48266411436961787,-0.48266411436961787,1.0070595081227043,0.00026848367665965195
-0.48234845295701234,-0.48234845295701234,1.0006069533651283,0.00026316286807636096
-0.4821710223433911,-0.4821710223433911,1.0018628707350241,0.00026753224188581396
-0.4820499562731129,-0.4820499562731129,0.9994972880051339,0.00026784923679019446
-0.48194543704375975,-0.48194543704375975,0.9993134765379825,0.0002809220842085184
-0.4817999102844624,-0.4817999102844624,0.9995825771606095,0.00026282023986419863
-0.4816524165104056,-0.4816524165104056,0.9993510395474934,0.0002678656901310487
-0.4815049289027229,-0.4815049289027229,1.0003779507810937,0.00027161610523336713
-0.48135198650379607,-0.48135198650379607,0.9988912032953843,0.00027177033655962767
-0.4811502008342359,-0.4811502008342359,0.9996466292653254,0.00026755281013109025
-0.48100124369993863,-0.48100124369993863,0.9994394301076903,0.00026762243384121807
-0.4808779625549505,-0.4808779625549505,1.0005954081259794,0.0002581049891524264
-0.48074262128066036,-0.48074262128066036,0.999593182228509,0.0002720328767208839
-0.4806592049128085,-0.4806592049128085,0.9996521990386755,0.00026960522518202983
-0.48044198607676664,-0.48044198607676664,0.9997652820944409,0.0002652053507563563
-0.4802035919405171,-0.4802035919405171,1.0005814362999554,0.0002855470575056563
-0.4799526719314599,-0.4799526719314599,1.000400411735113,0.000269515331092294
-0.4795729384488368,-0.4795729384488368,0.9988691234006426,0.00027372550523183353
-0.47942726788824075,-0.47942726788824075,1.00068723106729,0.00026457837925338067
-0.47936323055182584,-0.47936323055182584,0.9987681795671992,0.00027501979962864405
-0.47925708830807706,-0.47925708830807706,1.0001222973974784,0.00027925626615629787
-0.4791286289695563,-0.4791286289695563,1.0008890752342476,0.0002810822165636863
-0.47889752570699784,-0.47889752570699784,0.9990582222919813,0.0002735798233927225
-0.47872856395588315,-0.47872856395588315,1.0029630501697495,0.0002715935887826583
-0.47859743913359126,-0.47859743913359126,1.0005262074841945,0.0002638470059985723
-0.4783400979169528,-0.4783400979169528,0.9994868938042536,0.0002656624758916788
-0.478177098114611,-0.478177098114611,0.9987018132931393,0.00027017446303861405
-0.47804378700348027,-0.47804378700348027,1.0001409177116414,0.00026615024752418284
-0.47794697410608933,-0.47794697410608933,0.999639714527407,0.00026609720083931975
-0.47785974641737994,-0.47785974641737994,1.0013501400528617,0.00026919561200115425
-0.47759524757748295,-0.47759524757748295,0.9998667801368913,0.00026600662486638043
-0.47736928547492424,-0.47736928547492424,1.0007508458047212,0.00026594850404070594
-0.4772252245224081,-0.4772252245224081,1.000594998844711,0.0002707965546746412
-0.4769991422439489,-0.4769991422439489,0.9984195185343548,0.00026914928419428897
-0.47667940320825436,-0.47667940320825436,1.0013281799478233,0.0002675040081354834
-0.476609421394096,-0.476609421394096,1.0003875309694128,0.0002656691428364711
-0.47643847123108574,-0.47643847123108574,0.9998097178126759,0.0002842739836614824
-0.47614127697597725,-0.47614127697597725,1.0004193620832507,0.0002776965393984819
-0.47592418306558104,-0.47592418306558104,1.0011789301112826,0.00026287497275101035
-0.47582622553491094,-0.47582622553491094,0.9997006488905896,0.0002765923946350318
-0.47567976256541444,-0.47567976256541444,1.0015560775006591,0.00027566676832633505
-0.47557428151922065,-0.47557428151922065,0.9999010402574873,0.0002819839461575836
-0.475335728612481,-0.475335728612481,1.0150251040282126,0.0002650266487189763
-0.47524278919190693,-0.47524278919190693,1.0004074119919057,0.0002686962042459321
-0.4751664352217631,-0.4751664352217631,1.0006447146285422,0.00027665613640554155
-0.475041250942013,-0.475041250942013,1.0001214443430027,0.00027575321154200326
-0.4748332737468445,-0.4748332737468445,1.002476555493067,0.00026626867091630115
-0.4746757756482111,-0.4746757756482111,0.9996749902081131,0.0002741852846054732
-0.47453035898070084,-0.47453035898070084,1.0005746771538684,0.0002667838370119638
-0.47440721307684725,-0.47440721307684725,1.0017772290842832,0.00027493834728055795
-0.4742504320722219,-0.4742504320722219,1.0000979563313808,0.00026821587039529694
-0.4740081901138183,-0.4740081901138183,1.000219981986341,0.00026853855850523286
-0.4739314852246025,-0.4739314852246025,1.0003330980922893,0.0002664914246212858
-0.4738343314231315,-0.4738343314231315,1.0000362371707177,0.000270187590025998
-0.4737141140707536,-0.4737141140707536,1.0022730714000894,0.0002910717156157862
-0.4734285633319814,-0.4734285633319814,0.9997356121301813,0.00027748778240688514
-0.47320869024952117,-0.47320869024952117,1.0021954568169362,0.0002656557257955133
-0.4730921662685432,-0.4730921662685432,1.0027067689673088,0.0002756574392960787
-0.4729654697272053,-0.4729654697272053,1.0004592024051475,0.00026321415259492
-0.4728431286792329,-0.4728431286792329,0.9990823692677253,0.00027601963554853835
-0.4726472627837211,-0.4726472627837211,1.000021237974335,0.0002658210007833883
-0.4724689282127656,-0.4724689282127656,1.0006661748814651,0.00027357812883897347
-0.472369932264337,-0.472369932264337,0.9998207636772858,0.00026273651540357855
-0.4721629069601477,-0.4721629069601477,1.0004720295617648,0.00026555535640088233
-0.4719510910665122,-0.4719510910665122,1.0014474033154852,0.00027011805702851306
-0.4718298914256593,-0.4718298914256593,1.0008064161250496,0.00026614890024097157
-0.47173541144911724,-0.47173541144911724,1.000228496386653,0.00027014527236934323
-0.4715587638034776,-0.4715587638034776,1.0011355549677026,0.00027916370839217535
-0.4712935796072998,-0.4712935796072998,0.9969938563340406,0.00027625886357222435
-0.47112403424725924,-0.47112403424725924,0.9996339342606037,0.0002688131783740533
-0.4708981711497472,-0.4708981711497472,1.0022915042469447,0.0002790227565020586
-0.4705585850555508,-0.4705585850555508,1.0014644674891027,0.0002699959193451941
-0.47042184666206593,-0.47042184666206593,1.0004527442100073,0.00026834748767769824
-0.4703492963380995,-0.4703492963380995,0.9982163445054344,0.0002747824601713743
-0.47026229252332996,-0.47026229252332996,0.9995357872644192,0.0002726167108257324
-0.4701229326772591,-0.4701229326772591,1.0021922475044147,0.0002704797903481652
-0.4700191310210357,-0.4700191310210357,1.0004479321225541,0.00027398903129951906
-0.469823092110164,-0.469823092110164,0.999891706872466,0.00026430281494341663
-0.46968965494743314,-0.46968965494743314,1.0023589257577599,0.00027169572698378813
-0.46959216402210585,-0.46959216402210585,0.999474095521445,0.000262024208271777
-0.4694083021960978,-0.4694083021960978,0.9984407737118799,0.000268578236474806
-0.4692333281152969,-0.4692333281152969,1.0001801824209586,0.00027031605290105413
-0.4691004472635541,-0.4691004472635541,1.0001735633020299,0.0002749108912076106
-0.4689607227388478,-0.4689607227388478,1.0020739188951548,0.00027940384582181375
-0.4688091118598095,-0.4688091118598095,0.9993665148958595,0.000275437518445922
-0.4686370184888801,-0.4686370184888801,1.0001851098002308,0.00026551806039554237
-0.4684694343704905,-0.4684694343704905,1.0032262545655093,0.0002657066377880468
-0.4683018412604724,-0.4683018412604724,0.9991314814110096,0.00027876889283080125
-0.46785750305898544,-0.46785750305898544,0.9990213343139942,0.00025890864570339664
-0.46754008498246546,-0.46754008498246546,0.99927419365509,0.00027510401592560103
-0.46742455363855695,-0.46742455363855695,0.9996975545642556,0.0002776059870232419
-0.4673540417334152,-0.4673540417334152,0.9999939644663354,0.0002703795804323952
-0.46722879799526706,-0.46722879799526706,1.0010365687112395,0.00027434128853977513
-0.4670185934701294,-0.4670185934701294,1.0004085401676637,0.00026749313298201743
-0.4668630004656734,-0.4668630004656734,1.0011908738439876,0.00027841672827420627
-0.46669696371100144,-0.46669696371100144,1.0030531043589088,0.0002656604488561084
-0.46650265775388106,-0.46650265775388106,0.9997684255228751,0.0002699574944534197
-0.4664209811639012,-0.4664209811639012,0.9990341123977815,0.0002667182400832957
-0.4662873760516959,-0.4662873760516959,1.0018722760135577,0.00027485721278703245
-0.46623713010267237,-0.46623713010267237,1.0004058589430667,0.0002704252797477391
-0.46614821037146614,-0.46614821037146614,1.0004528752143673,0.00027587288768214397
-0.46600528341441533,-0.46600528341441533,1.0001126802038605,0.0002726665116675509
-0.4658190047517564,-0.4658190047517564,1.0001002385002817,0.0002704860309058072
-0.46560378822650816,-0.46560378822650816,1.0002818285087152,0.0002711570308411518
-0.4653472892154241,-0.4653472892154241,0.9991988087015653,0.00027127897565301613
-0.4650803825017647,-0.4650803825017647,1.000958264353939,0.0002692782215069428
-0.4647175315865752,-0.4647175315865752,1.000005912860202,0.0002758342239470177
-0.46460773495346075,-0.46460773495346075,1.0032604889995507,0.00028134262810764843
-0.46451839249821203,-0.46451839249821203,0.9998391343428192,0.0002720292452497323
-0.4642762305553333,-0.4642762305553333,0.9991301850412857,0.00027959192325553
-0.4640941303005093,-0.4640941303005093,1.0008241138593714,0.0002629794962491971
-0.46393683313981454,-0.46393683313981454,1.0008078169797692,0.0002676231505043659
-0.4637684310644545,-0.4637684310644545,0.9999019769008731,0.000275492433445502
-0.4636570755392313,-0.4636570755392313,1.0003670344822848,0.00026182922862191024
-0.46354445591496185,-0.46354445591496185,1.0032863117092696,0.000261471800128735
-0.46344877499323045,-0.46344877499323045,1.0005051578491582,0.00027177481441702044
-0.463375169795836,-0.463375169795836,0.9999324443901493,0.000296994118598106
-0.46327420289744625,-0.46327420289744625,1.0012772941513939,0.00026805514009000845
-0.46308789420982066,-0.46308789420982066,0.9995335799983586,0.00027304358153624716
-0.4628928392769012,-0.4628928392769012,0.9988306511961909,0.0002664804464018748
-0.46257440679146383,-0.46257440679146383,0.9988437351890613,0.0002599959224631751
-0.46232301413656385,-0.46232301413656385,1.0001434477225033,0.00027346401501706296
-0.4619737420023739,-0.4619737420023739,0.9999542039438755,0.00027801982703970377
-0.46191367251885823,-0.46191367251885823,0.9996428965867976,0.0002683293392179612
-0.4618144791729719,-0.4618144791729719,0.9996670939368328,0.00027993961011449624
-0.46160913770618206,-0.46160913770618206,1.000796375693102,0.00026191304612815686
-0.4614346312024281,-0.4614346312024281,0.9997249176165031,0.00026516079442490034
-0.46135149125439057,-0.46135149125439057,1.001455406488184,0.0002712774589031789
-0.461231671535279,-0.461231671535279,1.0004507219289571,0.00026667227016742773
-0.4610838150405471,-0.4610838150405471,1.0018682967273649,0.00025909867075399714
-0.4609896518613823,-0.4609896518613823,1.0001593381624114,0.00027094160939829297
-0.4608986372430081,-0.4608986372430081,1.0012411649541704,0.0002752458283942844
-0.4608211038390436,-0.4608211038390436,0.9987808990213702,0.0002560664089799718
-0.4606996471520688,-0.4606996471520688,1.000174577274914,0.00026470624784722063
-0.4605488877328753,-0.4605488877328753,0.9997050975711621,0.00027514447633652167
-0.4603962756889814,-0.4603962756889814,0.9999226129558094,0.00026379592115599235
-0.460267587875569,-0.460267587875569,0.9999859536901662,0.0002730465260212143
-0.45997825557751637,-0.45997825557751637,0.9981774421485948,0.0002675639273599446
-0.4596831904858846,-0.4596831904858846,1.0001816688846485,0.0002601017056567667
-0.45935523034859216,-0.45935523034859216,0.9991131373020761,0.0002690050378976745
-0.45919368404574923,-0.45919368404574923,0.9990794459332685,0.0002762361414782783
-0.4591314713481552,-0.4591314713481552,0.9963163978611076,0.0002720003009556466
