time,time,flux,flux_err
-0.49992631260465714,-0.49992631260465714,0.9999810925376318,7.66720625730421e-05
-0.4997031272808575,-0.4997031272808575,1.0000693004444177,7.64525086278452e-05
-0.4995902148191817,-0.4995902148191817,0.9999891451261617,7.008040905001025e-05
-0.4994554656543187,-0.4994554656543187,0.9999763207632494,6.996411969925189e-05
-0.4993250123312464,-0.4993250123312464,1.0000320686420454,7.030029689867936e-05
-0.49925014598702544,-0.49925014598702544,0.999866838754091,7.002301639536838e-05
-0.49910931804624853,-0.49910931804624853,1.0000423584237366,7.002718273142805e-05
-0.4989710243389709,-0.4989710243389709,0.9999247071637478,7.010394429167856e-05
-0.49884994537278543,-0.49884994537278543,1.0000158639771153,7.016839385002755e-05
-0.4987079908605665,-0.4987079908605665,1.0000142583017129,7.01319814435281e-05
-0.4986063259348157,-0.4986063259348157,1.0000114089770817,7.039053871495052e-05
-0.4984787821216742,-0.4984787821216742,0.9999632777655746,7.106096163507603e-05
-0.49837471848295534,-0.49837471848295534,0.9999767869203108,6.957945364430801e-05
-0.4983134861715371,-0.4983134861715371,0.9999228872481986,7.010041789378282e-05
-0.4980786916043144,-0.4980786916043144,1.000024433517699,7.00116508057625e-05
-0.4979634156959946,-0.4979634156959946,1.0000668022647559,7.014385354380411e-05
-0.4978436492325272,-0.4978436492325272,1.0000218163156531,6.983831883322017e-05
-0.49767434895329643,-0.49767434895329643,0.9999805756130129,6.930801882429943e-05
-0.4975931656634202,-0.4975931656634202,1.0000489018361922,6.989916811625742e-05
-0.4974831158455345,-0.4974831158455345,1.0000484812483397,6.965539816137489e-05
-0.4973703863171977,-0.4973703863171977,1.0000215008180466,7.076926500267506e-05
-0.4972392744050012,-0.4972392744050012,0.9999385471268063,7.02791673016695e-05
-0.49716809963429115,-0.49716809963429115,1.0000493924909661,7.132495622423339e-05
-0.49706654989131493,-0.49706654989131493,1.0000181119306193,7.025420720414872e-05
-0.49697114409209464,-0.49697114409209464,1.0000710394614671,7.085250817670917e-05
-0.4968489823702839,-0.4968489823702839,0.9999089588440807,6.960574714020768e-05
-0.4967296643706504,-0.4967296643706504,1.0000280738189655,7.107733384991964e-05
-0.4966173834778601,-0.4966173834778601,0.99995614189141,7.048705548553453e-05
-0.4964640121906996,-0.4964640121906996,1.0001260810202328,6.856859774902293e-05
-0.49639972267032134,-0.49639972267032134,1.0000529736544443,7.145252726619133e-05
-0.4963038120855344,-0.4963038120855344,1.0000066322132348,7.014541961835273e-05
-0.49621366241917714,-0.49621366241917714,0.9999927551882793,6.921036801335095e-05
-0.49610638391022804,-0.49610638391022804,0.9999568932658847,6.981681088409796e-05
-0.49593658538215096,-0.49593658538215096,1.0000753158431175,6.998198623495905e-05
-0.49576265020150456,-0.49576265020150456,0.9999356070595857,7.066705368923803e-05
-0.4956712373052142,-0.4956712373052142,0.9999678114659254,6.959224205939889e-05
-0.49557148750755003,-0.49557148750755003,1.0001095354694862,6.94522389767855e-05
-0.495483156570117,-0.495483156570117,0.9999278421973766,6.912812007043665e-05
-0.4953951467803563,-0.4953951467803563,0.9999730301898466,6.902250754636657e-05
-0.4952860771154519,-0.4952860771154519,1.000042161196467,6.970875646981187e-05
-0.4952259760466404,-0.4952259760466404,1.000021301989963,6.943638395235128e-05
-0.4951266271775239,-0.4951266271775239,1.0000960303366586,6.991012010935216e-05
-0.49502967499720396,-0.49502967499720396,0.9999673029136898,7.127791375907157e-05
-0.4948961807094747,-0.4948961807094747,0.9999765539410099,6.920374916711042e-05
-0.4948063391377218,-0.4948063391377218,1.0000114744558188,6.929885025629956e-05
-0.4946121006956673,-0.4946121006956673,0.9998919739612863,6.978264330336768e-05
-0.4944541055476293,-0.4944541055476293,1.000021096547961,7.102923710620151e-05
-0.49437854463176334,-0.49437854463176334,0.9998860728834167,7.009578914569464e-05
-0.49430446956248486,-0.49430446956248486,1.0000308849995343,7.051240158005176e-05
-0.4942233549823868,-0.4942233549823868,0.9999789931384452,7.021308406199216e-05
-0.4941064309634385,-0.4941064309634385,0.9999765633768852,6.923657393150933e-05
-0.4939694946500822,-0.4939694946500822,0.9999883913325908,6.960156800463146e-05
-0.4937826642446453,-0.4937826642446453,0.9999688953806857,6.934769900628846e-05
-0.49358724251069364,-0.49358724251069364,1.000176974734766,7.07435554410702e-05
-0.4934873505320866,-0.4934873505320866,0.9999588017825596,7.012899527174381e-05
-0.49332701295643344,-0.49332701295643344,0.9999114430548417,7.11970086962713e-05
-0.4931395041407086,-0.4931395041407086,0.9999918960797014,6.941998444693603e-05
-0.4930343874337268,-0.4930343874337268,1.0000634268212003,6.999401911982097e-05
-0.4929353283296223,-0.4929353283296223,1.0000966660825898,7.216411759134788e-05
-0.4928901160310488,-0.4928901160310488,1.0000164924885444,7.039561023604706e-05
-0.49283792231872214,-0.49283792231872214,0.9999594098022666,6.96378386730477e-05
-0.49274436775012875,-0.49274436775012875,1.000098951508749,6.945677305359227e-05
-0.49265602664236213,-0.49265602664236213,1.0000317564310977,6.960950814585904e-05
-0.4925372298297589,-0.4925372298297589,0.9999775489257839,6.970397014306017e-05
-0.4924299214020721,-0.4924299214020721,1.000092301955637,6.987827040652909e-05
-0.49227587018249325,-0.49227587018249325,0.9998115536319956,7.056052950727878e-05
-0.4921714849231648,-0.4921714849231648,0.9999469993252355,7.001876109325747e-05
-0.4920852169350837,-0.4920852169350837,1.0001199202439455,7.075278376035697e-05
-0.4919714477160596,-0.4919714477160596,1.0000153360111805,6.938393709491705e-05
-0.4918563620434725,-0.4918563620434725,1.00008744306702,6.970315825349151e-05
-0.4917561805457808,-0.4917561805457808,1.0000613641698464,6.981522764595342e-05
-0.4916496757679852,-0.4916496757679852,1.0001014447399772,7.003788826764673e-05
-0.4915164789548726,-0.4915164789548726,1.0000048267693127,7.029964242487679e-05
-0.49137473400041926,-0.49137473400041926,0.9998613466992416,7.043318770519264e-05
-0.49123114452231675,-0.49123114452231675,0.9999968205936597,6.969358452258623e-05
-0.49114594464190303,-0.49114594464190303,1.0000383244023525,6.963543753435081e-05
-0.49096099825546846,-0.49096099825546846,1.000024567912384,6.998121694421824e-05
-0.490867226923001,-0.490867226923001,0.9999479155930583,6.99653367844701e-05
-0.490750539675355,-0.490750539675355,1.0000874099056631,6.929142469352167e-05
-0.49062208621471654,-0.49062208621471654,1.000054439729126,7.056168101748002e-05
-0.4905123724587611,-0.4905123724587611,1.0000499783287098,6.97248715701903e-05
-0.4904131879869965,-0.4904131879869965,0.9999689273303562,7.002796306262882e-05
-0.49026298668031815,-0.49026298668031815,1.0000256467204767,7.164142485152523e-05
-0.4901991466758773,-0.4901991466758773,1.0001272300147201,6.947125842380353e-05
-0.4901223861437757,-0.4901223861437757,1.0000167866250331,7.063378040938733e-05
-0.48995473240065623,-0.48995473240065623,0.9999655559432554,6.986330020845917e-05
-0.48978867203404663,-0.48978867203404663,1.0000226126678349,7.048050764602614e-05
-0.489683156501269,-0.489683156501269,1.0000615496201608,6.895224948795316e-05
-0.48953180525568313,-0.48953180525568313,1.0000253020733503,7.019155254888006e-05
-0.48937919751915615,-0.48937919751915615,1.0000310746133436,6.920673765250081e-05
-0.489294523303397,-0.489294523303397,0.9999884227406792,7.270232063085518e-05
-0.4891739113925723,-0.4891739113925723,1.0001107518703134,7.073699281255069e-05
-0.489097208417661,-0.489097208417661,0.9999047885818537,6.923045085090887e-05
-0.4889845730693196,-0.4889845730693196,1.0000851935147481,6.967341982748873e-05
-0.48892186736193255,-0.48892186736193255,0.9999796166041468,6.934207116315489e-05
-0.48880434607126516,-0.48880434607126516,0.9998985985072558,6.977321145508638e-05
-0.4886821520587546,-0.4886821520587546,0.9998994789691824,6.971489576620315e-05
-0.48852848338574406,-0.48852848338574406,1.0000157145660324,7.030874149146487e-05
-0.4883891162418877,-0.4883891162418877,0.9999777683511551,6.996081504408242e-05
-0.48825175956008027,-0.48825175956008027,0.999827866219636,7.022844179512203e-05
-0.4880690713529475,-0.4880690713529475,0.9999491804982175,6.898771214398752e-05
-0.4879513302090345,-0.4879513302090345,1.0000893712706538,7.04412465879048e-05
-0.48781778775010026,-0.48781778775010026,0.9999881107983544,7.027411309111778e-05
-0.48770568298205036,-0.48770568298205036,1.0000007594872944,6.912901089400417e-05
-0.48761407912534194,-0.48761407912534194,0.9999022700160911,6.93205322054206e-05
-0.4875365444007912,-0.4875365444007912,1.0000008352878818,6.920934281087225e-05
-0.487437144726573,-0.487437144726573,1.0000248838353751,7.209489994124474e-05
-0.48735492324340157,-0.48735492324340157,0.9999293278621758,6.935571615935411e-05
-0.48725248672708404,-0.48725248672708404,1.0000692446755453,6.924980686534434e-05
-0.4872105532311252,-0.4872105532311252,1.0000283618962318,7.150861378192622e-05
-0.487164785672212,-0.487164785672212,1.0000622242660955,6.944583569669118e-05
-0.48702922428929013,-0.48702922428929013,1.000021762969825,6.897091293746113e-05
-0.48684175171947575,-0.48684175171947575,0.9998570704469378,7.033292621730583e-05
-0.4866859166359063,-0.4866859166359063,1.000106419854452,7.08010891688894e-05
-0.48654041125555525,-0.48654041125555525,1.000055685580059,7.054480838731497e-05
-0.48645845767023277,-0.48645845767023277,1.000076600934167,7.551758893151283e-05
-0.48639437473757424,-0.48639437473757424,1.0000117340145427,7.062891418773569e-05
-0.4862693166563986,-0.4862693166563986,1.0000834184430423,7.017800591103852e-05
-0.4861278352080262,-0.4861278352080262,0.9999599794340511,6.905098408415475e-05
-0.4860097957731341,-0.4860097957731341,0.9999703919189479,7.030145224596875e-05
-0.4857685008828412,-0.4857685008828412,0.9999662689460603,6.934992467243026e-05
-0.48566758103261237,-0.48566758103261237,0.9999894557349478,6.958092621232897e-05
-0.4855046282449621,-0.4855046282449621,1.000168810775612,6.970432888365327e-05
-0.48538541079906283,-0.48538541079906283,1.00003944656536,6.969233887407933e-05
-0.48530867452791426,-0.48530867452791426,1.0001859526061834,7.054606973228686e-05
-0.4852438841800904,-0.4852438841800904,1.0000609615189127,6.991237752250714e-05
-0.4851863091302221,-0.4851863091302221,0.9999941589464394,6.927312786252906e-05
-0.48515841853950403,-0.48515841853950403,0.9999319359619747,7.000359449472848e-05
-0.4851096456928644,-0.4851096456928644,1.0001018711891294,6.905627613223844e-05
-0.4850649547035573,-0.4850649547035573,1.000041554082709,6.972580682895895e-05
-0.4849776184477378,-0.4849776184477378,0.9999418600184846,6.853227262784009e-05
-0.4848322488964186,-0.4848322488964186,1.0000009753533738,6.924337569974408e-05
-0.48470427803695204,-0.48470427803695204,1.000146195254732,7.015459222767987e-05
-0.4846041015087394,-0.4846041015087394,0.9999384226007411,6.891512599054533e-05
-0.48450517277087785,-0.48450517277087785,1.000030656263179,7.020431578060404e-05
-0.48438051520934094,-0.48438051520934094,1.000102372784836,7.070755833181292e-05
-0.4842758274404332,-0.4842758274404332,0.9999774542241557,7.010258926131512e-05
-0.4841596768339514,-0.4841596768339514,1.000149720845796,6.981845493994959e-05
-0.4840441928157816,-0.4840441928157816,1.0000218881379122,6.97247802899309e-05
-0.48389245042490076,-0.48389245042490076,1.0000633259562226,6.92093691127401e-05
-0.4837574896286242,-0.4837574896286242,1.0000819695180612,7.004592325272813e-05
-0.48368481634825,-0.48368481634825,0.9999654188617038,6.953555078247035e-05
-0.48357796358905036,-0.48357796358905036,1.0000166849724414,7.016317791461223e-05
-0.4834647866489831,-0.4834647866489831,1.0000477785188286,6.990859153364261e-05
-0.4833320879144594,-0.4833320879144594,0.9999713298757452,6.977369425908125e-05
-0.48315728021989346,-0.48315728021989346,1.0000181687477219,6.972081078064963e-05
-0.4829580739722587,-0.4829580739722587,1.0000459938555317,6.961682359728829e-05
-0.48280063273268753,-0.48280063273268753,1.0000276374553743,7.002817047508187e-05
-0.482671932510857,-0.482671932510857,1.0000586673807703,6.975032792598223e-05
-0.48251747929170963,-0.48251747929170963,0.9998758537883414,6.916922916010355e-05
-0.48240747911913784,-0.48240747911913784,1.0000051909168772,7.077792359142735e-05
-0.4822896771802334,-0.4822896771802334,0.9999918522987812,7.113515672496236e-05
-0.48219163182366176,-0.48219163182366176,1.0000818175568045,6.924907076139906e-05
-0.48205495018628425,-0.48205495018628425,0.9999858891829378,6.981101839302293e-05
-0.4819931057485519,-0.4819931057485519,1.00002465269784,6.923248183793887e-05
-0.48177811083587585,-0.48177811083587585,1.000046156144014,7.037735141240167e-05
-0.48165318061946893,-0.48165318061946893,1.0000404160670202,6.878357168829335e-05
-0.48149477272381774,-0.48149477272381774,0.9999992300711223,7.112096146617618e-05
-0.481352080067154,-0.481352080067154,1.000084513595636,6.94179045344851e-05
-0.4812364576791879,-0.4812364576791879,1.0000423014566184,7.110013119430904e-05
-0.4811365571047645,-0.4811365571047645,1.0000095885824594,7.00120274256973e-05
-0.48091323813132475,-0.48091323813132475,0.9999748091568991,7.066907346587462e-05
-0.4808218848629622,-0.4808218848629622,1.0000367379262498,7.071805473974908e-05
-0.48070857408019946,-0.48070857408019946,1.000090794688842,7.03869268189353e-05
-0.48063918352854673,-0.48063918352854673,0.99986756626685,6.961526963224896e-05
-0.4805177600326715,-0.4805177600326715,0.9999433946923754,6.952848334367242e-05
-0.48039367423189105,-0.48039367423189105,0.9999071073961814,6.869789565389713e-05
-0.48030172401922755,-0.48030172401922755,1.0001519746386254,6.94673818382932e-05
-0.4802044210431632,-0.4802044210431632,1.0001052398015333,6.956545154867467e-05
-0.4801224513503257,-0.4801224513503257,1.0000058102595173,7.051339554642834e-05
-0.4800544261539471,-0.4800544261539471,0.9999264954018618,6.957002173278627e-05
-0.4799636923300568,-0.4799636923300568,1.0001379317689636,6.89285952130791e-05
-0.4798941812783596,-0.4798941812783596,0.9999122422579456,6.881388588496426e-05
-0.47979212054633535,-0.47979212054633535,0.9999367414563279,6.972469745113581e-05
-0.4797150763362879,-0.4797150763362879,1.0000268864084263,6.8974847648728e-05
-0.47963458610174714,-0.47963458610174714,1.000000193114334,7.003118394957705e-05
-0.4795090856074239,-0.4795090856074239,0.9999990709121336,6.998631108143823e-05
-0.47942205595318227,-0.47942205595318227,0.9999900571978142,6.961837318065364e-05
-0.4793639452531352,-0.4793639452531352,1.0000058786059487,7.160308886801214e-05
-0.4793081768628326,-0.4793081768628326,1.0001733499466383,6.917805267325338e-05
-0.47914327736652923,-0.47914327736652923,0.9999204712333813,6.890550180150094e-05
-0.4788795684551587,-0.4788795684551587,0.9999589246067438,7.058834853588567e-05
-0.47868549923732645,-0.47868549923732645,1.0000132801036732,6.942190778566795e-05
-0.4786160379531793,-0.4786160379531793,0.9999950156537135,7.223799314313431e-05
-0.47852709480648625,-0.47852709480648625,0.9998753687349862,6.99144171031436e-05
-0.4784700185569818,-0.4784700185569818,1.0001125331476843,7.11524026291253e-05
-0.47837674395996144,-0.47837674395996144,0.9998987116505111,7.00695146280616e-05
-0.4782595500772004,-0.4782595500772004,0.9999956157419924,6.927839694711536e-05
-0.4781202702593873,-0.4781202702593873,0.9999034258097736,6.991478962317072e-05
-0.4780398323724512,-0.4780398323724512,1.0000166265578883,6.899264875959831e-05
-0.47794151788839373,-0.47794151788839373,0.9999273248476962,7.001539390842865e-05
-0.47781944238231516,-0.47781944238231516,0.9998738856296517,6.950265890084481e-05
-0.4776198264109553,-0.4776198264109553,0.9999471294477285,6.974751457733389e-05
-0.47756019636726704,-0.47756019636726704,1.0000094470939997,6.967159084235921e-05
-0.4775167544474243,-0.4775167544474243,1.0000523896228193,6.991447109391443e-05
-0.47746636429073985,-0.47746636429073985,1.0000729382267857,6.996610872957786e-05
-0.47743203271966195,-0.47743203271966195,0.9999909670260836,6.91827609537038e-05
-0.4773445150232874,-0.4773445150232874,0.9999322286481437,7.052030654455888e-05
-0.4772230608708924,-0.4772230608708924,1.0000150675773487,6.9684750949633e-05
-0.47705014738603496,-0.47705014738603496,0.999876660051763,6.905434542619417e-05
-0.47695036370569144,-0.47695036370569144,1.0000069168095913,7.065628471835588e-05
-0.4768555331538664,-0.4768555331538664,0.9999431301354049,6.966442455048268e-05
-0.47672086965612837,-0.47672086965612837,1.000027754823608,6.934024142955354e-05
-0.4766518352000276,-0.4766518352000276,0.9999923309271812,7.019745223972132e-05
-0.4765218469983665,-0.4765218469983665,0.9999776600197473,7.058789250056082e-05
-0.4763647411353304,-0.4763647411353304,0.999939543399312,7.016072147396799e-05
-0.47624876537447564,-0.47624876537447564,1.000105074654786,6.937048138775641e-05
-0.47616478602867573,-0.47616478602867573,1.0000184011276279,6.9438255876578e-05
-0.47605346952186667,-0.47605346952186667,1.0000034540959342,7.014609569636183e-05
-0.4759052050038008,-0.4759052050038008,1.000078113595024,7.001491425749718e-05
-0.47579297259362646,-0.47579297259362646,1.0000435183252683,6.966683761208135e-05
-0.4756592164194444,-0.4756592164194444,1.0000647698324407,7.076710526480673e-05
-0.4755814533898956,-0.4755814533898956,1.0000579776927059,7.03969271455473e-05
-0.4754295730323065,-0.4754295730323065,1.0001767196714288,6.955516516410866e-05
-0.4752847706098692,-0.4752847706098692,1.0000715293436375,6.97787363691409e-05
-0.47515927200292934,-0.47515927200292934,1.0001345173332896,7.148841918407526e-05
-0.47497784470178883,-0.47497784470178883,1.0001139615650871,7.022928727962943e-05
-0.4747812409274047,-0.4747812409274047,0.9999874771110582,7.037040440220482e-05
-0.47468209558574015,-0.47468209558574015,1.0000811898739397,6.958118983818148e-05
-0.4745950219585211,-0.4745950219585211,1.0000090287785368,7.0516428807266e-05
-0.47451418120908784,-0.47451418120908784,1.0001619476765462,6.907809394302143e-05
-0.4743869757337961,-0.4743869757337961,1.0000820503828647,7.065710402690036e-05
-0.47423588204110273,-0.47423588204110273,1.000035156709297,6.945893711040493e-05
-0.4741765025741188,-0.4741765025741188,0.9999073007801622,7.014741177703366e-05
-0.4740438287495635,-0.4740438287495635,1.0000462595532915,6.95352813534658e-05
-0.4739438945573056,-0.4739438945573056,1.0000407707884567,7.028792006771513e-05
-0.4738352668864536,-0.4738352668864536,0.9999935624958836,6.957482580539685e-05
-0.47365511210955447,-0.47365511210955447,0.9999284976499465,7.25149672181608e-05
-0.4734940362992347,-0.4734940362992347,0.9999167569250892,6.94071699247873e-05
-0.4733972463058308,-0.4733972463058308,0.9999439350608788,7.025247791212866e-05
-0.4733277016566717,-0.4733277016566717,0.9999631699707177,6.990668806190317e-05
-0.4731202852359274,-0.4731202852359274,0.9999939878723927,7.026788952884953e-05
-0.47295240543608086,-0.47295240543608086,1.0000944317654383,7.010160769437385e-05
-0.4728607587880106,-0.4728607587880106,1.000029305587699,7.04823405115961e-05
-0.472755271907954,-0.472755271907954,1.0001826903247673,6.984940837469935e-05
-0.4725880395199056,-0.4725880395199056,0.9999412199163764,6.933914915921422e-05
-0.47246634475159227,-0.47246634475159227,0.9999668149617762,6.982196413805975e-05
-0.4723822578176623,-0.4723822578176623,1.0000258497734795,6.951048693028727e-05
-0.47230518899305024,-0.47230518899305024,0.9999636947697992,6.886734581523581e-05
-0.4722577674372587,-0.4722577674372587,0.999955844188072,7.004650109674044e-05
-0.4721130071644438,-0.4721130071644438,1.0000165267246843,6.97066317943981e-05
-0.47191283400316025,-0.47191283400316025,1.0000300612469573,6.979773775180371e-05
-0.47181132271216486,-0.47181132271216486,0.999992206696696,6.905472865532615e-05
-0.4716691321635153,-0.4716691321635153,0.9999520481603635,7.106684982466527e-05
-0.4715354367363034,-0.4715354367363034,0.9999511266679517,7.09849414228677e-05
