time,time,flux,flux_err
-0.4995070221484639,-0.4995070221484639,1.0001840856632225,0.00013593501421893864
-0.498723657450076,-0.498723657450076,1.0001171113753622,0.00013852988530980138
-0.4982754598284373,-0.4982754598284373,0.9999791675326538,0.00012516925308701742
-0.49795039246673695,-0.49795039246673695,0.9999289218981586,0.00012567994105658014
-0.49735092977352907,-0.49735092977352907,0.9997859358425452,0.00012678092161574274
-0.49695614851952996,-0.49695614851952996,1.0000950417896584,0.00012604590347302906
-0.49630256140371787,-0.49630256140371787,0.9999471828550887,0.00012520874113823506
-0.495757157690241,-0.495757157690241,0.9999709978146758,0.0001279213257770988
-0.49528692305320876,-0.49528692305320876,0.9998862975312506,0.00012679831232494272
-0.49477088735147845,-0.49477088735147845,1.0001011475972152,0.00012750876922505258
-0.49420353836612774,-0.49420353836612774,0.999869315922423,0.00012747790356147274
-0.49369434065010864,-0.49369434065010864,1.000061289384028,0.00012726786171999725
-0.4931662057293579,-0.4931662057293579,0.9999982849166218,0.00012411562174402004
-0.4923551635845797,-0.4923551635845797,1.000058732812855,0.00012523840389286935
-0.4915988761902554,-0.4915988761902554,1.000032449190241,0.0001246239547805602
-0.49088132340984886,-0.49088132340984886,1.000166930815335,0.00012292299178860174
-0.4901977016183082,-0.4901977016183082,1.0002196661063958,0.00012527966075584837
-0.48985192586260384,-0.48985192586260384,1.0000341454621704,0.00012470446718505535
-0.4895176147954771,-0.4895176147954771,1.000130246187363,0.00012726805997708579
-0.48912914481479675,-0.48912914481479675,0.9999567174580122,0.0001256267313623006
-0.48858413664565886,-0.48858413664565886,0.9999596055801033,0.00012533386200578258
-0.4882044432888506,-0.4882044432888506,0.9998694656314759,0.00012524836114727336
-0.48751403273490723,-0.48751403273490723,1.0001253189924264,0.00012683512528901162
-0.48705951640731654,-0.48705951640731654,0.9999201856783039,0.0001276574509088484
-0.4864403294690419,-0.4864403294690419,0.9998207564646092,0.00012475718717121857
-0.4860130993183702,-0.4860130993183702,1.000019384847675,0.00012684190139975333
-0.4853791448258562,-0.4853791448258562,0.9999539644521022,0.00012837646587732977
-0.48491341882327105,-0.48491341882327105,0.9999503815300399,0.0001251862533412584
-0.4840955832914915,-0.4840955832914915,1.0000194626887366,0.0001238893544546618
-0.48347396741446574,-0.48347396741446574,0.9998234403919181,0.00012678290548037924
-0.4829569646419259,-0.4829569646419259,1.0000967095229432,0.000124650210108343
-0.4821624297706876,-0.4821624297706876,1.0002194381578293,0.00012268127442238946
-0.48150775982649063,-0.48150775982649063,0.9999414042930672,0.00012523493887853205
-0.48110954186413435,-0.48110954186413435,0.9997896148509617,0.00012676593830213882
-0.4806319342140341,-0.4806319342140341,1.0000432815300253,0.0001245440328155551
-0.480047091585584,-0.480047091585584,0.999971875908533,0.0001262893306299298
-0.4796317279833602,-0.4796317279833602,0.999941787056305,0.00012528451806065495
-0.4792144623643253,-0.4792144623643253,0.9997867684341472,0.00012677787942574865
-0.47868746723397637,-0.47868746723397637,1.0001205485599738,0.00012673629532347093
-0.4782338922610506,-0.4782338922610506,0.9999401641727692,0.0001267642567326321
-0.47759570936032103,-0.47759570936032103,1.0000475666104334,0.00012473601540904274
-0.477034437135444,-0.477034437135444,1.000248581369124,0.0001274739932463111
-0.47650322966219394,-0.47650322966219394,0.9999380771281304,0.00012725255298842874
-0.47565032459388024,-0.47565032459388024,0.999969472154311,0.0001235963388657459
-0.4750760908558732,-0.4750760908558732,0.9998001895410493,0.00012658675800954598
-0.47457664713438136,-0.47457664713438136,1.0000353640036415,0.00012733148417240142
-0.4740831336413976,-0.4740831336413976,0.9997626710237684,0.00012291850397136412
-0.4731158183189109,-0.4731158183189109,0.9999946353208052,0.0001252894798308363
-0.4726760861900402,-0.4726760861900402,1.000279707726195,0.0001252082855470982
-0.4722035598853836,-0.4722035598853836,0.9998384428789429,0.0001261377396505101
-0.4715428109426284,-0.4715428109426284,1.0001527725943256,0.0001263390494185345
-0.4710492127691396,-0.4710492127691396,1.0000097216485355,0.0001252238201769518
-0.470720882556634,-0.470720882556634,1.0001516397089627,0.00012677895689544152
-0.47010573956358714,-0.47010573956358714,0.9997726357125302,0.00012705692618249855
-0.46963982319575737,-0.46963982319575737,1.0000223858968524,0.00012786552724968
-0.4686988305416889,-0.4686988305416889,0.9999287334484954,0.0001258643826659756
-0.4679986570030451,-0.4679986570030451,0.9999890269984786,0.00012838304615215678
-0.46732152563345153,-0.46732152563345153,1.0000953392934382,0.0001314823417642485
-0.4666423421847867,-0.4666423421847867,0.9999670631910609,0.00012525833713339466
-0.46624706691072787,-0.46624706691072787,0.999936480529256,0.0001267336760649879
-0.4656659262051107,-0.4656659262051107,1.0000840131239255,0.00012410447008588527
-0.4648800298280548,-0.4648800298280548,0.9999697593820709,0.00012441582831059764
-0.4642620057420572,-0.4642620057420572,0.9999214580840038,0.00012410272799104588
-0.463847343652742,-0.463847343652742,0.9999846315106163,0.00012612291580819197
-0.4631942114501726,-0.4631942114501726,1.0000386139565536,0.00012453143363242675
-0.46268885291356127,-0.46268885291356127,1.0000472115867227,0.00012745957931661753
-0.4623065050604055,-0.4623065050604055,1.000102308304156,0.00012522018921242814
-0.46189361774304416,-0.46189361774304416,0.9999635961996429,0.00012723153002116178
-0.46135662750166373,-0.46135662750166373,0.9998827213798147,0.0001267468808480674
-0.4604177090135636,-0.4604177090135636,1.0002090600825477,0.0001258859959465549
-0.4596528251480777,-0.4596528251480777,1.0000981616766034,0.00012834174867696238
-0.45921481210680215,-0.45921481210680215,1.0000324268020688,0.00012632051432297602
-0.45871005976514423,-0.45871005976514423,0.999933828223228,0.00012851101146196505
-0.4580740281351609,-0.4580740281351609,1.0000832887444746,0.000126366645751701
-0.45762924255395776,-0.45762924255395776,1.0000091737729795,0.0001267643333438453
-0.45699624984990805,-0.45699624984990805,0.9999092522376769,0.00012411302318386596
-0.456253534409916,-0.456253534409916,1.0000878643366786,0.0001240785527239833
-0.45571614397049415,-0.45571614397049415,1.0000329270643458,0.0001241958730433922
-0.45519873790617565,-0.45519873790617565,0.9997473890550268,0.00012459180898246957
-0.45441098330484236,-0.45441098330484236,0.9999655176184827,0.00012245616739740205
-0.45400730908149856,-0.45400730908149856,0.9999666418780059,0.00012635373056725345
-0.45358010556956285,-0.45358010556956285,1.0002919962755439,0.00012676422228306348
-0.4532704789948184,-0.4532704789948184,0.9998579912214623,0.00012565456191571676
-0.45266494597599377,-0.45266494597599377,1.0000299787931872,0.00012518969644123207
-0.4522371062805178,-0.4522371062805178,0.9999403706841503,0.00012709183221634035
-0.45152528417820575,-0.45152528417820575,0.9999458956085885,0.00012681875500932202
-0.4510100663377671,-0.4510100663377671,1.000129778339978,0.0001283095717839123
-0.4504499827540712,-0.4504499827540712,0.9999090722486212,0.00012585700116083358
-0.4499461399303982,-0.4499461399303982,1.0000700752237992,0.0001274210992718371
-0.44936002892209215,-0.44936002892209215,1.0000437175906525,0.00012637750176872845
-0.44897690992220307,-0.44897690992220307,1.0000462044559735,0.00012612774789114357
-0.4481997761933599,-0.4481997761933599,0.9999158252575743,0.0001236582627561867
-0.447402645405964,-0.447402645405964,1.0000893566213338,0.00012569606742986362
-0.4467952399631031,-0.4467952399631031,0.9999786592445712,0.00012458764931127776
-0.4458986163488589,-0.4458986163488589,0.9998777356007718,0.00012247279550044957
-0.44546932116209065,-0.44546932116209065,1.0000110127777102,0.00012638302427206056
-0.4451053620141465,-0.4451053620141465,0.9998456475194406,0.00012516033330620214
-0.4447802990587661,-0.4447802990587661,1.0000170780227409,0.00012569900977951065
-0.4442935944360215,-0.4442935944360215,0.9999066651375849,0.00012676899003826353
-0.443897853573435,-0.443897853573435,1.0000819933272413,0.0001242011353061117
-0.4436065736808814,-0.4436065736808814,0.9996714018860693,0.00012684254414070767
-0.4430556035222253,-0.4430556035222253,0.999929050675307,0.00012630114098689392
-0.4425436811929103,-0.4425436811929103,0.9999734529346153,0.00012777298020498473
-0.4419520901807118,-0.4419520901807118,1.0000308154116737,0.00012630618047442544
-0.44157248339324723,-0.44157248339324723,1.0000228772110051,0.00012452986060016623
-0.44104862308304293,-0.44104862308304293,1.0001121200020946,0.00012750490929968366
-0.44049873531912453,-0.44049873531912453,1.0000138280592572,0.0001272649716220526
-0.43971873354457786,-0.43971873354457786,0.9999318862904445,0.00012253078543299423
-0.43898254513042045,-0.43898254513042045,0.9998732266537154,0.00012634361439173777
-0.43844302542274816,-0.43844302542274816,1.0000940714352395,0.0001245816991500564
-0.4377783366799122,-0.4377783366799122,1.0001885664371926,0.00012424848781332696
-0.4369613148941426,-0.4369613148941426,1.0001532628998189,0.00012525157043002897
-0.43659111915330867,-0.43659111915330867,0.9998936488132714,0.00012518693008006118
-0.4360648377973121,-0.4360648377973121,0.9998929117962335,0.0001261460498947266
-0.4354443802119931,-0.4354443802119931,0.9999827529351917,0.00012630138436994678
-0.4350264791079098,-0.4350264791079098,1.000040286409072,0.00012526133418344702
-0.43457795631547924,-0.43457795631547924,0.9998744394062771,0.00012832886658417265
-0.434039331015083,-0.434039331015083,1.0001798582063341,0.00012630062673303592
-0.4334792020265013,-0.4334792020265013,1.0000228651761733,0.0001267653331665835
-0.4327998188236961,-0.4327998188236961,1.000023534177714,0.00012636811513973175
-0.432262035398162,-0.432262035398162,0.999942627419319,0.00012634999639144225
-0.4318073581525823,-0.4318073581525823,1.0000610765787357,0.00012565312682308267
-0.43103969224612226,-0.43103969224612226,0.9999358090384389,0.00012361209700430852
-0.4304734203702537,-0.4304734203702537,0.9998671383866258,0.00012652629046164656
-0.4299744019226637,-0.4299744019226637,1.0000716317763159,0.00012730460943955504
-0.4294753556518117,-0.4294753556518117,0.9998929588535563,0.0001229340801261116
-0.42859803486790043,-0.42859803486790043,1.000207931166937,0.00012510450563632953
-0.4281880533497315,-0.4281880533497315,1.0001999066740341,0.00012522375865221786
-0.4278268468391616,-0.4278268468391616,0.9998694512787702,0.0001272033990284644
-0.4271537102264119,-0.4271537102264119,0.9999729551583533,0.00012566931795271555
-0.42662099400477016,-0.42662099400477016,0.9999706354026128,0.0001263561300427211
-0.4262792087072739,-0.4262792087072739,0.9999417113221867,0.00012520319521245812
-0.4257240157458,-0.4257240157458,1.0000453953536308,0.0001286783932044491
-0.42531995675526557,-0.42531995675526557,0.9999747471974508,0.0001267456634769189
-0.4244549552327953,-0.4244549552327953,1.000189684108334,0.0001258843764791029
-0.4236417088337475,-0.4236417088337475,0.9999869615505732,0.00012679499476276972
-0.4232759416452609,-0.4232759416452609,0.9999124300756088,0.00012788251682120254
-0.4225467475829646,-0.4225467475829646,1.0001757361999755,0.00013081537290958743
-0.4219845785119105,-0.4219845785119105,1.0000476421392732,0.00012528383522816074
-0.4215476073062746,-0.4215476073062746,0.9999880317562416,0.00012678470643030448
-0.4209086881863186,-0.4209086881863186,0.9998562623186196,0.00012296862054922186
-0.420111104886746,-0.420111104886746,1.000102120546445,0.00012436512655108112
-0.4195742181706009,-0.4195742181706009,0.9997655572518458,0.00012568672297698095
-0.41905832650954833,-0.41905832650954833,1.0000799698200522,0.00012455505836127056
-0.4182981510384707,-0.4182981510384707,1.000158717009383,0.00012474552943891984
-0.4178252645768225,-0.4178252645768225,0.9999874673940671,0.00012522024564077595
-0.41749482246523256,-0.41749482246523256,1.0000356092089546,0.00012677852800771803
-0.41693397316266784,-0.41693397316266784,0.9997909332615226,0.0001282850947817835
-0.41630097943416333,-0.41630097943416333,1.0000765104101699,0.00012686504072061675
-0.4154365340131335,-0.4154365340131335,0.9999755255844756,0.0001258728178434128
-0.4149072340136627,-0.4149072340136627,0.9999166484812745,0.00012875816305898624
-0.41438938430510464,-0.41438938430510464,0.9999748492344563,0.00012472377846932677
-0.4138591571652796,-0.4138591571652796,1.0001525289311703,0.00012939009874326457
-0.41328254850814117,-0.41328254850814117,0.9999302124435262,0.0001263769540516635
-0.4127981879370054,-0.4127981879370054,1.000093863717431,0.00012723199359891598
-0.4121215155581012,-0.4121215155581012,0.9998435404545163,0.00012131223293674514
-0.41137649270822296,-0.41137649270822296,0.9999712664621441,0.0001257125262468595
-0.4109392309910618,-0.4109392309910618,1.000267951925608,0.000124617556775556
-0.4101528521074215,-0.4101528521074215,1.0000899256993026,0.00012132048236953765
-0.40954964577103964,-0.40954964577103964,1.000081148272719,0.0001263866680391034
-0.4091428159561474,-0.4091428159561474,0.9998009281213006,0.00012626441118162798
-0.4088032054831274,-0.4088032054831274,0.9999497160067179,0.00012570804320192629
-0.40829320258344526,-0.40829320258344526,1.000034419850922,0.000126763228677268
-0.4078582859830931,-0.4078582859830931,1.0000458435272024,0.00012434895833702064
-0.4072232972132042,-0.4072232972132042,1.0001475396657429,0.00012684239946414734
-0.40655988399812487,-0.40655988399812487,1.0000550717025825,0.00012790066439346886
-0.40607812654052394,-0.40607812654052394,1.0001515175758655,0.00012676895935528142
-0.4055613435455598,-0.4055613435455598,1.0000692906114856,0.0001272537374538122
-0.4050039859692333,-0.4050039859692333,1.0001226570997686,0.000127457637776053
-0.40449521228438245,-0.40449521228438245,1.000014807667501,0.0001272877829961492
-0.4037998391315341,-0.4037998391315341,1.0000599159094323,0.00012249807162064287
-0.4029631468030857,-0.4029631468030857,1.0000500631829783,0.0001268110915480631
-0.40238777292834127,-0.40238777292834127,1.0001040509701218,0.00012458981416512674
-0.40165968705841804,-0.40165968705841804,0.9999105599006392,0.00012127821308148437
-0.4009868307504803,-0.4009868307504803,0.9999304279597474,0.00012525986843649835
-0.40064139903406615,-0.40064139903406615,1.00011360597608,0.00012470649204342693
-0.40031815603142606,-0.40031815603142606,0.9999326143961152,0.0001272507299419767
-0.39992423031653745,-0.39992423031653745,1.0001166650352096,0.00012564350967526823
-0.39941069432243237,-0.39941069432243237,0.9998344243690858,0.00012643449440864483
-0.3991131147107808,-0.3991131147107808,1.0000204687054342,0.00012360088498927335
-0.3986136254068697,-0.3986136254068697,0.999980106483838,0.00012681416295316658
-0.3980151684372686,-0.3980151684372686,1.0000489111954998,0.00012740287525450018
-0.3974929403659189,-0.3974929403659189,1.0000861525082478,0.00012675210472062897
-0.397070516194799,-0.397070516194799,0.9999065132667712,0.0001255989790950308
-0.39658739723963665,-0.39658739723963665,0.9999077147423334,0.00012635874443955267
-0.39602457311120814,-0.39602457311120814,0.9999762461898278,0.00012840772102448185
-0.3955090035597095,-0.3955090035597095,1.0000297044440138,0.00012419774641296547
-0.3946915906941285,-0.3946915906941285,1.0001137399426396,0.00012408890533607576
-0.39415142341458703,-0.39415142341458703,1.000117976622696,0.00012839842030795538
-0.39365198910818433,-0.39365198910818433,1.0000108018578968,0.00012295149278874869
-0.3927299405797385,-0.3927299405797385,0.9999951651811063,0.0001226053518662535
-0.39224671736592426,-0.39224671736592426,1.0000033456105684,0.00012636755166167717
-0.39180675273237286,-0.39180675273237286,1.0002284198528524,0.0001272710736017331
-0.3911712245317176,-0.3911712245317176,1.0003911318814431,0.00012565613463869026
-0.39065851690247655,-0.39065851690247655,0.9999622908387332,0.0001247181020104846
-0.39029769381158985,-0.39029769381158985,0.9999405074362226,0.00012686013870397917
-0.38970786180580036,-0.38970786180580036,0.9999658123896402,0.00012686572813115404
-0.3893057184381178,-0.3893057184381178,0.9999376255622655,0.00012830341227643935
-0.38858819555607627,-0.38858819555607627,1.000048888196955,0.0001258760005508256
-0.3879551936435746,-0.3879551936435746,0.9998637753740625,0.00012634735168086646
-0.3873812028934481,-0.3873812028934481,1.0000140005068408,0.00012834343403272813
-0.38662581573298666,-0.38662581573298666,0.9999757985539528,0.00012361422134555706
-0.38595361456100363,-0.38595361456100363,0.9998718996444239,0.00012542677810359175
-0.3854824631038355,-0.3854824631038355,1.0000868767052118,0.0001283850811226029
-0.3849747585132718,-0.3849747585132718,0.9999188241209886,0.0001229536214924542
-0.3841579369007377,-0.3841579369007377,0.9999549624275967,0.00012490108766506977
-0.38358802304719575,-0.38358802304719575,1.0001105035027553,0.00012407806874722825
-0.38314672065607736,-0.38314672065607736,1.000014407929827,0.0001277021366691945
-0.3824274427519413,-0.3824274427519413,1.0000161838074395,0.00012520880586045256
-0.38192947109928355,-0.38192947109928355,1.0002783855240012,0.00012526802039368687
-0.38158589288650546,-0.38158589288650546,0.9999752978556657,0.0001267619357377948
-0.38101917970052457,-0.38101917970052457,1.0002309527035327,0.00012821775585198291
-0.3806051079067402,-0.3806051079067402,1.0000489074469538,0.00012676930217073794
-0.3796409707341809,-0.3796409707341809,1.0000473029101016,0.00012587244498046498
-0.37895874413952696,-0.37895874413952696,0.9998563906840003,0.0001283650247339564
-0.3784350711706793,-0.3784350711706793,1.000066292815877,0.0001307433850825034
-0.3777449922286905,-0.3777449922286905,0.9998223880329411,0.00012583343943791954
-0.3773039729334414,-0.3773039729334414,1.0000085414327997,0.0001252789632655251
-0.3768142453802284,-0.3768142453802284,0.9998590604233015,0.00012833528312045217
-0.37619851783965713,-0.37619851783965713,0.9997935461005888,0.00012130913291598037
-0.37533535033580845,-0.37533535033580845,0.9998415593998302,0.0001254473256800085
-0.37489750696113333,-0.37489750696113333,1.0000480571464094,0.00012620863074097686
-0.374290353897959,-0.374290353897959,1.0002548919420604,0.00012297841765927618
-0.3735760285897413,-0.3735760285897413,1.0000628369543232,0.0001258645814377243
-0.3731619522790425,-0.3731619522790425,1.0000494252081775,0.00012521591880909727
-0.37281297039589845,-0.37281297039589845,1.0000744869806484,0.00012729566281386784
-0.37222711261711083,-0.37222711261711083,0.999856842537938,0.00012673000548193527
-0.3715181305713486,-0.3715181305713486,0.9999794778361981,0.0001279410106174407
-0.3706968764425255,-0.3706968764425255,0.9998162432769506,0.00012638573107284318
-0.3702048900129739,-0.3702048900129739,1.00003042073928,0.00012722684852374379
-0.3696956525556743,-0.3696956525556743,1.0001286039354405,0.00012814024157006953
-0.3691224511829205,-0.3691224511829205,0.9996715737587383,0.00012743282519483203
-0.36858655844989696,-0.36858655844989696,0.9999389034297066,0.00012476842585822678
-0.36805085837258955,-0.36805085837258955,1.0000291906994554,0.0001272643508053197
-0.36735316356353,-0.36735316356353,0.9999984287815525,0.00012244056012555987
-0.3666301906370791,-0.3666301906370791,1.0000612377892888,0.00012456622383468248
-0.36612551246071234,-0.36612551246071234,1.0000236871349977,0.00012456261860475308
-0.365186493989313,-0.365186493989313,0.9999906306338758,0.00012245656288905994
-0.36482649492972996,-0.36482649492972996,1.0000860385552046,0.00012635126809075193
-0.36446183604130056,-0.36446183604130056,1.000089761088141,0.00012516674237771558
-0.3641412101482274,-0.3641412101482274,0.9999904760268808,0.00012569788905477302
-0.36354947117506525,-0.36354947117506525,0.9999782047683837,0.00012674910690784865
-0.3632362261269009,-0.3632362261269009,1.0001565873638263,0.00012432732671650165
