time,time,flux,flux_err
-0.49994546303150855,-0.49994546303150855,0.9999126671500748,0.0005082050385834812
-0.4997881643391035,-0.4997881643391035,0.9996967816819513,0.0005321540892094822
-0.49967565458215785,-0.49967565458215785,0.9995154192886746,0.0006779623552234423
-0.4995894304971443,-0.4995894304971443,0.9995461882841277,0.0005670750830058786
-0.4995404336586944,-0.4995404336586944,0.9993660522859662,0.0005224206263507334
-0.499403874604468,-0.499403874604468,1.0002319589921196,0.0005708725399004921
-0.49925943146445206,-0.49925943146445206,1.000166907645619,0.00045488686020900255
-0.49911111622786847,-0.49911111622786847,0.999966654222097,0.00043192012274855554
-0.49902400891078286,-0.49902400891078286,1.0001833817607502,0.0007225566001951873
-0.4989258764537226,-0.4989258764537226,0.9993173050194054,0.0005444935168526223
-0.498723395115303,-0.498723395115303,0.9993265358700268,0.0005486222447884996
-0.49854181730879643,-0.49854181730879643,1.0000066459053378,0.0006955297656854882
-0.49838916789449283,-0.49838916789449283,1.0001140542467355,0.00041172153396676277
-0.49831620592995024,-0.49831620592995024,1.0000763324205753,0.0006854537850458813
-0.498235040637519,-0.498235040637519,0.9995445002627633,0.0005346729373248936
-0.49811452159010516,-0.49811452159010516,0.9993855726733495,0.0005340758251652691
-0.4980436626741721,-0.4980436626741721,1.000471092222004,0.0005285060145941891
-0.4979789955159504,-0.4979789955159504,1.0000217591318303,0.0004256865244339947
-0.49789402338428773,-0.49789402338428773,0.9996407462409849,0.0006394329040897915
-0.49773632519354577,-0.49773632519354577,1.0000205606652157,0.00048588328586514167
-0.4976428825342737,-0.4976428825342737,0.9998099333493036,0.0005584286442194243
-0.4974965540615813,-0.4974965540615813,0.9995043177632139,0.000548948788684306
-0.4973470979173726,-0.4973470979173726,0.9997019899468202,0.0005371877090281817
-0.4970948242447776,-0.4970948242447776,0.9993334054665158,0.0006200097553816836
-0.4968895739300933,-0.4968895739300933,0.999713302911367,0.0006478876601174225
-0.49674331351416184,-0.49674331351416184,1.000130316189543,0.0004487292664521273
-0.49652885072755454,-0.49652885072755454,1.0003483289612625,0.0005330071847364683
-0.4963727951995679,-0.4963727951995679,1.0000065057705882,0.000517965258511521
-0.4962804950617283,-0.4962804950617283,0.9998445862946965,0.0005260077064477066
-0.49618067291448825,-0.49618067291448825,1.0001459206868029,0.0005022341547221852
-0.49605259452036987,-0.49605259452036987,0.999761917287738,0.0005510727457205347
-0.4959698156792001,-0.4959698156792001,1.0003747272282262,0.0006056781567746223
-0.4958899777564511,-0.4958899777564511,1.0003790832985766,0.0005115648210472111
-0.49583282187049915,-0.49583282187049915,0.9997245368501873,0.00041799921764205494
-0.49574040792213053,-0.49574040792213053,1.0003746192110723,0.0005101944644712004
-0.49562374665947573,-0.49562374665947573,0.9997238618346295,0.000561712475673805
-0.4954882828540576,-0.4954882828540576,1.0001815050399265,0.0006571233615051245
-0.49532740359682065,-0.49532740359682065,0.9999114304059422,0.00045768205913915034
-0.4951917518705159,-0.4951917518705159,1.0004210982653925,0.0006488003492363599
-0.49499494736810445,-0.49499494736810445,0.9992659469286446,0.0005565807603737747
-0.4948898294271203,-0.4948898294271203,1.0003729505308754,0.0006810152033156286
-0.49469263177816175,-0.49469263177816175,0.9999714307225211,0.0005487066858030837
-0.4945369104811107,-0.4945369104811107,0.9991257276318519,0.0006303596621675981
-0.49444559191688314,-0.49444559191688314,0.9996290894001187,0.0005436283848138082
-0.4942903317110904,-0.4942903317110904,0.9999732631021312,0.00045186377964274765
-0.4941761636215233,-0.4941761636215233,0.9995113381213219,0.00043229799564642414
-0.4940595803440374,-0.4940595803440374,1.0006187788909298,0.0006373866318813222
-0.4939073333218403,-0.4939073333218403,0.9998129700768705,0.0004617598515975057
-0.4938141911039565,-0.4938141911039565,1.0001457072051045,0.0005352576354805464
-0.49366505037032765,-0.49366505037032765,0.9997118290219316,0.0003834210679232467
-0.49355646002040887,-0.49355646002040887,0.9995992145442685,0.0005347841004009789
-0.4933520440954453,-0.4933520440954453,1.0000521781395866,0.000752327646748715
-0.4931725569033006,-0.4931725569033006,0.9999390674134883,0.0006240915466214548
-0.49298536038004387,-0.49298536038004387,1.0001529269303233,0.0007033971388212516
-0.492831585269596,-0.492831585269596,1.000221068834009,0.0006530411288801079
-0.49275232712498107,-0.49275232712498107,0.9997648847687483,0.0005533233876873767
-0.4926880998966226,-0.4926880998966226,0.9997057927239863,0.00044084468521801674
-0.49260843956544703,-0.49260843956544703,0.9999984373998828,0.0004567777340522321
-0.4925358593238343,-0.4925358593238343,0.9994757726402834,0.0004960330638164444
-0.49244510395474206,-0.49244510395474206,0.9994458099432775,0.0005522556986734136
-0.49232432165372303,-0.49232432165372303,0.9998668556260288,0.00047074868711505425
-0.4922739896854182,-0.4922739896854182,0.9998850821940675,0.0005593532825018199
-0.49213476936092776,-0.49213476936092776,0.9999038346817362,0.0005458001042832762
-0.4920144181473006,-0.4920144181473006,1.000068674993638,0.0005721677533735354
-0.49191045860279703,-0.49191045860279703,0.9998811817237481,0.0004135384435685316
-0.4917726781059173,-0.4917726781059173,0.9998120043699368,0.0005406172963071077
-0.49166975275802544,-0.49166975275802544,1.000307891214265,0.0006381071613262888
-0.491565827274826,-0.491565827274826,1.000540058221637,0.0005462302699296084
-0.4914219607162522,-0.4914219607162522,1.0005707344825707,0.0007636102873397741
-0.4912048867878184,-0.4912048867878184,0.9993991340439159,0.0005640286893751551
-0.49111311052656675,-0.49111311052656675,0.9995858446017554,0.00041148252546778323
-0.49104253904624784,-0.49104253904624784,0.9998115053752639,0.0006174887014458955
-0.4909605097614985,-0.4909605097614985,0.9999194834256893,0.0005353917934215553
-0.49086668585187,-0.49086668585187,0.9999777503739246,0.0005365753979224795
-0.49078415326366664,-0.49078415326366664,0.9997933937620992,0.0004256124345431902
-0.49067126338050004,-0.49067126338050004,1.000184131681934,0.0005530646286835402
-0.49055639405487456,-0.49055639405487456,0.999718863887398,0.0006470998022727939
-0.49042729081666037,-0.49042729081666037,1.0000011818896017,0.00044902153986865913
-0.4903182030615426,-0.4903182030615426,1.0004450547815964,0.00042886887087089574
-0.4901912275006907,-0.4901912275006907,0.9998940640398178,0.0006078205475579803
-0.489920055539551,-0.489920055539551,0.9995145529293735,0.0006364800512397345
-0.48953704789746555,-0.48953704789746555,0.9998000028168514,0.0005537917136005672
-0.4892962805341085,-0.4892962805341085,1.000910552143749,0.00042576183011057493
-0.48917538193854854,-0.48917538193854854,0.9999919322705765,0.0005377364487604235
-0.4890632405578799,-0.4890632405578799,0.9999497023374163,0.0006304355826278602
-0.4890015291271993,-0.4890015291271993,1.0002032252248285,0.00045908775144495666
-0.4888697972150112,-0.4888697972150112,1.000021863917421,0.0005446934507603327
-0.48879360515893494,-0.48879360515893494,1.0003298671092555,0.00045155751833601517
-0.48870606068885536,-0.48870606068885536,1.000012061438247,0.0006357283778515206
-0.4886344185877533,-0.4886344185877533,0.9997370395938587,0.0006027782142869757
-0.4885344620954129,-0.4885344620954129,0.999379761039058,0.00045365698362256283
-0.48844547006156064,-0.48844547006156064,0.9999361853097165,0.0004816447333972571
-0.48827491972733694,-0.48827491972733694,1.000241760664157,0.000634347420897995
-0.48809545787516984,-0.48809545787516984,1.0002934417034168,0.0006188362344428909
-0.4878750632000447,-0.4878750632000447,0.9999835704458974,0.000562472141159724
-0.48768456709585734,-0.48768456709585734,0.9997693612294312,0.0005563670181754593
-0.48757613932248206,-0.48757613932248206,1.0001238409211242,0.0006877131180648226
-0.4873896231794788,-0.4873896231794788,1.0003191052821216,0.0004312235344184236
-0.4872483055514749,-0.4872483055514749,0.9998802447648559,0.0006183309235634877
-0.48716474175780605,-0.48716474175780605,0.9999728837397184,0.0006077850005396126
-0.4870262309032114,-0.4870262309032114,0.999723129982069,0.0005641362248064981
-0.4869133802290889,-0.4869133802290889,1.0003372421908896,0.0004254738293199028
-0.4868248571528966,-0.4868248571528966,1.0001854083836899,0.00040553473867680916
-0.48675673287143584,-0.48675673287143584,0.9996416148503593,0.000624396314957801
-0.48662638541100023,-0.48662638541100023,0.9992831556025232,0.000435620067014067
-0.48652076789367127,-0.48652076789367127,1.0002874328906666,0.0005221791416110517
-0.4863854988005187,-0.4863854988005187,0.9996160779433227,0.000407430360924712
-0.4862469725470874,-0.4862469725470874,1.0002429318684674,0.0006401778464123967
-0.48606537743398803,-0.48606537743398803,0.9998738925186116,0.0006230338724852449
-0.48587610345530263,-0.48587610345530263,0.999941552310875,0.00041345508148284686
-0.4857812201051274,-0.4857812201051274,1.0000793563383612,0.0006936550004516389
-0.4856178577978426,-0.4856178577978426,1.0000793777712877,0.0005259013047117652
-0.4855226671672426,-0.4855226671672426,0.9999139894840109,0.0004422813296309212
-0.4854586102224857,-0.4854586102224857,0.9999999190927372,0.0006524224293582615
-0.485395554274146,-0.485395554274146,0.9997715885413221,0.0004311199200563762
-0.48530166624332194,-0.48530166624332194,0.9996749505511067,0.0005923267248142972
-0.4852485405510379,-0.4852485405510379,0.9997639349349022,0.0004381655949504975
-0.48508662303647726,-0.48508662303647726,0.9998902298065333,0.0006827198626954149
-0.4850131293886079,-0.4850131293886079,1.0002172339165711,0.0005304393037676187
-0.48491713978146433,-0.48491713978146433,0.9994779548559128,0.0005763317118951077
-0.48480073789032757,-0.48480073789032757,1.000298396187452,0.0005449722231087355
-0.4847025516817666,-0.4847025516817666,0.9997798888815449,0.0004533036717028577
-0.48456908982079766,-0.48456908982079766,0.9998819347213296,0.0006215071304037755
-0.4844119310131646,-0.4844119310131646,0.9997898455883687,0.00044163137116049806
-0.4842099110086565,-0.4842099110086565,0.9994959375839578,0.000548985115358982
-0.48404749410365183,-0.48404749410365183,1.0001318024162633,0.0006217160917316945
-0.48387591711652933,-0.48387591711652933,1.0002689979165884,0.0006195769936644246
-0.4837675060160109,-0.4837675060160109,0.999757617988784,0.00044245486260562186
-0.4836539342861215,-0.4836539342861215,0.9996385763004595,0.0007154364419758842
-0.4835442804305785,-0.4835442804305785,0.9997675162532513,0.000507989984065199
-0.4834603821022029,-0.4834603821022029,1.0002529684990003,0.000556145296410544
-0.4833650840562768,-0.4833650840562768,0.9999876341478717,0.00046018847126083867
-0.483255244715474,-0.483255244715474,1.000153688656209,0.0005562331596147978
-0.48316268421513087,-0.48316268421513087,0.9998344610644457,0.000531691191023785
-0.48306862121098676,-0.48306862121098676,1.0006595101961555,0.0004223367815064506
-0.4829203739427612,-0.4829203739427612,1.0001385751472411,0.000645858129185977
-0.4826841403642902,-0.4826841403642902,0.999420602333774,0.0005064708153232585
-0.48233819396264155,-0.48233819396264155,1.000326378688889,0.0005678733567522064
-0.48208053488524455,-0.48208053488524455,1.0002950474474561,0.0006512772329566607
-0.4819801832189114,-0.4819801832189114,1.0002988848619203,0.00041047610443083177
-0.48187190922908485,-0.48187190922908485,1.000189614092756,0.0006513288135987143
-0.48178760818373123,-0.48178760818373123,0.9993232085270728,0.0005477594834146061
-0.48173279529437424,-0.48173279529437424,1.0000760525736383,0.0006556153085705526
-0.48164987755772015,-0.48164987755772015,0.9995355332023121,0.0004415919774039795
-0.48156669090858484,-0.48156669090858484,1.0003989751323763,0.0005004204400400252
-0.4815049881985033,-0.4815049881985033,1.0005194999467721,0.0006143070627392516
-0.4814313335737097,-0.4814313335737097,1.0005104255052375,0.0005868389549137514
-0.481366291651284,-0.481366291651284,0.9995361956333788,0.0006205730031340701
-0.48126298824827246,-0.48126298824827246,0.9998744188738922,0.0005557894642051804
-0.4812014824448852,-0.4812014824448852,1.0000260735788271,0.00044998947646050026
-0.4810871070749272,-0.4810871070749272,0.9996631060716448,0.0004734608405277187
-0.48092174756384337,-0.48092174756384337,0.9999582237691517,0.000628458219385484
-0.48078114166783054,-0.48078114166783054,1.0005360302847215,0.0006531423527730249
-0.4806656841596123,-0.4806656841596123,0.9997757364577682,0.0005721064270054845
-0.4805232992457604,-0.4805232992457604,0.9997588025131332,0.0006663516568023931
-0.4804061570612248,-0.4804061570612248,0.9993677298485577,0.000557971784917551
-0.4802556856368028,-0.4802556856368028,0.99967330873148,0.0006573948671719078
-0.48004756351947436,-0.48004756351947436,0.999981001230316,0.00041034508550252737
-0.47996378014468066,-0.47996378014468066,0.9995195855652348,0.0005413744357618845
-0.4798286123896105,-0.4798286123896105,0.9998909851945769,0.0005549435330275757
-0.47967897146663746,-0.47967897146663746,0.9994232358585176,0.0004748852808449935
-0.47955101999323235,-0.47955101999323235,1.0004488238683193,0.0005808810549661291
-0.47940592019149336,-0.47940592019149336,0.9998083799640707,0.000604869562402054
-0.47926560873092966,-0.47926560873092966,1.0002079763232308,0.0004542911878175269
-0.4790993986902322,-0.4790993986902322,0.999992200747176,0.0005127027717784842
-0.47894412958085014,-0.47894412958085014,0.998963182581293,0.0006243508805055466
-0.47885886357180424,-0.47885886357180424,1.0005096508158136,0.00041433872667616617
-0.4785963451493444,-0.4785963451493444,1.0005607798284974,0.000570491453205894
-0.4784596936162416,-0.4784596936162416,0.9998690406216146,0.0004571160008316717
-0.4783712528744218,-0.4783712528744218,0.9995228955542107,0.0004949919790357362
-0.4782415786998172,-0.4782415786998172,0.9997764074849999,0.0005640067619441102
-0.47815291353617795,-0.47815291353617795,0.9998137288393119,0.0005392134280498514
-0.4780667668361275,-0.4780667668361275,0.9993898510756625,0.0005941291534063102
-0.4779775545473967,-0.4779775545473967,1.0001058561412315,0.0005309569025270251
-0.47782066366780784,-0.47782066366780784,0.9997143718309216,0.0004697608849546024
-0.47772058676237067,-0.47772058676237067,1.0002887435609995,0.0005498679573193745
-0.47763639558688736,-0.47763639558688736,0.9999824085132023,0.0005734775243911335
-0.4775386184828676,-0.4775386184828676,0.9999823818692073,0.0005358390688503857
-0.47744664538186044,-0.47744664538186044,1.0004975953899733,0.0005417099706667962
-0.4773352394473477,-0.4773352394473477,0.999484791596504,0.0004989129549856084
-0.47723827579902717,-0.47723827579902717,0.9998767481868611,0.0007003780384514525
-0.47706821196734384,-0.47706821196734384,0.9990784198920946,0.0006123166346059435
-0.476901758940221,-0.476901758940221,1.0006609162171185,0.0005478074373818284
-0.4767726854133798,-0.4767726854133798,1.0000937972141086,0.0006893242775104612
-0.4766412784392742,-0.4766412784392742,1.000227293817804,0.0005125936491327871
-0.47652783173143687,-0.47652783173143687,1.000047791120157,0.0005324947541306937
-0.4764501052064588,-0.4764501052064588,1.0004023723528892,0.0004770904767749177
-0.4763639124848851,-0.4763639124848851,0.9998921810233836,0.0006926280910230256
-0.4762639866785321,-0.4762639866785321,1.0002055360759865,0.00047697588366307775
-0.4761625692495727,-0.4761625692495727,1.0001375914974713,0.0005450397861146
-0.4760615079092531,-0.4760615079092531,1.0001558086449338,0.0005499766385580346
-0.47594578255157105,-0.47594578255157105,0.999990884986526,0.0006330200181814221
-0.47584002044604856,-0.47584002044604856,0.9996056747056311,0.0005514432084579379
-0.47566387817241773,-0.47566387817241773,0.9994609239349298,0.0005581817732522802
-0.4754801776893146,-0.4754801776893146,0.99979243957763,0.0006098802522546702
-0.47526561135491646,-0.47526561135491646,1.000333094155615,0.0005367813449153526
-0.4750817316464236,-0.4750817316464236,0.999989019176603,0.0006102508385463009
-0.47491390495451924,-0.47491390495451924,1.0003675531374814,0.0005516434202084807
-0.47475440815469483,-0.47475440815469483,0.9995597665394336,0.0005099904807092713
-0.47466773230116815,-0.47466773230116815,1.0000812740284304,0.0005021379408490732
-0.47451826403703307,-0.47451826403703307,1.0004357162304303,0.000576376559073918
-0.474426183799369,-0.474426183799369,0.9999608786592458,0.0007061065910616898
-0.47434735973001807,-0.47434735973001807,1.0001812151030625,0.00046135349725228407
-0.47427863392731523,-0.47427863392731523,1.0004812212111858,0.00046086115294779843
-0.4741756765411992,-0.4741756765411992,0.9995467462731135,0.0005103583463857999
-0.47408778682365665,-0.47408778682365665,0.9997054458529752,0.000552558687078483
-0.4739844116673339,-0.4739844116673339,1.0008892266247353,0.0005839411738615956
-0.4739039203068387,-0.4739039203068387,1.0001716498888678,0.0005538890604597927
-0.473710363938153,-0.473710363938153,1.0001576433591257,0.00048787462332539056
-0.4735871413780842,-0.4735871413780842,0.9988817347571872,0.0006489841787451655
-0.4734018697788997,-0.4734018697788997,1.0009058636591253,0.0006130369585756743
-0.4732468908812734,-0.4732468908812734,0.9993897610637766,0.0005483580376439616
-0.4730512854119297,-0.4730512854119297,0.9993862679976125,0.0005870110439430582
-0.4728959720174316,-0.4728959720174316,0.999805449960073,0.0005771918242305885
-0.47272205175722776,-0.47272205175722776,1.0007986978670418,0.0004241843638496417
-0.47260524593766606,-0.47260524593766606,1.0000245840154023,0.0005302668995693164
-0.4724676891240961,-0.4724676891240961,1.0003364646950303,0.0005463815200454282
-0.47232272152141375,-0.47232272152141375,0.9998072597530674,0.0005330604975264297
-0.4722059791747597,-0.4722059791747597,1.0001766288142035,0.00044063007408440676
-0.47209709676608325,-0.47209709676608325,0.9994024029496641,0.0006779916898633475
-0.47197640095473614,-0.47197640095473614,0.999759174069436,0.0004751201912610365
-0.4718088615412853,-0.4718088615412853,1.000441072185603,0.0006376046512624096
-0.4716415893304656,-0.4716415893304656,0.999917928877583,0.0005459476351370175
-0.471550081850728,-0.471550081850728,0.9998470718084077,0.0007021078667481831
-0.47133617981635323,-0.47133617981635323,0.9995114329304526,0.0005624566144073557
-0.4712406181170081,-0.4712406181170081,1.0001903227138484,0.0005599024732801914
-0.47117791532873526,-0.47117791532873526,1.0002486312152719,0.00046021934307612767
-0.4710424701770535,-0.4710424701770535,1.0002851993771058,0.0005051751136204154
-0.47095781956268185,-0.47095781956268185,0.9996467206908617,0.00045257650714633025
-0.4708313337076106,-0.4708313337076106,1.00067695597694,0.0006639548970733795
-0.4707671137912257,-0.4707671137912257,0.9998653894064349,0.0004747692737593036
-0.47070506711570487,-0.47070506711570487,0.9993301848678783,0.0006224146417574234
-0.47059533651954555,-0.47059533651954555,0.9999966853222825,0.00046601272532153116
-0.4704583234313759,-0.4704583234313759,0.9999665396753168,0.00045530852660673627
-0.4703252937364596,-0.4703252937364596,0.9997379970700774,0.0004304536042500356
-0.4702257593507966,-0.4702257593507966,0.9997892779907467,0.0006358187244198054
-0.47011789774987844,-0.47011789774987844,1.0000944464844523,0.0005605799272916912
-0.4699771492705622,-0.4699771492705622,1.00016506709497,0.0006178293110814556
-0.4697687781183049,-0.4697687781183049,1.000476294029406,0.0006141891026910101
-0.46960382764627867,-0.46960382764627867,0.9998616762194107,0.0004353599296005403
-0.4695050373818958,-0.4695050373818958,1.0003165635062143,0.0006015815210874842
-0.46942443436164466,-0.46942443436164466,1.0000925459248198,0.0005333409831606818
-0.46931220970836873,-0.46931220970836873,0.9994821078612139,0.0005545674368587173
-0.46924839955754577,-0.46924839955754577,1.0003768632605925,0.00041705631414147977
