time,time,flux,flux_err
-0.49995352597761666,-0.49995352597761666,1.000037012321846,0.00011849814393991035
-0.4998732010717504,-0.4998732010717504,1.0000001909206777,0.000116563232287923
-0.4997019417845877,-0.4997019417845877,0.9999899524913964,0.00011395276286301594
-0.49960071792738747,-0.49960071792738747,0.9999131737628117,0.0001163797357736183
-0.4994795922088088,-0.4994795922088088,1.0000161238331635,0.00011021420181745413
-0.499351129536808,-0.499351129536808,0.9999926309105005,0.0001193849850847268
-0.49917066872585564,-0.49917066872585564,0.9999718495889425,0.00011830732268268697
-0.49903085492551325,-0.49903085492551325,1.0000526974704236,0.0001103973934077523
-0.4988646301062545,-0.4988646301062545,1.0002921778863973,0.00011071889465659064
-0.498768003549776,-0.498768003549776,1.0000458102910175,0.00012022555869545144
-0.49867358378978677,-0.49867358378978677,1.000048075565797,0.0001128923782185748
-0.4985367014494841,-0.4985367014494841,0.9999124820244749,0.00011949328626417804
-0.4983927545705228,-0.4983927545705228,1.000297608037901,0.00010926905148803713
-0.49830872145394095,-0.49830872145394095,0.9998467045646302,0.00010971599916389235
-0.4981721798540093,-0.4981721798540093,0.9997966664408203,0.00011850456581752543
-0.49807809718477075,-0.49807809718477075,1.0000060994942144,0.00011253977533953281
-0.49792519838520094,-0.49792519838520094,1.0001113524782081,0.00011018035413998895
-0.4977978912604158,-0.4977978912604158,0.9999165317372819,0.00012209247840803473
-0.49767450006620495,-0.49767450006620495,1.000048271844037,0.00010924103031202835
-0.49762125269771784,-0.49762125269771784,1.0001238548734535,0.00011039871280758966
-0.4975783209796646,-0.4975783209796646,0.9999364706484062,0.00011465393404079833
-0.49753022735822017,-0.49753022735822017,1.000196156530562,0.00011351916946440908
-0.4974107868154533,-0.4974107868154533,1.0002052786983442,0.0001163734283688397
-0.49727676561888073,-0.49727676561888073,0.9999192313523053,0.00011256712617322671
-0.4971195621750667,-0.4971195621750667,0.9999906486171788,0.0001194924338774093
-0.49698599762195955,-0.49698599762195955,1.0000534115601931,0.00011766010657946903
-0.4968930004280992,-0.4968930004280992,1.0000071254338614,0.00011452181767302664
-0.49680488882149804,-0.49680488882149804,0.9999233805646075,0.00011434047180665957
-0.4967067036865046,-0.4967067036865046,0.9999003734788156,0.00011038864369098756
-0.49659327220724664,-0.49659327220724664,1.0000545039615991,0.00011643205783292282
-0.49646111606125487,-0.49646111606125487,0.9999939599794041,0.00011087622771063567
-0.49633128850982755,-0.49633128850982755,0.999973454610239,0.00011806763517620069
-0.4962008753267583,-0.4962008753267583,1.000112129527911,0.00010897103442120838
-0.49616776516922984,-0.49616776516922984,1.0001997331809334,0.00011062361057137231
-0.49595448877080345,-0.49595448877080345,1.0000511670685872,0.00011709951221423884
-0.4957565265140147,-0.4957565265140147,1.0001320213780176,0.00011310540670058599
-0.49568689490115503,-0.49568689490115503,0.9998628601000876,0.00011366109115436545
-0.49558865216822595,-0.49558865216822595,1.000210162656284,0.00011889745321526223
-0.49547794167592657,-0.49547794167592657,1.000171492025731,0.00011191488871888379
-0.49537479733262446,-0.49537479733262446,0.9999728224338711,0.00011234703546787666
-0.4952389982849127,-0.4952389982849127,1.0001704029443828,0.00011356181831912392
-0.49510377945553047,-0.49510377945553047,1.0001785577037414,0.00012152369724841834
-0.49493586088065056,-0.49493586088065056,1.0000086028310065,0.00011102171228664509
-0.49478671893448334,-0.49478671893448334,0.9998295516790053,0.00012219891537025657
-0.4947109233165975,-0.4947109233165975,1.0000335443407218,0.00011629038480516233
-0.4946359331443091,-0.4946359331443091,0.9999028572559453,0.00011096618599343813
-0.49446649392630204,-0.49446649392630204,1.0000847244775213,0.00011671472759637838
-0.49438277992012447,-0.49438277992012447,1.0000105764438916,0.00011245857532735527
-0.4942343231567065,-0.4942343231567065,1.0000686050453624,0.00011207977659615238
-0.4941530774260173,-0.4941530774260173,1.0000002261041123,0.00011371241857379376
-0.4940521750599146,-0.4940521750599146,1.0000484396528908,0.00011496311747335657
-0.49395083200506634,-0.49395083200506634,1.0001793056239887,0.00011372540133099147
-0.49387697366037175,-0.49387697366037175,0.9999966499449945,0.00012007524442082076
-0.4937510867064702,-0.4937510867064702,0.999932570389243,0.00011879642225304001
-0.49357712051278213,-0.49357712051278213,1.0001056701752917,0.00011190272151696798
-0.49344359225797235,-0.49344359225797235,1.0000324748195002,0.00011764249551648095
-0.4933110357931582,-0.4933110357931582,0.9999109909808428,0.00011211949448518762
-0.4932190389779862,-0.4932190389779862,1.000132054382544,0.0001145635928971399
-0.4931038385213469,-0.4931038385213469,0.9999211594814341,0.00011261267992126436
-0.492955293689738,-0.492955293689738,1.0001712443405029,0.00011895427917788682
-0.49284324877517066,-0.49284324877517066,0.9999665462079694,0.0001114667110423367
-0.4927185086067766,-0.4927185086067766,0.9998527310924391,0.00010899407978561489
-0.4926134055072907,-0.4926134055072907,1.0002151406674478,0.00012548265808413396
-0.49247774025570834,-0.49247774025570834,0.9999417362396159,0.00010770907755326697
-0.4923887385361013,-0.4923887385361013,1.0001433400133,0.00011520332888707979
-0.49227513181831456,-0.49227513181831456,0.9999466471343664,0.00011844955554972739
-0.4921339428605279,-0.4921339428605279,0.9999975974590607,0.00011061542906709882
-0.4919954572469578,-0.4919954572469578,0.9997870280127772,0.00011262606813883598
-0.4919015080362442,-0.4919015080362442,0.9999566946749777,0.00011601255639634976
-0.4917876571736997,-0.4917876571736997,0.9999022952888101,0.00011072079830608465
-0.4916891001703334,-0.4916891001703334,1.0000983442867883,0.0001181843012453444
-0.4915206635239883,-0.4915206635239883,1.000099575116177,0.0001088114873653886
-0.49141624165495157,-0.49141624165495157,1.0000751226913074,0.00011390428095886602
-0.49129100737918635,-0.49129100737918635,1.0000445130630653,0.00011845492679919215
-0.49113878113712417,-0.49113878113712417,1.000049525514204,0.00010877405488907625
-0.4910646787902806,-0.4910646787902806,0.9998533634974717,0.00011253940451493064
-0.4909993114779354,-0.4909993114779354,0.9999634399675343,0.00010917958606991307
-0.49092509510956006,-0.49092509510956006,1.0000051151924225,0.00011895160308706064
-0.4908567197751836,-0.4908567197751836,0.9999527616239334,0.00011157776865403412
-0.4907058647775557,-0.4907058647775557,0.9999779784043383,0.0001187141502079181
-0.49053391032502985,-0.49053391032502985,1.0000975012887376,0.0001121020340761115
-0.49037790319416674,-0.49037790319416674,0.9999638397882877,0.00012544372814960375
-0.49028482652502137,-0.49028482652502137,1.0000319694515718,0.00010894556555875317
-0.4901500173567911,-0.4901500173567911,1.0000326169525833,0.00011329668044408193
-0.4900073599128518,-0.4900073599128518,1.0000310975206248,0.00010964769017955366
-0.4898886732960818,-0.4898886732960818,0.999777732225778,0.00011868335512440193
-0.48976387357979545,-0.48976387357979545,1.000044397942589,0.0001132010404235551
-0.4896614233846776,-0.4896614233846776,0.99995616311395,0.00010979898612704963
-0.4895615039888071,-0.4895615039888071,1.0001445415122523,0.00012837082683046327
-0.48942242201592306,-0.48942242201592306,0.9999936101816754,0.00011163510017927339
-0.48930456707748815,-0.48930456707748815,0.9999553154445284,0.0001098887876695618
-0.4892738672628184,-0.4892738672628184,0.9999494691589715,0.00010942247149045414
-0.489102449103666,-0.489102449103666,0.9999025879257157,0.00011946247446811043
-0.4890297690508305,-0.4890297690508305,0.9999353869122757,0.00011504858733710468
-0.48898830268153687,-0.48898830268153687,1.000043452875152,0.00011422963196499366
-0.4889215831484762,-0.4889215831484762,0.9999595881118166,0.00010956017740639753
-0.48876100099732867,-0.48876100099732867,0.9998627425532426,0.00011200687710594253
-0.4885505076206755,-0.4885505076206755,0.9999239650714135,0.00011769524955194419
-0.488382000492129,-0.488382000492129,0.9999556120375648,0.00012129863035818873
-0.48825008045096185,-0.48825008045096185,1.0001142627952184,0.00012322771423522945
-0.4881424845720176,-0.4881424845720176,1.000076049329227,0.00011706421087890886
-0.48804695306753276,-0.48804695306753276,1.0000783296658589,0.0001108811625588124
-0.487994784807961,-0.487994784807961,0.9999982155810644,0.00010976357811509701
-0.48790674706106074,-0.48790674706106074,1.0000474728708202,0.00011200985749776808
-0.487811304013303,-0.487811304013303,0.9997590808047729,0.00011476006023104099
-0.48774222823703894,-0.48774222823703894,1.0000292327177858,0.00011725672181925662
-0.48759019770368467,-0.48759019770368467,1.0001996150563701,0.0001126708570323648
-0.4874284210251062,-0.4874284210251062,0.9998719413343066,0.00011197198872413717
-0.48735608340066394,-0.48735608340066394,1.000081958096543,0.00011135391939568167
-0.48720640488900246,-0.48720640488900246,1.0000343298164338,0.00011931839316994117
-0.4871243147266796,-0.4871243147266796,0.9999574487023579,0.00011137700093157327
-0.48697610713425094,-0.48697610713425094,1.000071833992145,0.00011763823569243145
-0.48689031736430477,-0.48689031736430477,1.0000360260538232,0.00011008503184647362
-0.4866414231015369,-0.4866414231015369,1.0000440668335553,0.00011620058001634839
-0.486383626141469,-0.486383626141469,1.000171564653204,0.00011083883278142917
-0.4862383327781572,-0.4862383327781572,1.0001422715238029,0.00011653477133340129
-0.48612769188621313,-0.48612769188621313,1.0001068502500512,0.00011682649742511154
-0.48605558866547655,-0.48605558866547655,0.9999615140075508,0.0001173427087251183
-0.4859430839162087,-0.4859430839162087,0.9999854455261759,0.00011657627625696301
-0.48586484723491596,-0.48586484723491596,0.9999438539973134,0.00010938740629971855
-0.4857500700483797,-0.4857500700483797,1.0000321199598345,0.00011247025965470212
-0.4855749957961962,-0.4855749957961962,1.000024522521587,0.00011270612024577645
-0.48547545904293654,-0.48547545904293654,1.0000398838443474,0.00011693954425230071
-0.48535032015788604,-0.48535032015788604,1.0000291355471727,0.00011500772866102378
-0.48525426564738156,-0.48525426564738156,1.0002097850870073,0.00011047722492125536
-0.48514208926499125,-0.48514208926499125,0.9999397687443556,0.00011864980413098041
-0.4850310198409716,-0.4850310198409716,0.9999984220727285,0.00011295234043764042
-0.4849103419735911,-0.4849103419735911,1.0001627166572198,0.0001172252707322966
-0.48476242974575146,-0.48476242974575146,1.0000866915915894,0.00011020923251048161
-0.4846829855989199,-0.4846829855989199,1.000157038104827,0.00011588182885100223
-0.48456807843758726,-0.48456807843758726,1.0000864022314224,0.00011517104227796678
-0.48435929502302316,-0.48435929502302316,0.9999563445523124,0.00011214389377124277
-0.48425455102842535,-0.48425455102842535,1.000034729117978,0.00011615287442014684
-0.4841621914878488,-0.4841621914878488,1.0002119922227084,0.00011512712511763455
-0.4840411595519981,-0.4840411595519981,1.000112876165288,0.00011410495987615743
-0.4839550907578086,-0.4839550907578086,1.0000580184669146,0.00011030207040640045
-0.4838583611053764,-0.4838583611053764,0.9999580573479033,0.00011626707684564452
-0.4837535729559022,-0.4837535729559022,1.0001237533287175,0.0001128109117758825
-0.4837114463982289,-0.4837114463982289,0.9999395315424426,0.00012216003043414244
-0.4835763511611731,-0.4835763511611731,1.0002400953171544,0.00011080854389081886
-0.4835013628646266,-0.4835013628646266,0.9998878342845801,0.00011238427117515448
-0.483352075831499,-0.483352075831499,1.0000202420127169,0.00011170893678690211
-0.48327227658883204,-0.48327227658883204,0.9997476697712993,0.00011809863295790705
-0.4831574180192547,-0.4831574180192547,0.9998438989334387,0.00010805650952073784
-0.4830452896479983,-0.4830452896479983,1.0000164948610835,0.00011320577949006842
-0.48297210281161823,-0.48297210281161823,1.0001483368262545,0.00010903835175708052
-0.48287192453281025,-0.48287192453281025,0.9999886465567375,0.00012332717933150067
-0.4827227189336554,-0.4827227189336554,0.9999040902937135,0.00010815156755875981
-0.4826181587821338,-0.4826181587821338,1.0000751604674438,0.00011194808747907682
-0.4825273159338394,-0.4825273159338394,1.0002107198718917,0.00011573013889948594
-0.4824483960357611,-0.4824483960357611,1.0000452246413203,0.00011019898549009105
-0.48235926897177706,-0.48235926897177706,1.0000015054247666,0.00011151664420679583
-0.48223231515003134,-0.48223231515003134,0.9999467926158669,0.00011952412321357835
-0.4821046726210625,-0.4821046726210625,1.0000841910146172,0.00011770276673548575
-0.4819459085789276,-0.4819459085789276,0.9999490482231259,0.00010986222403203453
-0.4818274778386694,-0.4818274778386694,1.000151198165088,0.00011259085022685049
-0.48174469795339975,-0.48174469795339975,1.0000993107301337,0.00011850150579574437
-0.481704593692848,-0.481704593692848,1.0001682122547702,0.00011387393201264086
-0.48163440219504994,-0.48163440219504994,1.0000868026765324,0.00010901032852615194
-0.48150271506165154,-0.48150271506165154,0.9999707192243188,0.00012020478380773629
-0.48135990931186823,-0.48135990931186823,1.0000198280129904,0.00011039521142061168
-0.48128365444863447,-0.48128365444863447,1.0000386936480126,0.00010820440425094984
-0.481187036105257,-0.481187036105257,0.9998894525401315,0.00011839119809382056
-0.48105773276474795,-0.48105773276474795,0.999847181173736,0.00011231580457412924
-0.4809296668317984,-0.4809296668317984,1.0001759605012714,0.00011149674062989078
-0.4807322497785208,-0.4807322497785208,1.000116542469025,0.00012166156802056553
-0.48060945341567274,-0.48060945341567274,0.9999262000637914,0.0001119658473827996
-0.48057219042821087,-0.48057219042821087,0.9998398634341834,0.00011318746610272414
-0.48052508784167003,-0.48052508784167003,1.0000814521074006,0.00011473069032288049
-0.4803651010777685,-0.4803651010777685,1.0000973813993883,0.00012039211053905866
-0.48019473882595776,-0.48019473882595776,1.000060619063495,0.00011280545863328248
-0.48003276778763393,-0.48003276778763393,0.9999103247040857,0.00011688411091440993
-0.4798941382774501,-0.4798941382774501,0.9999475358782703,0.00012137089823713464
-0.47980668661912207,-0.47980668661912207,1.0001099277402115,0.00010904819756844555
-0.47974512762157245,-0.47974512762157245,0.999936756832357,0.00011207215015728243
-0.47962818833912024,-0.47962818833912024,1.0000637419071396,0.00010923206288532637
-0.4795308065105928,-0.4795308065105928,1.0001995331496027,0.00011736982504130344
-0.4793876150113647,-0.4793876150113647,1.0001720054765395,0.00011153968942936152
-0.47926180766080506,-0.47926180766080506,1.000071100399222,0.00011602112997247704
-0.47915768795937763,-0.47915768795937763,0.9998122154564077,0.00011074490401455119
-0.47911917423189154,-0.47911917423189154,0.9999466220690387,0.00010978595294536386
-0.47894284542126114,-0.47894284542126114,1.000054473356101,0.00011744651448415645
-0.4787983848582371,-0.4787983848582371,1.0001647009744612,0.00011955585395803351
-0.47872319263842655,-0.47872319263842655,0.9999354230459355,0.00011297600612776335
-0.4786409298118087,-0.4786409298118087,1.0000679733029825,0.00011199113504082847
-0.4785352079430595,-0.4785352079430595,0.99992577787978,0.00011776940318112213
-0.4784185907803476,-0.4784185907803476,0.99998192589316,0.00011332774554863897
-0.4782492282320163,-0.4782492282320163,0.9999105029576063,0.00011183907573755606
-0.4780762025009608,-0.4780762025009608,1.00003111203055,0.00012322432643798004
-0.4779146556800697,-0.4779146556800697,1.0001160740736137,0.00011263614963007794
-0.47777228394988924,-0.47777228394988924,0.9998126390447704,0.00011668135506634163
-0.47768511605536335,-0.47768511605536335,0.999986473605135,0.00011630479589664281
-0.4776248421927448,-0.4776248421927448,1.000091640259885,0.00011789582262810097
-0.4775094642667682,-0.4775094642667682,1.000077426016064,0.00010864147291879719
-0.47736967261589597,-0.47736967261589597,1.0001567035567893,0.00011579536340635573
-0.4772792736825068,-0.4772792736825068,1.0001883283031832,0.00011184366554233382
-0.47712251626653596,-0.47712251626653596,0.9999999471697345,0.00011137347666000408
-0.4769946061365772,-0.4769946061365772,0.9999255352024713,0.00011594173923125929
-0.47692226732615384,-0.47692226732615384,1.0001049217413276,0.00010964675473980818
-0.4768003827004577,-0.4768003827004577,0.9999556154230913,0.00012576839985727628
-0.4766369524440961,-0.4766369524440961,1.0001020761571575,0.00011282071411119107
-0.47650921645981725,-0.47650921645981725,1.0003213588142659,0.00011132748883933743
-0.4763527374176192,-0.4763527374176192,1.0001001663645253,0.00011828160634385756
-0.4762045278926962,-0.4762045278926962,1.0000287496205937,0.0001176710806750323
-0.4761158359309775,-0.4761158359309775,1.0001158732478015,0.0001194482263965502
-0.47602590732421957,-0.47602590732421957,1.0000076762594683,0.00011039924189244317
-0.47588012015621645,-0.47588012015621645,1.0001318317410701,0.00011780965894171911
-0.47570772582985227,-0.47570772582985227,1.000181798959541,0.00011395884773763997
-0.4755384007032262,-0.4755384007032262,1.0000577318406743,0.00012386720198691935
-0.4754193323475192,-0.4754193323475192,1.0000894124290072,0.00011220913365664665
-0.4753598171751946,-0.4753598171751946,1.0000052874052057,0.00011260176571043625
-0.47522953575244176,-0.47522953575244176,0.999937489473527,0.00011748940196289672
-0.4751279463569517,-0.4751279463569517,0.9999874004837068,0.00011047128981185822
-0.4749962250512908,-0.4749962250512908,1.0002222003595354,0.00011262384677105511
-0.4749073538347147,-0.4749073538347147,1.0000542746445698,0.0001121115414605973
-0.47476187357970046,-0.47476187357970046,1.000099974196099,0.00011693945423466284
-0.47468963982973944,-0.47468963982973944,1.0000456765024153,0.00011207120637935874
-0.47450398134969873,-0.47450398134969873,0.9999912577635797,0.00011723515048531622
-0.4743869378376985,-0.4743869378376985,0.999884000787165,0.00011247039945937152
-0.4742650314889033,-0.4742650314889033,0.9999120262631619,0.00011919156435073158
-0.47408880686562044,-0.47408880686562044,1.0000003570195664,0.00011459349129413544
-0.47400002268695973,-0.47400002268695973,1.000032047702834,0.00010969699152420467
-0.47391382471396354,-0.47391382471396354,1.000014180437222,0.00011115470629573189
-0.4738478722123546,-0.4738478722123546,1.000073547461064,0.00012321568669101073
-0.47371194590523374,-0.47371194590523374,0.9998786318812682,0.000119426616323763
-0.47355117208644515,-0.47355117208644515,1.0000968444579548,0.00011187238960543337
-0.4733796854066895,-0.4733796854066895,0.9999315001360403,0.00011865492513052035
-0.4732914469568641,-0.4732914469568641,1.0000274302493033,0.00011883112114250941
-0.47321160300489284,-0.47321160300489284,1.0001460255078245,0.00011309360391106849
-0.4731091497247689,-0.4731091497247689,0.9999895211056062,0.00011036963647928441
-0.4729840195010183,-0.4729840195010183,1.0001443616620023,0.00012080659448761252
-0.4728899333815207,-0.4728899333815207,1.0000260580873221,0.00011656828472642134
-0.4727674130321248,-0.4727674130321248,1.000158991356656,0.00011299766936480355
-0.47263282348430946,-0.47263282348430946,0.9999750096921691,0.00011263363294973183
-0.4725548563830671,-0.4725548563830671,0.9999191988683602,0.00012095049706112442
-0.47241530351748223,-0.47241530351748223,0.9999479535649882,0.00012195473963633535
-0.4722828702069819,-0.4722828702069819,0.9998155613182422,0.00011276725771475316
-0.47216539683868175,-0.47216539683868175,1.0000416063403033,0.00011883910808304454
-0.47203262477269164,-0.47203262477269164,1.000174994822063,0.00011104088843492881
-0.47200343906442865,-0.47200343906442865,1.000091724529702,0.00011580235547954719
-0.47194673862686615,-0.47194673862686615,1.0001022369271437,0.00011192426624252094
-0.4718581882756553,-0.4718581882756553,0.9998912696133576,0.0001123957929326364
