time,time,flux,flux_err
-0.4999196259601983,-0.4999196259601983,1.0000634331354885,0.0004486106611275766
-0.4996809772659617,-0.4996809772659617,0.9996461549083071,0.00037806217941221607
-0.49944725613167973,-0.49944725613167973,1.0001469532881921,0.0003668124261047933
-0.4993191513916827,-0.4993191513916827,1.000158523976657,0.00036633606075440187
-0.4991384947919869,-0.4991384947919869,0.9998958625961591,0.000365077869323179
-0.49904270267870743,-0.49904270267870743,1.0002489519743487,0.000412613968068777
-0.49900318565196355,-0.49900318565196355,0.9998775795628305,0.00036213712417575703
-0.4988717709871707,-0.4988717709871707,0.999553016854582,0.0003520143300614121
-0.49871950159867995,-0.49871950159867995,0.9999079651754427,0.00035809047519271285
-0.49851650160053396,-0.49851650160053396,1.0002981164479865,0.0003718323610909383
-0.4983580143802101,-0.4983580143802101,0.9999160266053895,0.0003520116543532704
-0.49827498064842074,-0.49827498064842074,1.0001681532690472,0.0003679454044227182
-0.4981878217389749,-0.4981878217389749,1.0003439767299258,0.000352586860433753
-0.4980648986165761,-0.4980648986165761,0.9998389297073939,0.0003600875695500552
-0.4979542421271617,-0.4979542421271617,1.00033309963247,0.0003627362960791307
-0.49780991053339674,-0.49780991053339674,1.0000736434427204,0.000419927143797997
-0.4977367841260275,-0.4977367841260275,0.9996091599726478,0.00034762702267304664
-0.49765970561420547,-0.49765970561420547,1.0003311154531467,0.00039360261027087084
-0.4976246281679778,-0.4976246281679778,0.9998606300055206,0.0003784309609652488
-0.49755938176458586,-0.49755938176458586,0.99953596085253,0.00036974158989791105
-0.4974442823768186,-0.4974442823768186,0.9999832785841543,0.00041160160986391316
-0.49730879083581386,-0.49730879083581386,1.0004788063988348,0.00038778043961018436
-0.4972411298411316,-0.4972411298411316,0.9999790403554728,0.00039138375750425185
-0.4971405398682691,-0.4971405398682691,0.9999470631535917,0.0003892620979067399
-0.4969984534109244,-0.4969984534109244,1.0001379151985619,0.0004943366988587252
-0.4968314960686257,-0.4968314960686257,1.0002251064414798,0.00034613881171830017
-0.49673778315918754,-0.49673778315918754,0.9999358645365062,0.0003747341254693995
-0.49657704599158026,-0.49657704599158026,1.0001142612512357,0.00042443615997985514
-0.49643784752915965,-0.49643784752915965,1.000068730866124,0.00043333118163199494
-0.49630479070401634,-0.49630479070401634,0.9998918320447354,0.000361920523461769
-0.496152275964414,-0.496152275964414,1.0001256970370183,0.0004422843360684499
-0.49587935986564846,-0.49587935986564846,0.9998729797142095,0.00042474236624779113
-0.4957158135424834,-0.4957158135424834,0.999836881806859,0.0004499634894529178
-0.4955701056132966,-0.4955701056132966,0.9998530707369371,0.0003649323389133102
-0.4954131260048598,-0.4954131260048598,1.0003156686752364,0.00034911106814324244
-0.495278142594907,-0.495278142594907,0.9993081005381335,0.0003486099949494031
-0.4951403828250477,-0.4951403828250477,0.999662895715638,0.00035098267647200407
-0.49494725768017817,-0.49494725768017817,1.0003562085228315,0.00035176233672466886
-0.49481074157884,-0.49481074157884,1.0001293938101168,0.0003685589479145108
-0.4947347380919382,-0.4947347380919382,1.0002483584132733,0.00038068080040666607
-0.4947115486473194,-0.4947115486473194,0.9994628052893985,0.00038844649787012027
-0.49458976970927326,-0.49458976970927326,1.000046883772049,0.00034802312942982096
-0.4944671452562034,-0.4944671452562034,0.9998121689720263,0.0003426246378093582
-0.4943240041764511,-0.4943240041764511,1.0003278321575055,0.0003842154873454656
-0.494137113688339,-0.494137113688339,0.999703578715074,0.0003605733187042693
-0.49399975728811113,-0.49399975728811113,1.0000375273259245,0.0003469455455210826
-0.49386967819809796,-0.49386967819809796,0.99990698850387,0.0003727804094494193
-0.493721669614024,-0.493721669614024,0.9998139533909225,0.0003486677378685237
-0.49358276205603036,-0.49358276205603036,0.9999400070019441,0.0004123148391218876
-0.493471685401164,-0.493471685401164,0.9997115326010724,0.00036966056719560196
-0.493369979889394,-0.493369979889394,1.0001876829040595,0.00035857552127056987
-0.4933264700914151,-0.4933264700914151,1.00002008352183,0.0003808361125096112
-0.49327565943240187,-0.49327565943240187,1.0000229555381388,0.00044964062275143
-0.493231444646517,-0.493231444646517,1.0003942266733652,0.00035668522771070774
-0.4930938319281267,-0.4930938319281267,1.0002837359467285,0.00037889074039630904
-0.4930068399495212,-0.4930068399495212,1.000058983303281,0.00042443608316668604
-0.49290771499581754,-0.49290771499581754,1.0000846762623157,0.00038352824672702776
-0.49280131623600026,-0.49280131623600026,0.9997576783418435,0.0004160659625025668
-0.4926568455608503,-0.4926568455608503,0.9999673432044045,0.0004404013394138943
-0.49247890280239515,-0.49247890280239515,0.9998913756476145,0.0004023991079938713
-0.4923057835192594,-0.4923057835192594,0.9998348269259443,0.0004590323997060098
-0.49216059454047356,-0.49216059454047356,0.9999264553991825,0.0003898505352287752
-0.49203310989760213,-0.49203310989760213,1.0000499521973485,0.00036457608636624383
-0.4919525552264531,-0.4919525552264531,1.0001023943808505,0.000385918776820342
-0.49178165372723015,-0.49178165372723015,1.0000592175758691,0.0004831732848429735
-0.4916591429850087,-0.4916591429850087,1.0002113171370302,0.00036824052541038505
-0.4914580820433912,-0.4914580820433912,0.9998757676538006,0.00043135006413682855
-0.49135864698910153,-0.49135864698910153,0.9998912709991542,0.00038038574988311666
-0.49119943021069046,-0.49119943021069046,1.0000419206915714,0.0003564614928898312
-0.4910836368253513,-0.4910836368253513,1.0002367291847987,0.00037171210613083514
-0.49092312964276064,-0.49092312964276064,0.9997191900145932,0.00037958503935454143
-0.49082567970908714,-0.49082567970908714,0.9998250275962082,0.00038657764898925007
-0.4907135797664523,-0.4907135797664523,0.9999182036183878,0.0003576027404779955
-0.4906259102011973,-0.4906259102011973,0.9995811471276369,0.0003641536637366123
-0.49051872195486795,-0.49051872195486795,1.0001754320057048,0.00036049065027292973
-0.4904354430640524,-0.4904354430640524,0.9997360285847415,0.0003498908789406289
-0.4903966457444767,-0.4903966457444767,1.0002010724845456,0.00039777779499167935
-0.490337846447801,-0.490337846447801,0.9995761144771004,0.0003494462779136506
-0.4902706738706911,-0.4902706738706911,0.9999113334647509,0.0004051436348164835
-0.49007738786749544,-0.49007738786749544,0.9999870986100357,0.00036385312257774643
-0.48979388045045197,-0.48979388045045197,1.000273341227118,0.00035220143474918014
-0.48966483755284573,-0.48966483755284573,0.9996561077823849,0.000412184499057833
-0.4895227802095178,-0.4895227802095178,1.0002597639189172,0.0003420509562080498
-0.4893598157694214,-0.4893598157694214,1.000390075747808,0.000415491613836011
-0.4892182089373819,-0.4892182089373819,1.0003343219576604,0.00033699904542987285
-0.4891690970565833,-0.4891690970565833,1.0002630326597566,0.00037035666854133315
-0.4890619561127096,-0.4890619561127096,1.0000452634123942,0.00045042831491314374
-0.48900906691342244,-0.48900906691342244,1.0000034042871198,0.0003643161602978371
-0.48895237438628103,-0.48895237438628103,1.0001522248819863,0.0003674034638782026
-0.4888500150227628,-0.4888500150227628,1.0003765626864076,0.00036059797208932347
-0.48874551818953477,-0.48874551818953477,1.0002001288736095,0.0004305223055169769
-0.48862798518821365,-0.48862798518821365,0.999630753468837,0.0004023544977584089
-0.48852952512461345,-0.48852952512461345,1.0004043280086312,0.000416616698388418
-0.4884528980102914,-0.4884528980102914,1.0005142884157112,0.00040089550641028064
-0.48832698907644956,-0.48832698907644956,1.0000194925484953,0.0003971775076048994
-0.48819272875407477,-0.48819272875407477,1.0000243946609468,0.000416899327668627
-0.4880468059789564,-0.4880468059789564,0.9994357942207278,0.00046179089276224446
-0.4878906778700184,-0.4878906778700184,1.0001000830620836,0.00036573653828035635
-0.48778090736304874,-0.48778090736304874,1.000338995073678,0.0004105891904059874
-0.4876295349444263,-0.4876295349444263,0.9997380191399319,0.0003992827847372877
-0.4874991763332218,-0.4874991763332218,0.999819742028744,0.00041762652321127345
-0.48727102456614374,-0.48727102456614374,1.000690748136472,0.0004563320451918703
-0.4871025173117232,-0.4871025173117232,0.9995773855387002,0.0004069977396922094
-0.4869382191121986,-0.4869382191121986,0.9997274277504786,0.0003615567806808947
-0.4868153255505604,-0.4868153255505604,0.9996447101393141,0.0003682421615111291
-0.4866733059374383,-0.4866733059374383,1.0000310813404985,0.0003705255144639643
-0.4865000891164527,-0.4865000891164527,1.000329333755516,0.00035024393843730153
-0.4863994034829375,-0.4863994034829375,1.000001014753137,0.00036842197300069403
-0.4862880787070026,-0.4862880787070026,0.9999106357678589,0.000372513955131756
-0.48617359361451234,-0.48617359361451234,1.000553398680014,0.0003424243041198683
-0.48611668715093403,-0.48611668715093403,0.9999721162112165,0.0003542539781456448
-0.48606690008600706,-0.48606690008600706,0.9999927667334407,0.0004351570025754048
-0.4857949889890733,-0.4857949889890733,0.9998865403153477,0.00038395687340567067
-0.485481699230877,-0.485481699230877,0.9999444157017576,0.00040299653375147767
-0.4853629950637696,-0.4853629950637696,1.0001614956390887,0.00037080623627704714
-0.4852116208552616,-0.4852116208552616,0.9998295761785432,0.0003470907956346782
-0.4851191160138114,-0.4851191160138114,0.9998553766669757,0.00041635214375253075
-0.4849868346602307,-0.4849868346602307,1.0001895044370017,0.0003597696380434325
-0.48486907758997405,-0.48486907758997405,1.0002027519763412,0.00043164249118978913
-0.48478133266471557,-0.48478133266471557,0.9994318867102902,0.0004054623830411018
-0.4847119256584847,-0.4847119256584847,0.9996027879326768,0.0003726473537174035
-0.484596919384785,-0.484596919384785,1.000270086857108,0.0004072362409366247
-0.4844749730676995,-0.4844749730676995,1.0001056296941733,0.00035428408795577554
-0.484348982807569,-0.484348982807569,0.9997322137255935,0.0004269946053302184
-0.48427877173162415,-0.48427877173162415,0.9998916418057029,0.0003922589382193018
-0.4842060412163846,-0.4842060412163846,1.00037928331474,0.0004293653791895959
-0.4841511960861681,-0.4841511960861681,0.9999577468206879,0.00035338656950311765
-0.484053555153514,-0.484053555153514,0.9997688576501442,0.0004510298510096134
-0.4839283630048158,-0.4839283630048158,0.9997775065532896,0.00041191095885394197
-0.4837944946397329,-0.4837944946397329,0.9998581266677761,0.0004027076681443721
-0.48370915405248527,-0.48370915405248527,0.9994644120494451,0.0003472141846609884
-0.4835548786046274,-0.4835548786046274,0.9998077076284041,0.00039468898761691064
-0.4834465981068206,-0.4834465981068206,1.0000405863942101,0.0004254544873493352
-0.4832138502075395,-0.4832138502075395,0.9996869209542647,0.00044605650538496225
-0.482916096754343,-0.482916096754343,0.999998223244605,0.00036304664288131416
-0.48277507063248776,-0.48277507063248776,0.9993924526100395,0.0003684358191818647
-0.48267409427280655,-0.48267409427280655,0.9996180328247851,0.0003697731911040352
-0.48260414747419417,-0.48260414747419417,0.9995918155254209,0.00033538854459900586
-0.4825310512802389,-0.4825310512802389,0.9998930857046361,0.00036811429440743567
-0.48243215160255204,-0.48243215160255204,1.0001823064941582,0.0003985294487629955
-0.48225648480438393,-0.48225648480438393,1.0002012034998964,0.00034168552349887315
-0.4821808186621638,-0.4821808186621638,1.0000715175737847,0.00036615164310600893
-0.4820527956784645,-0.4820527956784645,1.000664088678186,0.00038437027250678426
-0.4819360580688226,-0.4819360580688226,0.9995506379105711,0.00035332891641167975
-0.4818597943230998,-0.4818597943230998,0.9997624494036629,0.00040169676027732184
-0.48181557542120573,-0.48181557542120573,0.9999508092308395,0.0003482840359760374
-0.48167863665366895,-0.48167863665366895,0.99958784839555,0.00036213098920059503
-0.48144704335863936,-0.48144704335863936,1.0001380450513733,0.00036511809391161335
-0.48128921634706784,-0.48128921634706784,0.9997974384565985,0.0003553283871227092
-0.4811635534351808,-0.4811635534351808,0.9998201941184177,0.0004009910580086498
-0.4810091447128798,-0.4810091447128798,1.0005896281212627,0.00037579561050322767
-0.4808536717042443,-0.4808536717042443,0.9996775857722306,0.00041260893207428604
-0.4807235452732129,-0.4807235452732129,0.9998242555498307,0.0003574576494311535
-0.480568542452238,-0.480568542452238,0.9995990822624934,0.0004741845781517006
-0.4804600959359959,-0.4804600959359959,0.9993322314609013,0.0003680414081780874
-0.48037313823151634,-0.48037313823151634,1.000152320844183,0.0004141336136894894
-0.48023627932343516,-0.48023627932343516,1.000101356049636,0.0003906626336136301
-0.48007645049510755,-0.48007645049510755,0.9999916050850086,0.00044216313432048537
-0.4800057769476552,-0.4800057769476552,1.000098759455551,0.0004099218176981485
-0.47990033249225234,-0.47990033249225234,1.0001636029470282,0.0003750252641840714
-0.47980489266556103,-0.47980489266556103,0.9997319351223171,0.0004231802996014125
-0.4796904056893254,-0.4796904056893254,1.0000057880424755,0.0004022734586190178
-0.47955628138006434,-0.47955628138006434,0.9999667869272801,0.0004239716301278554
-0.479388984219986,-0.479388984219986,1.0002274644038127,0.00040988544104541603
-0.4792388165908051,-0.4792388165908051,1.000566737366808,0.0003970766527053273
-0.47916044269368285,-0.47916044269368285,0.9999616097223102,0.0004211683453591001
-0.47905791207886067,-0.47905791207886067,0.9995053913574816,0.00034998348146050775
-0.47898221620198456,-0.47898221620198456,1.0003221253099817,0.000357484318034933
-0.4788228567012993,-0.4788228567012993,1.000204728253999,0.0003320820294528472
-0.4786504771924228,-0.4786504771924228,1.0001318859415886,0.00033841693621630144
-0.4784700031777902,-0.4784700031777902,0.9993255501172162,0.00039389777892512605
-0.47837878961872776,-0.47837878961872776,0.9992802482050573,0.00034355458508365474
-0.4783087102601712,-0.4783087102601712,1.000014458435667,0.0003461981039278543
-0.47822874796547693,-0.47822874796547693,0.999761172184269,0.00040701044259652125
-0.47812859119221685,-0.47812859119221685,1.0002042498703099,0.00034374693541987255
-0.4779243146789668,-0.4779243146789668,0.9999382775002978,0.0003880270739748166
-0.4778103655873565,-0.4778103655873565,0.9999664444980911,0.0003962487897577393
-0.4776785564055899,-0.4776785564055899,1.0003531372637797,0.00036387801494285906
-0.47760476904149984,-0.47760476904149984,1.0000684659345567,0.00040157833991255983
-0.4775676804078103,-0.4775676804078103,0.9998875641329933,0.0003155939191483502
-0.47746415913788953,-0.47746415913788953,1.0003345690644294,0.00038222302981544786
-0.4772452635093941,-0.4772452635093941,0.9995712687288926,0.00033809431086261613
-0.477020152334444,-0.477020152334444,1.0000224437649279,0.0004204028362433907
-0.47685380757829987,-0.47685380757829987,0.999465544686886,0.00040785274976573685
-0.47670722381953967,-0.47670722381953967,1.000243328432886,0.0004144558583801136
-0.4765008722926723,-0.4765008722926723,1.000265815603568,0.0003641834332570484
-0.4763674752568477,-0.4763674752568477,0.9998278628746243,0.0004624102122788451
-0.4762607739517989,-0.4762607739517989,1.0001195444391953,0.000366346821100632
-0.476125875528669,-0.476125875528669,1.0001520771298458,0.000420985836539508
-0.47601733073752256,-0.47601733073752256,0.9999211575711092,0.0003625271299718859
-0.4758826866163872,-0.4758826866163872,0.9994897232974663,0.00042686621090963766
-0.47576965424159423,-0.47576965424159423,0.9992159448974549,0.0004573690961685604
-0.4756594080768991,-0.4756594080768991,0.9997123959004123,0.00035240486387690736
-0.47559839563982675,-0.47559839563982675,0.9999292972701704,0.0003750356942889282
-0.475494561917003,-0.475494561917003,1.000481287388165,0.00042455831878618095
-0.47538423762816817,-0.47538423762816817,0.9999654435353577,0.0005567261756826976
-0.4752753185486654,-0.4752753185486654,0.9997719115473208,0.0004211712582947762
-0.4751017531481921,-0.4751017531481921,1.0007274623384028,0.00042144945085427325
-0.47496029722460664,-0.47496029722460664,0.9996436821462904,0.0003718379990208313
-0.47481743893658857,-0.47481743893658857,0.9997906657760662,0.0004337183571369318
-0.4747162926621968,-0.4747162926621968,0.9998517749838735,0.00034943137174359097
-0.47461882695715757,-0.47461882695715757,1.0001155481165054,0.0003368569908133626
-0.4743837474183238,-0.4743837474183238,0.9998278447577883,0.0003499235798841892
-0.47419078063976483,-0.47419078063976483,0.9992912121977687,0.00037924677673476924
-0.4740928861137945,-0.4740928861137945,0.99991424751756,0.00038229263605178335
-0.4740308193446253,-0.4740308193446253,0.9998028616552327,0.0003451893051232813
-0.47394535129496945,-0.47394535129496945,1.00060319186649,0.00040892783501597787
-0.473823890924541,-0.473823890924541,1.0000204422950758,0.0003685180434453351
-0.47373158266273097,-0.47373158266273097,1.0003772678841396,0.00035327410953903224
-0.4736004757687624,-0.4736004757687624,1.000216073085364,0.00037841444878502367
-0.4735096488300769,-0.4735096488300769,0.9998488311484282,0.00035092447319572595
-0.4734250938388868,-0.4734250938388868,0.9998108336462262,0.0004373255507476088
-0.47335566610272506,-0.47335566610272506,0.9998418493478416,0.0003572837336198349
-0.473297382400051,-0.473297382400051,0.9998348057453714,0.0003400195308448369
-0.4732030330153066,-0.4732030330153066,0.9995080901593859,0.0003709479097764571
-0.47301815183091095,-0.47301815183091095,0.9998721413647834,0.00040423880622525557
-0.4728274828063149,-0.4728274828063149,0.9996298732963638,0.0004033428399666659
-0.4726342225287226,-0.4726342225287226,1.0000338298947191,0.0004134094912160988
-0.4725331385685422,-0.4725331385685422,0.9999986523581598,0.00033206706768998395
-0.47234115077008026,-0.47234115077008026,0.9996147718492633,0.00042728086155041655
-0.4721832926152274,-0.4721832926152274,0.9997975412877661,0.00036203391053229853
-0.47211282840798957,-0.47211282840798957,1.0000702912399275,0.0004508591893906031
-0.47195304760316503,-0.47195304760316503,0.9997322326978828,0.00033682550811817667
-0.4718184494304296,-0.4718184494304296,1.0000646325811742,0.0004259232084022878
-0.4716781901552167,-0.4716781901552167,0.9995889936518271,0.00045240208210644997
-0.47156383242108857,-0.47156383242108857,0.9999275905663136,0.0004293740337897868
-0.47143780725600665,-0.47143780725600665,0.9998372552745461,0.0003697474980058222
-0.47134722455302835,-0.47134722455302835,0.9996733956724331,0.00041536099751815595
-0.47127782432435195,-0.47127782432435195,0.9993924662299575,0.0003697843216046187
-0.47116071159689454,-0.47116071159689454,1.0001418370472375,0.0005021654133602821
-0.4710169018209854,-0.4710169018209854,1.0001840886819462,0.0003799655229151451
-0.4708179070388724,-0.4708179070388724,1.0002754678427703,0.0004260426182907962
-0.4706858859724889,-0.4706858859724889,0.9997859279878558,0.00042328430223388506
-0.4705195025577268,-0.4705195025577268,1.0000907914964396,0.0003890625591055284
-0.4704076133333729,-0.4704076133333729,0.9997170272412108,0.0003615173688404147
-0.4702882262856292,-0.4702882262856292,1.000112778622054,0.0003537734263992556
-0.4701823907831567,-0.4701823907831567,0.9998536068827976,0.0003531521368190417
-0.47000837607847645,-0.47000837607847645,0.9998695024755326,0.0003589668675880194
-0.46983520406283785,-0.46983520406283785,0.9996951087182329,0.00040283366085045743
-0.4697285712798475,-0.4697285712798475,1.0002076593069607,0.0003543387303938712
-0.4695830563752679,-0.4695830563752679,0.9998967163757844,0.0003538272195503413
-0.46944386950563055,-0.46944386950563055,1.0005503686328496,0.0003683707083371681
-0.4693059155928495,-0.4693059155928495,1.0000740940127026,0.00038026916877059
-0.46918692886974894,-0.46918692886974894,1.000260397040412,0.00041904821095203334
