time,time,flux,flux_err
-0.4994881479227236,-0.4994881479227236,1.0001931097579935,6.948127877212437e-05
-0.499126849413733,-0.499126849413733,1.0001185545059728,6.299694115092681e-05
-0.49871956751012475,-0.49871956751012475,1.0000492309331612,6.222673300480515e-05
-0.4981156538400683,-0.4981156538400683,0.9999691907804484,6.362871198341668e-05
-0.4977643838181393,-0.4977643838181393,1.0000749615117999,6.341522732047511e-05
-0.4971991778234951,-0.4971991778234951,1.0000769004500831,6.270697708768182e-05
-0.4968486129640951,-0.4968486129640951,0.9999702202094358,6.271669985372445e-05
-0.4963622378971195,-0.4963622378971195,0.9999209299428111,6.224305993508017e-05
-0.49577064365294066,-0.49577064365294066,1.0000325994996269,6.209865973777362e-05
-0.4950309604755603,-0.4950309604755603,0.9999606559338211,6.34332988640352e-05
-0.4943279647894087,-0.4943279647894087,0.9999793463812214,6.29270691396777e-05
-0.49390148424281505,-0.49390148424281505,0.9999585825263152,6.299730518145028e-05
-0.4934214475826593,-0.4934214475826593,1.0000193134233137,6.291588927855016e-05
-0.492987057150458,-0.492987057150458,1.000084364585037,6.421448350546913e-05
-0.4924924480132177,-0.4924924480132177,1.0000017090666944,6.389807850879384e-05
-0.4919638698847848,-0.4919638698847848,1.0000994197268063,6.267635162522325e-05
-0.49127179776114643,-0.49127179776114643,0.9999956267226903,6.362287789178272e-05
-0.4908455199954915,-0.4908455199954915,0.9999419410554061,6.199086502727444e-05
-0.49047279102815083,-0.49047279102815083,0.9999854747431869,6.270619907990366e-05
-0.4898210230167024,-0.4898210230167024,0.9999245153741521,6.301576336015133e-05
-0.48932884697860574,-0.48932884697860574,0.9999880392447826,6.313423779613747e-05
-0.48883675639517604,-0.48883675639517604,1.0000408743089864,6.36900952476911e-05
-0.488330043447786,-0.488330043447786,1.0000130753946,6.293526691795773e-05
-0.48799311388866046,-0.48799311388866046,1.000094074380716,6.36144318588942e-05
-0.48748769902304045,-0.48748769902304045,0.999958058592901,6.42920732140299e-05
-0.4868293421139242,-0.4868293421139242,1.000047320374056,6.352867931971893e-05
-0.48621861379942855,-0.48621861379942855,0.9999516568574908,6.292385892682457e-05
-0.4856201510701794,-0.4856201510701794,1.0000478540181115,6.320299107782397e-05
-0.4853453925985377,-0.4853453925985377,0.9999708663014131,6.249846205848987e-05
-0.4847531715917285,-0.4847531715917285,0.9998099582631035,6.206569051354502e-05
-0.48438946795795346,-0.48438946795795346,0.9999373746709939,6.383954135866563e-05
-0.4840628021658631,-0.4840628021658631,1.000027236549887,6.901159396058878e-05
-0.4835140138777206,-0.4835140138777206,1.0000579667486131,6.321242843817485e-05
-0.4828607394811115,-0.4828607394811115,0.9999994728807513,6.312663361909205e-05
-0.48255500366358317,-0.48255500366358317,1.0000018137534834,6.285376396452402e-05
-0.48213463972497267,-0.48213463972497267,0.9999853131737698,6.193029282614746e-05
-0.4816494269252871,-0.4816494269252871,0.9999090947298486,6.294624838915384e-05
-0.480915814123,-0.480915814123,0.9999894843578219,6.305075174958957e-05
-0.48042770645406563,-0.48042770645406563,1.0000430413916122,6.31990295451529e-05
-0.4800266398786334,-0.4800266398786334,1.0001309798191456,6.200745790630501e-05
-0.47950765052082717,-0.47950765052082717,1.0000004193005898,6.431758948555415e-05
-0.4789574024893227,-0.4789574024893227,0.9999314088034341,6.410515246589776e-05
-0.47833703994401733,-0.47833703994401733,1.0000385535782197,6.272696641252413e-05
-0.4774837708740961,-0.4774837708740961,1.0000469864155563,6.34084031324878e-05
-0.4770940972361132,-0.4770940972361132,0.9999694921711699,6.27405591093147e-05
-0.47688446233369175,-0.47688446233369175,1.0000375255701983,6.292374540898244e-05
-0.4762418626472936,-0.4762418626472936,1.0000053006540546,6.250410871862642e-05
-0.47585763280367244,-0.47585763280367244,0.9999733614264035,6.361732754059629e-05
-0.47542348724382466,-0.47542348724382466,1.0000487781876963,6.221050092473817e-05
-0.4749536910036113,-0.4749536910036113,1.0000104179580693,6.370076766383525e-05
-0.4744731330720242,-0.4744731330720242,1.0000248484987861,6.242618515272598e-05
-0.4738374463529908,-0.4738374463529908,1.0001462190077368,6.46276977991524e-05
-0.47298314101062716,-0.47298314101062716,0.9999317787792921,6.3633197054812e-05
-0.4724285969510674,-0.4724285969510674,1.000024639549698,6.292137878919623e-05
-0.4719280199336936,-0.4719280199336936,0.9999790128885995,6.368526806625887e-05
-0.4716006696296972,-0.4716006696296972,1.0001831258511047,6.200621610538152e-05
-0.4710288564441726,-0.4710288564441726,0.9999932051155607,6.355823470889988e-05
-0.47069535148038993,-0.47069535148038993,0.999987252286162,7.774517679072096e-05
-0.47023751398082825,-0.47023751398082825,0.9999382475155956,6.270807810101345e-05
-0.46959790756372966,-0.46959790756372966,1.0000284358583187,6.389983095449038e-05
-0.4690678318889695,-0.4690678318889695,0.9999689476470024,6.22139998523428e-05
-0.46872177134646337,-0.46872177134646337,1.0000011736235428,6.270604005680337e-05
-0.46812326806539206,-0.46812326806539206,1.0000038985032424,6.291867329382726e-05
-0.4674782280198997,-0.4674782280198997,1.0000794955583363,6.266428203137232e-05
-0.4669727314656484,-0.4669727314656484,1.0000267488843315,6.366534155073772e-05
-0.4666228161746403,-0.4666228161746403,0.9999925467197169,6.312046616582932e-05
-0.4662411176948808,-0.4662411176948808,0.9999769251723727,6.294348475453732e-05
-0.4659016916353721,-0.4659016916353721,1.0000465972049204,6.362806640372319e-05
-0.46531042016140417,-0.46531042016140417,1.0000344482288894,6.411871819323234e-05
-0.4643153269367758,-0.4643153269367758,1.0000273860626248,6.292077980015276e-05
-0.4635413081778097,-0.4635413081778097,0.9999647420841364,6.320018430309021e-05
-0.4632799545142916,-0.4632799545142916,1.0000337052484949,6.270911446582323e-05
-0.46280211223929657,-0.46280211223929657,1.0000160713800388,6.199300947728823e-05
-0.46228968307841567,-0.46228968307841567,1.0000681161928537,6.362656905706115e-05
-0.4619318691489752,-0.4619318691489752,0.9999638495446573,6.292537338355881e-05
-0.4613605198363075,-0.4613605198363075,0.9999535647569985,6.319948647074883e-05
-0.4608888376111281,-0.4608888376111281,1.0001057908271807,6.293164491461508e-05
-0.4604074707560358,-0.4604074707560358,0.9999621730632473,6.221330338477647e-05
-0.45958799955114954,-0.45958799955114954,0.9999998238065769,6.3427099001547e-05
-0.45884776162129126,-0.45884776162129126,1.0000591314675376,6.221835705330795e-05
-0.45827243889216335,-0.45827243889216335,0.9999312725747259,6.36817307220749e-05
-0.45769772295316213,-0.45769772295316213,1.0000153271651702,6.27245180461358e-05
-0.45720343182765644,-0.45720343182765644,0.9999634258362107,6.410641917027706e-05
-0.4566842669271864,-0.4566842669271864,1.000058224499726,6.320634664633898e-05
-0.4562438706998364,-0.4562438706998364,0.9999989259063456,6.234204334290746e-05
-0.4557508007637807,-0.4557508007637807,1.0000893226860224,6.362120648860236e-05
-0.4552049581732717,-0.4552049581732717,1.0000394244395614,6.269922733687684e-05
-0.4549698250659276,-0.4549698250659276,0.9999177819509197,6.249006137106064e-05
-0.45445451341365695,-0.45445451341365695,1.0000460401535047,6.294507457387186e-05
-0.45378132286277834,-0.45378132286277834,0.9999611168553686,6.325891772616174e-05
-0.45319360187713753,-0.45319360187713753,1.000121288313525,6.320139523496222e-05
-0.4526571042049909,-0.4526571042049909,1.0000002420930167,6.272931393965608e-05
-0.45228733946423744,-0.45228733946423744,1.0000291828534382,6.362253141163e-05
-0.4517783525428968,-0.4517783525428968,0.9999570935044728,6.433933368290296e-05
-0.4508433115421212,-0.4508433115421212,0.9999869483019685,6.22153567792961e-05
-0.45012810958287447,-0.45012810958287447,1.0000143341088175,6.320719641832057e-05
-0.4497866685793269,-0.4497866685793269,0.9999948855320511,6.319869202381663e-05
-0.4495107195150922,-0.4495107195150922,1.0000348902342056,6.22219230371518e-05
-0.44886901255958944,-0.44886901255958944,0.9999206767252016,6.344994879428409e-05
-0.44848495065671157,-0.44848495065671157,1.0000454783903523,6.363117327289002e-05
-0.44798631844023473,-0.44798631844023473,0.9999346318982264,6.270622429248223e-05
-0.4474442503327737,-0.4474442503327737,1.0002539021928396,6.392174155484753e-05
-0.44697045009670544,-0.44697045009670544,0.9999867761425518,6.156790869208477e-05
-0.44654926535877165,-0.44654926535877165,0.9999828847503857,6.261696421495914e-05
-0.4459213574664318,-0.4459213574664318,1.0000135882168277,6.342351265001701e-05
-0.4451434218019131,-0.4451434218019131,1.0000404248647772,6.22180609335403e-05
-0.44461791274370627,-0.44461791274370627,0.9999819230212814,6.368487260848641e-05
-0.4441566573674208,-0.4441566573674208,0.9999098366156829,6.222130808951865e-05
-0.4436613057143404,-0.4436613057143404,0.9999056778987543,6.408845127114004e-05
-0.4431742145927274,-0.4431742145927274,1.000030444176854,6.411085791145877e-05
-0.44268346402968745,-0.44268346402968745,1.000063038970317,6.257021111156579e-05
-0.44199704605853185,-0.44199704605853185,0.9999716306678069,6.382908167227604e-05
-0.4414465268506319,-0.4414465268506319,1.0000415621695347,6.24903414003973e-05
-0.44122690336516823,-0.44122690336516823,0.9999458091980881,6.270117237733918e-05
-0.44073881927033653,-0.44073881927033653,0.9999380044655025,6.292642967636637e-05
-0.4401998060769984,-0.4401998060769984,0.9999704316993903,6.321314748408325e-05
-0.43975288608489793,-0.43975288608489793,1.0000541784095962,6.293185203134073e-05
-0.43928120563941775,-0.43928120563941775,0.9999288954919952,6.300740150222275e-05
-0.43884565687476423,-0.43884565687476423,1.0001378039171709,6.390757493792314e-05
-0.4383961928586359,-0.4383961928586359,0.9999850538791616,6.360524948033129e-05
-0.4376503851817688,-0.4376503851817688,0.9999967689454584,6.440531316105868e-05
-0.4369207083771471,-0.4369207083771471,0.999991619338347,6.220144990774658e-05
-0.43627831323829014,-0.43627831323829014,0.9999343103704834,6.39084713696721e-05
-0.43596913951332683,-0.43596913951332683,0.9999834757589013,6.24939130822675e-05
-0.435322627556161,-0.435322627556161,1.0000858933126755,6.28157595688328e-05
-0.43501248088723515,-0.43501248088723515,0.9999844368564711,6.360718511123918e-05
-0.4346997946879128,-0.4346997946879128,0.9999640691285082,7.147830527987253e-05
-0.4342066605619038,-0.4342066605619038,1.0000620184043527,6.32142787678165e-05
-0.4335883928128169,-0.4335883928128169,1.000034662926684,6.362938023167626e-05
-0.43316027213877534,-0.43316027213877534,1.0000402329756413,6.24112441775566e-05
-0.4327477345083025,-0.4327477345083025,0.999965296825653,6.267373842336953e-05
-0.43221361533360325,-0.43221361533360325,0.99990953862097,6.272047891236846e-05
-0.43149781950196486,-0.43149781950196486,0.9999731511234385,6.299576798831697e-05
-0.43105081794783473,-0.43105081794783473,1.0000471333863374,6.271689862411391e-05
-0.43070804147282615,-0.43070804147282615,0.9998891530503489,6.25000493569976e-05
-0.4302677679428598,-0.4302677679428598,0.9999934437286282,6.348834900098188e-05
-0.4297946071092156,-0.4297946071092156,0.9998801994069989,6.453220766786158e-05
-0.4291912199245417,-0.4291912199245417,1.0000210389333262,6.249351597853503e-05
-0.4285390835168073,-0.4285390835168073,0.999984022526567,6.341924969730801e-05
-0.4278101541014621,-0.4278101541014621,0.9999008699656287,6.330709060255643e-05
-0.42762011236627584,-0.42762011236627584,0.9999838531723875,6.341870973122139e-05
-0.4273487382321036,-0.4273487382321036,1.000004378956753,6.171683318475395e-05
-0.4267462976626121,-0.4267462976626121,1.0000201226680128,6.271047391688459e-05
-0.42635598802007735,-0.42635598802007735,0.999997745073055,6.362355272702836e-05
-0.4258782006727415,-0.4258782006727415,1.0000352370655345,6.198935397314767e-05
-0.4254695773983258,-0.4254695773983258,0.9999156505925104,6.322133662266489e-05
-0.4249584715187666,-0.4249584715187666,0.9999887679983501,6.242096798111718e-05
-0.42420636591414224,-0.42420636591414224,0.9999962464804583,6.634629295410194e-05
-0.4234754722972866,-0.4234754722972866,1.0000263533533351,6.314783355143905e-05
-0.42288414793874834,-0.42288414793874834,1.0000155753785047,6.341605927849344e-05
-0.42244849705166415,-0.42244849705166415,1.0000059057139807,6.31925506636933e-05
-0.42200789417111084,-0.42200789417111084,1.0000183518027552,6.250166267263542e-05
-0.42148877532599727,-0.42148877532599727,1.0000708784188803,6.403420159127911e-05
-0.4210937060212018,-0.4210937060212018,0.9998874058907736,8.159232188903545e-05
-0.4205672072712332,-0.4205672072712332,0.9999962726670717,6.321115555217914e-05
-0.4199821488044108,-0.4199821488044108,1.0000540080365754,6.362399533796045e-05
-0.4194656353094615,-0.4194656353094615,0.9998930874252329,6.270843427052877e-05
-0.41917191671527687,-0.41917191671527687,1.0000399349070483,6.271335188387857e-05
-0.4185898856841959,-0.4185898856841959,1.0000429236617314,6.269865864072193e-05
-0.41792909222858726,-0.41792909222858726,1.00005019004429,6.282889413928131e-05
-0.4174499850443681,-0.4174499850443681,1.000074381575092,6.293443732300405e-05
-0.4171568315679906,-0.4171568315679906,0.9999600930212562,6.368730964806892e-05
-0.41673596015170916,-0.41673596015170916,0.9999478972191815,6.312232330909366e-05
-0.4164221770799486,-0.4164221770799486,0.9999556728072356,6.36158236423701e-05
-0.4156751650967635,-0.4156751650967635,0.9999352197500013,6.341377170568556e-05
-0.4148638964485144,-0.4148638964485144,1.000050821928755,6.293011969241057e-05
-0.41411852052406173,-0.41411852052406173,0.9999596757602411,6.319819365479706e-05
-0.4139012356681633,-0.4139012356681633,0.9998739461505662,6.249098796870277e-05
-0.41340178212703904,-0.41340178212703904,1.0000323553920236,6.272038431814282e-05
-0.41287289869069355,-0.41287289869069355,1.000028180175843,6.382785043031823e-05
-0.4125083225851995,-0.4125083225851995,0.9999656061667099,6.270741725251065e-05
-0.4119420608083601,-0.4119420608083601,0.9999660561819115,6.31927666129821e-05
-0.41146187621488933,-0.41146187621488933,1.0001300034717615,6.293729710168074e-05
-0.4109785843960708,-0.4109785843960708,1.0000562770726575,6.224653226048139e-05
-0.410338096342457,-0.410338096342457,0.999985896633914,6.260779808896815e-05
-0.4095787091908278,-0.4095787091908278,1.0000762669526966,6.22145583401565e-05
-0.40901124461815924,-0.40901124461815924,0.9999610699208772,6.341648953224615e-05
-0.4086830742380698,-0.4086830742380698,0.9999725832369076,6.249886927111411e-05
-0.4081213195997407,-0.4081213195997407,1.000052306694688,6.363264539982338e-05
-0.40770885874371743,-0.40770885874371743,0.999906976691675,6.417945783841462e-05
-0.4072597067191964,-0.4072597067191964,1.0001000135036024,6.321234483812216e-05
-0.40663141904515215,-0.40663141904515215,0.9999925160187015,6.334657384672487e-05
-0.40596100459079026,-0.40596100459079026,1.000033327180452,6.341030134526618e-05
-0.40564780635177156,-0.40564780635177156,1.0001344259049059,6.199782849988878e-05
-0.4051838537474396,-0.4051838537474396,1.0000738887103746,6.270441263399826e-05
-0.40453072657692246,-0.40453072657692246,1.0001614467831748,6.323275199141393e-05
-0.4040721993005718,-0.4040721993005718,0.9999939650737065,6.314582170217739e-05
-0.4035516928823199,-0.4035516928823199,0.9999049338381332,6.348725819093353e-05
-0.40314445145922945,-0.40314445145922945,0.9999015574168959,6.313185494815948e-05
-0.40280594529467634,-0.40280594529467634,0.9999547438296853,6.291453193012348e-05
-0.40231009975395865,-0.40231009975395865,0.9999543542047068,6.431186427668935e-05
-0.4015780062487465,-0.4015780062487465,0.9998592929309392,6.276640695757483e-05
-0.40089024283224717,-0.40089024283224717,1.0000836952811523,6.341503317125763e-05
-0.4004025263420772,-0.4004025263420772,1.0000166408509632,6.319935713660774e-05
-0.4000934781637625,-0.4000934781637625,0.9999683980602978,6.199744271098916e-05
-0.39945673432084733,-0.39945673432084733,1.0000622604654281,6.348595020466402e-05
-0.39907256342848996,-0.39907256342848996,0.9999674112071076,6.363942218432566e-05
-0.3986946305871243,-0.3986946305871243,0.9999720056491744,6.788372447133741e-05
-0.3980563225748483,-0.3980563225748483,1.0001240940938103,6.391036459734798e-05
-0.3975564646767452,-0.3975564646767452,1.00010771349289,6.234033032508387e-05
-0.3972298847409547,-0.3972298847409547,1.0000300781556128,6.270591991571805e-05
-0.3966769464881509,-0.3966769464881509,1.000133656769194,6.216843442216312e-05
-0.3960444270793232,-0.3960444270793232,0.9999842360356856,6.271697735991464e-05
-0.39542480875825275,-0.39542480875825275,0.9998993990156434,6.376923796571296e-05
-0.3950373533545644,-0.3950373533545644,1.0000372525684622,6.30020237695996e-05
-0.3945052932409453,-0.3945052932409453,0.999978677719948,6.291780775370207e-05
-0.39400756138347787,-0.39400756138347787,0.9999641577431412,6.431793108002261e-05
-0.3934532801169553,-0.3934532801169553,1.0000224206537938,6.270981499737617e-05
-0.39263541950203945,-0.39263541950203945,1.0000044460109512,6.364028391389204e-05
-0.3920127550838515,-0.3920127550838515,0.9999132198635066,6.322642701908514e-05
-0.39185743809939594,-0.39185743809939594,1.0000432222401832,6.271243938368065e-05
-0.39132957839610755,-0.39132957839610755,0.9999365728635574,6.221458954929992e-05
-0.39077021404664264,-0.39077021404664264,0.9999861395144322,6.320415072437256e-05
-0.3903323146223556,-0.3903323146223556,1.0000484412211794,6.293006953671759e-05
-0.389877847932803,-0.389877847932803,1.0000049651747591,6.298168229609464e-05
-0.3895086132615688,-0.3895086132615688,0.99994561751491,6.222214001609354e-05
-0.3889972903925809,-0.3889972903925809,1.00000954031103,6.364912796720447e-05
-0.3880878365598619,-0.3880878365598619,1.0001075937531627,6.504257315194705e-05
-0.3875127053222968,-0.3875127053222968,0.9999838631577493,6.221571182748289e-05
-0.3868857771070907,-0.3868857771070907,0.9999489061385525,6.410685968393259e-05
-0.38661776533408554,-0.38661776533408554,0.9999372339276744,6.299144931466652e-05
-0.3859659291934804,-0.3859659291934804,1.0000805495662157,6.2357912520331e-05
-0.38558894881280137,-0.38558894881280137,1.0000281570119345,6.383975076450972e-05
-0.3851707084555528,-0.3851707084555528,0.9999968163671229,7.604174126420064e-05
-0.38454866531537846,-0.38454866531537846,1.0000124144319342,6.32112816882894e-05
-0.38398828211211367,-0.38398828211211367,0.9999579547544911,6.291333878361008e-05
-0.38364081307081505,-0.38364081307081505,1.0001495954827455,6.271145587469038e-05
-0.3830668965703808,-0.3830668965703808,1.0000091270928004,6.219342685720798e-05
-0.38243964230641725,-0.38243964230641725,0.9999494156182074,6.339851254290999e-05
-0.38188781184726395,-0.38188781184726395,1.0000058678344375,6.36713960694884e-05
-0.38149521625455235,-0.38149521625455235,1.000035552004217,6.260708861947956e-05
-0.38116988352849146,-0.38116988352849146,1.00005442086409,6.273246599902938e-05
-0.3807915455137845,-0.3807915455137845,1.000065359620708,6.362160636553604e-05
-0.38028350230742947,-0.38028350230742947,1.000113681091069,6.432857007417118e-05
-0.3793808634611196,-0.3793808634611196,1.0000044310546605,6.291990033702446e-05
-0.3786029255352332,-0.3786029255352332,1.0000364453988255,6.31947763433621e-05
-0.37825817186094357,-0.37825817186094357,0.9998911949130491,6.401142888060134e-05
-0.37801549862197137,-0.37801549862197137,1.0000816783383961,6.222110056968298e-05
-0.37736473079130517,-0.37736473079130517,0.9999726050884974,6.270399511964475e-05
-0.3770169250230538,-0.3770169250230538,1.0000899236014569,6.363137601172741e-05
-0.3764958220956032,-0.3764958220956032,0.9999907892286796,6.270124498174653e-05
-0.3760474108188646,-0.3760474108188646,1.0000536293624351,6.321732735123308e-05
-0.37553140949166847,-0.37553140949166847,0.9999949128522747,6.24278802788661e-05
-0.37495388001407265,-0.37495388001407265,1.000001220444378,6.72122120503372e-05
-0.37425801156205124,-0.37425801156205124,1.0001556627000652,6.343336559458645e-05
