time,time,flux,flux_err
-0.4999579323205883,-0.4999579323205883,0.9999346817121232,0.00028805943477722146
-0.4998391034332599,-0.4998391034332599,0.9997413405305576,0.000304865987409292
-0.4996869935850555,-0.4996869935850555,0.9998291982013742,0.0002621239475268617
-0.4995405201610993,-0.4995405201610993,1.0000532059389011,0.00027803219288264366
-0.4993988808884751,-0.4993988808884751,1.0002597647871023,0.0002840067312776044
-0.4992745457333513,-0.4992745457333513,0.9996431329064472,0.00026424337623156375
-0.49914910233346743,-0.49914910233346743,0.9999847302020501,0.0002812430161022859
-0.49900497720009296,-0.49900497720009296,0.9998831267755648,0.00028314838432514803
-0.49886508046474776,-0.49886508046474776,1.0005513802693062,0.0002753493274360631
-0.49873071416732273,-0.49873071416732273,0.999789781465522,0.0002532844955211208
-0.4985722000565147,-0.4985722000565147,1.0002504803969887,0.00025978466004021925
-0.49843778261420085,-0.49843778261420085,1.0001900493741078,0.0002897972390300737
-0.4982620665192371,-0.4982620665192371,0.9999836857505429,0.00027131193502483045
-0.49816345225845,-0.49816345225845,0.9999399639616524,0.00026304598801033696
-0.49804005794867406,-0.49804005794867406,1.0000261367298227,0.0002890008566102121
-0.49788653545911077,-0.49788653545911077,0.9995368560400213,0.0002808729663246084
-0.49777736551477575,-0.49777736551477575,1.0003747294715246,0.00027908030435177416
-0.49772438510481154,-0.49772438510481154,0.9998354139186624,0.00026856020186593146
-0.49765091075605594,-0.49765091075605594,0.9998459810556675,0.0002744160785385102
-0.49755165540555024,-0.49755165540555024,1.0001783552386372,0.00027820716414671715
-0.49743425246633705,-0.49743425246633705,1.0000193901554402,0.00027966901131768303
-0.49732118693573285,-0.49732118693573285,0.9998662515759233,0.0002793833084790937
-0.49720156000548743,-0.49720156000548743,0.9997745528993326,0.0002587034892443077
-0.497130673033098,-0.497130673033098,1.0000810338472403,0.00027579379309709904
-0.49694793801318154,-0.49694793801318154,1.0000203353759565,0.0002755701088979402
-0.49684939052240223,-0.49684939052240223,0.9998805073494959,0.00027978709468819287
-0.4967449089665024,-0.4967449089665024,0.999635629728447,0.0002901681529131726
-0.4964828205971571,-0.4964828205971571,1.0000586791707022,0.0002661397566646506
-0.49628418956999665,-0.49628418956999665,0.9999489145810895,0.00028028359596850587
-0.49614838790585053,-0.49614838790585053,0.9999334848988021,0.0002880213040446709
-0.49598004529761963,-0.49598004529761963,0.9996567834053472,0.0002882907868017891
-0.49578430901965476,-0.49578430901965476,0.9996512243281884,0.0002716410574050728
-0.4956600997771602,-0.4956600997771602,0.9999672692370517,0.00028379087418792996
-0.49554309512168404,-0.49554309512168404,1.0000100943883532,0.00027590344254149003
-0.49541859227319945,-0.49541859227319945,1.0001343911976555,0.00025716419883459716
-0.49532342552920455,-0.49532342552920455,1.0005902016693324,0.0002842772624861079
-0.49517656672833255,-0.49517656672833255,1.000205173254251,0.00028962432847071324
-0.49507905800128355,-0.49507905800128355,1.0004021481172036,0.0002811332265769739
-0.49500009046823834,-0.49500009046823834,1.000043826308334,0.00027803647371006624
-0.4949022870772751,-0.4949022870772751,0.9998858495113359,0.0002855103747738931
-0.49478505059087186,-0.49478505059087186,1.000011355462148,0.0002612603477068139
-0.49471820648250286,-0.49471820648250286,0.9999037736854219,0.0002807832318001696
-0.49463955431710926,-0.49463955431710926,0.9997130025055515,0.000285593394005084
-0.49452155292892713,-0.49452155292892713,1.0002463447141585,0.0002853461685865822
-0.4944707443464722,-0.4944707443464722,1.000296651950708,0.000254417218947986
-0.49427776509328397,-0.49427776509328397,0.9997774825534093,0.00026127491469887066
-0.494147301180783,-0.494147301180783,0.9999460166793472,0.00029166283010171034
-0.4940310108984704,-0.4940310108984704,1.0002279213721625,0.00027390405947372905
-0.4939573479627143,-0.4939573479627143,0.9993276367429621,0.00027956150258670457
-0.4938681975276268,-0.4938681975276268,1.000225419163975,0.00029169077327319336
-0.4937644415535033,-0.4937644415535033,0.9999038799573553,0.0002818477198116492
-0.493605035845394,-0.493605035845394,1.0004456064544542,0.00027199736630755596
-0.49348632166074824,-0.49348632166074824,0.9998198721917649,0.00026565474223166457
-0.49338544921411087,-0.49338544921411087,0.999850903043596,0.00027268959082627777
-0.49322475935405236,-0.49322475935405236,0.9999174087168011,0.00027883148669877536
-0.49302477043966064,-0.49302477043966064,0.9998592246341482,0.0002887380271767279
-0.49293387520301624,-0.49293387520301624,1.0001206840826897,0.0002728324304441216
-0.4928496198845096,-0.4928496198845096,1.0003473216464498,0.0002718727936564822
-0.4927044445517822,-0.4927044445517822,1.0000153962076723,0.0002800988997923409
-0.49260317809166737,-0.49260317809166737,0.9998913148833616,0.0002591294748047146
-0.4924401367577957,-0.4924401367577957,0.9997601518523013,0.00025917570251695753
-0.4922932901914464,-0.4922932901914464,1.0002363163312702,0.0002790551112057484
-0.4921383918648644,-0.4921383918648644,1.0002575355088301,0.0002749006867480198
-0.49202237692807105,-0.49202237692807105,0.9999765314747144,0.0002890952174406639
-0.49189832517222387,-0.49189832517222387,0.9998590735639871,0.0002842535414273893
-0.49180124258855357,-0.49180124258855357,0.9998103897304447,0.0002533351051323291
-0.491721762465022,-0.491721762465022,0.9996557842637257,0.00027384561782800847
-0.491553543759801,-0.491553543759801,0.9994866316869672,0.0002869644131996433
-0.4914144437854702,-0.4914144437854702,0.9999515550661758,0.0002788259415742283
-0.49129843369009907,-0.49129843369009907,0.9997518015806953,0.00027974864834443084
-0.49118401388914207,-0.49118401388914207,1.0001046952989288,0.00027393916726543296
-0.4910755341785261,-0.4910755341785261,1.000107880987922,0.0002646272664625365
-0.49096616914393965,-0.49096616914393965,0.9998352616482645,0.0002944143086893793
-0.4908426372436224,-0.4908426372436224,1.0004274709586136,0.00027817778574741847
-0.49074010422700665,-0.49074010422700665,1.0004330730901212,0.00027247502126056866
-0.4906348922362668,-0.4906348922362668,1.0001675841149746,0.00027568552377251946
-0.4904864085219742,-0.4904864085219742,1.0001467006816984,0.00027492398223137593
-0.4902857850349392,-0.4902857850349392,0.9999054273272726,0.00027472228867887006
-0.4900248587451642,-0.4900248587451642,0.9998709660471008,0.0002807864412541341
-0.48985947948676767,-0.48985947948676767,0.9999462723101834,0.0002726834318009613
-0.4897449445343227,-0.4897449445343227,1.000076834754093,0.00029032262265106187
-0.4895212754883687,-0.4895212754883687,1.0002221788613626,0.0002570149821423921
-0.4893586619182315,-0.4893586619182315,1.0000497947363731,0.0002681275822507968
-0.4891652167963912,-0.4891652167963912,1.0003449639665853,0.00027254913112442205
-0.4889971296361182,-0.4889971296361182,1.0000949388661629,0.0002814492390692699
-0.4888535497506382,-0.4888535497506382,1.0000286042444453,0.00029014230404460033
-0.48866938684077466,-0.48866938684077466,1.000076407221171,0.0002918419646770738
-0.4885473686677869,-0.4885473686677869,1.0003285313464647,0.0002706107813432943
-0.4884474578568188,-0.4884474578568188,1.0001232023077395,0.00027909823915399254
-0.4883579585060943,-0.4883579585060943,0.999990803072021,0.0002614062343339237
-0.4881970545022341,-0.4881970545022341,0.9999186540207223,0.00029921393859167747
-0.48803418758689077,-0.48803418758689077,0.9996447127426571,0.0002994004638412923
-0.48793762835557575,-0.48793762835557575,0.9998057175389518,0.00027265416711472705
-0.4878400269466511,-0.4878400269466511,1.0002088705334933,0.0002937205492832454
-0.48776636228867576,-0.48776636228867576,1.0000567469567838,0.0002667119282336005
-0.4876689434189757,-0.4876689434189757,0.9999448830842853,0.00028076992198110805
-0.487557207718055,-0.487557207718055,0.999919054415917,0.0002823468235078475
-0.48743516929243924,-0.48743516929243924,0.9999032430730258,0.000273466705364195
-0.4872855499837897,-0.4872855499837897,1.0001983594007,0.00025479783852495284
-0.4871658818119613,-0.4871658818119613,1.0002085693069938,0.00025463734715660337
-0.4870839053233794,-0.4870839053233794,0.9998526722835184,0.00029053825846366184
-0.48701550793048226,-0.48701550793048226,0.9998463674653397,0.0002729701162818737
-0.48683037325681655,-0.48683037325681655,0.9994080832412147,0.0002867951190377373
-0.4866622179666592,-0.4866622179666592,0.9998388428429938,0.00027031002799127613
-0.48656553788096063,-0.48656553788096063,0.9999967277138759,0.00025630306587380206
-0.48650089555958403,-0.48650089555958403,0.9997540468864082,0.00027519807073947416
-0.48638772920166956,-0.48638772920166956,1.0001443600695077,0.00025981998868584484
-0.48625106128747575,-0.48625106128747575,1.0000261616998876,0.0002622867450251699
-0.4860873958823504,-0.4860873958823504,1.0003363295914067,0.00025163972774801453
-0.4859724255358742,-0.4859724255358742,1.0002638300557098,0.00028190884883885433
-0.48586634812454577,-0.48586634812454577,1.0000974589473235,0.0002705541626086226
-0.4857809910768992,-0.4857809910768992,0.999859887629114,0.0002662697076979874
-0.4856728400714928,-0.4856728400714928,0.9998691257612462,0.0002825064924367634
-0.48560131415506474,-0.48560131415506474,0.9998093090686393,0.0002583368910512986
-0.4855059228539176,-0.4855059228539176,0.99951856606002,0.00026726165916341046
-0.48524974882020616,-0.48524974882020616,1.0001617714980777,0.000265112859148917
-0.48504998647622416,-0.48504998647622416,1.0002514717689217,0.00028308523083240146
-0.4849182526188088,-0.4849182526188088,0.9998806721585345,0.00029343659679287846
-0.4847852825623704,-0.4847852825623704,0.9998477056066541,0.00027792314521120023
-0.4846643824334024,-0.4846643824334024,0.9995369911116525,0.0002646403928363069
-0.4845613511672127,-0.4845613511672127,1.0001213230204407,0.00029810031463699157
-0.4843945618995349,-0.4843945618995349,1.0002933357167012,0.0002867867614004499
-0.48426925227904577,-0.48426925227904577,1.0000645337912584,0.00027522521944235034
-0.4841925364387862,-0.4841925364387862,1.000059366889692,0.0002737077152675296
-0.4840738536164281,-0.4840738536164281,0.9999342990341173,0.0002695015299672095
-0.48395933647916534,-0.48395933647916534,1.0001397795890337,0.0002709037535508972
-0.48388079247670246,-0.48388079247670246,1.0002835661380332,0.000286480390145607
-0.48373205714233336,-0.48373205714233336,1.0000786682867369,0.00027233650156977495
-0.4836224319784378,-0.4836224319784378,1.0004068814053901,0.0002978536772103985
-0.48350919028453065,-0.48350919028453065,0.999954342495825,0.000274487879692982
-0.48340820291268755,-0.48340820291268755,1.0005349675391777,0.00029660211957669
-0.4831935428810539,-0.4831935428810539,0.9998682868428205,0.0002765002131701311
-0.482855573312554,-0.482855573312554,0.9998803936509679,0.0002673817855457539
-0.4827361757139442,-0.4827361757139442,0.9999586615398515,0.00027887509835448877
-0.4826582921559748,-0.4826582921559748,1.0001144991760436,0.0002849847427250436
-0.48246612868024386,-0.48246612868024386,0.9996089901831496,0.00027190068426893746
-0.4823017694456212,-0.4823017694456212,1.000252735428845,0.0002865581910522933
-0.4821644135095994,-0.4821644135095994,0.9992913557543573,0.00027061856198795355
-0.48202867519576104,-0.48202867519576104,1.0001961238483037,0.00026452212865368894
-0.48193248071693234,-0.48193248071693234,0.9999940031058516,0.00026276838688985173
-0.4818600860111474,-0.4818600860111474,1.0000402695691382,0.0003016256421678562
-0.4817661562759895,-0.4817661562759895,1.0002478837024937,0.0002894995946438677
-0.4816634073889873,-0.4816634073889873,1.0002081042377708,0.0003019630998774251
-0.48151793846918733,-0.48151793846918733,1.0002896148382872,0.00029310542371442313
-0.4813857074273983,-0.4813857074273983,1.0005190843681409,0.0002712690461072984
-0.48129947039851684,-0.48129947039851684,1.00026665534211,0.0002832790728222816
-0.4811668220747379,-0.4811668220747379,0.9997747481803012,0.0002986821896297315
-0.4810510699920997,-0.4810510699920997,0.9999801986773733,0.00026726794117515275
-0.48098377317219276,-0.48098377317219276,1.0002590164730332,0.0002840240272169106
-0.48079945604185925,-0.48079945604185925,1.0005067860664103,0.0002937048988854912
-0.48071025400640793,-0.48071025400640793,1.0001010075125085,0.00028548258531709675
-0.4806284727768798,-0.4806284727768798,0.99981410586745,0.0002770999465194051
-0.4804972104218905,-0.4804972104218905,0.9998575220313743,0.0002774383537022929
-0.480377868800133,-0.480377868800133,1.0002798681677068,0.00028226777667657256
-0.48020694017104687,-0.48020694017104687,0.9998138655107083,0.0002946065735446387
-0.4801023609230469,-0.4801023609230469,1.000010218554053,0.00026010007452268466
-0.4799987044876616,-0.4799987044876616,1.0001839276989557,0.00028313201492160547
-0.47990196463724716,-0.47990196463724716,1.0000820236595596,0.0002730145989834812
-0.4797982427815441,-0.4797982427815441,1.0001565458739854,0.00026852213844011635
-0.47969586238177725,-0.47969586238177725,1.000199525239684,0.00026858056277346615
-0.47958893106188044,-0.47958893106188044,0.9996983713252702,0.0002812636168400286
-0.47949400593934116,-0.47949400593934116,0.9997108164470019,0.0002619216647265547
-0.4793573320210271,-0.4793573320210271,1.000197419127003,0.0002738049210717308
-0.4791856391020701,-0.4791856391020701,1.0000246637742616,0.0002720213004716495
-0.4789853502079495,-0.4789853502079495,0.99970073661793,0.00027633778946650083
-0.4788568340860365,-0.4788568340860365,0.9999280166568152,0.0002604464852107751
-0.47877235739288154,-0.47877235739288154,0.9999443897474375,0.0002692512414206001
-0.4786340935061162,-0.4786340935061162,1.0001455505048475,0.000282408957553245
-0.4785494540439686,-0.4785494540439686,0.9997855957892027,0.0002737612091803607
-0.47837150552368257,-0.47837150552368257,1.0001358172510468,0.00028053767185622
-0.478196939292684,-0.478196939292684,1.000026383876658,0.00025014134524918086
-0.47804763131061917,-0.47804763131061917,1.0001429531830774,0.000279670350876951
-0.47794420300633644,-0.47794420300633644,1.0005932781678948,0.00027581693438698404
-0.4777563500436372,-0.4777563500436372,0.999983441588746,0.00027878587837888025
-0.4776177096347965,-0.4776177096347965,0.9999018992718469,0.0002622723318996113
-0.4774737474763242,-0.4774737474763242,0.9997860849537343,0.0003049650689630857
-0.4773673114468693,-0.4773673114468693,0.9999727133813323,0.0002751652642750412
-0.4772852441223222,-0.4772852441223222,0.9997383085320157,0.000274192909762837
-0.47722855530664676,-0.47722855530664676,1.0003404471078738,0.00027112226760928634
-0.47716467301070226,-0.47716467301070226,0.9998026559403639,0.0002741237829667544
-0.4770503189058218,-0.4770503189058218,0.9998652476634657,0.0002782556288740824
-0.4769490415856126,-0.4769490415856126,0.999950617303714,0.00028156979652078126
-0.4768631990576978,-0.4768631990576978,1.0000232538442124,0.00027457081052229617
-0.47673265823978,-0.47673265823978,1.0003775783227915,0.0002791708960495537
-0.4766648427910695,-0.4766648427910695,0.9997496013135805,0.00027795604901639543
-0.47650656297046223,-0.47650656297046223,0.9996691352028574,0.00026955292397306174
-0.47639550802487063,-0.47639550802487063,1.0000037762554779,0.00028546277305168197
-0.47623800887377,-0.47623800887377,1.000480029085852,0.00029136483143101096
-0.47601829312334304,-0.47601829312334304,1.000325343178844,0.00026320371678816284
-0.47586538582108917,-0.47586538582108917,1.000127231909239,0.00026849007047316357
-0.47575615946770994,-0.47575615946770994,1.000059492822283,0.00026407179937383416
-0.475613300796249,-0.475613300796249,0.9999933588608567,0.0002852831769077488
-0.47548484061626367,-0.47548484061626367,0.9998966561291709,0.0002777592944541455
-0.47529363196954366,-0.47529363196954366,1.0004017446231157,0.00028704930483828834
-0.4751938123081345,-0.4751938123081345,1.0001239561107331,0.00028628017585917637
-0.47507672665742573,-0.47507672665742573,1.000035304566408,0.0002594245295432581
-0.47496532955483417,-0.47496532955483417,0.9999133447164935,0.00026594353907728014
-0.4748936968615453,-0.4748936968615453,1.0000406528637924,0.0002828835765929108
-0.4747806248939014,-0.4747806248939014,0.9999766606166748,0.00028242763430204424
-0.4746882946419646,-0.4746882946419646,0.9997988007440375,0.00029424844824333865
-0.47458047390391583,-0.47458047390391583,0.9998100138377716,0.00028444811498155376
-0.47446421320564697,-0.47446421320564697,0.9999954433948378,0.0002896918211045544
-0.47430476142981204,-0.47430476142981204,1.0001590841744408,0.000269104338871318
-0.47420879834826335,-0.47420879834826335,1.0005059544193387,0.000288732855793632
-0.47407811519660753,-0.47407811519660753,1.0000741047925152,0.0002958345622711251
-0.4739815509165055,-0.4739815509165055,0.9997820855279107,0.0002654706599097652
-0.4738104306772584,-0.4738104306772584,1.0001498626227339,0.0002615807843218732
-0.47368409326663824,-0.47368409326663824,0.9999161250342168,0.00030346185928638325
-0.47357820415127205,-0.47357820415127205,1.0003500649942312,0.0002815796035829132
-0.47348854545125507,-0.47348854545125507,1.0000224629695786,0.00027646774528195705
-0.4733892872696742,-0.4733892872696742,0.999892132320354,0.00029572460188081833
-0.47328726793639364,-0.47328726793639364,1.0003857958694513,0.00026487368633126374
-0.47317741783554085,-0.47317741783554085,0.9998345122239293,0.000262797853628208
-0.4730599105736474,-0.4730599105736474,0.9999736973241937,0.000272578497541555
-0.4729306589208136,-0.4729306589208136,1.0000020524384643,0.00027865071137862546
-0.4728776773554273,-0.4728776773554273,1.0001906043206445,0.0002755225556457121
-0.47270424324015037,-0.47270424324015037,1.0003995061388644,0.00027563347711129433
-0.4725549740884162,-0.4725549740884162,1.0002928994550984,0.0002753942337567601
-0.47244872084556844,-0.47244872084556844,0.9996939843287634,0.00027600007253729213
-0.4723222157183045,-0.4723222157183045,1.000060680442425,0.0002698372853721407
-0.47223266830842475,-0.47223266830842475,1.000101335153882,0.00028005201069677044
-0.4721516371879261,-0.4721516371879261,1.0002358719492737,0.0002639149811922425
-0.471996381849749,-0.471996381849749,0.9998137944997673,0.00026389911977107983
-0.47185115344982476,-0.47185115344982476,1.000352806743443,0.00026289578261211235
-0.47165396588825387,-0.47165396588825387,0.9997891409571125,0.0002818054784580001
-0.4714857807593944,-0.4714857807593944,0.9998195156021904,0.00028338029949933913
-0.47136580582737225,-0.47136580582737225,0.9998961789080086,0.0002771364949604201
-0.471284437806753,-0.471284437806753,1.000300635058537,0.00026116828826990804
-0.4711595773645968,-0.4711595773645968,1.0000752545794158,0.00025285934603209325
-0.47100416103276077,-0.47100416103276077,0.999611510498181,0.00027592617210521497
-0.47093948695910515,-0.47093948695910515,1.0001649179477996,0.00027456060860928274
-0.4708220105196233,-0.4708220105196233,0.9999450559777913,0.00027688172352205583
-0.4706957347036223,-0.4706957347036223,0.9999733507019191,0.0002708230472510306
-0.4706080571027996,-0.4706080571027996,1.0004823179837596,0.0002577722721437086
-0.47045165231029384,-0.47045165231029384,1.0000621248282595,0.0002855488365215024
-0.4703367762107519,-0.4703367762107519,0.9996071260178414,0.0002758966164494004
-0.47025431706279053,-0.47025431706279053,1.0005194756884568,0.00027779745611676847
-0.4702162830006273,-0.4702162830006273,0.9999314091439107,0.00028154714007837223
-0.47015079965567563,-0.47015079965567563,1.0000990068346731,0.0002697729934526738
-0.47001725093796265,-0.47001725093796265,0.9998197699336865,0.0002811532703882484
-0.46987940442122633,-0.46987940442122633,1.0002302245669423,0.00027961297490749256
-0.4697329215247009,-0.4697329215247009,0.9999603262174878,0.00026570735911381557
-0.46966510509955695,-0.46966510509955695,1.0000905189393046,0.0002815313201423762
