time,time,flux,flux_err
-0.49943562116580625,-0.49943562116580625,1.0000039372297016,0.0001203984227331925
-0.49834092344341724,-0.49834092344341724,0.9999370916114755,0.00012041873757740045
-0.4976604224793846,-0.4976604224793846,1.000177946722834,0.00012150812004197414
-0.4966959839875926,-0.4966959839875926,1.0000795184126512,0.00011957404050020747
-0.4958815505699022,-0.4958815505699022,1.0000305322733545,0.00011000649713521439
-0.49508885919640305,-0.49508885919640305,0.9999344463062197,0.0001094956230700143
-0.4948233647621237,-0.4948233647621237,1.000023262833907,0.00011054937872019583
-0.49423485771403647,-0.49423485771403647,1.0000157197937707,0.00011004754721736986
-0.4936287156131584,-0.4936287156131584,1.0001273643630937,0.00011024656945436456
-0.49317894452251493,-0.49317894452251493,0.9999327781762755,0.00010992397538850485
-0.49252335100318306,-0.49252335100318306,0.9999909349765119,0.00010971454184729267
-0.49211956970393655,-0.49211956970393655,0.9999774158063225,0.0001101140313689883
-0.4915871743869502,-0.4915871743869502,1.0000338919446397,0.00010984197095140725
-0.4910572992201196,-0.4910572992201196,1.0001729416287488,0.00011320663976923737
-0.49010435728705487,-0.49010435728705487,1.0001039670610592,0.00010994318086568543
-0.4895436666760361,-0.4895436666760361,0.9999675585205561,0.00010980911802128488
-0.48847116561373694,-0.48847116561373694,0.9999432253179548,0.00011098649907866926
-0.4878058146045078,-0.4878058146045078,0.999925984956735,0.00011046400204826666
-0.4866901361645432,-0.4866901361645432,1.0000564255114637,0.00010973213437571825
-0.4861794105177978,-0.4861794105177978,0.9999529201769523,0.00011169312454715147
-0.4849006393546006,-0.4849006393546006,1.00000741515202,0.00010997047507674143
-0.484023247245932,-0.484023247245932,1.0001285279697432,0.00011027488720244893
-0.48323130036587825,-0.48323130036587825,1.0001322218190507,0.00011762604561592232
-0.4822835205850424,-0.4822835205850424,0.999974878370919,0.00010983768281773912
-0.48103565895580686,-0.48103565895580686,0.9998926797731075,0.00012244212758097996
-0.47976967572176366,-0.47976967572176366,1.0000539792012568,0.0001109794977441745
-0.47811246481433045,-0.47811246481433045,1.0001395529553934,0.00011103316732164624
-0.4771171072585275,-0.4771171072585275,1.0000070927220062,0.00010965377235071708
-0.4762522007891675,-0.4762522007891675,1.000220269688698,0.00011008553194501801
-0.4753467584552709,-0.4753467584552709,0.9999989012631264,0.0001103954708090638
-0.4745678197126836,-0.4745678197126836,1.000021947411536,0.00010977692615697517
-0.4735171163803898,-0.4735171163803898,1.0000116933243934,0.00011044738277326894
-0.4727148095320445,-0.4727148095320445,0.9999756480383036,0.00010987669380739839
-0.4718863710440928,-0.4718863710440928,1.000065929970339,0.00011049328767658325
-0.47087573731841986,-0.47087573731841986,1.0000212953211942,0.0001097534206439517
-0.46965092450845985,-0.46965092450845985,0.9999492135109911,0.0001097574507341835
-0.46826560918125326,-0.46826560918125326,0.9999868062142054,0.00010987745804472975
-0.4670576294214698,-0.4670576294214698,1.000036381082124,0.00011259772245514185
-0.46605411707714667,-0.46605411707714667,1.0001723267984601,0.00010980547836795386
-0.46521849678829313,-0.46521849678829313,0.9997223457466969,0.0001099590610712862
-0.4644703672413016,-0.4644703672413016,1.000137382135165,0.0001099676374048562
-0.4637827720871428,-0.4637827720871428,0.9999454785776658,0.00010932933385099266
-0.4631869415345136,-0.4631869415345136,1.0001267296893885,0.00011007863109766978
-0.46230496496427803,-0.46230496496427803,0.9997680639491696,0.00010937650624720364
-0.46189514787402003,-0.46189514787402003,1.0001052757583717,0.00011000233063907761
-0.46120714795542883,-0.46120714795542883,1.000159714165084,0.00010997251969144467
-0.4608482986688614,-0.4608482986688614,1.0000413691965067,0.000109753921586374
-0.46024991962476636,-0.46024991962476636,0.9999932288534991,0.0001098269844145865
-0.45968083664774895,-0.45968083664774895,0.9998849198690429,0.00010959076549229237
-0.4591646686545573,-0.4591646686545573,1.0000841156823754,0.00011008029366058943
-0.4584799308941001,-0.4584799308941001,1.0001113629790142,0.00010973393460355629
-0.45788617217331196,-0.45788617217331196,0.9999802771747728,0.00011443839190898816
-0.4569404605892487,-0.4569404605892487,0.9999176853702165,0.00010993466521928247
-0.45644955440366175,-0.45644955440366175,1.000035514666032,0.00011017297440720275
-0.4554108420794364,-0.4554108420794364,1.0001826731799117,0.00011114930522202135
-0.454991687744041,-0.454991687744041,0.9999472393516277,0.00011066794561650082
-0.45359442826593294,-0.45359442826593294,1.0001270938531128,0.00011231775719119543
-0.4525358971062815,-0.4525358971062815,1.0000214667882508,0.00011064398473732199
-0.4515081221266882,-0.4515081221266882,0.9999997644381988,0.00010994616883725488
-0.4504747258499265,-0.4504747258499265,0.9999418356757601,0.00012067079820871017
-0.4494895167881623,-0.4494895167881623,0.999989421343835,0.0001099745747953997
-0.44799795444705526,-0.44799795444705526,0.9999698197172743,0.00010985205445762823
-0.4465925619209884,-0.4465925619209884,1.00009496032311,0.00010978341188412437
-0.4451264339528279,-0.4451264339528279,0.9999816268351138,0.00010993116373087553
-0.4440297763270792,-0.4440297763270792,0.9999569574060683,0.00010977248885146497
-0.4431355671986239,-0.4431355671986239,1.0000622790636644,0.00010987934469649176
-0.4423676840378903,-0.4423676840378903,0.9999899686178402,0.00011039602294618786
-0.44124435347621327,-0.44124435347621327,1.000093080035382,0.00011025916320473261
-0.44056631225394083,-0.44056631225394083,1.0000029953387561,0.00011003094694894859
-0.4400905456364853,-0.4400905456364853,1.0000039054882335,0.00010979635683810746
-0.43931650058366356,-0.43931650058366356,0.9998987600553499,0.00011003965549723025
-0.43829907235631255,-0.43829907235631255,1.0000955510821257,0.00010969136250199782
-0.43645460169936995,-0.43645460169936995,1.000145940433185,0.00011121776558643544
-0.43518355175619944,-0.43518355175619944,1.0000922638303573,0.0001098951446105642
-0.43434147755615415,-0.43434147755615415,1.0001519438763065,0.00010993585765378775
-0.4336360604735091,-0.4336360604735091,0.9999221106739269,0.0001111563199739239
-0.4326375546952477,-0.4326375546952477,1.0000070833615315,0.00010980287086509158
-0.43210603115439883,-0.43210603115439883,1.0000120240872805,0.00010981966808618403
-0.43100880792771934,-0.43100880792771934,1.00006458329607,0.00010934345777152648
-0.4307489021040965,-0.4307489021040965,1.0000418770860064,0.00011050661085281168
-0.4298798989300849,-0.4298798989300849,1.0001436722126085,0.00010943838041371028
-0.429199782339856,-0.429199782339856,1.0000012792572242,0.00010982617140538678
-0.42847250319318847,-0.42847250319318847,0.9999283714717286,0.0001099282666047906
-0.4279767239408102,-0.4279767239408102,0.9998465012996158,0.00010967323097442312
-0.427179400017485,-0.427179400017485,0.9999419879328091,0.00010973551882690594
-0.42619657069153616,-0.42619657069153616,0.9998478024620251,0.00010974563596391521
-0.42528689969331024,-0.42528689969331024,1.000139273817364,0.00010985507610572446
-0.42439976073801516,-0.42439976073801516,0.999911566584888,0.00011092349623494256
-0.4238726807991043,-0.4238726807991043,0.9999869400370015,0.00010982367630910908
-0.4233455120644066,-0.4233455120644066,1.000065944247141,0.00011055939614037233
-0.4223882556252647,-0.4223882556252647,0.9999847148690689,0.00010970206804529633
-0.42189170281344557,-0.42189170281344557,1.0000360955936762,0.00011146704834814086
-0.4205531981831882,-0.4205531981831882,1.000104223842874,0.00011003979359908717
-0.41978242245386355,-0.41978242245386355,0.999929611298581,0.00011010186844533398
-0.41923389975854664,-0.41923389975854664,0.9999956899986033,0.00011005300011061937
-0.41829905155755115,-0.41829905155755115,0.9999744245136956,0.0001099473464043545
-0.416934093774762,-0.416934093774762,1.0001285702422242,0.00012136859819623996
-0.4152215166686801,-0.4152215166686801,0.999942171510676,0.00011087950718344931
-0.41359932330669835,-0.41359932330669835,1.0001001329955035,0.00011312643010720272
-0.41216596258745997,-0.41216596258745997,0.9997116712891267,0.0001099405508467877
-0.41140420031151737,-0.41140420031151737,0.9999160559014747,0.00011090622230013121
-0.41074631358496844,-0.41074631358496844,0.9998580514435158,0.00010985431040788095
-0.40969638381502593,-0.40969638381502593,0.9999270332114853,0.00011037004912356392
-0.40877740863943474,-0.40877740863943474,0.9999299983869111,0.00010975794236091738
-0.40785516625619495,-0.40785516625619495,0.9999813457828249,0.00011045804224704341
-0.40710710650600956,-0.40710710650600956,0.9999148311154311,0.0001098628341965572
-0.4061153502494562,-0.4061153502494562,0.9999554648314242,0.00011710351305432639
-0.40515394254471176,-0.40515394254471176,1.0000188238784598,0.00011266655170564866
-0.40395866032049527,-0.40395866032049527,1.0000474632609664,0.00010984941801816732
-0.4031093647645321,-0.4031093647645321,0.9999354711183253,0.00011223135288672905
-0.4021040384715889,-0.4021040384715889,0.9998594044334453,0.00010978802219255347
-0.4011910504079424,-0.4011910504079424,1.00000926574821,0.00010995568991169575
-0.40060571109352167,-0.40060571109352167,0.9999513003763931,0.00010996899955945333
-0.3997734727570787,-0.3997734727570787,0.9999616014048517,0.00010930481072156735
-0.3994411015068181,-0.3994411015068181,1.000051494613393,0.00011082838726974354
-0.39865232587617355,-0.39865232587617355,0.9999952968203317,0.0001097737783856721
-0.39804716703365556,-0.39804716703365556,1.000071405453264,0.00010953851026646124
-0.39779073449899444,-0.39779073449899444,0.9999606400162753,0.00011066947647793905
-0.397079329090775,-0.397079329090775,1.0001924005499272,0.00011009073644845206
-0.396630028745858,-0.396630028745858,1.0000443140447066,0.0001095105355685171
-0.39594442437810357,-0.39594442437810357,1.0001420795716534,0.00010994007951944892
-0.3952479298517574,-0.3952479298517574,1.0001019324136018,0.00010989443063879455
-0.3949525142495986,-0.3949525142495986,1.0000473051760241,0.00010995413739120822
-0.3943325450120028,-0.3943325450120028,1.0000148208275794,0.00010972735975703861
-0.3937334146728972,-0.3937334146728972,1.0000131173524434,0.00011371623536239142
-0.3927036045701243,-0.3927036045701243,0.9998416002687435,0.00010983074753417287
-0.39211230193031954,-0.39211230193031954,0.9999384787691742,0.00011016686962719666
-0.3911358338751597,-0.3911358338751597,1.0000782315787684,0.00010961769074744789
-0.3905336653231643,-0.3905336653231643,1.0000884352076018,0.00011069096649097188
-0.38946374196966643,-0.38946374196966643,0.9999358134544538,0.00011190743094522095
-0.38858345766493585,-0.38858345766493585,1.00007969609843,0.00011006639406738787
-0.38741954876459206,-0.38741954876459206,1.000134776720832,0.0001099665153973498
-0.3866574789310107,-0.3866574789310107,1.000110189770743,0.00011029447247305696
-0.38585030254907904,-0.38585030254907904,1.000220391870975,0.00011853647926021838
-0.3843714025715599,-0.3843714025715599,0.9999901222708122,0.00012314176830336606
-0.383142778655747,-0.383142778655747,0.9999255064915606,0.0001110926979393237
-0.3817231695633382,-0.3817231695633382,0.9999127384213177,0.0001097618872034062
-0.38071784347703214,-0.38071784347703214,1.0000548445137505,0.00011097516754222033
-0.3795065735845128,-0.3795065735845128,1.0000246756800082,0.00010984285372011261
-0.37877993526344655,-0.37877993526344655,0.9999724798309112,0.00011044262450081079
-0.3779573520150734,-0.3779573520150734,0.9999568458162787,0.00010987515396061669
-0.3768039949791273,-0.3768039949791273,0.9998856399366789,0.00011035861758657943
-0.37597700508777054,-0.37597700508777054,0.999840074957276,0.00010978152475521054
-0.375211831330671,-0.375211831330671,1.0000128300899649,0.00011002617679806415
-0.3746480264380807,-0.3746480264380807,1.0000131299117965,0.00010996252982611641
-0.3735504083248088,-0.3735504083248088,0.9999947600953873,0.00010974178427609394
-0.37227223969239276,-0.37227223969239276,1.0000031491366754,0.00011058015376916427
-0.3714150481391698,-0.3714150481391698,0.9999488241481789,0.0001110474157881184
-0.37050013411499094,-0.37050013411499094,1.0000609667858666,0.00011002794426218725
-0.3698720501328353,-0.3698720501328353,0.9998075306866167,0.00011282252191776496
-0.36898300306347664,-0.36898300306347664,1.000150196783769,0.00010990712915442263
-0.36815387978276704,-0.36815387978276704,0.9999132064465499,0.000109857350334542
-0.3674556040990865,-0.3674556040990865,0.9999770165754158,0.00011024844053924622
-0.3668059644434834,-0.3668059644434834,0.9997780954658374,0.00010937910793732146
-0.3663204280746868,-0.3663204280746868,0.9998301203009184,0.00011005103168358103
-0.36547689901199193,-0.36547689901199193,1.000067820880891,0.00010947371028147185
-0.36500136271642986,-0.36500136271642986,1.0000209219702179,0.00010994685452475764
-0.36450938556226903,-0.36450938556226903,1.0000169149697844,0.00010990893333744314
-0.3638770775316516,-0.3638770775316516,0.9998912753465085,0.00010975612070463461
-0.3635720436286647,-0.3635720436286647,0.9999283996516896,0.00010986989083476427
-0.3627892247808632,-0.3627892247808632,0.9999382991994221,0.00011087941289387104
-0.3621885574422777,-0.3621885574422777,0.9999474526680026,0.00010997669274454291
-0.3615731633093674,-0.3615731633093674,0.9999912753980137,0.00011500411186067397
-0.36105092556390445,-0.36105092556390445,0.999881415870249,0.00010987793026720377
-0.3602491634490434,-0.3602491634490434,0.999951157647485,0.00010993172331845063
-0.3596940632181941,-0.3596940632181941,0.9998757180802718,0.00010983605392287158
-0.35900755589827893,-0.35900755589827893,1.0000377647397796,0.00011047536149625956
-0.3582586364762392,-0.3582586364762392,1.0000062183644294,0.0001176080313253007
-0.3579768607771257,-0.3579768607771257,0.9999931182487163,0.00010982288774989704
-0.35720349895418624,-0.35720349895418624,0.9999416688683367,0.00011093677926705951
-0.3559905810892815,-0.3559905810892815,1.0001400510894518,0.00011271664035523207
-0.3552143180713756,-0.3552143180713756,1.0002613467150099,0.00011188969523359441
-0.3546361683693249,-0.3546361683693249,1.000104684732946,0.00010999131702287958
-0.3536654664785601,-0.3536654664785601,1.000078303040847,0.00012063595332836541
-0.35261057667376006,-0.35261057667376006,0.9998382430710917,0.00010994747724546465
-0.3514135495875962,-0.3514135495875962,1.0000455562237682,0.00010986133825685487
-0.35025658147933425,-0.35025658147933425,0.9999766992514235,0.00010994597932482484
-0.34887222877587193,-0.34887222877587193,1.0000802289608408,0.00010973629552893342
-0.34781415201723576,-0.34781415201723576,1.0000158377170594,0.00010998144557868476
-0.3468796932284022,-0.3468796932284022,0.9999247508080948,0.00011019496450834802
-0.3461012264684541,-0.3461012264684541,1.000096830660346,0.00010988092130292677
-0.3453699156671064,-0.3453699156671064,0.9998278244121209,0.00011049358284450774
-0.3445365159888752,-0.3445365159888752,0.9999201938885562,0.000109774127828833
-0.34359889551706146,-0.34359889551706146,0.9999814121853445,0.00011043309328684504
-0.3430552290199557,-0.3430552290199557,0.9998322678438093,0.00010979228944019922
-0.3421879381290637,-0.3421879381290637,1.0001267387274533,0.00010993083011853649
-0.3410892631334718,-0.3410892631334718,1.0000415406688845,0.0001097839486155089
-0.33943500102323015,-0.33943500102323015,1.000002914967887,0.00011147506949016065
-0.3381479269097326,-0.3381479269097326,1.0000780848641042,0.00010989383589229839
-0.33721017969364764,-0.33721017969364764,0.9999968260625733,0.00010988948392229201
-0.33659123873221686,-0.33659123873221686,0.9998651277295922,0.00011114482836090737
-0.33567126505076883,-0.33567126505076883,0.9999990052432397,0.00010906291319687997
-0.33509556339122354,-0.33509556339122354,0.999941537477311,0.00010986998066082478
-0.33413017040584236,-0.33413017040584236,1.0000670974610764,0.0001093869350581045
-0.33375815937470177,-0.33375815937470177,0.999937475153964,0.00011060301910072621
-0.3332695584307658,-0.3332695584307658,0.999745622412685,0.00010991121001477163
-0.3324954137497116,-0.3324954137497116,1.0000935882728816,0.00010946980851028691
-0.33199702271376735,-0.33199702271376735,0.9999058664351237,0.00010992294930621455
-0.3313401225343114,-0.3313401225343114,0.9999582922118793,0.00011002330777813678
-0.330938142928062,-0.330938142928062,1.0000637264673897,0.0001097996681546616
-0.3304359077999834,-0.3304359077999834,0.9999876653591538,0.00010995250035930357
-0.3298239273834042,-0.3298239273834042,0.9999987883312207,0.00010973032713765324
-0.32902034876460673,-0.32902034876460673,1.0000665639172996,0.00011074245023060581
-0.328532940155128,-0.328532940155128,1.0002196825820628,0.00010975570929201963
-0.3278897964250064,-0.3278897964250064,1.0000455734702558,0.00011117981246904957
-0.32691204143920916,-0.32691204143920916,0.9999949147706666,0.00011075138418136272
-0.32629386796033943,-0.32629386796033943,0.9999472640335536,0.00011053191574715065
-0.3252477853151504,-0.3252477853151504,1.0002445911351074,0.00010985992201866517
-0.32467673811188436,-0.32467673811188436,1.0001123807678929,0.00011159812330774029
-0.3232061213464476,-0.3232061213464476,0.9999775415020865,0.00011005034954835397
-0.3225246361573227,-0.3225246361573227,0.9999782688807823,0.00011025087109885765
-0.3215057728579268,-0.3215057728579268,1.0001706204475975,0.00010995912202561823
-0.3199021952779731,-0.3199021952779731,1.0001302379863124,0.0001220889344406996
-0.31859981842862906,-0.31859981842862906,1.0001081991940626,0.00011097126074792445
-0.316904665378388,-0.316904665378388,0.9999719416716534,0.00011094509097051063
-0.3155572404357372,-0.3155572404357372,0.9999305652959901,0.00010985054949533839
-0.3147175008023623,-0.3147175008023623,1.0002036135495023,0.00011037942123179338
-0.31386275332188235,-0.31386275332188235,1.0000937485682297,0.000109895641583868
-0.31307087190507443,-0.31307087190507443,1.0001977660201429,0.00011140262149269341
-0.31209209155058487,-0.31209209155058487,0.9998366373749447,0.00010976747533577734
-0.31111074854270554,-0.31111074854270554,1.000128972164545,0.00011049562368841788
-0.3106464801909169,-0.3106464801909169,0.999955957930322,0.0001100651421959983
-0.30968480591254777,-0.30968480591254777,0.9999330158686511,0.00010976249796114646
-0.30872839178482536,-0.30872839178482536,1.0000999154222296,0.00010987163121432184
-0.30714510022371544,-0.30714510022371544,0.9999271984870184,0.0001097590666520859
-0.3058730504941195,-0.3058730504941195,0.9999802760462979,0.0001124400356037435
-0.30486562961305025,-0.30486562961305025,0.999969426355797,0.00010979709713826173
-0.3040359309699852,-0.3040359309699852,1.0000813754438638,0.00010997480536715227
-0.30328270262107254,-0.30328270262107254,1.0000505324138,0.00010998983265223588
-0.3026004306913819,-0.3026004306913819,1.000002372457978,0.0001093121534042158
-0.30199637800396884,-0.30199637800396884,1.0001842995307852,0.00011005700436091422
-0.3010748348897323,-0.3010748348897323,0.9998510868794964,0.00010945484790544238
-0.30071309485356323,-0.30071309485356323,0.9998707871108914,0.00010989988907503215
-0.3000254595157458,-0.3000254595157458,0.9998392753835551,0.00011007495089001068
-0.2996654522314202,-0.2996654522314202,0.9999382654740371,0.00010962065246078096
-0.2990664549957728,-0.2990664549957728,0.9999307973565557,0.00010983267576361072
-0.2983470917562954,-0.2983470917562954,0.999830816017937,0.00010961199571756835
-0.29788899816630876,-0.29788899816630876,1.0000125310751478,0.000110163565759181
-0.2972003412753111,-0.2972003412753111,0.9998564304014005,0.00011403263467716282
-0.2964740171446465,-0.2964740171446465,0.9998478971203439,0.00010991074760593339
-0.2956633275782224,-0.2956633275782224,1.0001370352955452,0.00010984911440595603
-0.2952307881525485,-0.2952307881525485,0.9999470650341268,0.0001102240833415227
