time,time,flux,flux_err
-0.4996467122109607,-0.4996467122109607,1.0001087999454026,0.000379530472653501
-0.4988640881759541,-0.4988640881759541,0.9999524563371022,0.0003740967385927297
-0.49803281248750864,-0.49803281248750864,1.0000695605778473,0.000367271673284277
-0.49768730531213806,-0.49768730531213806,1.0000807357657997,0.0003610166329451127
-0.49739087275229393,-0.49739087275229393,0.9997770091207698,0.00035223283743452213
-0.4966228748351568,-0.4966228748351568,0.9996390655755428,0.00035588707923295927
-0.49627286843024193,-0.49627286843024193,0.9994177672395417,0.0003349711340064311
-0.4960590478498489,-0.4960590478498489,0.9999069288220538,0.0003342270233311654
-0.49561482012213676,-0.49561482012213676,1.0001268243846968,0.00034244897201718264
-0.49531839275441597,-0.49531839275441597,1.0003691997755528,0.000346379762612024
-0.49480681444110813,-0.49480681444110813,0.9992007872979233,0.00033314970309831967
-0.494491700004437,-0.494491700004437,1.0000643878852684,0.0003325993069266421
-0.49417670331022234,-0.49417670331022234,1.0005762050065126,0.00033674741334941923
-0.49384370902262165,-0.49384370902262165,1.000234485168525,0.00035045610904949943
-0.4934383159619756,-0.4934383159619756,1.000029293408298,0.0003310526815598976
-0.4929892195563298,-0.4929892195563298,0.9996610957321508,0.00033993134663104946
-0.49240933830733413,-0.49240933830733413,1.0003401576012838,0.0003496660684652676
-0.4922263517655665,-0.4922263517655665,1.0000167675305567,0.0003334022081842668
-0.4917794976645382,-0.4917794976645382,1.0001998900546254,0.000355188306641188
-0.4911866509442916,-0.4911866509442916,1.0001595067206366,0.0003498603776228834
-0.4909355390816927,-0.4909355390816927,0.999867907302755,0.00035444618985077953
-0.4905453327606665,-0.4905453327606665,1.000283628338429,0.00034186243473028434
-0.4900655405712314,-0.4900655405712314,1.0001436168719144,0.0003448545700535492
-0.4897763916029362,-0.4897763916029362,1.0000945968029609,0.00034166395283466373
-0.48940248748403975,-0.48940248748403975,1.0002964650521269,0.00032411955414272573
-0.4890654062561225,-0.4890654062561225,1.0004124587435144,0.0003350112146292087
-0.48853731145209167,-0.48853731145209167,0.9996849181388068,0.0003467597132296131
-0.48816774881852326,-0.48816774881852326,0.9999598618504285,0.0003477374415696957
-0.48749345157993956,-0.48749345157993956,0.9999761048976781,0.0003257339373407737
-0.48664354464563075,-0.48664354464563075,1.0000938989021788,0.00036310416317776893
-0.48570966749975925,-0.48570966749975925,1.0004395484905955,0.0003567717827849976
-0.48528400116192644,-0.48528400116192644,1.0000760529633883,0.00034589538601168836
-0.48488425285031556,-0.48488425285031556,1.0003786257609875,0.0003499262925771427
-0.4844280720164534,-0.4844280720164534,1.0000121494477359,0.00034333423395546084
-0.48416487028007393,-0.48416487028007393,1.000089100730627,0.00032843291128719596
-0.48382020958524663,-0.48382020958524663,1.0003218349408964,0.00032731763764334127
-0.48345668297261,-0.48345668297261,0.9997411213671142,0.00034825677020789005
-0.4829967506841058,-0.4829967506841058,0.9996072148476529,0.0003519637743728296
-0.4824322776577901,-0.4824322776577901,1.0004804759114372,0.00032606542491912035
-0.4815154719050042,-0.4815154719050042,1.0003662992392424,0.00033525253707468634
-0.48085855976096353,-0.48085855976096353,1.0000586893385086,0.000366790503997404
-0.4804018354800064,-0.4804018354800064,0.9996950426188833,0.00034890575460070294
-0.48009192643803544,-0.48009192643803544,1.000285467547701,0.00035679804832903193
-0.4795152231527027,-0.4795152231527027,1.000054790284973,0.0003473041885106201
-0.4790546274627559,-0.4790546274627559,0.9998071123763967,0.00033917786990988666
-0.4788138462667121,-0.4788138462667121,0.9998802975079444,0.00034390697344824725
-0.4785102807480143,-0.4785102807480143,1.0004274734981982,0.00033915470917167856
-0.4780099508468993,-0.4780099508468993,0.9998441639455578,0.0003495898233648547
-0.47742470128287096,-0.47742470128287096,0.9999151756088546,0.000347266248283632
-0.4770179528190056,-0.4770179528190056,1.0002908637134662,0.00034487142195981427
-0.4767036731092958,-0.4767036731092958,1.0000077707322133,0.0003410123328409779
-0.4756174133392051,-0.4756174133392051,0.999968222925294,0.00035221296284290986
-0.47511239097220825,-0.47511239097220825,1.000384501087305,0.00033747696507341964
-0.4748340154066682,-0.4748340154066682,0.9993970116119566,0.00036685845811423884
-0.47418428417004177,-0.47418428417004177,0.9996415880579186,0.00035763152673601696
-0.47389969167124946,-0.47389969167124946,0.9999890121309353,0.00033844886945002476
-0.47360972583701366,-0.47360972583701366,1.000096597788535,0.0003352507364012714
-0.47319447946792936,-0.47319447946792936,1.000250049843979,0.0003400838366194927
-0.4729464283300331,-0.4729464283300331,0.999834263158425,0.0003508147035249741
-0.4726016068219906,-0.4726016068219906,1.0001992879741435,0.00033677686172607407
-0.4721590306347935,-0.4721590306347935,0.9999388488975136,0.0003336010608359786
-0.47179093630693386,-0.47179093630693386,1.0002099172573966,0.0003468567956319028
-0.47144719236821403,-0.47144719236821403,1.0001264481407297,0.0003408965580176125
-0.4707868141704239,-0.4707868141704239,0.9997149171152879,0.00034754431037182197
-0.47027701956103557,-0.47027701956103557,1.000268346273904,0.0003494418987103679
-0.4699247383163311,-0.4699247383163311,1.0000693735161124,0.00033685444135890346
-0.4695084082573885,-0.4695084082573885,0.9995395380220513,0.0003635202523240237
-0.46887781312398147,-0.46887781312398147,0.999680739652316,0.00034667245022113274
-0.46866577239998153,-0.46866577239998153,1.0004579808966985,0.0003399287110550406
-0.4684377322701039,-0.4684377322701039,1.0000396693305347,0.00034176358087955184
-0.46806755459692795,-0.46806755459692795,0.9996874178487651,0.0003374766052852841
-0.46766614955558905,-0.46766614955558905,0.9996235287275705,0.00034629617480656013
-0.46734663429379,-0.46734663429379,0.9994915331455058,0.00033015994811173784
-0.46694421355787197,-0.46694421355787197,0.9995184903491369,0.0003229029925702998
-0.4666955781984143,-0.4666955781984143,0.9997347189661351,0.0003298453030302873
-0.4664282783662202,-0.4664282783662202,0.9997869569696072,0.00033609940804777425
-0.46603027704986744,-0.46603027704986744,0.9998321837264227,0.00035372352336253816
-0.4654876003973186,-0.4654876003973186,1.0006000265494681,0.00032110213145924906
-0.46475932523899244,-0.46475932523899244,1.0000364860263793,0.0003412170062360229
-0.46418007285101337,-0.46418007285101337,0.9998802651505878,0.00035994865900726956
-0.46342693485494235,-0.46342693485494235,0.9998057813727919,0.00036269944230792896
-0.46304630607482977,-0.46304630607482977,0.9999687158494636,0.00034106686303656735
-0.4627867484494345,-0.4627867484494345,1.0001307038008158,0.00035495715858367097
-0.46242210335913114,-0.46242210335913114,1.0000206992607867,0.00034546987143495647
-0.4620483832608443,-0.4620483832608443,0.9999859067820773,0.0003402496696380211
-0.4616698366618948,-0.4616698366618948,1.000121049042654,0.0003183131470146282
-0.4612802087212913,-0.4612802087212913,0.9999348487998547,0.0003465642464509798
-0.4607641574053559,-0.4607641574053559,0.9995503175264977,0.0003507544521061793
-0.4605054606014164,-0.4605054606014164,0.9998122206713127,0.0003498181276898584
-0.4599226912861923,-0.4599226912861923,1.000239329199886,0.0003270373883983206
-0.4589082899532514,-0.4589082899532514,0.9999708269001861,0.00034639428106517545
-0.45804281469027047,-0.45804281469027047,1.0003365840320229,0.00035061293403561213
-0.45740078094240744,-0.45740078094240744,0.9994099215930035,0.00035383063052080887
-0.4568665674101794,-0.4568665674101794,0.999730536638317,0.00034119592722033147
-0.4565825248893816,-0.4565825248893816,0.9998652015957378,0.00033339560643944586
-0.45634865248284767,-0.45634865248284767,1.000023839988663,0.00032655544990856995
-0.4559406248532468,-0.4559406248532468,1.0004165073595968,0.00034891399214294176
-0.45532519701810087,-0.45532519701810087,0.9997160994303826,0.00034309647692662356
-0.4547807769558858,-0.4547807769558858,1.0003583363365278,0.0003386562684400017
-0.4544438851909945,-0.4544438851909945,0.9999686540967666,0.0003295279138524461
-0.45374397714622317,-0.45374397714622317,1.0003854532491405,0.00035123348703649637
-0.45293718550237827,-0.45293718550237827,1.0003906063392018,0.00035141980195850856
-0.45271946368156935,-0.45271946368156935,1.0002634158462609,0.0003423500574652364
-0.45232684129441625,-0.45232684129441625,0.9996648161260392,0.0003697102434338573
-0.4518207659217296,-0.4518207659217296,0.9998639498089494,0.00035107860137603225
-0.4514853236207273,-0.4514853236207273,1.000233824783218,0.0003383532870547789
-0.4511317995318677,-0.4511317995318677,0.9997661328987053,0.0003398477351303665
-0.4507511462754337,-0.4507511462754337,1.0004956346770761,0.00033938742064390775
-0.4504083417385118,-0.4504083417385118,0.9999114849954897,0.00034253950016318533
-0.44982414720288943,-0.44982414720288943,0.9999282083341967,0.00034796891630017163
-0.44936276601220015,-0.44936276601220015,1.000185926870039,0.00033042845857796034
-0.4488547745451797,-0.4488547745451797,1.0001679982097151,0.00034625776979471776
-0.448342023382429,-0.448342023382429,1.000136965209597,0.00034351881429523146
-0.4478753070754465,-0.4478753070754465,0.9999734937547823,0.0003416579338266163
-0.44757165006303695,-0.44757165006303695,1.0002292409963847,0.0003374219137045448
-0.4470467842853395,-0.4470467842853395,1.0000431841858468,0.000375997323956645
-0.44652074779442047,-0.44652074779442047,1.000257260270504,0.00034546995540332985
-0.4462453647196526,-0.4462453647196526,0.9997437162097702,0.0003241979184855927
-0.4460249166819267,-0.4460249166819267,1.0001544661778627,0.00033792148774434863
-0.4455812457599677,-0.4455812457599677,0.9995044681982297,0.0003404458269417031
-0.44519787199387795,-0.44519787199387795,1.0004809323649568,0.00034564696323576585
-0.4448204163229093,-0.4448204163229093,1.0003201643758577,0.000323295668641167
-0.4444527126936009,-0.4444527126936009,0.9998110525368533,0.0003349683895425366
-0.44417349345458207,-0.44417349345458207,1.0001423376654253,0.00034213957669953647
-0.4438516690133838,-0.4438516690133838,0.9999122397143066,0.00035216980641976137
-0.4435005278559402,-0.4435005278559402,0.9996740648157948,0.000331435168765356
-0.44295758656517137,-0.44295758656517137,1.000035062840411,0.0003252242657706719
-0.44247057461179795,-0.44247057461179795,0.9999975747839057,0.00035011512856639865
-0.44233292899443766,-0.44233292899443766,1.0002688653270084,0.0003434437470238942
-0.44187541111605244,-0.44187541111605244,0.9999922603752005,0.00037435931815350007
-0.44117994691769125,-0.44117994691769125,1.000156085737878,0.00035453165022669085
-0.4408263413817622,-0.4408263413817622,0.9998942520341716,0.0003357634377767325
-0.4403538648824906,-0.4403538648824906,0.9995068482299466,0.00034297943392266406
-0.4399972358951345,-0.4399972358951345,0.9997807516355888,0.0003492824750721389
-0.4396406613814179,-0.4396406613814179,1.00011142077626,0.0003361913145755296
-0.43924715563771316,-0.43924715563771316,1.000178119049582,0.00032250412061406977
-0.43884329599968624,-0.43884329599968624,0.9999328189655268,0.0003490522023906201
-0.4383342724730028,-0.4383342724730028,0.999845477388947,0.00034736347090383226
-0.43790390603535345,-0.43790390603535345,1.0000834831225198,0.000325489855780031
-0.4370066501782276,-0.4370066501782276,1.0001947296249398,0.00034190519623759815
-0.4359323283366393,-0.4359323283366393,1.0000137317224105,0.0003683954750461921
-0.43533559975621755,-0.43533559975621755,0.9994273331147866,0.00034699308593805813
-0.4347822417796124,-0.4347822417796124,1.0004310639730902,0.0003424061611838902
-0.4344627349026268,-0.4344627349026268,0.9997209447804307,0.00033411054052231916
-0.4342159022024134,-0.4342159022024134,1.000404023571495,0.0003371136824006945
-0.4338463561900426,-0.4338463561900426,1.0000695219714877,0.0003362255779812897
-0.43338887876307125,-0.43338887876307125,1.0003336811808747,0.0003542215126148713
-0.43289347520912996,-0.43289347520912996,1.0002532618056168,0.0003423282840090338
-0.43246815863240046,-0.43246815863240046,0.9996554001709704,0.00035045137714293103
-0.43201032519573346,-0.43201032519573346,0.9998664121208647,0.0003443394641198307
-0.43094322667166124,-0.43094322667166124,1.0007115250999878,0.00037282965878605986
-0.4304739554761909,-0.4304739554761909,0.9997042425087981,0.00034022333806160894
-0.43026960123679603,-0.43026960123679603,0.9994411698913087,0.00035647948480565904
-0.4298152348783333,-0.4298152348783333,1.000055306243232,0.00035698727138497354
-0.42917934146826153,-0.42917934146826153,0.9999296795993837,0.00033917889347782665
-0.42888383199169766,-0.42888383199169766,1.0006807056254878,0.000335417532102586
-0.4285405318485573,-0.4285405318485573,1.000027694490869,0.00034293911375347745
-0.42805465070996435,-0.42805465070996435,0.9999859178187099,0.000349229664274897
-0.42740447756077626,-0.42740447756077626,0.999884099731384,0.00034647039528732575
-0.42693267241120336,-0.42693267241120336,1.000206452432224,0.00033655578900036574
-0.4259307740809163,-0.4259307740809163,1.0001900066505593,0.0003494432902182151
-0.42521947788773107,-0.42521947788773107,1.0000440149403098,0.00033760250550800985
-0.4250197490880964,-0.4250197490880964,1.000446148802402,0.0003550177413016545
-0.4245463359780842,-0.4245463359780842,1.0000455091589502,0.00036467646449357043
-0.42414359730901197,-0.42414359730901197,1.0004824653892848,0.00034492258724231923
-0.4238505654531764,-0.4238505654531764,0.9999358211264587,0.0003300204100148311
-0.42345152416964993,-0.42345152416964993,0.9999016024664561,0.00034244875723857737
-0.4231318453588756,-0.4231318453588756,1.0002831958506413,0.00033817072363639955
-0.42281230398803016,-0.42281230398803016,0.9998138463967912,0.0003449107364306647
-0.42232148287585003,-0.42232148287585003,0.9992304911244851,0.0003358312766909399
-0.42204914419853595,-0.42204914419853595,0.9998845957445873,0.00034363227552545685
-0.4217536577547435,-0.4217536577547435,1.0001144609580077,0.0003354726456022795
-0.4213989597890759,-0.4213989597890759,1.0000749277985232,0.00034379142525566556
-0.4208557640959043,-0.4208557640959043,1.000069228513674,0.0003348046139930347
-0.42031528150546366,-0.42031528150546366,0.9996511376172796,0.00034525760905948895
-0.420005019751261,-0.420005019751261,1.0002054623941725,0.0003369550553429529
-0.41961884195916355,-0.41961884195916355,0.9997513273351929,0.000355076708056531
-0.418915617762832,-0.418915617762832,0.999793463947573,0.00035464973925904955
-0.41867228790652006,-0.41867228790652006,1.0002438661877497,0.0003393414071226594
-0.41829391395149285,-0.41829391395149285,0.9998649658384003,0.00034109637607746516
-0.41778150163881944,-0.41778150163881944,1.0000995421634824,0.0003425627345695924
-0.4175049995072186,-0.4175049995072186,0.9996122514057675,0.0003356012444248837
-0.41707635229686274,-0.41707635229686274,1.0000654745144237,0.0003188681210009211
-0.41679626430559436,-0.41679626430559436,0.9999030383950048,0.00033460664657674135
-0.4164168974879431,-0.4164168974879431,1.0001153765093993,0.0003404598487859114
-0.415985496994108,-0.415985496994108,0.9998744285943972,0.0003480838889207822
-0.4153835939359851,-0.4153835939359851,0.9999743309581074,0.0003251031668482852
-0.4148312514822464,-0.4148312514822464,0.9992120988044209,0.0003370372070887203
-0.4142033646581694,-0.4142033646581694,0.999784339818332,0.0003630246023199332
-0.4135643143876223,-0.4135643143876223,0.999955894979682,0.0003522885169022537
-0.4130787633243017,-0.4130787633243017,1.0000279405713042,0.0003399031375131554
-0.4125791869155364,-0.4125791869155364,1.000109892705434,0.0003439686302078441
-0.4121670005464694,-0.4121670005464694,0.9998260533385117,0.00034073765446568653
-0.4118210297776386,-0.4118210297776386,0.999537537883378,0.0003258369817315157
-0.4114211903215619,-0.4114211903215619,0.9998275623077738,0.00033836391162975145
-0.4109882763441419,-0.4109882763441419,0.999626928363317,0.0003436486491810767
-0.41055979192606173,-0.41055979192606173,1.0001828488694169,0.00034612417097165237
-0.40983772680920083,-0.40983772680920083,1.0002371024239054,0.0003331898546795414
-0.40893777582386975,-0.40893777582386975,0.9996699113748466,0.00035793726487405174
-0.4082577029184904,-0.4082577029184904,1.0001074707900899,0.0003587579423075591
-0.4079103065014351,-0.4079103065014351,1.0002568195260246,0.0003512915013164532
-0.40737559265398887,-0.40737559265398887,1.000522439505377,0.00034592436191549947
-0.40685218284197616,-0.40685218284197616,1.0000210726904752,0.00033605115783461503
-0.4065221203811234,-0.4065221203811234,0.9999131284840039,0.0003305009467777893
-0.4061743517551804,-0.4061743517551804,0.9999368265262785,0.0003484538005601514
-0.40558356428518894,-0.40558356428518894,1.0000057218284675,0.0003419077006821489
-0.4050154621974798,-0.4050154621974798,0.9994488637465009,0.00034293196081357555
-0.40457022349582983,-0.40457022349582983,1.0001301872081656,0.00032900051775210397
-0.4040093138988595,-0.4040093138988595,1.0001165354514356,0.00034790711846954955
-0.40309603611240163,-0.40309603611240163,1.0001858926290377,0.000354880383199156
-0.402794937818544,-0.402794937818544,0.999674602573509,0.00035115743679756003
-0.40247304035001435,-0.40247304035001435,1.000468704148958,0.00036935011954259393
-0.4019334477663506,-0.4019334477663506,0.9998406666510105,0.00035765221560064657
-0.40160462593194096,-0.40160462593194096,0.9993908938778396,0.00034547142199562613
-0.40130089346785097,-0.40130089346785097,1.0001766356015371,0.000340621077624424
-0.4010733282630099,-0.4010733282630099,0.9998599455653009,0.0003436100087332207
-0.4007751103665214,-0.4007751103665214,0.9999557743315413,0.0003406494705498736
-0.40048964554443955,-0.40048964554443955,1.0009787274798012,0.0003494186545360307
-0.4000028470880352,-0.4000028470880352,0.9999504943718606,0.0003454334522079949
-0.39968182623561005,-0.39968182623561005,0.9995360426485502,0.000344715538050218
-0.39925655981060115,-0.39925655981060115,0.999789506062481,0.0003356990506277224
-0.3987808249221416,-0.3987808249221416,0.9999852978051547,0.00034111342333142795
-0.3981620654638391,-0.3981620654638391,0.9999632837438901,0.0003404786807045644
-0.39770384910807477,-0.39770384910807477,1.0004236540570601,0.00033663981667247185
-0.3973105724551715,-0.3973105724551715,0.9995604600671554,0.0003535149542261641
-0.39665468408493326,-0.39665468408493326,1.0001399167718525,0.00033898157052410043
-0.39639301791030446,-0.39639301791030446,0.9997421674146103,0.0003459805618100568
-0.3961750554299215,-0.3961750554299215,0.9997127509580747,0.00033483485892272266
-0.3958413320069667,-0.3958413320069667,1.0004280262991578,0.00033888896990439754
-0.39552182361949234,-0.39552182361949234,1.0002587856083662,0.00034704211348239713
-0.3952441443369025,-0.3952441443369025,0.9997526013140734,0.0003412650599505053
-0.39486239954421765,-0.39486239954421765,1.000092221220524,0.0003248242358217873
-0.3945685940765543,-0.3945685940765543,1.0001073947634702,0.0003448790739007731
-0.3943561073130695,-0.3943561073130695,1.0002467968037159,0.00032285174847867696
-0.3940819838317111,-0.3940819838317111,1.0002951334389871,0.00035392794435051226
-0.3937040813907515,-0.3937040813907515,0.9998334704699477,0.00035120711624403385
-0.3932026283058804,-0.3932026283058804,1.0000251282014967,0.00032102932239045544
-0.39248964619473553,-0.39248964619473553,0.9999046591892544,0.0003415046329653687
-0.3920871610956965,-0.3920871610956965,1.0003721595158324,0.0003614151365703523
-0.39124184619577135,-0.39124184619577135,0.9995965219639953,0.0003381221402024105
-0.3907177380518988,-0.3907177380518988,1.0001097023911927,0.00035065007264519106
-0.3904227295977762,-0.3904227295977762,1.000011458003861,0.00034975054867176337
-0.3900702788901981,-0.3900702788901981,1.000286489592401,0.0003504509205179263
