time,time,flux,flux_err
-0.4992280904290965,-0.4992280904290965,1.0000262413227412,4.621824620373099e-05
-0.49789050276158375,-0.49789050276158375,1.0000354213125635,4.619194321126439e-05
-0.4960090717213461,-0.4960090717213461,0.999980650272936,4.620669040870195e-05
-0.49405291564326037,-0.49405291564326037,0.9999846457869991,4.619946394593839e-05
-0.4922215921309544,-0.4922215921309544,1.0000167564926241,4.619489166602414e-05
-0.49097706542088415,-0.49097706542088415,0.99998827876314,4.620894554503917e-05
-0.48960797344043383,-0.48960797344043383,1.000028658169444,4.6200707993719855e-05
-0.4884869612607872,-0.4884869612607872,1.0000236259727913,4.618897200127908e-05
-0.486983971662994,-0.486983971662994,0.9999218053508544,4.6207275697021954e-05
-0.4857018194437842,-0.4857018194437842,1.0000611981551022,4.6209951229357466e-05
-0.48359126376744827,-0.48359126376744827,0.9999933768105913,4.621358873114845e-05
-0.4819176779812551,-0.4819176779812551,0.9999928904491121,4.617556533342277e-05
-0.4803039943377371,-0.4803039943377371,0.9999893339112985,4.6212328135837706e-05
-0.47914564714446894,-0.47914564714446894,0.9999442662888841,4.619064954647476e-05
-0.4775800069604884,-0.4775800069604884,1.0000304915731366,4.6199837538738364e-05
-0.4763383085723035,-0.4763383085723035,1.000051784093028,4.6184832032588176e-05
-0.47468003571411826,-0.47468003571411826,0.9999858569009591,4.6216863656705884e-05
-0.47288511002698214,-0.47288511002698214,1.0000747538820085,4.619150637835811e-05
-0.4717498057609191,-0.4717498057609191,0.9999584546251963,4.6194781908715284e-05
-0.4704083051547059,-0.4704083051547059,1.000041526200376,4.6196880617759414e-05
-0.468885920305911,-0.468885920305911,1.0000361118042402,4.6199375305376786e-05
-0.46749573786510157,-0.46749573786510157,1.0000167308440715,4.619762062136716e-05
-0.46584559203474785,-0.46584559203474785,1.00000248503656,4.620156881398373e-05
-0.4640370908353361,-0.4640370908353361,1.0000178406501374,4.6189119307102935e-05
-0.4626511539448984,-0.4626511539448984,0.9999852392951653,4.6205091025023296e-05
-0.4610687410051469,-0.4610687410051469,1.000002288287726,4.6195157436317686e-05
-0.45935105504177043,-0.45935105504177043,1.000036523453272,4.61919565860175e-05
-0.4585565703571774,-0.4585565703571774,0.999978002128963,4.6175315057455653e-05
-0.4578616796352435,-0.4578616796352435,0.9999615920512689,4.62060339272524e-05
-0.4561786716483766,-0.4561786716483766,1.0000232153769444,4.61881433609914e-05
-0.45555887741647894,-0.45555887741647894,1.0000234454038157,4.619204385380405e-05
-0.4545540638340754,-0.4545540638340754,0.9999799336615176,4.6190999468655445e-05
-0.4525732109323144,-0.4525732109323144,1.000052517973632,4.62041066986494e-05
-0.4507567805208964,-0.4507567805208964,1.0000066537652232,4.619358407089923e-05
-0.4490137691493146,-0.4490137691493146,1.0001040439290212,4.619188529599207e-05
-0.44773193574073955,-0.44773193574073955,1.0000144932233377,4.619734533594267e-05
-0.4461491845722776,-0.4461491845722776,0.999981892607889,4.620923749799751e-05
-0.44473933662957277,-0.44473933662957277,1.0001117214646276,4.6188908607297927e-05
-0.4440883214323549,-0.4440883214323549,1.000036364683257,4.617859771043125e-05
-0.44328753005393084,-0.44328753005393084,0.999915801505727,4.621608413183065e-05
-0.4414433393918443,-0.4414433393918443,0.9999376562935014,4.619575676660409e-05
-0.43977135677851037,-0.43977135677851037,0.999995455427119,4.6194295047749536e-05
-0.4392942087666597,-0.4392942087666597,0.9999448918061496,4.6196330938224506e-05
-0.4377601698928629,-0.4377601698928629,1.0001074455898262,4.621029359934832e-05
-0.436481127346633,-0.436481127346633,1.0000401377936945,4.621549867117095e-05
-0.43497628863988214,-0.43497628863988214,1.0000169365634326,4.621300275713668e-05
-0.4342143285626662,-0.4342143285626662,1.0000647061028463,4.6204082682370275e-05
-0.43334875949803975,-0.43334875949803975,1.0000519100471164,4.6182618587547775e-05
-0.4317226241735625,-0.4317226241735625,1.0000904540364428,4.620341859556783e-05
-0.43030694846092954,-0.43030694846092954,0.9999205186493582,4.619169549428713e-05
-0.4298252178326948,-0.4298252178326948,1.0000470982868166,4.618034000147349e-05
-0.4287727241011453,-0.4287727241011453,0.9999253989166398,4.620467057791238e-05
-0.4276138869347051,-0.4276138869347051,0.9999951612653042,4.6191738889977515e-05
-0.42655369746353244,-0.42655369746353244,1.000072497156682,4.6219928116759796e-05
-0.4253757975267945,-0.4253757975267945,0.999981171992683,4.620235675082875e-05
-0.4246853332355386,-0.4246853332355386,0.999926541910655,4.619733557667734e-05
-0.42333586712775284,-0.42333586712775284,0.9999249127539824,4.619543678945516e-05
-0.42149200493004174,-0.42149200493004174,0.9999620877538009,4.622679932858325e-05
-0.4206901728757657,-0.4206901728757657,1.0000202343356328,4.618223480606217e-05
-0.4202031382534187,-0.4202031382534187,1.0001289155593391,4.619280616649761e-05
-0.4190727372537367,-0.4190727372537367,0.9999167955554098,4.61970306923074e-05
-0.4181555291506811,-0.4181555291506811,0.9999506721248629,4.620841893339501e-05
-0.4170432867875206,-0.4170432867875206,0.9999950980748414,4.6217833429163195e-05
-0.41595618122373706,-0.41595618122373706,1.0000127397076617,4.620059150666719e-05
-0.41546781946526606,-0.41546781946526606,1.0000063563803125,4.620376809567234e-05
-0.4146227003264357,-0.4146227003264357,0.9999966174841572,4.6199349360870626e-05
-0.4134504203000688,-0.4134504203000688,0.9999752081104967,4.619304673565197e-05
-0.41180238826491405,-0.41180238826491405,1.0000274824074844,4.6244846236503194e-05
-0.4112379539947142,-0.4112379539947142,1.0000660476742689,4.618165834456704e-05
-0.40994574786600424,-0.40994574786600424,1.0000117642950614,4.6223525730508573e-05
-0.40886799856089057,-0.40886799856089057,0.9999808753182216,4.620997477982779e-05
-0.4075855951858102,-0.4075855951858102,0.999943950540757,4.624565580064079e-05
-0.40656509357795584,-0.40656509357795584,1.0000445769605892,4.621385468446687e-05
-0.40580796691647264,-0.40580796691647264,0.9999186527694827,4.6188286779792166e-05
-0.4042495827641687,-0.4042495827641687,0.9999815492123554,4.6206199990771676e-05
-0.4033616391083342,-0.4033616391083342,1.0000444829910742,4.619551671993959e-05
-0.4022255573057919,-0.4022255573057919,1.0000336817783761,4.625145031261583e-05
-0.40170037464558844,-0.40170037464558844,1.0000363564655435,4.616977635111235e-05
-0.4005773205528385,-0.4005773205528385,1.0000023380208578,4.62186421680668e-05
-0.3994867442699615,-0.3994867442699615,1.000055411105602,4.620737399239047e-05
-0.3984740686049918,-0.3984740686049918,0.9999591953508592,4.623093020889817e-05
-0.3973123374598799,-0.3973123374598799,1.0000076458741032,4.618555799674579e-05
-0.39619841188541616,-0.39619841188541616,0.9999246533315628,4.6189817268121736e-05
-0.3944162646512268,-0.3944162646512268,1.0000084073362867,4.6194472458950745e-05
-0.39285512567439584,-0.39285512567439584,1.000004370985537,4.6246531017899476e-05
-0.39225833261443765,-0.39225833261443765,1.0000365075777373,4.618417542314163e-05
-0.39128677556291225,-0.39128677556291225,0.9998772180853222,4.618610458557335e-05
-0.38982898361136903,-0.38982898361136903,0.9999926831210499,4.6218526348763826e-05
-0.3881218776572496,-0.3881218776572496,0.99998813023861,4.62282460404087e-05
-0.38709510818735,-0.38709510818735,0.9999440673932025,4.61803374380358e-05
-0.38528813344601076,-0.38528813344601076,1.000001125319617,4.623208926200129e-05
-0.3834410582261626,-0.3834410582261626,1.0000708002273906,4.6246494393554786e-05
-0.3826848122742376,-0.3826848122742376,1.0000745506416948,4.618746142287414e-05
-0.38107972804573365,-0.38107972804573365,1.0000349016938928,4.6197869005614184e-05
-0.37904551458486824,-0.37904551458486824,1.0000026656986956,4.6219179338403034e-05
-0.3779467463333276,-0.3779467463333276,1.0000615229872083,4.619497217840684e-05
-0.3757195090583991,-0.3757195090583991,0.99994964169106,4.620307905272976e-05
-0.3738535536976997,-0.3738535536976997,1.0000335413473187,4.623465664450553e-05
-0.3732442078966415,-0.3732442078966415,0.9999356837848896,4.6197018111590066e-05
-0.37167247951438187,-0.37167247951438187,0.9999162276098398,4.619781491873276e-05
-0.36940525346872166,-0.36940525346872166,1.000035014638603,4.620943710116632e-05
-0.36820797960681373,-0.36820797960681373,1.0000033800062584,4.617793959417879e-05
-0.36612575913459294,-0.36612575913459294,1.0000344350985155,4.6193536318980156e-05
-0.3645649592173868,-0.3645649592173868,0.999932531488408,4.624348153155549e-05
-0.3637911434168927,-0.3637911434168927,0.9999559750808904,4.6187527953310725e-05
-0.36293815964309034,-0.36293815964309034,1.0000268477829195,4.620254570255312e-05
-0.36106490974198097,-0.36106490974198097,0.9999976048506932,4.622234699953595e-05
-0.3591575311205816,-0.3591575311205816,1.0000085365794729,4.618811653076909e-05
-0.35698523124301573,-0.35698523124301573,1.0000675274872035,4.621252355937261e-05
-0.3549828977527795,-0.3549828977527795,1.0000603621681865,4.623410470790591e-05
-0.3540839541004971,-0.3540839541004971,1.0000085805533268,4.6199454329619596e-05
-0.3527114589276607,-0.3527114589276607,1.0000081036672182,4.620226068569128e-05
-0.350391352182487,-0.350391352182487,1.0000014863309805,4.6215688065601935e-05
-0.3491406864472083,-0.3491406864472083,1.0000125658701338,4.620480888576859e-05
-0.3464025631765253,-0.3464025631765253,1.0000113396708294,4.6258547602859166e-05
-0.3453562038484961,-0.3453562038484961,1.000000495817391,4.6179887135798415e-05
-0.3444388072603033,-0.3444388072603033,0.9999855125607985,4.622058794826249e-05
-0.3427990484269685,-0.3427990484269685,0.9999244936091161,4.61933286723124e-05
-0.3410185123779229,-0.3410185123779229,0.9999785845681703,4.622215379024575e-05
-0.3398023859786917,-0.3398023859786917,1.0000356308965281,4.618500086868103e-05
-0.3379929290138534,-0.3379929290138534,1.000103898718261,4.620383019769988e-05
-0.3362844451839919,-0.3362844451839919,1.0000398734608187,4.620097080279773e-05
-0.3352056896866998,-0.3352056896866998,0.9999825777845324,4.619473565481722e-05
-0.3333743419294478,-0.3333743419294478,0.9999170860053891,4.621328042460933e-05
-0.3322592212804011,-0.3322592212804011,1.0000160662002266,4.6226002660670025e-05
-0.3308052038264577,-0.3308052038264577,1.0000181364407539,4.618548004339103e-05
-0.32956151559337743,-0.32956151559337743,1.000023360858357,4.621590365081475e-05
-0.3282395750604337,-0.3282395750604337,1.0000344154911516,4.62078905379037e-05
-0.3268830109736882,-0.3268830109736882,1.000018513939974,4.6216519753892655e-05
-0.3258475619004457,-0.3258475619004457,1.000049430285791,4.6185198283390465e-05
-0.3242664108402096,-0.3242664108402096,1.0000082770824728,4.621814033793489e-05
-0.32313372981443533,-0.32313372981443533,0.9999943876026794,4.621794875645564e-05
-0.3216342867264757,-0.3216342867264757,1.0001206867758918,4.6175968000396824e-05
-0.3204039768635994,-0.3204039768635994,0.9999546539273201,4.619568599015867e-05
-0.31872545675432773,-0.31872545675432773,0.9999891640570917,4.624451322024582e-05
-0.31748231401579685,-0.31748231401579685,0.9999758533259004,4.623107309298962e-05
-0.316420679994917,-0.316420679994917,1.0000256275400017,4.618434259667749e-05
-0.3147647118254099,-0.3147647118254099,0.9999653057067979,4.622454186493541e-05
-0.3128585350044887,-0.3128585350044887,0.9999083857408969,4.619643212808045e-05
-0.3117293296920252,-0.3117293296920252,0.999960973601995,4.619071326354051e-05
-0.31040222529700257,-0.31040222529700257,1.0000470396721082,4.621033685689586e-05
-0.3087517561580171,-0.3087517561580171,1.0000302649844455,4.623991261187842e-05
-0.30744446509634143,-0.30744446509634143,1.0000478937286172,4.617278982500124e-05
-0.3064760202192701,-0.3064760202192701,1.0000289617484817,4.6219310056989095e-05
-0.3044051671749912,-0.3044051671749912,1.0000440715081245,4.6213508879332186e-05
-0.3025484147729003,-0.3025484147729003,1.000017639193695,4.619437126081125e-05
-0.3017971696986933,-0.3017971696986933,1.000122815865065,4.622641351051572e-05
-0.30037464017805177,-0.30037464017805177,0.9999665495091092,4.619672677198842e-05
-0.29883594904094934,-0.29883594904094934,0.9999624507954155,4.623650318756367e-05
-0.29798827318300025,-0.29798827318300025,1.0000889888350315,4.619438218139376e-05
-0.2970279309374746,-0.2970279309374746,0.9999801795685677,4.621836078258021e-05
-0.29536666309868453,-0.29536666309868453,1.0000667422245972,4.619061989661565e-05
-0.29320558890758547,-0.29320558890758547,1.0000407235375264,4.6197504100859923e-05
-0.29226918262138496,-0.29226918262138496,1.0000072538326668,4.621772608348993e-05
-0.29049365518294507,-0.29049365518294507,0.999991221750647,4.621394096395211e-05
-0.2890342528160545,-0.2890342528160545,0.9998997957712235,4.619944983208531e-05
-0.2878310693093226,-0.2878310693093226,1.0000513051425024,4.619544951033873e-05
-0.2864850786223542,-0.2864850786223542,1.0000023194164254,4.6196638899313814e-05
-0.28589736305730185,-0.28589736305730185,1.0000004720867388,4.6191321907757996e-05
-0.28416377347166416,-0.28416377347166416,0.9999971980897928,4.619758875434601e-05
-0.2821370864432538,-0.2821370864432538,0.9999866849485184,4.620880280862017e-05
-0.2806658063127543,-0.2806658063127543,1.0000225455371303,4.621800709937689e-05
-0.2787987770716427,-0.2787987770716427,0.9999150724194432,4.617912304539295e-05
-0.277258656421327,-0.277258656421327,0.9998912314509404,4.619921743512772e-05
-0.27613234973832734,-0.27613234973832734,1.0000174507607125,4.621310870695266e-05
-0.2743410630238941,-0.2743410630238941,1.000053923560894,4.6201007686006976e-05
-0.2726762672755285,-0.2726762672755285,1.0000567050399776,4.620709792736016e-05
-0.2714881336331018,-0.2714881336331018,1.0000148271907077,4.621147826405602e-05
-0.2697336239594733,-0.2697336239594733,1.0000267500527145,4.619143684305319e-05
-0.26854403895558787,-0.26854403895558787,1.0001114570576992,4.621230565922716e-05
-0.26726875122549243,-0.26726875122549243,0.9999925378961769,4.619154279505515e-05
-0.26600273400108565,-0.26600273400108565,1.0000456065899954,4.6194087820506664e-05
-0.26445028300222473,-0.26445028300222473,0.9999504465723132,4.621125328725613e-05
-0.26295697627210757,-0.26295697627210757,1.0001165081347483,4.619285002232796e-05
-0.26142886051675307,-0.26142886051675307,1.0000439541786652,4.620731751656884e-05
-0.25991962682892333,-0.25991962682892333,1.0000939171077652,4.617989238252617e-05
-0.25864019421715057,-0.25864019421715057,0.9999262438384005,4.6210427131504583e-05
-0.25763221442030043,-0.25763221442030043,1.0000210406046068,4.620938686708459e-05
-0.25547505824943073,-0.25547505824943073,1.0000432149668952,4.621634700300614e-05
-0.25361260220815895,-0.25361260220815895,1.0000981911699243,4.619368760977842e-05
-0.2525326618066174,-0.2525326618066174,1.00017702432107,4.619093608475277e-05
-0.2510121860730578,-0.2510121860730578,1.0000220826416426,4.620222751213565e-05
-0.2495966837668675,-0.2495966837668675,1.0000332745311922,4.6200672063278704e-05
-0.24759788472001673,-0.24759788472001673,0.9999991777045907,4.620452913711128e-05
-0.24596343551238534,-0.24596343551238534,0.999898144311771,4.6196231311157216e-05
-0.2443128186496324,-0.2443128186496324,1.0000055804633605,4.6185639632550165e-05
-0.24344743351539364,-0.24344743351539364,0.9999723687302555,4.618332185264925e-05
-0.24211751153488875,-0.24211751153488875,0.9999610888332251,4.620976550532806e-05
-0.24084867401397786,-0.24084867401397786,1.0000318588547876,4.618960424407935e-05
-0.2391768778747064,-0.2391768778747064,0.9999966190099826,4.6200211193538763e-05
-0.2375655631069094,-0.2375655631069094,1.0000872049379348,4.6211999342399375e-05
-0.23589142795099177,-0.23589142795099177,0.9999474708695739,4.707964875905897e-05
-0.23412059937400045,-0.23412059937400045,1.0000290607830853,4.618508745949972e-05
-0.23284173929714597,-0.23284173929714597,1.000068446533641,4.620238711758273e-05
-0.23182337762991664,-0.23182337762991664,0.9999662331921281,4.6180207951347556e-05
-0.23066586831992025,-0.23066586831992025,0.9999995252558955,4.620301632152839e-05
-0.2292806621233467,-0.2292806621233467,0.9999545326995184,4.620094315429647e-05
-0.22705055851838551,-0.22705055851838551,1.0000211688461331,4.619913586958782e-05
-0.2251877969421912,-0.2251877969421912,1.0000030396877073,4.6178583848391404e-05
-0.22353711749165087,-0.22353711749165087,0.9999331789805204,4.621187684534459e-05
-0.22222837395966052,-0.22222837395966052,1.0000659544639245,4.6181764108229215e-05
-0.2205085940877325,-0.2205085940877325,1.0000210210383569,4.619469175840493e-05
-0.21938537484238624,-0.21938537484238624,1.0000809687541052,4.6202698898893216e-05
-0.21750465645891381,-0.21750465645891381,1.0000979109509711,4.621853682693551e-05
-0.2159335223448579,-0.2159335223448579,0.9999229477973073,4.617282551883315e-05
-0.214664603737765,-0.214664603737765,0.9999881219422747,4.619374361436076e-05
-0.21318096270115347,-0.21318096270115347,1.0001180842511481,4.6202624554163285e-05
-0.21158783529681385,-0.21158783529681385,0.9999493872157791,4.6189193022851915e-05
-0.2106004463334102,-0.2106004463334102,1.0000455813897058,4.6183176611366734e-05
-0.2095439498705673,-0.2095439498705673,0.9999867146471615,4.6199040871375894e-05
-0.20799041283753467,-0.20799041283753467,0.9999948633140013,4.6197280827881984e-05
-0.20622133142169333,-0.20622133142169333,0.9999813803860131,4.617858715509255e-05
-0.2047509309006273,-0.2047509309006273,0.9999575248477358,4.619408965406381e-05
-0.20311815543682316,-0.20311815543682316,0.9999635012238863,4.619266251581012e-05
-0.20137315577158005,-0.20137315577158005,1.0001357546356016,4.6194764147089726e-05
-0.2001873095796327,-0.2001873095796327,0.9999632765251938,4.619436198745107e-05
-0.19876722743065328,-0.19876722743065328,0.9999822757133583,4.61964390485725e-05
-0.19828198609757236,-0.19828198609757236,1.0000049614316044,4.620580393966866e-05
-0.1969981085305335,-0.1969981085305335,1.000044219771639,4.6184844339587203e-05
-0.19635453408845932,-0.19635453408845932,1.0000382326532644,4.6204261324933515e-05
-0.1950510236347327,-0.1950510236347327,1.0000318039543263,4.61982933115914e-05
-0.19290509404963813,-0.19290509404963813,0.9999779240768083,4.6231793972523265e-05
-0.19181140325817977,-0.19181140325817977,1.0000364306043195,4.617926990901081e-05
-0.19091735179390526,-0.19091735179390526,1.0000868724004448,4.6205138322863135e-05
-0.18925159981736214,-0.18925159981736214,1.0000399350259521,4.62116503712079e-05
-0.18790287061419803,-0.18790287061419803,1.0000568604621827,4.621757533988398e-05
-0.18694465223525186,-0.18694465223525186,1.0000206317071048,4.619288055971692e-05
-0.18581481703440658,-0.18581481703440658,1.0000912946326388,4.6209592250194434e-05
-0.18408182045677676,-0.18408182045677676,0.9999445646593068,4.619924232133404e-05
-0.18256676280143438,-0.18256676280143438,1.000107614657592,4.617181756059136e-05
-0.18185489705792862,-0.18185489705792862,1.0000697657813138,4.621806709487731e-05
-0.18012049910466885,-0.18012049910466885,0.9999949653053501,4.618411224896995e-05
-0.17913339467340847,-0.17913339467340847,0.99999019715446,4.6231108384656276e-05
-0.17773453986010282,-0.17773453986010282,0.9999900378655111,4.6202129962009466e-05
-0.17704656761488877,-0.17704656761488877,1.0000564180739837,4.620195440796933e-05
-0.17552609648264478,-0.17552609648264478,0.9999368805877638,4.618859259426674e-05
-0.17349598247092218,-0.17349598247092218,1.0000047628897253,4.622966815700986e-05
-0.17291504023742163,-0.17291504023742163,1.0000002913630803,4.617964251001879e-05
-0.17218803290015786,-0.17218803290015786,1.0000059039883271,4.620292002022667e-05
-0.17095813480846117,-0.17095813480846117,1.0000210291826146,4.619837330478948e-05
-0.17040249029232654,-0.17040249029232654,1.0001502995182119,4.621516857548653e-05
-0.169156115684018,-0.169156115684018,1.0000245495782916,4.623327979091852e-05
-0.16818867227702866,-0.16818867227702866,1.00000604044885,4.619687396625483e-05
