time,time,flux,flux_err
-0.49945239473405917,-0.49945239473405917,0.9981878912299239,0.0023715319867464767
-0.4985287265357329,-0.4985287265357329,0.9966589661416648,0.002185882894332542
-0.4972531608102145,-0.4972531608102145,0.9995527408641705,0.002162249184996752
-0.49587968247651587,-0.49587968247651587,0.9999613033159449,0.0021546359854543624
-0.49449672969058156,-0.49449672969058156,1.0012694150300587,0.0021691099221061976
-0.4929265662765829,-0.4929265662765829,0.9979973274894103,0.0021191145618112525
-0.4913728340092348,-0.4913728340092348,1.0015693875299045,0.002141628797780136
-0.49033026344550307,-0.49033026344550307,1.0008851613951464,0.002145914338097851
-0.4891791625675978,-0.4891791625675978,0.998671431591777,0.002168754731502802
-0.4872849516250426,-0.4872849516250426,1.0038753047417388,0.0021170098022181313
-0.4858847162511665,-0.4858847162511665,0.9994646565266686,0.002146723491749088
-0.48485767588135786,-0.48485767588135786,0.9978232583099349,0.0021430695901132027
-0.48420885810337494,-0.48420885810337494,0.9984514190814269,0.002115105755648608
-0.4832517973467475,-0.4832517973467475,0.998487799215175,0.0021556769409798665
-0.4821061267895857,-0.4821061267895857,1.0017602065766869,0.0021423919278646475
-0.48067398967104963,-0.48067398967104963,0.9982811786789971,0.0021314016029637343
-0.47896221332775896,-0.47896221332775896,1.0000474268692185,0.0021361600016656895
-0.47769173335982484,-0.47769173335982484,1.0014746753516754,0.002179804813782317
-0.47637453670904506,-0.47637453670904506,1.0043324228654633,0.0021357290633142274
-0.4754611697018845,-0.4754611697018845,1.0005599303539483,0.0021129571137656882
-0.47417598381289283,-0.47417598381289283,0.9997842959447312,0.0021767118729536725
-0.4735338343161857,-0.4735338343161857,1.001880252549334,0.0021560729795299764
-0.47217947572353297,-0.47217947572353297,0.9988780688953746,0.0021369794289613137
-0.4708497014158638,-0.4708497014158638,1.0017741272351688,0.002131191043742071
-0.46978177362761925,-0.46978177362761925,0.9979460621451264,0.002131724906593556
-0.46805924487998707,-0.46805924487998707,0.9999976185979016,0.002152859936027395
-0.4667823727650102,-0.4667823727650102,0.9987224416656109,0.0021238448659209866
-0.46544798773538787,-0.46544798773538787,1.0008018035195003,0.002176418055818935
-0.46421585425850936,-0.46421585425850936,0.9990620045326295,0.0021602388767059315
-0.4629359352431493,-0.4629359352431493,1.000353196426215,0.002136047138553505
-0.4617567644687369,-0.4617567644687369,0.9988151895855768,0.002142580190636286
-0.46042311524506657,-0.46042311524506657,0.9980946719894327,0.0021682944739404844
-0.4592395767278504,-0.4592395767278504,1.0009655181784525,0.002116803340577637
-0.45784283824614247,-0.45784283824614247,1.0027199440348884,0.002135471880174542
-0.4567061304143863,-0.4567061304143863,1.0013581341484368,0.0021487745120387708
-0.455453088376089,-0.455453088376089,1.000065440852841,0.002180989024085828
-0.45393536121118816,-0.45393536121118816,1.0001746809362067,0.002139845583980207
-0.45279902417387347,-0.45279902417387347,1.0014037919839702,0.0021592693964196845
-0.45132045439677315,-0.45132045439677315,0.9988920310299143,0.0021525975438825133
-0.4501015476911562,-0.4501015476911562,0.9993766326844475,0.0021186529416372
-0.44905249289877247,-0.44905249289877247,0.9971921063164404,0.002140052044766628
-0.4479808159550885,-0.4479808159550885,0.9988723624660235,0.002123166253214465
-0.4466337589750765,-0.4466337589750765,1.000032585163861,0.0021869908974821205
-0.4452339234849205,-0.4452339234849205,1.0002534372783638,0.0021395313628378766
-0.4435934406443266,-0.4435934406443266,1.0014321546666498,0.0021514824758699395
-0.44214300602907314,-0.44214300602907314,1.0024261548439315,0.002126723838800555
-0.44079523710825014,-0.44079523710825014,0.9981351384868544,0.002194427745336291
-0.43955348344461526,-0.43955348344461526,1.0025562480032455,0.002133328542539504
-0.4380326363752829,-0.4380326363752829,0.9985347751978573,0.0021336426627070614
-0.43679304722172674,-0.43679304722172674,1.0004773377671619,0.002144263007971036
-0.43498032466159203,-0.43498032466159203,1.000502373434653,0.002154863126653409
-0.4337614458927419,-0.4337614458927419,1.0011265943742464,0.0021518958516116415
-0.4324184297292959,-0.4324184297292959,1.0015844756084396,0.0021232425734931007
-0.4312907644023653,-0.4312907644023653,0.9980816188313378,0.0021724270548309737
-0.43027578257606364,-0.43027578257606364,0.9990138517872037,0.0021283570897245793
-0.4286849041498499,-0.4286849041498499,1.0019502336691168,0.0021786577856857314
-0.42759356794995257,-0.42759356794995257,1.0015146073362828,0.0021635654423459148
-0.42638812742952725,-0.42638812742952725,1.0001573124355725,0.0021599969072654693
-0.4252244486066047,-0.4252244486066047,1.0006459379974548,0.0021393109276664924
-0.42358581436274106,-0.42358581436274106,1.000755442028248,0.0021537491062994037
-0.42212232410965955,-0.42212232410965955,0.9985931383769788,0.002129709037979139
-0.42067754084418996,-0.42067754084418996,1.0008352425204023,0.002177850230372525
-0.4199028133560205,-0.4199028133560205,0.999750416223686,0.0021472195891094536
-0.41864292359387034,-0.41864292359387034,1.0007315017068656,0.002166670637732372
-0.4172713849839056,-0.4172713849839056,0.9994265455498763,0.0021665380766803153
-0.41582943897519725,-0.41582943897519725,1.0001516991024648,0.0021644729726306685
-0.414053171640262,-0.414053171640262,0.9997873096587495,0.0021212021215361878
-0.4124990711279679,-0.4124990711279679,0.9962097342254165,0.0021317882688076323
-0.4112812881387072,-0.4112812881387072,1.001554950510193,0.002186480535192835
-0.40983740468509494,-0.40983740468509494,0.9998859377881498,0.002114420518223745
-0.4079581767262425,-0.4079581767262425,1.0009709168015835,0.0021334913275166184
-0.40646188671817074,-0.40646188671817074,0.998105790696707,0.0021916381159191862
-0.40558191151649226,-0.40558191151649226,1.0004846466397013,0.002106294073122893
-0.404244971240405,-0.404244971240405,1.0009969649772628,0.0021432245986529874
-0.40323730156815146,-0.40323730156815146,1.0025482386908613,0.0021420991741427954
-0.4017905686458107,-0.4017905686458107,1.0010761401898793,0.002133203818428471
-0.40009028496569954,-0.40009028496569954,0.999027545807597,0.002134794952223366
-0.3988143497845158,-0.3988143497845158,1.0009960846701889,0.002178659051234147
-0.3975060227880022,-0.3975060227880022,1.000000263723439,0.0021354994010464477
-0.39658902227820364,-0.39658902227820364,1.0019866183151698,0.00211358444322383
-0.39517455631284976,-0.39517455631284976,1.0015470576026744,0.0021930330837595974
-0.39435911384935024,-0.39435911384935024,0.9995881062395003,0.0021247156407041973
-0.3931219636957394,-0.3931219636957394,0.9996932790394759,0.002186246142006619
-0.39198127314157316,-0.39198127314157316,0.9983524926238477,0.0021296397766535674
-0.3909031670889817,-0.3909031670889817,0.9992815338031938,0.0021323091227549856
-0.3893597533693537,-0.3893597533693537,0.9985243155181566,0.0021400259324512077
-0.38827534606971315,-0.38827534606971315,1.0003596508109907,0.0021135277104343667
-0.38673732281604317,-0.38673732281604317,0.9993020681822016,0.002184854274808497
-0.38568258013401646,-0.38568258013401646,1.0013304036712,0.0021262427099019397
-0.38453561695932875,-0.38453561695932875,0.9994252778612015,0.0021813631722560423
-0.38322226986056196,-0.38322226986056196,1.0012016920259967,0.002139024624072836
-0.3820890867355047,-0.3820890867355047,1.002803614959848,0.0021654195561054295
-0.38068002596846784,-0.38068002596846784,1.000018297167653,0.002129388734486347
-0.37985317607817704,-0.37985317607817704,0.9975217113336857,0.0021138191437397318
-0.37865389736834915,-0.37865389736834915,1.0011568641311126,0.0021523702093320233
-0.37765923065890095,-0.37765923065890095,0.9993784504303622,0.0021431148178656222
-0.3762955644313479,-0.3762955644313479,0.9985558471192466,0.0021745101636144763
-0.37479394717665854,-0.37479394717665854,0.9981966364029816,0.002139560076576823
-0.3735891864518635,-0.3735891864518635,1.0037366916825339,0.002197341196255157
-0.37221422384900504,-0.37221422384900504,1.0014733510085425,0.002119355808727475
-0.3711916160857072,-0.3711916160857072,1.0026260806749885,0.002114073769246982
-0.3700344037235482,-0.3700344037235482,0.9992964861644792,0.002168270783552878
-0.3686126101878472,-0.3686126101878472,1.0037107220403843,0.0021276783264823204
-0.3671611395780928,-0.3671611395780928,1.0037856030338201,0.002149853168200394
-0.3658079994143918,-0.3658079994143918,0.9993982770217105,0.0021273233932583586
-0.3642785861971788,-0.3642785861971788,1.0005165167894543,0.0021799034084748177
-0.3630710858647944,-0.3630710858647944,0.9992944348899677,0.002139777875512865
-0.3616013892751653,-0.3616013892751653,0.9987452932329741,0.0021729076382114546
-0.3605457572819432,-0.3605457572819432,1.0001031008082104,0.002136674115529455
-0.35930310247058517,-0.35930310247058517,1.0029651465183695,0.0021492932386478454
-0.3580419511214131,-0.3580419511214131,1.0012217543660489,0.002130221483794841
-0.3568642146565253,-0.3568642146565253,1.0019967756325021,0.0021728810404475956
-0.3552330793289002,-0.3552330793289002,0.99919948282033,0.002140983796694618
-0.35380616385373287,-0.35380616385373287,1.0001566978984957,0.0021534970287151937
-0.35242116668086965,-0.35242116668086965,1.0000994436774147,0.002168774147003645
-0.35139614989166146,-0.35139614989166146,1.0022998485837555,0.002131597964961338
-0.34981653846334665,-0.34981653846334665,1.0002124103521652,0.0021794470166256303
-0.3487225463089999,-0.3487225463089999,0.9984558772872745,0.002161763877325726
-0.34754822694230825,-0.34754822694230825,0.9996979150165053,0.002183252100032397
-0.3466705652535893,-0.3466705652535893,1.0000381197124415,0.00214088449412881
-0.34544937328901143,-0.34544937328901143,1.0015855360839778,0.0021680925746750276
-0.34369976101152133,-0.34369976101152133,1.0018430423702853,0.0021305492770414018
-0.3420840138336644,-0.3420840138336644,1.0002417748102284,0.0021362413084929973
-0.34103101511718703,-0.34103101511718703,1.0008253315438318,0.0021446280616712623
-0.33976849739847237,-0.33976849739847237,0.9995341681577716,0.0021652588175769894
-0.338403629543609,-0.338403629543609,1.0000211831070582,0.002167873018944119
-0.33715185832697897,-0.33715185832697897,0.9996160880415251,0.0021496450114458525
-0.3357903783093207,-0.3357903783093207,0.9991666510121352,0.002150201631666965
-0.33501973646925765,-0.33501973646925765,0.999005750359448,0.0021148395609671185
-0.3331996409659041,-0.3331996409659041,0.9996911977455767,0.002156399045111814
-0.3320510904042749,-0.3320510904042749,1.0005354864347953,0.0021256993197550076
-0.33031694537203293,-0.33031694537203293,0.9982852464289437,0.002130290993182159
-0.32900739678007085,-0.32900739678007085,1.0026379634245401,0.002132568702363091
-0.32759205758629834,-0.32759205758629834,1.0013340837161513,0.0021969459886764355
-0.32671262098883747,-0.32671262098883747,1.001375400752253,0.0021083579264725115
-0.3256755728420103,-0.3256755728420103,0.99942413975502,0.0021408031358085694
-0.3245495864452096,-0.3245495864452096,0.9993039516783313,0.0021819021462524857
-0.3235675198084209,-0.3235675198084209,1.0021400977376285,0.0021244384592186503
-0.32185624342237135,-0.32185624342237135,0.999607544273216,0.0021594579843709962
-0.32075569342123345,-0.32075569342123345,1.00086086648236,0.002130458682008356
-0.31939935994159896,-0.31939935994159896,0.9972678543277402,0.0022041328999889884
-0.3182291520293802,-0.3182291520293802,0.9989812717747546,0.00210646091680256
-0.31646401541365776,-0.31646401541365776,1.0022853430103151,0.0021644859125258516
-0.3156679815059761,-0.3156679815059761,0.9999496080526912,0.002148344805192305
-0.3143369409604929,-0.3143369409604929,1.0025118336976777,0.002178195847058516
-0.3131099632097175,-0.3131099632097175,0.9990923339787139,0.002125713721293291
-0.3121452700754162,-0.3121452700754162,1.0003843715953253,0.00211358085815392
-0.31072019325511063,-0.31072019325511063,0.9995833076769995,0.002167395202217137
-0.3098648293700535,-0.3098648293700535,0.9993529341762711,0.002145528604032853
-0.30834751768561547,-0.30834751768561547,0.9998683362045299,0.002135039284551078
-0.30739478741306814,-0.30739478741306814,1.0007122728531161,0.0021656707695129522
-0.30589827200747094,-0.30589827200747094,1.0025613734268428,0.0021854547767970827
-0.3046360964071937,-0.3046360964071937,1.000130629593024,0.002138534200256201
-0.30324332575546575,-0.30324332575546575,1.001989603304314,0.0021563332579267406
-0.3020037481852341,-0.3020037481852341,0.9994027945516919,0.0021410981443296152
-0.301043836097233,-0.301043836097233,1.000460105943171,0.002137056906172369
-0.299858296464663,-0.299858296464663,1.0001204600100297,0.0021560615167451743
-0.2984713051177096,-0.2984713051177096,1.000562324602984,0.0021363618049215624
-0.2971364881377667,-0.2971364881377667,1.001035557444099,0.0021709921534968065
-0.2959518139832653,-0.2959518139832653,0.998609868950633,0.002159160729238865
-0.294784813359729,-0.294784813359729,1.001041258792283,0.002154886507130908
-0.29355493250477593,-0.29355493250477593,1.000395342938999,0.002134557444642467
-0.2924491839541588,-0.2924491839541588,0.9992206483153143,0.0021164366809044155
-0.2914040897449013,-0.2914040897449013,0.999403660503557,0.002175361612803307
-0.29000581993022934,-0.29000581993022934,0.9985434990905153,0.0021159184401362144
-0.2882860257173888,-0.2882860257173888,0.9994080385911321,0.0021510743453037958
-0.28693223083391783,-0.28693223083391783,1.0004108052524834,0.0021300294761418684
-0.28522810553840827,-0.28522810553840827,1.0020778576474532,0.0021549737788328594
-0.2840854291367577,-0.2840854291367577,1.0022878082864688,0.002148384781777796
-0.2827060111099854,-0.2827060111099854,0.9989962330668867,0.002173567424080377
-0.28175535164773463,-0.28175535164773463,1.0026664022446587,0.002152867950544938
-0.28069096165709195,-0.28069096165709195,1.0029691946410835,0.00213551998019065
-0.27923817729752043,-0.27923817729752043,0.9978628388977006,0.002169737257249916
-0.2782500497851288,-0.2782500497851288,0.998093682972938,0.0021558579915165856
-0.2766682520887116,-0.2766682520887116,0.9991198039861541,0.0021546419306278587
-0.27533217270683963,-0.27533217270683963,0.9991196846073434,0.0021617523917659342
-0.2735515887325164,-0.2735515887325164,1.0019990232709788,0.002165636844155677
-0.27251653532730413,-0.27251653532730413,0.999818868791398,0.0021332668240898875
-0.27094819997437297,-0.27094819997437297,0.9983241123132028,0.002177245103624264
-0.26985154032590797,-0.26985154032590797,1.0032775005326144,0.0021615214597636824
-0.26867791030090304,-0.26867791030090304,0.9998368275136353,0.0021802913470029975
-0.26757837254845074,-0.26757837254845074,1.0036253313472687,0.0021582519933262254
-0.26624033999978564,-0.26624033999978564,0.9982514903309315,0.0021510377353330134
-0.26466775306034834,-0.26466775306034834,1.0014555946703112,0.0021258356342537896
-0.26307507620367687,-0.26307507620367687,0.9986353415696957,0.002136851108091894
-0.26225746526615695,-0.26225746526615695,1.0015359424145882,0.0021421313467652886
-0.2610477029840695,-0.2610477029840695,1.0013304892541797,0.0021709091189254168
-0.2593716596398735,-0.2593716596398735,0.9988498092080172,0.0021490735382386664
-0.25796155860589354,-0.25796155860589354,0.9984778597212669,0.0021485336548498586
-0.25670499200641644,-0.25670499200641644,0.9993549000581498,0.002122557723474109
-0.2558154484431725,-0.2558154484431725,1.001366206578843,0.002113471000281268
-0.2541324198042275,-0.2541324198042275,1.0003258128789043,0.002164678331462623
-0.25284307481197177,-0.25284307481197177,1.0005114300349534,0.0021125720829810743
-0.25098364222212693,-0.25098364222212693,1.0001408339668656,0.002133050447262898
-0.24904802297241985,-0.24904802297241985,1.0022460212278994,0.0021766800619775367
-0.2479790224606404,-0.2479790224606404,0.9973672743376663,0.002115759888998459
-0.24704315066919663,-0.24704315066919663,1.0029786501667945,0.002118714382646148
-0.2459158181445673,-0.2459158181445673,1.0014964826442445,0.0021657193663511508
-0.24533564832236152,-0.24533564832236152,0.9996929197002122,0.0021567142811335658
-0.2437712829269003,-0.2437712829269003,1.0006314354387165,0.0021304952276942667
-0.24237516717403196,-0.24237516717403196,1.0008924295204307,0.0021240920967603837
-0.2414179387589684,-0.2414179387589684,1.001737135294107,0.0021421497764919873
-0.2398448370367987,-0.2398448370367987,0.9994769367752754,0.002168162375000453
-0.23861771858937572,-0.23861771858937572,0.9989788448151069,0.0021225156706176744
-0.2374036460649222,-0.2374036460649222,0.9967132525993927,0.0021819113072892382
-0.23639508304477203,-0.23639508304477203,0.9988981080644063,0.002124109806645797
-0.23505649808212184,-0.23505649808212184,1.0015990219711817,0.0021692956310197394
-0.23384888583095745,-0.23384888583095745,0.9987762386093788,0.0021475309624501625
-0.23280268991948105,-0.23280268991948105,0.9993579412942678,0.0021674333787821106
-0.23136558147962205,-0.23136558147962205,0.9994797411102574,0.00215244351047759
-0.23015295213263015,-0.23015295213263015,1.000344023539245,0.0021255257587189853
-0.22884721927403007,-0.22884721927403007,0.9990214176112913,0.002172658817783029
-0.2275866798736388,-0.2275866798736388,1.0028234129620908,0.002152873198703318
-0.22630866238032468,-0.22630866238032468,0.9996982285884541,0.0021444576103759917
-0.22509814586082938,-0.22509814586082938,1.0006114169775606,0.002165369650035799
-0.223825499904342,-0.223825499904342,0.9998569264387968,0.002174586661159533
-0.22277952255681158,-0.22277952255681158,1.0014266056099586,0.0021405985093047152
-0.2216303747263737,-0.2216303747263737,1.0002859351124431,0.0021283504485654493
-0.2202297319599893,-0.2202297319599893,1.0017750240866967,0.00214799263366195
-0.2187393929780228,-0.2187393929780228,0.9996686840710396,0.002172707434826588
-0.21759208026051055,-0.21759208026051055,0.9998417485054294,0.002152197986362319
-0.2162489620357519,-0.2162489620357519,0.9997869145657632,0.0021301113013338334
-0.2147153120546136,-0.2147153120546136,0.9999927327285816,0.0021520763832500846
-0.21348224521498196,-0.21348224521498196,1.0000293969840408,0.0021165924891659
-0.21228618956520223,-0.21228618956520223,0.9982529478607676,0.0021694619005668495
-0.211001285907696,-0.211001285907696,0.9998920864408556,0.0021206868465376465
-0.20961907312739642,-0.20961907312739642,0.9997635564407723,0.002151953369921457
-0.2086300617607776,-0.2086300617607776,1.0012640045581265,0.002141710959181943
-0.20732968089287168,-0.20732968089287168,1.001463402746904,0.002117027697694721
-0.20603864987497217,-0.20603864987497217,0.9987198046231256,0.002144386726229258
-0.20477582980820444,-0.20477582980820444,0.9989917274345093,0.002145486134032651
-0.20352668724081013,-0.20352668724081013,1.0014084099579623,0.002174648316031162
-0.2027975661942037,-0.2027975661942037,0.9982284364922567,0.0021381055982431776
-0.20140452847990672,-0.20140452847990672,0.9993603618324215,0.002129348240572606
-0.20017691046814434,-0.20017691046814434,0.9971503730858929,0.002146118890240834
-0.1989315926330164,-0.1989315926330164,0.9990699592391129,0.002169131857029133
-0.19727905200561507,-0.19727905200561507,1.0011124285412392,0.0021470224261650136
-0.195713261057972,-0.195713261057972,0.99879184282153,0.00216595708597656
-0.19433726339193527,-0.19433726339193527,1.0014169656296164,0.002133682267003755
-0.19339642193226608,-0.19339642193226608,1.0006861714819137,0.0021649674747775518
-0.1923080113600008,-0.1923080113600008,1.0024101157557521,0.002165314322707338
-0.19148411436763127,-0.19148411436763127,1.0000180826888596,0.0021855608136986215
-0.19021131165791302,-0.19021131165791302,1.000012778328762,0.002162020588106533
-0.18900654200988357,-0.18900654200988357,0.999726278617614,0.002159456678492645
-0.18769436155562289,-0.18769436155562289,0.9988973016492487,0.0021715025659716646
