time,time,flux,flux_err
-0.49975025505773374,-0.49975025505773374,1.0001325830922545,0.0001379754077439984
-0.4993431669002651,-0.4993431669002651,0.9999771950325371,0.00012761372510322746
-0.4987890087941196,-0.4987890087941196,0.9999226405225241,0.00012684671175826372
-0.4981161406372848,-0.4981161406372848,1.0001747709148914,0.00011885193510961525
-0.49774118426066705,-0.49774118426066705,0.9999836054930938,0.00011344880230247695
-0.49744384294681365,-0.49744384294681365,1.0002090928574412,0.000118063119770273
-0.49686775375157594,-0.49686775375157594,1.0000899187842083,0.00011524456194818508
-0.4963915043124871,-0.4963915043124871,1.0000773816986888,0.0001188381585850549
-0.49603128310627653,-0.49603128310627653,0.99992297647758,0.00011537263183732239
-0.49576066087902293,-0.49576066087902293,1.000119771036666,0.0001170335078640367
-0.4950116906242329,-0.4950116906242329,1.0000392364378694,0.00011728159926541797
-0.494445522382739,-0.494445522382739,1.0001598814532602,0.00011715317095150975
-0.4941531764852698,-0.4941531764852698,1.0000745613250348,0.00011616522188210868
-0.4936197208146041,-0.4936197208146041,0.9998261783078259,0.00011528519443343599
-0.4929828619096952,-0.4929828619096952,1.0001035494266284,0.00011922243771664387
-0.4925320218993875,-0.4925320218993875,1.0000370427138894,0.00011887960440962325
-0.4918128834826348,-0.4918128834826348,0.9999821256761203,0.00011570703429450392
-0.4912925834207272,-0.4912925834207272,0.9999838007549389,0.00011767811344481814
-0.49088481216895163,-0.49088481216895163,0.9999636058398863,0.00011886255918069884
-0.4903137825145677,-0.4903137825145677,0.9997714074643385,0.00011486082257453703
-0.48971201376916723,-0.48971201376916723,0.9999025947442094,0.00011970187526431472
-0.4893529529414081,-0.4893529529414081,1.0001490708911396,0.00011713772588445633
-0.4887992969088373,-0.4887992969088373,1.0000243450941109,0.00011527452664737605
-0.4880592128058197,-0.4880592128058197,1.0000333255327365,0.00011702309076027685
-0.48770751301781273,-0.48770751301781273,1.0000828037017344,0.00011713087050378764
-0.48721440507506486,-0.48721440507506486,1.000004690030104,0.00011519458922719218
-0.4866496766131604,-0.4866496766131604,1.0000298140954105,0.00011622458004326261
-0.48620778827316824,-0.48620778827316824,1.0000533212427645,0.0001171467619534462
-0.48580237655478414,-0.48580237655478414,1.0000371882084331,0.0001255163796802584
-0.4853124403227412,-0.4853124403227412,1.0000113796125754,0.00011339823957683046
-0.48466954857649397,-0.48466954857649397,1.0000759013929568,0.00011712998095922047
-0.48419386054592906,-0.48419386054592906,1.0000032853289689,0.00011886501606766413
-0.483864249385806,-0.483864249385806,1.0000682453525367,0.00012317525670944374
-0.48327982517294005,-0.48327982517294005,1.000132800823263,0.00011446812401942836
-0.48284215070161735,-0.48284215070161735,1.000054483104107,0.00011711038693703449
-0.4824232094666513,-0.4824232094666513,0.9999447165433949,0.0001273031370060904
-0.4818220986489905,-0.4818220986489905,0.9999065172111952,0.00011530251986693906
-0.4811935366102261,-0.4811935366102261,1.0000969027062303,0.00011708090415429074
-0.4807744199046283,-0.4807744199046283,0.9999811399442828,0.00013311208546774612
-0.4802580074996513,-0.4802580074996513,0.9998129071158608,0.00011525950340333688
-0.47961449713329785,-0.47961449713329785,1.000004170875273,0.00011706456883521441
-0.47912997350722436,-0.47912997350722436,1.0000685113455536,0.0001316686035615808
-0.47833724850934234,-0.47833724850934234,0.9998417930810461,0.00011712937933135221
-0.47779881658861995,-0.47779881658861995,0.9999377317827417,0.00011701473505249542
-0.4773479869203584,-0.4773479869203584,0.9999343252937143,0.00011917000921097244
-0.4766091398581921,-0.4766091398581921,0.9998950953379124,0.00011882166712979405
-0.4761234155514103,-0.4761234155514103,1.0000352886099237,0.00011702290056673703
-0.4756184443620441,-0.4756184443620441,0.999928313752252,0.00012016469058306333
-0.47494486918731127,-0.47494486918731127,0.9999736552086335,0.00011709589928815173
-0.4744849070404598,-0.4744849070404598,1.0001497928712146,0.00011702075880857054
-0.4738392727194878,-0.4738392727194878,0.9999972389112116,0.00011708988366437873
-0.47315712722120223,-0.47315712722120223,1.0001689672298868,0.00011706672325133994
-0.47263516243037884,-0.47263516243037884,1.000262527684937,0.00011526730322254341
-0.47215522116384817,-0.47215522116384817,1.0001196610471788,0.00011699412386201414
-0.4714784325704386,-0.4714784325704386,1.0000240147298762,0.0001153137775026469
-0.47094603596196977,-0.47094603596196977,0.9999372451456461,0.0001219385772092481
-0.47054279160511214,-0.47054279160511214,0.9999648227973907,0.0001152234048867285
-0.46997556588830774,-0.46997556588830774,0.9999540743377177,0.00011697853901703736
-0.46944802024081583,-0.46944802024081583,1.0001359552716769,0.00011870329913927707
-0.46883582928421674,-0.46883582928421674,0.9999515367840095,0.00011707378036265222
-0.46825804641484864,-0.46825804641484864,1.0001092926385442,0.0001170445569655989
-0.4676413655557553,-0.4676413655557553,1.000181403184546,0.00011937952892251592
-0.46708960790274434,-0.46708960790274434,1.0000043520864488,0.00011523098095559774
-0.46663096049887826,-0.46663096049887826,0.9998592928071945,0.00011698691717708398
-0.46616030445948126,-0.46616030445948126,1.000025847794954,0.00011672390071151663
-0.4655112498963717,-0.4655112498963717,0.9997652695989728,0.00011883027720837
-0.4649144101815182,-0.4649144101815182,1.0001002278904012,0.00011531657913611894
-0.46427826103536063,-0.46427826103536063,0.9999662289919954,0.00011859397467525065
-0.46379241278846167,-0.46379241278846167,1.0000059507422894,0.00011598711325631562
-0.4633389130132855,-0.4633389130132855,0.999886202741419,0.00011522068552578277
-0.4629943100560922,-0.4629943100560922,1.0000238678453939,0.00011618191954646563
-0.46250210538928516,-0.46250210538928516,0.9998728126811786,0.00011717847377863783
-0.4620411347765184,-0.4620411347765184,0.9999516782008768,0.00011763520776251755
-0.4614578294167586,-0.4614578294167586,0.9998532886678421,0.00011520236442250807
-0.4608100309749716,-0.4608100309749716,0.9999759885637971,0.00011675757544298777
-0.4605259925308928,-0.4605259925308928,0.999997976509609,0.00011586777301845145
-0.4599639544161619,-0.4599639544161619,0.9998647626249791,0.00011698905565489591
-0.45941330646601275,-0.45941330646601275,0.9998737021176858,0.00011626333359924417
-0.4589625520122354,-0.4589625520122354,1.0000632151677153,0.00011593211535363992
-0.45832775905291784,-0.45832775905291784,0.9999927143696097,0.0001169621632598472
-0.45792288873562936,-0.45792288873562936,1.0001727942403358,0.00011697962045254193
-0.45738421707428645,-0.45738421707428645,1.000091535718732,0.00011597279101361357
-0.4569569646373566,-0.4569569646373566,1.0000161610491263,0.00011697461230948782
-0.4565822776094137,-0.4565822776094137,0.9999822737169957,0.00011519357051513641
-0.4561420601021382,-0.4561420601021382,1.0000621744343163,0.0001184453677947092
-0.455697771859559,-0.455697771859559,1.000017106821017,0.00011597046667542652
-0.4551225674666057,-0.4551225674666057,1.0002262471951155,0.00011518805072135635
-0.4547774268175999,-0.4547774268175999,0.9998618215493114,0.00011700591672294758
-0.4542841246977332,-0.4542841246977332,1.000090312327804,0.00011544228857271632
-0.45383827244950226,-0.45383827244950226,0.9999620762598116,0.0001159677493730466
-0.4533865286146465,-0.4533865286146465,0.9998408903481171,0.00011696914775657634
-0.4528223108543898,-0.4528223108543898,1.0000733473165213,0.00011706825379790779
-0.45241918316460217,-0.45241918316460217,0.9999790935243184,0.00011594574375315737
-0.45185748669173337,-0.45185748669173337,0.9999612799764929,0.0001151568450918999
-0.45142048151610653,-0.45142048151610653,1.0001475658588128,0.00011708134366613095
-0.4508685507942573,-0.4508685507942573,1.000082231044201,0.00011587160939400985
-0.4502938636112958,-0.4502938636112958,1.0000098024796447,0.0001187767256236355
-0.44992588792738386,-0.44992588792738386,1.0000163890659555,0.00011704921590756042
-0.44931920243470813,-0.44931920243470813,1.0000962120707961,0.00011709760404783189
-0.44853283468692096,-0.44853283468692096,0.9999665246003117,0.00011703056355703498
-0.4478858208851307,-0.4478858208851307,0.9998973261983556,0.0001179224248886828
-0.4471162279682176,-0.4471162279682176,0.999974630763559,0.00011708322232080625
-0.44658187484092193,-0.44658187484092193,1.000032347699986,0.00011701228416521735
-0.4459893722436391,-0.4459893722436391,1.0000622944062088,0.00011711085261509668
-0.4452660736722464,-0.4452660736722464,0.9998102955609893,0.000115188139347665
-0.4447928778041387,-0.4447928778041387,1.0002755111977375,0.00011700289813967675
-0.44428400858523676,-0.44428400858523676,1.0001120856371801,0.00011520352813224535
-0.4436634891470021,-0.4436634891470021,1.0000116759050424,0.00011703997714726648
-0.4432792325736955,-0.4432792325736955,0.9999851010273048,0.00011767407022189952
-0.4427743705295143,-0.4427743705295143,0.9998766310917544,0.0001133559062914812
-0.4424424513206759,-0.4424424513206759,0.9997585436696064,0.00012102654607379677
-0.441906578331691,-0.441906578331691,1.0000515080508499,0.00011700351507384907
-0.4415637693462486,-0.4415637693462486,1.0000761133256082,0.00011694870275965425
-0.44101140578786724,-0.44101140578786724,0.9998374623740321,0.00011701012920137179
-0.44050750341484674,-0.44050750341484674,0.9999995316959961,0.00011675887037366872
-0.44007015846073044,-0.44007015846073044,0.9999177408889854,0.00011693768831968626
-0.4395878452291072,-0.4395878452291072,1.0001340008098822,0.00011874394967027895
-0.43891880313894943,-0.43891880313894943,0.9999582999000032,0.0001178948519324311
-0.43843706769985147,-0.43843706769985147,1.000068968654824,0.00011694505690549395
-0.4379857666506723,-0.4379857666506723,1.0000961183973147,0.00011693125808698475
-0.4372793149857898,-0.4372793149857898,1.0001611755739068,0.00011749215101591534
-0.4367998048706795,-0.4367998048706795,1.0000143852749273,0.00011693936820593857
-0.43636277333571344,-0.43636277333571344,0.99986716949656,0.0001168919753000212
-0.4356398768934014,-0.4356398768934014,1.0000379080915152,0.0001172456637556986
-0.43516258808303976,-0.43516258808303976,1.000302073210954,0.00011695612886471081
-0.4348212933749892,-0.4348212933749892,1.0000450894677786,0.00011684894940055382
-0.4339919022146205,-0.4339919022146205,0.9998987050814929,0.00011708705616997065
-0.43344540305697593,-0.43344540305697593,1.0000863037947478,0.00011878949178124373
-0.4329426413882175,-0.4329426413882175,0.9999370808113408,0.00011501976757372201
-0.4321473958465504,-0.4321473958465504,0.9999904892774136,0.0001169871383461817
-0.4316235818761925,-0.4316235818761925,1.0000944732464434,0.00011856453997951503
-0.4309839027824637,-0.4309839027824637,0.9998750336367543,0.00011521240016495122
-0.4304868934697879,-0.4304868934697879,1.0000467609017993,0.0001151514263771239
-0.42997683381472596,-0.42997683381472596,0.999997627498843,0.0001184728064725857
-0.4295730617195659,-0.4295730617195659,0.999847957817264,0.00011581924636852993
-0.42899380742455834,-0.42899380742455834,0.9999872774068741,0.00011518646308899081
-0.42846533569754686,-0.42846533569754686,0.9999065751806272,0.0001353691096849241
-0.42809742075187385,-0.42809742075187385,0.9999039272656974,0.00011662132029069575
-0.4275450683046074,-0.4275450683046074,1.0002666206854243,0.00011512981137242514
-0.4269984121259768,-0.4269984121259768,1.000123232459039,0.00011703216094616892
-0.42659315836936,-0.42659315836936,1.0000713068664269,0.00012950499642671706
-0.42625758008871345,-0.42625758008871345,0.9999913060957896,0.0001163884484192168
-0.42572207670164064,-0.42572207670164064,1.0000616954887522,0.00011516041171934522
-0.4251635248139792,-0.4251635248139792,1.000111125892782,0.00012797585002296974
-0.42466396011805047,-0.42466396011805047,0.9998746360756685,0.00011766193463541242
-0.42392319294740444,-0.42392319294740444,1.0000295444479295,0.00011520612716114194
-0.42342205468739846,-0.42342205468739846,1.0001162549309406,0.00012717695521742578
-0.422853186581051,-0.422853186581051,1.0001854363955793,0.00011736930492380045
-0.42190226778038775,-0.42190226778038775,1.0000715281911927,0.00012215856702814065
-0.4215875539877743,-0.4215875539877743,1.0000853808318582,0.00011709317442860094
-0.4208572792354971,-0.4208572792354971,1.000089092594599,0.00011730673513312686
-0.4201515283340996,-0.4201515283340996,1.0001408512794074,0.00011872104245866559
-0.41964496848377164,-0.41964496848377164,1.0001578063959862,0.00011888600251743647
-0.4186793293454684,-0.4186793293454684,1.0000046058869678,0.00011713987938770673
-0.41823323372154847,-0.41823323372154847,1.000086230644481,0.00011706774245110778
-0.41739152117879713,-0.41739152117879713,1.0001330436744076,0.0001171795690396085
-0.4168434064275061,-0.4168434064275061,1.0001344703000414,0.0001187819232637413
-0.4160967097348475,-0.4160967097348475,1.0000546291028876,0.00011883310466852448
-0.4153938908559212,-0.4153938908559212,0.9999645702896183,0.00011701895254768741
-0.4150229710183339,-0.4150229710183339,1.0000186344073527,0.00012056203780277624
-0.41440985532317426,-0.41440985532317426,0.9997921693475853,0.00011708657810517951
-0.41375001066480765,-0.41375001066480765,1.0001500797466532,0.00011704918452103648
-0.41333559019185484,-0.41333559019185484,1.0000716574396207,0.00011876797737032825
-0.41266832432811495,-0.41266832432811495,0.9999894884516951,0.00011716743561229696
-0.41202059191200535,-0.41202059191200535,0.9999672516646505,0.00011877057411421223
-0.41167392263087094,-0.41167392263087094,0.9998932561806496,0.0001169719566723776
-0.4112997803487815,-0.4112997803487815,0.9999795243258374,0.00011705127583684417
-0.4105386703595286,-0.4105386703595286,0.9997913235908585,0.00011751256794641099
-0.4101250557483581,-0.4101250557483581,1.0000468309299828,0.00011879592780975165
-0.4097750396140327,-0.4097750396140327,1.0000223634863992,0.00011701588154551516
-0.4090903241616616,-0.4090903241616616,1.0000033789675478,0.00012639538139226807
-0.40851644893919004,-0.40851644893919004,1.000146970879165,0.00012054414393689184
-0.4080141023572651,-0.4080141023572651,0.9999022099047616,0.00011885767900428396
-0.4072427938648616,-0.4072427938648616,1.0001326304970206,0.00012525657278415818
-0.40667921983549604,-0.40667921983549604,1.000051676593849,0.00011886559117177948
-0.4063635981270636,-0.4063635981270636,0.9999813909355184,0.00011512716506213575
-0.4058986446223571,-0.4058986446223571,1.0000305125004687,0.00012428881681289322
-0.405212339614809,-0.405212339614809,1.0000245536585874,0.00012055205344996126
-0.40484583427969484,-0.40484583427969484,0.9999386624104052,0.00011526437769190091
-0.4046284973941511,-0.4046284973941511,0.9999028768184779,0.00011872569366712191
-0.4040503657197405,-0.4040503657197405,0.9999370267879488,0.00011718671911008246
-0.40346450318756977,-0.40346450318756977,1.0000495121922035,0.00012056680860095985
-0.40315920840148467,-0.40315920840148467,1.0000066566912236,0.00011525040338344334
-0.4027523006006959,-0.4027523006006959,0.9998979349691963,0.00011698680681937319
-0.4020042310228746,-0.4020042310228746,0.9999095515169364,0.00012048773035591084
-0.4016371058714867,-0.4016371058714867,0.9999886865973131,0.00011712195633452486
-0.40134611798639525,-0.40134611798639525,1.000032621226137,0.0001187392210277461
-0.4006041735810868,-0.4006041735810868,0.999911827957251,0.00011698445042420643
-0.40008355214231417,-0.40008355214231417,0.9999709859118877,0.00011885546234762241
-0.39963883371237896,-0.39963883371237896,0.9999734232836619,0.00011879968109886924
-0.3988767804534291,-0.3988767804534291,1.0000036895013815,0.0001152564206204257
-0.39860306539994783,-0.39860306539994783,0.9998391499203738,0.0001187765757027661
-0.39818389159190704,-0.39818389159190704,1.0002338462443299,0.00011887257048370441
-0.39740075010049625,-0.39740075010049625,1.000036537325206,0.00011526604222337946
-0.39697678836091654,-0.39697678836091654,1.000213847461281,0.00011881561229381929
-0.39653632460176597,-0.39653632460176597,0.9999581097057743,0.0001188639828360156
-0.39586201401471044,-0.39586201401471044,1.000018714068175,0.00011603795694145789
-0.39540161777404137,-0.39540161777404137,0.9999329662195956,0.00011871757465508996
-0.39497406678201513,-0.39497406678201513,0.999961716675504,0.0001171347264838994
-0.39438335678059955,-0.39438335678059955,0.999920820550467,0.00011710443327140722
-0.39367373582790605,-0.39367373582790605,1.0000167317036377,0.0001187377427029318
-0.39332657521226794,-0.39332657521226794,1.000237806257545,0.000117151401926435
-0.392697711247456,-0.392697711247456,1.000145426784551,0.00011529388150385471
-0.3919912485689565,-0.3919912485689565,0.9999040944174965,0.00011877941155028447
-0.391679140622,-0.391679140622,1.0000549949029431,0.0001171394772501782
-0.39106194722699,-0.39106194722699,1.0001937014688527,0.00011524218718233293
-0.390418481213419,-0.390418481213419,1.0001184073370921,0.00011881609387306628
-0.39009749493779966,-0.39009749493779966,0.9999569576576463,0.00011531159324442989
-0.3897639570386673,-0.3897639570386673,0.9999331324927578,0.00011704962519413909
-0.38913014831705367,-0.38913014831705367,1.0001121741968118,0.00011525577716451183
-0.3886295937409159,-0.3886295937409159,1.0000414326232014,0.00012672906833572072
-0.3883034586942813,-0.3883034586942813,1.0001412458709202,0.00011708995492077427
-0.38789976784246394,-0.38789976784246394,1.0001026987783797,0.00011634014744773676
-0.38727739976748127,-0.38727739976748127,1.0000753638114497,0.00011705963695336641
-0.38686355843601633,-0.38686355843601633,1.0000249543271942,0.00011529957784920033
-0.38651470841141417,-0.38651470841141417,1.0000779428763789,0.0001180546637255556
-0.3859387008131307,-0.3859387008131307,0.9998903260477199,0.00011523079734549932
-0.3854628461995162,-0.3854628461995162,1.0000399060043512,0.00011882857146917436
-0.38510290853955664,-0.38510290853955664,0.9999742230546687,0.00011537725424087009
-0.38483147352744707,-0.38483147352744707,0.9999839832941712,0.00011701795037017892
-0.3839531128607632,-0.3839531128607632,1.0000475388582368,0.00011724809382939473
-0.3835174879008264,-0.3835174879008264,1.0000262330126497,0.0001171246184749704
-0.38322333976393563,-0.38322333976393563,0.9998260252009805,0.00011615990643582422
-0.38260700359605837,-0.38260700359605837,0.9998650677919493,0.00011705622289678644
-0.381966885910515,-0.381966885910515,1.0001323942068308,0.00011748645811935471
-0.3814612365065841,-0.3814612365065841,1.0002863962984345,0.00011883761021589312
-0.3807767061603954,-0.3807767061603954,0.9998268859428338,0.0001180764709888396
-0.3802848798935884,-0.3802848798935884,1.0000707843851955,0.0001153372786524422
-0.37990765340728105,-0.37990765340728105,1.0000332696000733,0.00011961915920765491
-0.3792476316208194,-0.3792476316208194,0.9999034809636397,0.00011562704283338259
-0.37872240702126875,-0.37872240702126875,0.9999504911688,0.00011793942278842571
-0.37834356824168935,-0.37834356824168935,0.9999759869119191,0.0001170686945118948
-0.3777662685170071,-0.3777662685170071,0.9999316212226349,0.00011556398919671672
-0.37713002991658867,-0.37713002991658867,0.9998719579549604,0.00011701650164933288
-0.37677922585135093,-0.37677922585135093,1.0000149481628717,0.00011712693320671468
-0.37628491959840177,-0.37628491959840177,1.0000460753770504,0.00011519638829515314
-0.375614212398068,-0.375614212398068,1.0000288075196617,0.00011700001690093463
-0.3752078994060867,-0.3752078994060867,1.0000304955107087,0.00011714968033919632
-0.37478983900291496,-0.37478983900291496,0.999980362686434,0.00012365188569905065
-0.37425510591929195,-0.37425510591929195,0.9999151451559563,0.00011522771161329612
-0.3736323370503669,-0.3736323370503669,0.9999183118764892,0.00011714071446326393
-0.3731937562020903,-0.3731937562020903,0.9999058284687159,0.00012643547434669665
