time,time,flux,flux_err
-0.4999578214477272,-0.4999578214477272,1.0000394396603507,0.00010899834436122611
-0.4998295767315237,-0.4998295767315237,0.9999486832186789,0.00011197018007051338
-0.4996405631306213,-0.4996405631306213,0.999862511202089,0.00011006514338694816
-0.4994128107476475,-0.4994128107476475,1.0002410019099837,0.00011938554756444773
-0.49922070776010513,-0.49922070776010513,0.9999857369893197,9.978076087390722e-05
-0.49909058309349347,-0.49909058309349347,0.9999806246879421,0.00010026371168415414
-0.49897302890822176,-0.49897302890822176,0.9999871763772259,9.937970106796811e-05
-0.4988481877851882,-0.4988481877851882,1.0000672539421136,0.00010254451328043623
-0.4986179949839425,-0.4986179949839425,1.0001438417451392,9.939854568740408e-05
-0.4985275776867638,-0.4985275776867638,1.0001752890067692,9.93916252626144e-05
-0.49843383883271597,-0.49843383883271597,1.0000282800004974,9.972765873799052e-05
-0.49825626996243955,-0.49825626996243955,1.0000313575305428,0.00010215102549782428
-0.4981013547789189,-0.4981013547789189,1.0000951996495329,0.00010025385605161492
-0.49800938281186974,-0.49800938281186974,0.999791198344586,9.811031017417223e-05
-0.49793766436341685,-0.49793766436341685,0.9999577014995145,0.0001018344665346885
-0.4976808121900831,-0.4976808121900831,1.000152204493072,0.00010174868919130648
-0.49756333892582916,-0.49756333892582916,0.9999392216678238,9.766304861635541e-05
-0.49746927303276606,-0.49746927303276606,1.000025954305157,9.679780434903362e-05
-0.49732479414888076,-0.49732479414888076,0.9997260550429935,9.901283103702554e-05
-0.49715988145471784,-0.49715988145471784,1.0000236224586643,9.962548637808356e-05
-0.4970348258699232,-0.4970348258699232,0.9999054033836963,0.00010444054874365945
-0.4969359930029896,-0.4969359930029896,1.0001276921021325,9.948058282392164e-05
-0.4967826055712067,-0.4967826055712067,1.0001044628874358,0.00010066058010198594
-0.49662467111993464,-0.49662467111993464,1.0001174203358056,0.00010327032757956099
-0.4964707365172217,-0.4964707365172217,1.0000879487474965,0.00010028550178097786
-0.49636022190970835,-0.49636022190970835,0.9998472271285446,0.00010151234842689133
-0.49623642520673455,-0.49623642520673455,0.9997872945965934,9.976823758301764e-05
-0.4960677381612186,-0.4960677381612186,1.0000367606845253,0.0001041915932678066
-0.4958686963378568,-0.4958686963378568,0.9999517322446547,0.0001002038612795279
-0.4957190757995704,-0.4957190757995704,0.9999000524088111,9.801761035951532e-05
-0.49554877139744347,-0.49554877139744347,0.9998614348414065,0.00010283069439995121
-0.4953788745580823,-0.4953788745580823,0.9999455331509252,9.889636950700692e-05
-0.4952620523836231,-0.4952620523836231,1.0002369213271565,9.984763047283625e-05
-0.49511031973015635,-0.49511031973015635,1.000035330646066,0.00010170731942037725
-0.4949773965679924,-0.4949773965679924,0.9999669087228332,9.919363669139614e-05
-0.49487132899375863,-0.49487132899375863,0.9999927963878305,0.00010063836824920317
-0.49472510130071895,-0.49472510130071895,1.0000310157846344,0.00010323931052460246
-0.49451881290806343,-0.49451881290806343,1.000160256416788,0.00010003007515967638
-0.49430884269240777,-0.49430884269240777,0.9998434500121028,0.00010098617674692677
-0.4942065911091049,-0.4942065911091049,0.9998522743094338,0.00010323813835662264
-0.49407834263329276,-0.49407834263329276,1.0000486136716948,0.0001005443443267006
-0.4937997764762258,-0.4937997764762258,0.9999438043107963,0.00010126090967306969
-0.49365837229270254,-0.49365837229270254,0.9999505748900841,9.992271242682422e-05
-0.493547481585847,-0.493547481585847,1.0000062282389746,9.992229506390457e-05
-0.49342611601823594,-0.49342611601823594,1.0000434022448073,9.977466803475705e-05
-0.49330917613915515,-0.49330917613915515,1.0000345013073664,0.00010237602129596764
-0.49306658519417396,-0.49306658519417396,1.00002344983988,0.00010199575369960716
-0.4929680464490957,-0.4929680464490957,0.9998620284009896,0.00010014968206983168
-0.4927691375065478,-0.4927691375065478,0.9998775391341532,0.0001009693095766051
-0.49258392453193667,-0.49258392453193667,1.000009520203379,0.00010141650298311679
-0.49227319971978434,-0.49227319971978434,1.0001315369248542,9.873055842406307e-05
-0.4920614662449225,-0.4920614662449225,0.9999753784828492,0.00010264259001165146
-0.4919037202518666,-0.4919037202518666,0.9999371342601613,0.00010239258867729497
-0.4918161411645997,-0.4918161411645997,1.0000468203669732,0.00010175716178381789
-0.4917282729133149,-0.4917282729133149,0.9999721031403996,9.747719880725075e-05
-0.4915711467852816,-0.4915711467852816,0.9999833620340464,9.928246379618463e-05
-0.4913700201032043,-0.4913700201032043,0.9998721520994502,0.00010057724762665304
-0.4911676145646197,-0.4911676145646197,0.9999250010081646,0.00010066561194463681
-0.49105279709110616,-0.49105279709110616,1.0000487567606529,0.00010344284592884628
-0.4908736145007424,-0.4908736145007424,1.0001580698275414,0.00010375604296677566
-0.4907073199865408,-0.4907073199865408,0.9999049585676927,9.834861615344347e-05
-0.49043000878955356,-0.49043000878955356,0.9999992865244884,9.957319444955505e-05
-0.49031616233114617,-0.49031616233114617,0.9999885328986627,9.963365544074488e-05
-0.49022724756796376,-0.49022724756796376,1.000006020729333,0.00010113842999270135
-0.49009145723175607,-0.49009145723175607,1.0000108051817889,0.00010006378973533158
-0.4899226572997577,-0.4899226572997577,1.00035009875782,0.00010254781591186336
-0.489818501155969,-0.489818501155969,1.0000352104716352,0.00010246425059050245
-0.4896453352979734,-0.4896453352979734,1.0000338212999336,0.00010244978203939512
-0.489426757406909,-0.489426757406909,1.0000236846111246,9.890805833289095e-05
-0.4892861474552774,-0.4892861474552774,0.9999945494042273,0.00010062359223733205
-0.4891118166218803,-0.4891118166218803,1.0000798337531491,0.00010086020158131598
-0.48888478462031343,-0.48888478462031343,1.0000681236144275,9.953268994741492e-05
-0.4886969239509199,-0.4886969239509199,1.0000055981832154,9.833844167502422e-05
-0.4885557810921455,-0.4885557810921455,1.0000760013254653,0.00010241002685526704
-0.4884459484019317,-0.4884459484019317,1.000105388232602,9.895854218452476e-05
-0.48837832941062514,-0.48837832941062514,1.0000839725557356,9.831072199956896e-05
-0.48827676496948696,-0.48827676496948696,0.9999772871230975,9.93408127082623e-05
-0.4880790147748485,-0.4880790147748485,0.9998988176944934,0.00010351873829897826
-0.4879368269765109,-0.4879368269765109,1.0000869819852158,0.00010005507061871669
-0.4878242464219511,-0.4878242464219511,1.0001242043409264,0.00010080044730889489
-0.4876536655028758,-0.4876536655028758,1.00002048357469,0.00010218126721314841
-0.4875576684928092,-0.4875576684928092,1.0000110105704445,9.86269927164968e-05
-0.48734851842091303,-0.48734851842091303,1.0001270542238596,0.00010146139559848593
-0.4871394286616123,-0.4871394286616123,0.9999176705029406,9.977613078322946e-05
-0.4870470024521637,-0.4870470024521637,0.9999241535800614,0.0001012510897039885
-0.48690718657890103,-0.48690718657890103,1.000105507087884,0.000101996545254182
-0.4868011731145089,-0.4868011731145089,1.0000479177571855,0.00010118011641192606
-0.4865929017549206,-0.4865929017549206,0.9999188710832673,0.00010046065684761514
-0.4864677699173626,-0.4864677699173626,0.9998743577710292,0.00010087629570950552
-0.4863100358030351,-0.4863100358030351,0.9999694436661786,0.00010199571123178283
-0.48614827723868076,-0.48614827723868076,1.0001022470421046,0.00010032448423763374
-0.4860511428480095,-0.4860511428480095,0.9999772432835206,0.00010107630094361682
-0.48597939414758,-0.48597939414758,0.999839646040711,9.966302568970017e-05
-0.4858577614293608,-0.4858577614293608,0.9999706604033568,0.00010354970807592173
-0.4856247438438004,-0.4856247438438004,1.0000740583745666,0.00010033164275792379
-0.4853907483317016,-0.4853907483317016,0.9999813522901638,9.911110200000095e-05
-0.48525522069976434,-0.48525522069976434,1.000052729303939,9.887065989351411e-05
-0.48509872905706286,-0.48509872905706286,1.0000727065024797,0.0001024178841384882
-0.484989545019198,-0.484989545019198,1.000026052288416,0.00010428441700109181
-0.4848737819425878,-0.4848737819425878,1.000198212225676,9.933936952600851e-05
-0.48474661704167377,-0.48474661704167377,1.000048805990937,0.00010252856366830591
-0.4845908031798899,-0.4845908031798899,1.0001995926826666,0.00010341893880558048
-0.484434674437216,-0.484434674437216,0.9999682468628844,0.00010021007666937817
-0.4843276269319176,-0.4843276269319176,1.000127095137493,0.00010119016037353108
-0.4841551571764285,-0.4841551571764285,1.0000230742521732,0.00010337042406415066
-0.48396052903844977,-0.48396052903844977,1.0003162758181623,0.00010113706775698567
-0.48374127648057763,-0.48374127648057763,1.0000280922350244,9.981296476906174e-05
-0.48359383132628864,-0.48359383132628864,0.9999895440628407,9.829030712951291e-05
-0.4834021138412936,-0.4834021138412936,0.9998968916144364,0.00010095668987491311
-0.48332139097037724,-0.48332139097037724,0.9999618342711221,9.962251074364101e-05
-0.4832136756391264,-0.4832136756391264,0.9999820549961903,9.903143144399733e-05
-0.4830453364418645,-0.4830453364418645,1.0000301978281847,0.00010146160104178592
-0.48292343104330937,-0.48292343104330937,0.9999155462753573,0.00010082157358791888
-0.4828467887295119,-0.4828467887295119,0.9999098968470259,0.00010062524398107653
-0.48265747257974,-0.48265747257974,0.999992763699604,0.00010146061870954202
-0.4823822172482323,-0.4823822172482323,1.0001209460702083,0.00010270110043337534
-0.4822460776056687,-0.4822460776056687,0.9998925048771335,0.00010067663103962567
-0.48211926166331975,-0.48211926166331975,0.9998596708036898,0.00010084380994588519
-0.4819640274028643,-0.4819640274028643,0.999909483880457,0.00010120473383995614
-0.4817461101214576,-0.4817461101214576,0.9999837129646902,0.0001003874759225977
-0.4816021835205902,-0.4816021835205902,1.0000502162344242,0.00010079337841183202
-0.4815068899748439,-0.4815068899748439,1.0000297677418373,9.977107315584942e-05
-0.48137368068855724,-0.48137368068855724,1.0002032463136366,0.00010006790141478285
-0.4812267795059597,-0.4812267795059597,1.0001509203568308,0.00010209296786940266
-0.4809934226315818,-0.4809934226315818,1.000056973510518,0.00010108242872241898
-0.4807890019641491,-0.4807890019641491,0.9998682111685506,0.00010158605809970267
-0.4805577352788532,-0.4805577352788532,0.9999221893624668,9.893643682531445e-05
-0.4803487967255933,-0.4803487967255933,0.999868039340613,0.0001005123783987561
-0.4801306562236277,-0.4801306562236277,0.9998835906194842,0.00010169969978774556
-0.47993359267493363,-0.47993359267493363,1.000112963289339,0.00010250927978018432
-0.47983931391645457,-0.47983931391645457,1.00009589790283,0.00010076297742018158
-0.4797609504188586,-0.4797609504188586,0.9998495710219448,0.00010089654263384501
-0.4796734311894397,-0.4796734311894397,1.0001042158368505,9.85225277684339e-05
-0.4795404574571876,-0.4795404574571876,0.9999627416503264,9.861333485172892e-05
-0.479375568053365,-0.479375568053365,1.0000609012966437,0.00010015185197097045
-0.47920011201349555,-0.47920011201349555,0.9999421688115966,0.00010018793481947161
-0.4790397270640824,-0.4790397270640824,1.0001143021708265,0.00010230929213277207
-0.4788514577303431,-0.4788514577303431,1.0000328221847004,0.00010375753726350214
-0.4786683713478851,-0.4786683713478851,0.999964069695286,9.83389859179616e-05
-0.4784282333610463,-0.4784282333610463,0.9999629542853633,9.970645572089263e-05
-0.4783443445907324,-0.4783443445907324,0.9999549919256807,9.972042479597456e-05
-0.47822926266744614,-0.47822926266744614,0.9999988232373743,9.982475886463821e-05
-0.4781086439092178,-0.4781086439092178,0.9999581372897394,0.00010177467550466545
-0.4779284112919413,-0.4779284112919413,1.0001709266060441,0.00010271431875498273
-0.4778095894886064,-0.4778095894886064,0.9999442363491553,0.00010227810960376287
-0.4776684052420023,-0.4776684052420023,1.000113940294913,0.00010216636596479139
-0.47743668331022493,-0.47743668331022493,1.0000290432500993,9.897324505967672e-05
-0.47729007166053633,-0.47729007166053633,0.9999535028586723,9.956562168608343e-05
-0.4770196193065203,-0.4770196193065203,0.9999905956272626,0.00010287832807714377
-0.4768098394953995,-0.4768098394953995,1.0000366573375894,9.923742242275053e-05
-0.4767035799508449,-0.4767035799508449,1.0000156244220224,9.987192250696824e-05
-0.47660131970988007,-0.47660131970988007,0.9999374361974338,9.912889781126701e-05
-0.4765000283339759,-0.4765000283339759,0.9998593630781325,0.00010291900188654022
-0.47640250408876456,-0.47640250408876456,0.9998779096117886,9.881425511714127e-05
-0.47632484864370783,-0.47632484864370783,0.9999135558736226,9.8268897034132e-05
-0.4761814726749435,-0.4761814726749435,0.9999152184847361,0.00010171539852030933
-0.47606166475598,-0.47606166475598,0.999961398554207,0.00010181804261211458
-0.47591388238288346,-0.47591388238288346,0.9998686348313729,0.00010080226778563907
-0.47576685778258254,-0.47576685778258254,1.00006733200823,0.00010088473757717321
-0.4755922534306592,-0.4755922534306592,1.0001161284210356,0.00010106910197609424
-0.4753851296831272,-0.4753851296831272,1.0001786694424346,0.0001018567560666895
-0.47511309137844365,-0.47511309137844365,0.9998749665308994,0.00010045707980051275
-0.47496647662483155,-0.47496647662483155,1.0000137767696642,0.0001031739228465732
-0.47485506172379244,-0.47485506172379244,0.9998689650935437,9.922088121345674e-05
-0.4746960605603817,-0.4746960605603817,0.9999907709216815,0.00010187836487530761
-0.47449843080175924,-0.47449843080175924,1.0002732964071015,0.00010148233239177288
-0.4744038431395893,-0.4744038431395893,1.0000701953287536,0.0001014164999389394
-0.47421751172660154,-0.47421751172660154,1.0002126815666474,0.00010152717811601845
-0.4740862683458545,-0.4740862683458545,1.0000585945521245,0.00010118790162475549
-0.47399496669895597,-0.47399496669895597,1.0000537049417306,0.00010198884864943001
-0.47391332382758267,-0.47391332382758267,0.9999858189385378,0.00010154308165637182
-0.4736887540922908,-0.4736887540922908,1.0000461340684441,0.00010092426719837016
-0.47344259179881193,-0.47344259179881193,0.9999375674612064,9.851907954131875e-05
-0.4732707147421024,-0.4732707147421024,1.000068594810668,9.880221108243504e-05
-0.47311005595111055,-0.47311005595111055,1.0001851026774369,0.00010231076764741192
-0.47299767537115256,-0.47299767537115256,0.9999785471931208,0.00010136885190170063
-0.4729107554994698,-0.4729107554994698,1.0001052540206283,9.950401299632975e-05
-0.4727924938611977,-0.4727924938611977,0.9999693255347731,0.00010174891516911313
-0.4726389846560778,-0.4726389846560778,0.9999316421886164,0.00010052056089276369
-0.4724541599789518,-0.4724541599789518,1.0000428443856926,0.00010011682662692612
-0.47231993027598945,-0.47231993027598945,0.9999939904885032,0.00010087756364474652
-0.4722143705235794,-0.4722143705235794,1.0000529302466763,0.00010062356014080843
-0.4720398362951528,-0.4720398362951528,1.0000069770224838,0.00010074052110158665
-0.4718799222697271,-0.4718799222697271,0.999988447217563,0.00010198342915003135
-0.4716570673183014,-0.4716570673183014,0.999972598204345,9.88946932120206e-05
-0.47143649434583496,-0.47143649434583496,1.0000571575848833,0.00010295039255984655
-0.47131901970133183,-0.47131901970133183,1.0000439180762943,9.913765141264343e-05
-0.47120499406591987,-0.47120499406591987,0.999952147546774,9.92911680948066e-05
-0.4710613293260394,-0.4710613293260394,0.999971338795125,0.00010188457713473328
-0.4709430787486781,-0.4709430787486781,0.9999984881841965,9.940038995048723e-05
-0.4708487717936805,-0.4708487717936805,1.0000064324446731,0.00010178941264699638
-0.4707099138060585,-0.4707099138060585,1.0000802357803324,0.00010033148940831745
-0.4703606120579934,-0.4703606120579934,0.9999201003692756,0.00010264989987738601
-0.4701927680071094,-0.4701927680071094,1.0000401346226904,0.00010080966710605493
-0.4700121611414943,-0.4700121611414943,0.999977498757685,0.00010048461193846229
-0.4698206007029512,-0.4698206007029512,0.9999443660055538,0.00010206813741863454
-0.4696229725290323,-0.4696229725290323,0.999859904504509,0.00010033609452359048
-0.4695438176000607,-0.4695438176000607,0.99989490531412,9.916638264397412e-05
-0.46944642549133275,-0.46944642549133275,0.9999379376199116,9.9934255486754e-05
-0.4693131261148665,-0.4693131261148665,1.0001181014925211,0.00010068884826052508
-0.46912278498348314,-0.46912278498348314,1.0000232357692171,0.00010080704909792982
-0.4689862759980315,-0.4689862759980315,1.0001161820469808,0.00010121629951133482
-0.4688663577704574,-0.4688663577704574,0.9999479753743412,0.00010281958567631218
-0.46866515286965293,-0.46866515286965293,0.9999250836083942,9.921187831060309e-05
-0.4685163182788529,-0.4685163182788529,1.0002273478605257,0.00010380707528852288
-0.4683994734332373,-0.4683994734332373,1.0000829672285745,0.00010064230836338878
-0.4681941744805954,-0.4681941744805954,0.9999012868678671,0.00010070319410808571
-0.46802219287492336,-0.46802219287492336,1.0000521275983403,0.00010023431836981225
-0.4678877794642176,-0.4678877794642176,0.9999899717386527,0.00010229571597586382
-0.4678073904615303,-0.4678073904615303,0.9999664415651262,0.00010093973562199519
-0.4676994913046656,-0.4676994913046656,0.9998383338893632,0.00010166674028832658
-0.4676289656490553,-0.4676289656490553,1.000095465284115,9.775938273449739e-05
-0.467481835095532,-0.467481835095532,1.0000642933352535,0.00010209565620015436
-0.4673540069401497,-0.4673540069401497,0.9999915793523464,9.823184606380256e-05
-0.46721337213530206,-0.46721337213530206,1.0001635953595394,9.928622217450244e-05
-0.46706039579075875,-0.46706039579075875,1.0000523721617476,0.00010346628953024874
-0.4668801467254525,-0.4668801467254525,1.000058261674604,0.00010376519588484345
-0.4666078428279434,-0.4666078428279434,1.0000569494581681,9.932304228668575e-05
-0.46636970746840234,-0.46636970746840234,0.9999666242233932,9.79408205910178e-05
-0.4662763325184642,-0.4662763325184642,1.0001931720030564,9.868603845355009e-05
-0.46618443147381183,-0.46618443147381183,1.000233790099534,0.0001015637024946124
-0.46600180484674636,-0.46600180484674636,0.9999626006090517,0.00010016167452061486
-0.46586286384554115,-0.46586286384554115,1.000099690232453,0.0001025231526305678
-0.4657401896256488,-0.4657401896256488,0.9999580516777489,0.00010237515867867822
-0.46556231749782456,-0.46556231749782456,0.9999746206062359,0.00010151292422066402
-0.4653238167986274,-0.4653238167986274,1.0001012652924473,9.906763850683439e-05
-0.46523133583177695,-0.46523133583177695,0.9999261095001257,0.0001013252741612111
-0.4651544743028353,-0.4651544743028353,1.0000701891823724,0.00010214912353540425
-0.46491525402743716,-0.46491525402743716,1.000159353501601,0.00010001173225709745
-0.46478689390642103,-0.46478689390642103,1.0000341419649397,9.942999748624679e-05
-0.4646818820794579,-0.4646818820794579,0.9999816529059992,9.756313165520792e-05
-0.46458949725347337,-0.46458949725347337,0.9999880907604985,9.860354521120933e-05
-0.46450649171238184,-0.46450649171238184,0.9999941706568716,0.00010317160620010605
-0.4643893852495239,-0.4643893852495239,0.9999011882646816,9.973846289842593e-05
-0.4642660713674559,-0.4642660713674559,0.9999010888369767,9.944327571549181e-05
-0.4640856023419474,-0.4640856023419474,0.9999571415543353,0.00010295502600381975
-0.46392123964469645,-0.46392123964469645,0.9998939592492416,0.00010018170079701904
-0.4638096074973873,-0.4638096074973873,1.0000195201534932,0.00010162171807667373
-0.4636038601478504,-0.4636038601478504,1.0000766217153443,9.88031413824261e-05
-0.46336329152909456,-0.46336329152909456,1.0000726793200965,0.00010228906357872759
-0.4630719218585,-0.4630719218585,0.9999733305664085,9.983119704528359e-05
-0.4629133643255045,-0.4629133643255045,1.000046650989801,0.00010333184203729242
-0.4628202446052455,-0.4628202446052455,1.000083785630534,0.0001001051540093601
