time,time,flux,flux_err
-0.49970352903255844,-0.49970352903255844,1.0000020128295268,4.858496120075076e-05
-0.49873491397981223,-0.49873491397981223,0.9999063009261322,4.855462762344194e-05
-0.49693791874536447,-0.49693791874536447,0.9999875497604157,4.86241538694097e-05
-0.49538910840637984,-0.49538910840637984,0.9999530257003146,4.44044168956936e-05
-0.49472165845145355,-0.49472165845145355,0.9999489142341741,4.4304565359967434e-05
-0.4936466120547266,-0.4936466120547266,0.999895951648982,4.436744933171444e-05
-0.49249274678659277,-0.49249274678659277,0.9999762223617475,4.425845020412026e-05
-0.4912812718845089,-0.4912812718845089,0.9999903626044133,4.446352303668455e-05
-0.49047748778029926,-0.49047748778029926,0.9999828146480059,4.439204251756953e-05
-0.4897287567378953,-0.4897287567378953,0.9999774880289662,4.43517830984292e-05
-0.48883145262952893,-0.48883145262952893,0.9998574926973601,4.431092083967955e-05
-0.4874767575471196,-0.4874767575471196,1.0000034633312498,4.435992662565143e-05
-0.4858758315727755,-0.4858758315727755,0.9999966825646492,4.4420994413973805e-05
-0.48483410075423305,-0.48483410075423305,0.9999573910914824,4.438231105599001e-05
-0.48312984360673,-0.48312984360673,0.9999333284563547,4.432204035380762e-05
-0.48149875607778087,-0.48149875607778087,0.9999083484145102,4.434588951088778e-05
-0.480410941336595,-0.480410941336595,0.9999368770947308,4.43689498103476e-05
-0.47924624835795837,-0.47924624835795837,1.0000009885589525,4.4318620856099406e-05
-0.47831097223679536,-0.47831097223679536,0.9999835602936079,4.435732996657273e-05
-0.47698620077644593,-0.47698620077644593,0.9999883081968648,4.436192690569718e-05
-0.4761512575627421,-0.4761512575627421,1.0000012528481004,4.4304139546571145e-05
-0.4747187079577998,-0.4747187079577998,1.0000202548267234,4.430236385590709e-05
-0.47313758643576875,-0.47313758643576875,1.0000714021031782,4.43343755529675e-05
-0.47134980803530196,-0.47134980803530196,0.9999424540502245,4.444692883970949e-05
-0.47018562439552625,-0.47018562439552625,0.9999599993718912,4.438619333156392e-05
-0.4693436376466707,-0.4693436376466707,1.0000479791993913,4.430199714616851e-05
-0.4674003977037501,-0.4674003977037501,1.0000821372588855,4.429155592419964e-05
-0.4661407056140888,-0.4661407056140888,1.0000390146902307,4.435380432043312e-05
-0.4653982525502215,-0.4653982525502215,0.9999684887011213,4.4346496358645184e-05
-0.4639298037902336,-0.4639298037902336,0.9999149702576755,4.437400516598973e-05
-0.4621403252844175,-0.4621403252844175,0.9999519075674291,4.432962405047967e-05
-0.46079980488066213,-0.46079980488066213,1.0000565671387782,4.437129512189839e-05
-0.45875122077341074,-0.45875122077341074,0.9999884840229377,4.434040773713783e-05
-0.4564630300417775,-0.4564630300417775,0.999942827087026,4.438684208432404e-05
-0.45557850333862004,-0.45557850333862004,1.0000412319258725,4.4300575573764275e-05
-0.45351366739560034,-0.45351366739560034,0.9999162917915699,4.429177652914017e-05
-0.45196815445888205,-0.45196815445888205,0.999992037555683,4.434373803975598e-05
-0.45032826093229233,-0.45032826093229233,0.9999138919895246,4.4248652759460444e-05
-0.44871525515409305,-0.44871525515409305,0.9999787164860668,4.436742601684263e-05
-0.4468440370212193,-0.4468440370212193,1.000014127250833,4.4357593676073283e-05
-0.4452278628355998,-0.4452278628355998,0.9999561631065669,4.437614009581264e-05
-0.44312241641964645,-0.44312241641964645,0.9999775169944382,4.4387348534841105e-05
-0.44195530720680837,-0.44195530720680837,0.9999359732550612,4.43387823663337e-05
-0.44086363124806666,-0.44086363124806666,0.9999581025678796,4.431715715526222e-05
-0.43906255442852854,-0.43906255442852854,1.000057260798353,4.427596460124515e-05
-0.4382190053045633,-0.4382190053045633,0.9998547901198996,4.4319748757645655e-05
-0.43696215174568354,-0.43696215174568354,1.0000232497008845,4.431346932358746e-05
-0.4354519195505418,-0.4354519195505418,0.9999528036921015,4.438127555847432e-05
-0.4334516950926627,-0.4334516950926627,0.9999765095112153,4.434717638624776e-05
-0.4320015187804529,-0.4320015187804529,0.9999260104906696,4.4307350710562636e-05
-0.42994006085427827,-0.42994006085427827,1.0000014203098646,4.434351020589033e-05
-0.42832036720428734,-0.42832036720428734,0.9999333365601586,4.432705733156889e-05
-0.42750061854094384,-0.42750061854094384,1.0000803661098172,4.432856435603286e-05
-0.42625298019047475,-0.42625298019047475,1.0000658982083364,4.4298076504610415e-05
-0.4252419027914584,-0.4252419027914584,1.0000190691541142,4.4371593820021495e-05
-0.42321033031039407,-0.42321033031039407,1.00003382141299,4.431414787748834e-05
-0.4226142889696348,-0.4226142889696348,0.9999515595803043,4.436554079839025e-05
-0.42078169656306275,-0.42078169656306275,1.0000423998879822,4.4263874408681976e-05
-0.4187087075304589,-0.4187087075304589,0.9999749030912051,4.440587824448528e-05
-0.41796260943083324,-0.41796260943083324,0.9998352237501758,4.427327716988968e-05
-0.4161122918842011,-0.4161122918842011,0.9999776866971362,4.425376680642559e-05
-0.41450139403023056,-0.41450139403023056,0.9999971254238662,4.440781861802729e-05
-0.41386920029617613,-0.41386920029617613,1.0001178433309046,4.432875799598233e-05
-0.4125842237255711,-0.4125842237255711,0.999974978095921,4.424845809264512e-05
-0.4110582100132888,-0.4110582100132888,0.999995098613965,4.429125586965557e-05
-0.41004678928584326,-0.41004678928584326,1.0000059084500308,4.4441362041828696e-05
-0.40924671763932563,-0.40924671763932563,1.0000253464568913,4.432689232604981e-05
-0.4083197349726106,-0.4083197349726106,1.000002075133576,4.4312674546111275e-05
-0.40735886483525974,-0.40735886483525974,1.0000361820686727,4.429545582653537e-05
-0.4056941451563034,-0.4056941451563034,0.9999815371471872,4.4442503589752166e-05
-0.4047575498712831,-0.4047575498712831,0.9999348210396286,4.438085560651781e-05
-0.40377853678874087,-0.40377853678874087,1.0000735539583558,4.4338321256943175e-05
-0.40257158875028837,-0.40257158875028837,1.0000330537838753,4.432715999665565e-05
-0.4012998979676922,-0.4012998979676922,0.999929408151047,4.433850765167823e-05
-0.4004278127853468,-0.4004278127853468,0.9999518867300015,4.4386388722429454e-05
-0.39975514098696296,-0.39975514098696296,0.9999684056593722,4.436391283856126e-05
-0.39889769630608496,-0.39889769630608496,0.9999646618684741,4.4372476065860034e-05
-0.3975873571384,-0.3975873571384,0.9999712932987063,4.4283530720063494e-05
-0.3955787221617356,-0.3955787221617356,0.9999969511799556,4.4413085533918676e-05
-0.39466355650656626,-0.39466355650656626,0.9999939010659942,4.445941944694889e-05
-0.39335931148016245,-0.39335931148016245,1.0000096202939386,4.428026552658392e-05
-0.39131356609068463,-0.39131356609068463,1.0000708470231203,4.431705668099302e-05
-0.3902115503246023,-0.3902115503246023,0.9999119212864287,4.4421948776946216e-05
-0.3888527164985135,-0.3888527164985135,0.9999551366285164,4.427299357710421e-05
-0.38762676980986727,-0.38762676980986727,0.9999543086255501,4.435535429683577e-05
-0.38638095621572577,-0.38638095621572577,0.9998354411895866,4.439628336951153e-05
-0.38567395351346934,-0.38567395351346934,0.9999079487954523,4.436008398714607e-05
-0.38461848961233047,-0.38461848961233047,1.0000686055124735,4.436175309027734e-05
-0.3835048782137164,-0.3835048782137164,1.0000638275444063,4.433141451456515e-05
-0.38185900038006365,-0.38185900038006365,0.9999248255429734,4.436919560335606e-05
-0.38011859256221214,-0.38011859256221214,0.9999904766026777,4.437251693022977e-05
-0.3792218213005981,-0.3792218213005981,0.9999814500474684,4.43562936683241e-05
-0.3777719020807126,-0.3777719020807126,1.0000050455379275,4.429413619155392e-05
-0.3760822929034475,-0.3760822929034475,0.9999606383708072,4.430727743049452e-05
-0.3751597149246663,-0.3751597149246663,0.9999720633636706,4.436938808931395e-05
-0.37443198714754544,-0.37443198714754544,0.9999991470958447,4.436096890403208e-05
-0.37224296859421885,-0.37224296859421885,1.000069959355028,4.432867341615534e-05
-0.3706562496990955,-0.3706562496990955,0.9998552902654113,4.4397244402887294e-05
-0.3693395843729377,-0.3693395843729377,0.999970691449376,4.4307543781685026e-05
-0.3670185947077698,-0.3670185947077698,1.0000769148418254,4.4347879758810006e-05
-0.3655140464004944,-0.3655140464004944,0.9999851977989905,4.431741372397636e-05
-0.36397087743098383,-0.36397087743098383,1.0001453613143247,4.433336661024643e-05
-0.3619526218404644,-0.3619526218404644,1.0000820792555007,4.431294300430839e-05
-0.3605059553818137,-0.3605059553818137,0.9999559908339771,4.431055029114695e-05
-0.35912193002659476,-0.35912193002659476,1.0000202276498897,4.429573707238219e-05
-0.3575116159503523,-0.3575116159503523,1.0000264473577682,4.4384811622420287e-05
-0.35569401553439095,-0.35569401553439095,0.9999877640992041,4.429631159975793e-05
-0.3538682965154294,-0.3538682965154294,0.9999927319460159,4.4337218685744636e-05
-0.3521147934065084,-0.3521147934065084,0.9999445633114199,4.4377126378000836e-05
-0.3511871083348524,-0.3511871083348524,0.9999909336713892,4.436733021456062e-05
-0.34941939298441865,-0.34941939298441865,1.0000072989821538,4.4290411746808135e-05
-0.348106643124629,-0.348106643124629,0.9999934306598677,4.440978492885763e-05
-0.3466462277319806,-0.3466462277319806,0.9999955136984262,4.42910901096421e-05
-0.345432656018238,-0.345432656018238,0.999915908645882,4.433492658976504e-05
-0.34364348511953724,-0.34364348511953724,1.000051673014767,4.4264283986272434e-05
-0.3418677029163518,-0.3418677029163518,0.999970143372745,4.4324338639192606e-05
-0.33970738241259824,-0.33970738241259824,1.000031771318755,4.436697830584367e-05
-0.33791695210893524,-0.33791695210893524,1.0000793863684447,4.433464338697226e-05
-0.3371353771966824,-0.3371353771966824,0.9998473832309983,4.42927162729431e-05
-0.33578067142007056,-0.33578067142007056,1.0000237785266883,4.436572545355728e-05
-0.33453716648728005,-0.33453716648728005,0.9999462443608402,4.430611028348367e-05
-0.33271976553296556,-0.33271976553296556,0.999911945164117,4.4313279567101966e-05
-0.33169396428784237,-0.33169396428784237,0.9998781620636426,4.433133956916188e-05
-0.3294101458617661,-0.3294101458617661,0.9999940220547305,4.435235073652268e-05
-0.32802109082986136,-0.32802109082986136,1.000093104032479,4.432563301388821e-05
-0.3272260049401666,-0.3272260049401666,0.9999538861570786,4.430005581241042e-05
-0.32523277533837247,-0.32523277533837247,0.9999627273458083,4.424335529507256e-05
-0.3239421915386629,-0.3239421915386629,1.0000018097625134,4.4432847829129376e-05
-0.32326561191730435,-0.32326561191730435,1.0000203578408382,4.4333727214858167e-05
-0.32184093092510013,-0.32184093092510013,0.9999457722085465,4.425847307556222e-05
-0.3204225553876313,-0.3204225553876313,0.9999134585258285,4.430467899090886e-05
-0.3191242683911696,-0.3191242683911696,1.0000920044874086,4.4405226398560156e-05
-0.3184775342582725,-0.3184775342582725,1.000040702058774,4.43246545727402e-05
-0.3175547884682601,-0.3175547884682601,1.000073153026019,4.4329566556055856e-05
-0.316173776674259,-0.316173776674259,0.9999573391779182,4.4352620870551685e-05
-0.3145469860835874,-0.3145469860835874,1.000016007660108,4.443427638614925e-05
-0.31393988513809745,-0.31393988513809745,0.9999920809618883,4.4351473292458444e-05
-0.31315332831363774,-0.31315332831363774,1.000030335544024,4.4328773684877625e-05
-0.3120812984787335,-0.3120812984787335,0.9999594074696766,4.432408795435005e-05
-0.31098803991626484,-0.31098803991626484,1.000027535903689,4.4412242442550906e-05
-0.30993739727709907,-0.30993739727709907,0.9998626911384255,4.4385789274959215e-05
-0.30926457208406644,-0.30926457208406644,0.9998986535512542,4.43599266407825e-05
-0.3085763498849701,-0.3085763498849701,0.9999813965609237,4.435533230697993e-05
-0.30745545057652635,-0.30745545057652635,1.0000650616253413,4.430091977935227e-05
-0.3054751167190261,-0.3054751167190261,0.9999403336842999,4.4403270678973845e-05
-0.30468464025398134,-0.30468464025398134,0.9999528044371104,4.44194898107457e-05
-0.3037576521295705,-0.3037576521295705,0.9998287359166287,4.438040551747845e-05
-0.30199993774222095,-0.30199993774222095,0.999969523386782,4.4300883082432184e-05
-0.3003287321022071,-0.3003287321022071,1.000058641979346,4.435833062855751e-05
-0.29924680689073285,-0.29924680689073285,1.0000115407068466,4.4333116561937034e-05
-0.29798746274318544,-0.29798746274318544,1.0000430842287882,4.4294915166350565e-05
-0.296574949821661,-0.296574949821661,0.9999993629213861,4.433419838912995e-05
-0.2956506278940651,-0.2956506278940651,0.9999185874157789,4.437390722410697e-05
-0.29472997155899067,-0.29472997155899067,1.0000008551414272,4.433866217659981e-05
-0.2931733361649094,-0.2931733361649094,1.0000476075727935,4.4313593632608884e-05
-0.2917561442678561,-0.2917561442678561,0.999868598642762,4.4366085902780774e-05
-0.29024852664151696,-0.29024852664151696,0.9999658581525093,4.436762028856924e-05
-0.2890500614463235,-0.2890500614463235,1.0000412193273465,4.4399419871993266e-05
-0.2883529800863471,-0.2883529800863471,1.0000317647395085,4.436050609697428e-05
-0.28641991315816995,-0.28641991315816995,1.0000343851622535,4.4292045750093264e-05
-0.28515969328946084,-0.28515969328946084,0.9999480188345121,4.4350644800305266e-05
-0.28427078734093814,-0.28427078734093814,0.9999758648781952,4.4347010401982024e-05
-0.2830307193355111,-0.2830307193355111,1.0000250304991565,4.441131284163688e-05
-0.28127558098276495,-0.28127558098276495,0.9999811759820313,4.434278536306167e-05
-0.2799068281259679,-0.2799068281259679,0.999962625549573,4.437350347811021e-05
-0.2784724627024843,-0.2784724627024843,0.9998740805638325,4.435708298125141e-05
-0.275813804459176,-0.275813804459176,0.9999782287742509,4.4375251007649664e-05
-0.2745997754929704,-0.2745997754929704,0.9999890383627239,4.431186960857256e-05
-0.2721725470386446,-0.2721725470386446,0.9999959033379195,4.427311643663324e-05
-0.27086742312312706,-0.27086742312312706,1.0000129909221316,4.4348224134152606e-05
-0.26968402111670003,-0.26968402111670003,1.000061003548132,4.429936475211327e-05
-0.2677133946257527,-0.2677133946257527,1.0000243503945458,4.436372163050344e-05
-0.2656652354526159,-0.2656652354526159,1.0000727243042775,4.4320017645049066e-05
-0.2639034622836334,-0.2639034622836334,1.000025341855391,4.430018258018117e-05
-0.26189927441664623,-0.26189927441664623,0.9999476988128807,4.4388438304110734e-05
-0.2609310774874757,-0.2609310774874757,1.00009040303908,4.43274915216322e-05
-0.25943868685499183,-0.25943868685499183,1.0000059507248131,4.428214693935678e-05
-0.25788401497193264,-0.25788401497193264,0.999988216102148,4.442769526639056e-05
-0.256834094972146,-0.256834094972146,1.0000122608147173,4.434034252702357e-05
-0.2558076713699847,-0.2558076713699847,0.999971271781907,4.426713609526648e-05
-0.2545436285450705,-0.2545436285450705,1.0000708721728429,4.4341710676215624e-05
-0.2531529900013993,-0.2531529900013993,0.9999800291410516,4.426285655784668e-05
-0.2513771453006484,-0.2513771453006484,1.0000348566226953,4.4324499437208934e-05
-0.2492165231036779,-0.2492165231036779,0.9999679995426629,4.436452184554004e-05
-0.2470603319699876,-0.2470603319699876,1.0000017599019158,4.431498840998494e-05
-0.24624807760992554,-0.24624807760992554,1.0000419326770378,4.433577321370893e-05
-0.24459907462005503,-0.24459907462005503,0.9999717799442418,4.433049109101463e-05
-0.24342098545166663,-0.24342098545166663,1.0000058747166434,4.4294350484398956e-05
-0.2421096558260615,-0.2421096558260615,0.9999288354959912,4.430165883129225e-05
-0.2407225233691861,-0.2407225233691861,0.9999159894825477,4.4328603493846625e-05
-0.23853852365282363,-0.23853852365282363,1.0000287604482119,4.4372151265224394e-05
-0.23724931852339068,-0.23724931852339068,0.9999152459834102,4.427489501302604e-05
-0.2359407018542697,-0.2359407018542697,1.000047985599757,4.427811240879611e-05
-0.2341430719163327,-0.2341430719163327,0.999970315320508,4.441637603778959e-05
-0.2331669289000274,-0.2331669289000274,1.0000522645751062,4.436913975920121e-05
-0.23244802508779686,-0.23244802508779686,0.9999630253401218,4.431884933213342e-05
-0.2310223593703995,-0.2310223593703995,0.9998588900681465,4.427646769788648e-05
-0.22953353096381762,-0.22953353096381762,1.000066235917543,4.439378222862391e-05
-0.22849740432720864,-0.22849740432720864,1.000034562816698,4.435617712439453e-05
-0.2277861311500601,-0.2277861311500601,1.0000260606229943,4.4294039864642965e-05
-0.22672779567728868,-0.22672779567728868,1.0001024275315573,4.4351140787419235e-05
-0.22487164788981318,-0.22487164788981318,1.000029483058014,4.4433764510747595e-05
-0.22377610078328872,-0.22377610078328872,1.0000099975854364,4.438355377431824e-05
-0.2231408977371757,-0.2231408977371757,0.9999598081339378,4.427323799232499e-05
-0.2221194943835144,-0.2221194943835144,0.9998685945771835,4.434151309477868e-05
-0.22056544079896412,-0.22056544079896412,0.9999887012289397,4.441302624950411e-05
-0.21944698249717476,-0.21944698249717476,1.00004415441831,4.439155269347035e-05
-0.21870179377219756,-0.21870179377219756,1.0000202869100192,4.4387633689268004e-05
-0.2177734192533535,-0.2177734192533535,0.999995825376416,4.436871590650052e-05
-0.216636121715419,-0.216636121715419,0.9999682449461232,4.421709900028657e-05
-0.2149910572836234,-0.2149910572836234,0.9999538045115834,4.437536627363284e-05
-0.21409812876809156,-0.21409812876809156,1.0000557813971795,4.440510922102202e-05
-0.2129812292419956,-0.2129812292419956,1.000169559111045,4.4343180313202465e-05
-0.21132981960327016,-0.21132981960327016,1.000031279218629,4.434407568681975e-05
-0.20993894285784337,-0.20993894285784337,0.9999652887492632,4.430937274279489e-05
-0.2092295999143971,-0.2092295999143971,1.0000309554487827,4.442034774021783e-05
-0.2080397665835335,-0.2080397665835335,0.9999936147576186,4.430129620068024e-05
-0.20684085864340887,-0.20684085864340887,0.9999990990470948,4.429613605108675e-05
-0.20541889710148098,-0.20541889710148098,1.0001294118918698,4.433910029493525e-05
-0.20469307916937396,-0.20469307916937396,0.999948243536233,4.4364191673961185e-05
-0.20331464303017127,-0.20331464303017127,1.0000390082141402,4.436016114160893e-05
-0.20235525254902315,-0.20235525254902315,0.9999160081856378,4.431686761208241e-05
-0.20072531101832283,-0.20072531101832283,0.9999830792074398,4.438287088273115e-05
-0.1993048306707351,-0.1993048306707351,1.0001298876255875,4.442197510804648e-05
-0.19841963874932844,-0.19841963874932844,0.9999872549614579,4.4388348590278695e-05
-0.1972408603898657,-0.1972408603898657,0.999934053891953,4.4288208260749846e-05
-0.19535032395724555,-0.19535032395724555,0.9999632005793341,4.426569979512493e-05
-0.19431052582367556,-0.19431052582367556,1.0000372857891622,4.4399437360227766e-05
-0.19345127554042846,-0.19345127554042846,0.999918679516805,4.435491148002962e-05
-0.19109205199638382,-0.19109205199638382,1.0001010555785228,4.435280048480375e-05
-0.1895034447305079,-0.1895034447305079,1.0000281090937009,4.438387892097387e-05
-0.1886025109430193,-0.1886025109430193,0.9999024694378187,4.4323279999894326e-05
-0.1857732365882839,-0.1857732365882839,0.9999152647494007,4.439455587876564e-05
-0.18430182370648254,-0.18430182370648254,1.000019951276281,4.431276683514969e-05
-0.18208367577390164,-0.18208367577390164,1.0001046647355336,4.4367255366585575e-05
-0.18034044565501972,-0.18034044565501972,0.9999656712679842,4.435942570435286e-05
-0.17915288781223354,-0.17915288781223354,0.9999928119713791,4.428353593428324e-05
-0.1767357416516461,-0.1767357416516461,0.9999827652980791,4.441100156983296e-05
-0.1752163931094401,-0.1752163931094401,0.9999551675486618,4.4337258235176155e-05
-0.17308334022309282,-0.17308334022309282,1.000038099172357,4.4289546941338705e-05
-0.17156504206504905,-0.17156504206504905,0.999975578753277,4.444548121271653e-05
-0.17063972516407375,-0.17063972516407375,0.9999782054377263,4.433779600541173e-05
-0.16928637007222277,-0.16928637007222277,1.0000319512490727,4.427820556861532e-05
