time,time,flux,flux_err
-0.4995717967824021,-0.4995717967824021,1.0003587783169379,0.00039613447720035586
-0.49901241213883624,-0.49901241213883624,0.9997953929521637,0.0003866287799222321
-0.49864974231168163,-0.49864974231168163,0.9998229447856174,0.0003842527095667622
-0.49846613178306143,-0.49846613178306143,1.0003375817497024,0.0003874227173952034
-0.4983305481313437,-0.4983305481313437,1.000528317054766,0.000379898022571644
-0.4982411689947185,-0.4982411689947185,0.9999694148684982,0.00037798350123630005
-0.49809751080101705,-0.49809751080101705,0.999808037960003,0.00037575915502176016
-0.49799687317427016,-0.49799687317427016,0.999981797740684,0.00037557972341812886
-0.49699055209202925,-0.49699055209202925,0.9997868203869729,0.0004015324496835997
-0.4957220729913388,-0.4957220729913388,0.9996143442739662,0.00048684165793106077
-0.4945951275134576,-0.4945951275134576,0.9996876357291427,0.0003933986133543281
-0.493449948477064,-0.493449948477064,1.0000375835913655,0.00039574428022948687
-0.492781330026628,-0.492781330026628,1.0001849057174976,0.0003864336180445606
-0.49251464793997,-0.49251464793997,0.9994642135602152,0.00038658670554967957
-0.49232622428025935,-0.49232622428025935,0.9998486552572763,0.0003840353894977567
-0.49222713928829764,-0.49222713928829764,0.9999745250910411,0.0003800558864980699
-0.49214942694161434,-0.49214942694161434,0.9999932380716336,0.00037857920166010646
-0.4920288453402463,-0.4920288453402463,1.0002730191717961,0.0003732282794694039
-0.4919495854548586,-0.4919495854548586,0.9997282811414061,0.0003757027688539403
-0.49109231696420463,-0.49109231696420463,1.0000935300853826,0.00040155974396255254
-0.4902003674498701,-0.4902003674498701,1.0004028410331034,0.0004978831385531889
-0.4890405393540277,-0.4890405393540277,1.000503300860763,0.00039799887662394183
-0.4880958171641396,-0.4880958171641396,1.0003436772870546,0.00039548959871034373
-0.48717789168440506,-0.48717789168440506,0.9999412572574862,0.000395354285000489
-0.4865921518183313,-0.4865921518183313,0.999949494231371,0.00038192063792009674
-0.48636810250900453,-0.48636810250900453,0.9997880200934771,0.00038682083653155785
-0.48619162183458686,-0.48619162183458686,0.9999943396308405,0.0003788644750449669
-0.48608974155722534,-0.48608974155722534,0.9999013458918726,0.0003835013247942324
-0.4860173823944933,-0.4860173823944933,0.9999845528034162,0.0003778188591451767
-0.48588492165217756,-0.48588492165217756,1.0001028096351803,0.0003687936596584572
-0.48565435855416583,-0.48565435855416583,1.0001301947431476,0.00038909731684744176
-0.48448536333962694,-0.48448536333962694,1.0000740348448018,0.00040168229768181
-0.4829206273490854,-0.4829206273490854,1.0001156741534492,0.0003978233265319404
-0.4821614600645262,-0.4821614600645262,1.0001095778046007,0.0003933116868660723
-0.48138052655922364,-0.48138052655922364,0.9993661528118911,0.000396465210883736
-0.48076324720022967,-0.48076324720022967,0.9996574042352874,0.0004027712011084879
-0.48047425981712877,-0.48047425981712877,0.9995274267410357,0.00037740868993768373
-0.48026040060649394,-0.48026040060649394,0.9998344186911103,0.00038419803229093553
-0.4800898932458949,-0.4800898932458949,1.000090317948483,0.00038022293557576773
-0.4799860528182762,-0.4799860528182762,0.9998036004328175,0.00038219145201888834
-0.4799018040554074,-0.4799018040554074,0.9996051820904117,0.00037328657155196474
-0.47976247958285967,-0.47976247958285967,0.9999226275943641,0.0003687348908501642
-0.4791162719018757,-0.4791162719018757,0.9997880315626115,0.00040181610936746245
-0.4777673622353177,-0.4777673622353177,1.0002612835889528,0.00039975539250675844
-0.476437602408987,-0.476437602408987,0.9996782653540895,0.0003957457010099515
-0.4756525396107463,-0.4756525396107463,0.9998778469672571,0.0003938495259538241
-0.4750426522790804,-0.4750426522790804,0.999927146747768,0.0003954894568161579
-0.474580880466965,-0.474580880466965,0.9996173375460135,0.0003940102111888677
-0.4743190714449156,-0.4743190714449156,0.9991818379858545,0.0003842921687980694
-0.4741209378174972,-0.4741209378174972,0.9995874411136103,0.0003844771483463392
-0.4739598554282566,-0.4739598554282566,1.0003144164039606,0.0003776932447418595
-0.47387669583840764,-0.47387669583840764,1.0000268815238762,0.00036992412999188877
-0.4738023977035482,-0.4738023977035482,0.9998919178936321,0.000380136505723768
-0.47366550566730437,-0.47366550566730437,0.9998895552470767,0.00036872596364899776
-0.473257083039789,-0.473257083039789,1.0000708591629546,0.0004017264688028541
-0.47224086811111193,-0.47224086811111193,1.0001809188312991,0.0004017258890545265
-0.4707162263082864,-0.4707162263082864,1.0002705990618093,0.00039573764924959957
-0.4697838290638174,-0.4697838290638174,1.0000927393205323,0.00039546588167474353
-0.4689865351021581,-0.4689865351021581,1.000828443754159,0.0003960047993086537
-0.4684149480141059,-0.4684149480141059,0.9999002905164115,0.00039268136280773067
-0.4681511356582632,-0.4681511356582632,1.0001401696961396,0.0003843438169054631
-0.46793638394228765,-0.46793638394228765,0.9996073604567423,0.0003800840641607469
-0.4678197615110548,-0.4678197615110548,0.9994464581677311,0.00037778757765702126
-0.4677553167421138,-0.4677553167421138,1.000205190728426,0.00038066687945153524
-0.4676364586339332,-0.4676364586339332,1.0000795005987644,0.00036891260565110565
-0.46744754251631093,-0.46744754251631093,1.0006461006263982,0.00038911643174277804
-0.46667644324770663,-0.46667644324770663,1.0002629846436402,0.0004018148302657662
-0.4659328927758907,-0.4659328927758907,0.999949918123181,0.0004050043611112911
-0.4647344098724716,-0.4647344098724716,0.9997546065588029,0.00039985423860257904
-0.46393009310559136,-0.46393009310559136,1.0000173644417854,0.0003992949650488289
-0.463183539435704,-0.463183539435704,0.9997890338272899,0.00039618204385847097
-0.46245986646827075,-0.46245986646827075,1.0003157306875274,0.00039084863461794593
-0.46215191158844393,-0.46215191158844393,1.000502233054947,0.00038549147962152106
-0.4619132249026734,-0.4619132249026734,1.0001852478810342,0.0003842278184307158
-0.4617740604466235,-0.4617740604466235,1.0003008947030185,0.00038018392192169684
-0.4616894669816247,-0.4616894669816247,0.9998992794549484,0.00037387362872825754
-0.4616262367686431,-0.4616262367686431,1.0000931482509317,0.00037984907086980474
-0.4615144393297669,-0.4615144393297669,0.9996748712762781,0.00036870229069655797
-0.46133452524227325,-0.46133452524227325,0.9998064235386778,0.00038883322191741147
-0.4605547597551777,-0.4605547597551777,0.9997558268298781,0.00040182308395239705
-0.4598119154550659,-0.4598119154550659,1.000536509597208,0.00041004065093918913
-0.45859878103656226,-0.45859878103656226,0.9995277453916479,0.0003975295202790236
-0.45790924258108134,-0.45790924258108134,1.0006102875239975,0.00040400948238521905
-0.45721381989860677,-0.45721381989860677,1.0003124310728002,0.0003963378113928667
-0.45645476226709436,-0.45645476226709436,0.9992802613366321,0.00038862613397914754
-0.4561039229884045,-0.4561039229884045,1.0001021417803302,0.00038687635520890675
-0.45580990221424145,-0.45580990221424145,1.0003196731504813,0.0003840887548783503
-0.4556689106626436,-0.4556689106626436,0.9999770239285407,0.0003799845611808713
-0.4555903818974912,-0.4555903818974912,0.9991660572765211,0.0003737226674889175
-0.455521549894911,-0.455521549894911,1.0001875854212248,0.0003799739806190021
-0.45541343948061697,-0.45541343948061697,0.9999456179442578,0.00036874051215729796
-0.4551437182344671,-0.4551437182344671,0.9998051493689468,0.0003955607475968557
-0.4544331632263493,-0.4544331632263493,1.000153366817448,0.0004017603107656819
-0.45350711052960835,-0.45350711052960835,0.9995710737033233,0.00041720139579493255
-0.45229164411648526,-0.45229164411648526,0.9999547720857445,0.0003955583637888525
-0.4517156851645268,-0.4517156851645268,1.0003965645597055,0.0003934584044346885
-0.45099579325760714,-0.45099579325760714,0.999725846391611,0.00040217965610299085
-0.4503465886642516,-0.4503465886642516,1.0001346738877825,0.0003887859504314932
-0.4499962840010994,-0.4499962840010994,1.000270527347442,0.00038675222100045413
-0.44970665944201754,-0.44970665944201754,0.9993209428796899,0.00038407866641033777
-0.4495638293868979,-0.4495638293868979,0.9997295800789301,0.0003800932907573224
-0.44949154585556245,-0.44949154585556245,1.0002641095389169,0.00037316995585713066
-0.4494197546155192,-0.4494197546155192,0.9997841563772394,0.00037370760475043954
-0.44931380472698945,-0.44931380472698945,1.00028813126937,0.00037569667567086606
-0.4490243543761608,-0.4490243543761608,0.9997009846129028,0.0003954839327281479
-0.4483116545881785,-0.4483116545881785,0.9999587071250703,0.0004015765143560991
-0.4473868467968714,-0.4473868467968714,1.0000356445702574,0.0004264921946474336
-0.44617367747123354,-0.44617367747123354,0.9994382840116897,0.0003955972939676172
-0.4453231341132778,-0.4453231341132778,1.0001745276581555,0.0003955903764198118
-0.4446310674626147,-0.4446310674626147,0.9998617983973555,0.00039738678024554727
-0.44405360935925275,-0.44405360935925275,1.0002953531779992,0.00038673958489663014
-0.44373256547842177,-0.44373256547842177,0.9998634108576894,0.00039087986151001747
-0.4435134672712593,-0.4435134672712593,1.000504209484579,0.00037316367987993515
-0.4433953903062502,-0.4433953903062502,0.9998772263666739,0.0003801811675732716
-0.4433367586469103,-0.4433367586469103,1.000085446815381,0.0003735767225834385
-0.44321131844772027,-0.44321131844772027,1.0003441861374665,0.0003756646216088543
-0.4429050620929047,-0.4429050620929047,0.9996011958653561,0.00039548663690722305
-0.44219023494079013,-0.44219023494079013,0.9998813113235888,0.00040160280298127585
-0.4410333369196451,-0.4410333369196451,1.0001147236722525,0.0004018868742174281
-0.4399121628863213,-0.4399121628863213,1.0001292022465431,0.00039560757537218964
-0.43918804815402834,-0.43918804815402834,1.0001375737639997,0.00039361970449656124
-0.4385181829034991,-0.4385181829034991,0.9997456331633942,0.00039596723875685207
-0.4379008800322481,-0.4379008800322481,1.0001034284749433,0.0003910636118193875
-0.43756203850571185,-0.43756203850571185,1.000306935123819,0.0003865409812092043
-0.4373845632377197,-0.4373845632377197,1.000294676578817,0.00037335808741562103
-0.43728558251968935,-0.43728558251968935,1.0003395553727323,0.00037366074631667583
-0.4372039330060943,-0.4372039330060943,0.9992636500338936,0.0003866830969921473
-0.43709643919355584,-0.43709643919355584,1.0001003388534353,0.000368768530685472
-0.4366336699553358,-0.4366336699553358,1.0004052136070996,0.0004020933989971735
-0.43592238211349466,-0.43592238211349466,0.9998694370458716,0.0004017323326482187
-0.43461715551893576,-0.43461715551893576,1.0002139833193975,0.0003996629142583364
-0.43359445084279286,-0.43359445084279286,0.9999552056670209,0.0003956843592768879
-0.4328834340420144,-0.4328834340420144,1.0000120233062482,0.00039461532895518884
-0.4322574451864057,-0.4322574451864057,1.0003477438498851,0.00039437801639951084
-0.431790876006562,-0.431790876006562,0.9997359850670344,0.0003908260645836471
-0.43150810021033975,-0.43150810021033975,0.9997178502655887,0.00037994668694926726
-0.4313149919638818,-0.4313149919638818,0.9999991855633941,0.0003800440022059636
-0.43119566253517405,-0.43119566253517405,0.9993631968386959,0.00037344712008232695
-0.4311264830204891,-0.4311264830204891,1.000218824161232,0.0003802751354201574
-0.43100766695934,-0.43100766695934,1.0003086022080627,0.00037551848566526444
-0.4307706062463694,-0.4307706062463694,0.999893985853012,0.00038891011556434213
-0.4300977815626538,-0.4300977815626538,0.9997831628473769,0.0004019761033941152
-0.429101359017659,-0.429101359017659,0.999799170387733,0.0004017173893052033
-0.4279658299703442,-0.4279658299703442,1.0000686159464869,0.0003956999837976317
-0.42736231703456723,-0.42736231703456723,1.0003459221672246,0.0003933947032041707
-0.426771847877535,-0.426771847877535,1.0000291395849787,0.00039431992927249247
-0.4260035814884759,-0.4260035814884759,0.9999126758913188,0.00039319219213566567
-0.42557652944669827,-0.42557652944669827,1.0002836762634544,0.0003867094747830846
-0.42534303252832617,-0.42534303252832617,0.9999593387194056,0.0003797562822922997
-0.42518843811340046,-0.42518843811340046,0.99989669108161,0.00037317120445755066
-0.42508741584970267,-0.42508741584970267,0.9998684638544294,0.0003735844202015675
-0.4249769594054669,-0.4249769594054669,1.0002688163100657,0.00038029162486771047
-0.4248813674086705,-0.4248813674086705,0.9998537367618955,0.0003757043330268658
-0.42428844539754207,-0.42428844539754207,0.9999248755518668,0.00040166622210281564
-0.42353034982079407,-0.42353034982079407,0.9997193788625772,0.00043787280059165494
-0.4224155031864939,-0.4224155031864939,0.9999777331791642,0.0003998621979102644
-0.4215521173864545,-0.4215521173864545,1.0003279860569745,0.0003957565739846002
-0.4208412455285725,-0.4208412455285725,0.9998169255995693,0.0003919732162208559
-0.4200742334105598,-0.4200742334105598,0.9996360043747009,0.00039544814521774816
-0.419518859974778,-0.419518859974778,1.0000212931362693,0.0003841008395011582
-0.4193227115283662,-0.4193227115283662,1.000296527883372,0.00038439388138088626
-0.4191328034517937,-0.4191328034517937,1.000073408908425,0.0003798595703516602
-0.41901171807112403,-0.41901171807112403,1.0002393336360247,0.0003734574254544357
-0.418902630397497,-0.418902630397497,1.0002492149881212,0.0003802978854542711
-0.41879605930807884,-0.41879605930807884,0.9994963212002166,0.00036868701362971696
-0.41833543765606007,-0.41833543765606007,1.000151465589837,0.00039550288596122116
-0.41741373590994046,-0.41741373590994046,0.9996238882232511,0.00045200540264120895
-0.41621870393064453,-0.41621870393064453,0.9998924954251274,0.00039779483219662127
-0.415247079636174,-0.415247079636174,1.00010844570478,0.0003959740962880434
-0.4144437000177277,-0.4144437000177277,1.0000043348367669,0.0003989118660451575
-0.41378308334897157,-0.41378308334897157,1.0000035802064322,0.00038882794297218884
-0.41337053548413677,-0.41337053548413677,1.0000085081826433,0.0003841920972751315
-0.41318083452060816,-0.41318083452060816,0.9999117517269742,0.000384485556397732
-0.4130048949707998,-0.4130048949707998,0.9997294461765861,0.0003799678784540277
-0.4128941553964978,-0.4128941553964978,1.0001121262488135,0.0003734482003607312
-0.4127670805559319,-0.4127670805559319,0.999885551490822,0.000380069059802994
-0.4126879284885945,-0.4126879284885945,1.000367726557036,0.000368769149596496
-0.4118661524276831,-0.4118661524276831,1.0001459228455094,0.00040163293677337113
-0.41069064929688465,-0.41069064929688465,1.0001328589450924,0.000468063108159289
-0.40944055314248545,-0.40944055314248545,1.0000087176733492,0.0003953765159311509
-0.4084281715811812,-0.4084281715811812,0.9998212654561527,0.00039357103857171294
-0.4076649248658214,-0.4076649248658214,1.0002177591537351,0.0003932941283118998
-0.4072198540859972,-0.4072198540859972,1.000003837247763,0.00038426350513877475
-0.4070408242652775,-0.4070408242652775,1.0001183285160942,0.0003828840412786787
-0.4068813001496892,-0.4068813001496892,0.9999480188986404,0.00038441381102704913
-0.40679550877248405,-0.40679550877248405,0.9995490847849686,0.00037330179849757886
-0.40666307792562295,-0.40666307792562295,1.000007063367121,0.00037331622091233297
-0.40658981820670304,-0.40658981820670304,1.0002146120791224,0.0003757471316039825
-0.40574648022447946,-0.40574648022447946,0.9994176966240733,0.0004016023375737805
-0.4045693885636865,-0.4045693885636865,1.000560322113756,0.0004884978970353544
-0.40332337724539685,-0.40332337724539685,1.0001592017195595,0.0003954951551001438
-0.40217353038970033,-0.40217353038970033,1.0005435104601683,0.0003938104757953468
-0.401440439568978,-0.401440439568978,1.000313946400039,0.0003887996503155698
-0.4010825954959728,-0.4010825954959728,1.0001425523718814,0.0003841729264179983
-0.4008945646244683,-0.4008945646244683,0.9994457942036202,0.00038608411546853076
-0.400763197051856,-0.400763197051856,0.9996736024273218,0.00037976803613060854
-0.40068586056149796,-0.40068586056149796,0.9997575293091503,0.0003783305809653626
-0.40056542823731434,-0.40056542823731434,0.9998049342037335,0.00037305782663814334
-0.40048556583788014,-0.40048556583788014,1.0003167329575786,0.0003756789320223179
-0.3996269052317075,-0.3996269052317075,1.0002005293983722,0.00040169102810420215
-0.39844812187948264,-0.39844812187948264,1.0003948876715234,0.0004979154438384825
-0.39723322462959915,-0.39723322462959915,0.9997884114362435,0.0003957367303523649
-0.3964038838123088,-0.3964038838123088,0.9995915058640404,0.0003975296838857834
-0.3955760898301378,-0.3955760898301378,1.0011541667593173,0.00039348400136079146
-0.39512443767816874,-0.39512443767816874,1.0000104455648806,0.00039200560283586945
-0.39490371645515554,-0.39490371645515554,1.0000902317620768,0.00038642069782275585
-0.3947277770494111,-0.3947277770494111,0.9997900933114812,0.00037860003578914496
-0.39462586242807446,-0.39462586242807446,0.9998071385436468,0.0003833749526211043
-0.39455388333517477,-0.39455388333517477,1.0000619533319852,0.00037768715076263716
-0.3944214433016896,-0.3944214433016896,0.9998318367571841,0.00036871117286456893
-0.39418955667642874,-0.39418955667642874,0.9997358669674492,0.00038893781397842926
-0.39301969616280985,-0.39301969616280985,1.000698750611692,0.0004019579498597062
-0.39156489936285654,-0.39156489936285654,1.0003815286643083,0.0003977646818689441
-0.3908023015203071,-0.3908023015203071,1.0000013497129814,0.00039351822352833124
-0.38997470728718325,-0.38997470728718325,1.0003687181345071,0.0003967241247900137
-0.38936623851550395,-0.38936623851550395,0.999876587426634,0.0003954359329660763
-0.3890664787388232,-0.3890664787388232,0.9995388588464179,0.0003848371680740204
-0.38883714542389497,-0.38883714542389497,1.0003132694143906,0.00038432129912619286
-0.3886553149277461,-0.3886553149277461,1.0002619867872575,0.0003847233756224155
-0.3885345644397603,-0.3885345644397603,1.0000945503230803,0.00038007141265264014
-0.38846321832606917,-0.38846321832606917,1.0003032389669342,0.00037553169790057795
-0.38831613623769956,-0.38831613623769956,0.9996888547366437,0.0003689607027906771
-0.3878746711299755,-0.3878746711299755,1.0003508657384346,0.0003955103349333698
-0.38662219035832096,-0.38662219035832096,0.9996663917674496,0.0004017624379034919
-0.3851737548764504,-0.3851737548764504,0.9999780553694222,0.0003957664864541914
-0.3842968065233435,-0.3842968065233435,0.9998087513326646,0.00039342056370724767
-0.3837063787737861,-0.3837063787737861,0.9996309827888765,0.0003938262954356766
-0.38314466345400433,-0.38314466345400433,0.9994319253570462,0.0003962174753477673
-0.3828551759230322,-0.3828551759230322,0.9999130674100692,0.000384200008953324
-0.38265688148530896,-0.38265688148530896,0.9998175168025185,0.0003843844822498342
-0.3824962409460568,-0.3824962409460568,1.0001946521365395,0.0003778231852875876
-0.382413225275377,-0.382413225275377,0.999987086958364,0.0003699849432386703
-0.3823384257797443,-0.3823384257797443,0.999987208289196,0.0003800530685528692
-0.3822021493630018,-0.3822021493630018,1.000131280073244,0.00036880719874735903
-0.3817915133171482,-0.3817915133171482,1.0002321090416293,0.00040170778973200197
-0.3807752184118726,-0.3807752184118726,1.0003208306183078,0.00040177070514320443
-0.3792509074315603,-0.3792509074315603,0.9998072560398338,0.0003955763540904432
-0.378318799182307,-0.378318799182307,0.9991570927425476,0.00039565341523701837
-0.37752147228311517,-0.37752147228311517,0.9996029291675749,0.00039588075157160187
-0.376950293561822,-0.376950293561822,0.9998836597728366,0.00039241266035368186
-0.37668726080373743,-0.37668726080373743,0.9999875298193116,0.00038426237578173013
-0.3764722995998454,-0.3764722995998454,0.9995283032432715,0.0003801003053612521
-0.3763561323088652,-0.3763561323088652,1.0005494785943179,0.00037765010953621874
