time,time,flux,flux_err
-0.4999538590598604,-0.4999538590598604,1.0000164946775898,8.719553926098547e-05
-0.4997948522750676,-0.4997948522750676,1.0002538491472688,8.544281300050093e-05
-0.499670660574543,-0.499670660574543,0.9999425376397323,8.575989041554447e-05
-0.4995641590015566,-0.4995641590015566,0.9999417481816726,8.541089370765139e-05
-0.49946008364472616,-0.49946008364472616,0.9998807053800789,8.406279645912394e-05
-0.4993401452794842,-0.4993401452794842,1.0000866069179717,8.566198257418211e-05
-0.4992242290479908,-0.4992242290479908,0.9999402279212568,8.612874448554705e-05
-0.4991013846238957,-0.4991013846238957,0.9998766804086451,8.484579633395724e-05
-0.49893470057813827,-0.49893470057813827,0.9999274581967018,8.588646856551068e-05
-0.49884762190768017,-0.49884762190768017,0.9999895443268846,8.761568321463277e-05
-0.49866964130067115,-0.49866964130067115,1.0001501174113723,8.641263015765804e-05
-0.4984527876643824,-0.4984527876643824,1.0000154837763766,8.702733279771127e-05
-0.4982259072250372,-0.4982259072250372,0.9996757074846687,8.755795301719713e-05
-0.49797236527583666,-0.49797236527583666,0.9998608380389016,8.706559113184152e-05
-0.49776402587110624,-0.49776402587110624,1.0000240011620478,8.565979308378468e-05
-0.4976703998179346,-0.4976703998179346,0.9999100655075737,8.714172647310811e-05
-0.4975882091436006,-0.4975882091436006,1.0001637820624736,8.740464202892416e-05
-0.4974978217554735,-0.4974978217554735,1.0000088843296915,8.396862264502028e-05
-0.4973821116154113,-0.4973821116154113,0.9999667401931832,8.886095400668024e-05
-0.4972623274555872,-0.4972623274555872,1.0001293772222257,8.631695461879882e-05
-0.49716109623057037,-0.49716109623057037,1.0001023986289646,8.577537641957399e-05
-0.49706903833446175,-0.49706903833446175,0.9999265429649824,8.645316310365e-05
-0.49696078208835387,-0.49696078208835387,0.999917566242851,8.506697773795472e-05
-0.4968409978432874,-0.4968409978432874,1.0000232777710871,8.72991670634699e-05
-0.4965954070153657,-0.4965954070153657,0.999939593406126,8.696702808596333e-05
-0.49651433231424563,-0.49651433231424563,1.0000020078757252,8.61167162407975e-05
-0.4964274627714758,-0.4964274627714758,1.0001823002146004,8.5950672264552e-05
-0.4962968545055674,-0.4962968545055674,0.9998663236297158,8.493690017488112e-05
-0.49618713920935986,-0.49618713920935986,1.0000269725833815,8.749269195534093e-05
-0.4960666805606479,-0.4960666805606479,1.0000156050275024,8.766273029479912e-05
-0.4959585361772042,-0.4959585361772042,1.000142650283879,8.466213427797457e-05
-0.49586220180292456,-0.49586220180292456,1.0002629597735695,8.539853569390713e-05
-0.4957544851435841,-0.4957544851435841,0.9997870371031125,8.581461014456675e-05
-0.49564259618182405,-0.49564259618182405,0.9999766720899942,8.538344273439552e-05
-0.4955094426916048,-0.4955094426916048,1.000026747894163,8.351662367864649e-05
-0.49540678773689706,-0.49540678773689706,0.9999296796011923,8.527204530216799e-05
-0.49530164554234946,-0.49530164554234946,0.9999270947511668,8.60219641959064e-05
-0.4952274723196751,-0.4952274723196751,1.0000584163407313,8.608590340292645e-05
-0.495109258432808,-0.495109258432808,1.0000805858321502,8.813596496243848e-05
-0.4949532746837349,-0.4949532746837349,1.0002888756672366,8.450051022409566e-05
-0.4948534969749062,-0.4948534969749062,1.0000774906825534,8.5542238023227e-05
-0.49475046529476,-0.49475046529476,0.9999771909082819,8.540050997864947e-05
-0.49464139322506073,-0.49464139322506073,1.0001636385374415,8.512763674774736e-05
-0.49450444684368905,-0.49450444684368905,0.9999740566590107,8.618879896673966e-05
-0.49439902896904186,-0.49439902896904186,1.0000392716717914,8.455575525636323e-05
-0.4942876616455578,-0.4942876616455578,1.0000064900259804,8.485511048369492e-05
-0.49412102471701475,-0.49412102471701475,0.9999636203144127,8.588919179204664e-05
-0.49403393225786657,-0.49403393225786657,0.999935802959995,8.761414669823127e-05
-0.4938559777418277,-0.4938559777418277,0.9999515264547668,8.640173389709281e-05
-0.4937342696046244,-0.4937342696046244,0.9996609342595756,8.678201262003568e-05
-0.4934724609709974,-0.4934724609709974,1.000054785720052,8.807062799641145e-05
-0.49327686414796973,-0.49327686414796973,1.0000469156668639,8.515000208299217e-05
-0.4930614950735389,-0.4930614950735389,1.0000712008018562,8.832250123643155e-05
-0.49291163451407555,-0.49291163451407555,0.9997852440806424,8.386600040008302e-05
-0.49282625923001433,-0.49282625923001433,1.0000850034298427,8.876225194772215e-05
-0.49273274383174337,-0.49273274383174337,0.9999130606860952,8.606855847773276e-05
-0.4926483303105442,-0.4926483303105442,1.0001644683064064,8.72778391119566e-05
-0.49250434707139445,-0.49250434707139445,1.0001476343522668,8.76486664382726e-05
-0.49238324654029386,-0.49238324654029386,1.0000870021125796,8.632783395870819e-05
-0.492292809314722,-0.492292809314722,1.000030226916887,8.723284946540627e-05
-0.4921924395396218,-0.4921924395396218,0.9999926439947087,8.511532729262547e-05
-0.49209466341437746,-0.49209466341437746,1.0000051843939928,8.680873164795411e-05
-0.4918707560343364,-0.4918707560343364,0.9999300001000337,8.576532905022927e-05
-0.4917158617126688,-0.4917158617126688,1.000049964319393,8.618357585141967e-05
-0.491661473260433,-0.491661473260433,0.9999078700290444,8.539300609115712e-05
-0.4915307491480007,-0.4915307491480007,1.0000326892256113,8.539028526008718e-05
-0.49142538852142936,-0.49142538852142936,0.9998632229020329,8.754992732211786e-05
-0.49128706998549204,-0.49128706998549204,1.0002160176523982,8.654504494911929e-05
-0.491201563488562,-0.491201563488562,0.9998241499538268,8.728304389733241e-05
-0.4910797215317643,-0.4910797215317643,0.9999442167443814,8.384228018462416e-05
-0.4909893600079386,-0.4909893600079386,1.0000669714471808,8.691273992337058e-05
-0.49086761202574963,-0.49086761202574963,1.0000221045840405,8.563633819523857e-05
-0.4907525443865325,-0.4907525443865325,1.0000749949427674,8.374657159438453e-05
-0.4906168934746347,-0.4906168934746347,0.9999755666847359,8.530831136380279e-05
-0.49050198565610115,-0.49050198565610115,0.9999936580037059,8.49694536919047e-05
-0.4904330501829463,-0.4904330501829463,1.000191417467456,8.628096620640092e-05
-0.49032650829446994,-0.49032650829446994,1.0001729226720544,8.718161661815959e-05
-0.4901674797420128,-0.4901674797420128,1.000051197029419,8.544554766044929e-05
-0.4900432683589543,-0.4900432683589543,1.0000487641629705,8.573429016432107e-05
-0.4899367716097231,-0.4899367716097231,0.9998462374544221,8.538897105583164e-05
-0.4898531820360631,-0.4898531820360631,0.9998881448182931,8.463091555965344e-05
-0.48971351996838164,-0.48971351996838164,0.9998371230044549,8.641182169104273e-05
-0.48963236520430653,-0.48963236520430653,0.9999288573721887,8.378228992472669e-05
-0.48952483955881687,-0.48952483955881687,1.0000003269441093,8.633291936337987e-05
-0.4893600866744009,-0.4893600866744009,1.0000966895990624,8.498645972922842e-05
-0.4892486408978584,-0.4892486408978584,0.9998000698527783,8.828150884008583e-05
-0.4890776019940404,-0.4890776019940404,1.000277092602241,8.682010402646148e-05
-0.4889278019642006,-0.4889278019642006,1.0003559744573585,8.739898321604136e-05
-0.4887035918842912,-0.4887035918842912,1.0000370523953497,8.659274583883374e-05
-0.48850420790695354,-0.48850420790695354,0.9998996655714759,8.602799720753799e-05
-0.4882901549047801,-0.4882901549047801,1.0000745167538216,8.652693367575899e-05
-0.48811557921490023,-0.48811557921490023,0.9998347923412532,8.593676679795193e-05
-0.488028301488157,-0.488028301488157,1.0000323348993363,8.794676564716787e-05
-0.48794013699805416,-0.48794013699805416,0.9999215553247385,8.728788033076347e-05
-0.4878517179959772,-0.4878517179959772,1.0000483043662813,8.528275531068733e-05
-0.4877388688671999,-0.4877388688671999,0.9998561403331042,8.760476115431583e-05
-0.4876095375330351,-0.4876095375330351,1.000211243357334,8.745424981217176e-05
-0.4875177869315849,-0.4875177869315849,0.9999824650975565,8.39331329296211e-05
-0.4874215049183249,-0.4874215049183249,0.9999109776519621,8.663495503854125e-05
-0.4873162732077844,-0.4873162732077844,1.0000735817506532,8.537846852461545e-05
-0.4871699384516205,-0.4871699384516205,0.9997533617138588,8.694741772646662e-05
-0.4869680309811201,-0.4869680309811201,1.0001120649783297,8.696103567052908e-05
-0.4868869178931618,-0.4868869178931618,0.9999466799639988,8.613502674677644e-05
-0.48680011219560126,-0.48680011219560126,0.9999438977771099,8.589738593183363e-05
-0.4866694418763018,-0.4866694418763018,1.0000221941906315,8.492360171069077e-05
-0.4865598121210951,-0.4865598121210951,0.9999802357282451,8.751066520320062e-05
-0.4864393025706931,-0.4864393025706931,1.0000946934334491,8.770376630862374e-05
-0.4863311795650816,-0.4863311795650816,1.0001126311311732,8.465423660989713e-05
-0.48623483636426956,-0.48623483636426956,1.0001240784203946,8.538955215869944e-05
-0.4861270817109471,-0.4861270817109471,1.0000810253998318,8.583457389662195e-05
-0.48601521775915446,-0.48601521775915446,1.0001038072658606,8.540222009351743e-05
-0.485875597800873,-0.485875597800873,0.9998698101948678,8.464900268295909e-05
-0.48577020666589305,-0.48577020666589305,1.000002064091999,8.530324013094896e-05
-0.48567425829539845,-0.48567425829539845,0.9999550055860938,8.602866725506554e-05
-0.48560011806471265,-0.48560011806471265,0.9998596341891453,8.609941685810467e-05
-0.48548188670222314,-0.48548188670222314,0.9999742376206257,8.814223607475528e-05
-0.4853258817346841,-0.4853258817346841,0.9998756772479979,8.446194709062121e-05
-0.48520784736358563,-0.48520784736358563,0.9998645139148106,8.530553569079441e-05
-0.48510630811651934,-0.48510630811651934,0.9997619162252045,8.589808191423746e-05
-0.48498454152327214,-0.48498454152327214,1.0001280727323867,8.515918890234708e-05
-0.4848645294174275,-0.4848645294174275,1.00001537346233,8.588348257108154e-05
-0.48477163843958804,-0.48477163843958804,1.000099225786197,8.45489557212045e-05
-0.484660215769145,-0.484660215769145,0.9999992635780645,8.48629518337271e-05
-0.4844936730366271,-0.4844936730366271,1.0001564892440231,8.590204284922992e-05
-0.48437366968960305,-0.48437366968960305,1.0001402321306583,8.877620126693811e-05
-0.48419910782643,-0.48419910782643,0.9998891140041113,8.6961074207682e-05
-0.48401378438595655,-0.48401378438595655,1.0002646309370427,8.625035856219633e-05
-0.4838144580734024,-0.4838144580734024,0.9999975300744968,8.876025229580805e-05
-0.4835909356492948,-0.4835909356492948,1.000029554869616,8.47498646774138e-05
-0.48337918215356696,-0.48337918215356696,1.0001072922410366,8.831265853906587e-05
-0.48326916363471356,-0.48326916363471356,0.9999948513924126,8.322667435419424e-05
-0.4831829197659772,-0.4831829197659772,1.000045268974202,8.831334643853887e-05
-0.4830839372407354,-0.4830839372407354,1.0001065173607515,8.577617653772763e-05
-0.48300439634820125,-0.48300439634820125,1.000017711144266,8.757524292435046e-05
-0.48284366332404716,-0.48284366332404716,1.0001110463275922,8.649494803746742e-05
-0.48273800114598087,-0.48273800114598087,0.9999375234378812,8.725010372852835e-05
-0.48264842221749404,-0.48264842221749404,1.000025358909069,8.676969225592761e-05
-0.4825483690875899,-0.4825483690875899,1.0000472097054456,8.406694900703426e-05
-0.48246725589563083,-0.48246725589563083,1.0000418552033516,8.680576831601443e-05
-0.48224337929159444,-0.48224337929159444,0.999923733389922,8.575531337886884e-05
-0.4820884663800598,-0.4820884663800598,0.9999501198713532,8.616026549074731e-05
-0.4820340730741918,-0.4820340730741918,0.9999551951127268,8.539203389592407e-05
-0.4819033448894743,-0.4819033448894743,1.0000951262686932,8.534933210876914e-05
-0.481798068657281,-0.481798068657281,0.9998185327733953,8.754905255067828e-05
-0.4816597111461306,-0.4816597111461306,0.9999274027237572,8.653803495094962e-05
-0.48157419915455646,-0.48157419915455646,0.9999447778928763,8.73150098548275e-05
-0.481452324724728,-0.481452324724728,1.0000910196506805,8.384745354531955e-05
-0.4813620356419278,-0.4813620356419278,0.9999918275977098,8.691316385279522e-05
-0.48122224185704,-0.48122224185704,0.9999293431985873,8.526994525505325e-05
-0.4810618997344818,-0.4810618997344818,0.9998634912070241,8.467361079934347e-05
-0.4809450404863583,-0.4809450404863583,1.00010394293891,8.404280634373384e-05
-0.48083861835311836,-0.48083861835311836,1.0001125527081167,8.72144955575092e-05
-0.48072923061904477,-0.48072923061904477,1.0000133282835064,8.636034092623052e-05
-0.4805764000649333,-0.4805764000649333,0.9999461213224716,8.666016225031275e-05
-0.480441939882553,-0.480441939882553,0.9999648278157889,8.343654869694926e-05
-0.4803489915762157,-0.4803489915762157,1.0000778247010096,8.616618353434494e-05
-0.4802695793739531,-0.4802695793739531,1.000006552798467,8.66890088206377e-05
-0.4801672094425385,-0.4801672094425385,0.999959075746953,8.511121294817494e-05
-0.48005083795005704,-0.48005083795005704,0.9999558660087924,8.58817670817599e-05
-0.47995794318517254,-0.47995794318517254,0.999936090660111,8.453935163866019e-05
-0.47986563231941093,-0.47986563231941093,0.9998725309549545,8.422762380719166e-05
-0.4797146873907877,-0.4797146873907877,0.9998217807111048,8.534266750305294e-05
-0.4796213467894631,-0.4796213467894631,1.000095820311675,8.828209040688627e-05
-0.4794502342843998,-0.4794502342843998,1.0000150508380663,8.679312908146705e-05
-0.47930042243010573,-0.47930042243010573,1.0000543701079332,8.737412523075004e-05
-0.4790535024266319,-0.4790535024266319,0.9999860868054453,8.745259859429984e-05
-0.4788768015743699,-0.4788768015743699,1.0001018918157172,8.60407423106339e-05
-0.47862040183977117,-0.47862040183977117,1.0001193582606198,8.832816694663643e-05
-0.4784690222975769,-0.4784690222975769,0.9999118295921283,8.454169859690273e-05
-0.4783692528406164,-0.4783692528406164,0.9998842622481444,8.830536547902976e-05
-0.47827023774832467,-0.47827023774832467,0.9999064069161078,8.576476385810074e-05
-0.4781763186109401,-0.4781763186109401,0.9998889690789244,8.896382041616475e-05
-0.4780075182036171,-0.4780075182036171,0.9998079388585172,8.629504719963389e-05
-0.47790627601964386,-0.47790627601964386,1.0000061175324348,8.577254468269583e-05
-0.4778142630120783,-0.4778142630120783,1.0000595151343388,8.646054795490955e-05
-0.4777154579607668,-0.4777154579607668,0.9999321277508619,8.408374902421338e-05
-0.47762981277774086,-0.47762981277774086,0.9999839559154514,8.831382735725094e-05
-0.4774433899726773,-0.4774433899726773,0.9999072483489044,8.609887721660827e-05
-0.477287657951706,-0.477287657951706,0.9998047531078843,8.638299038467791e-05
-0.4772391217378754,-0.4772391217378754,0.9999372135853957,8.409668310182221e-05
-0.47711595707644394,-0.47711595707644394,0.9997811612043883,8.657512879551027e-05
-0.47700662081297196,-0.47700662081297196,1.0000314612095402,8.554990592426315e-05
-0.4768803460620802,-0.4768803460620802,0.999964143659029,8.920850884735283e-05
-0.4767895905093155,-0.4767895905093155,1.0000148748416868,8.718559663426042e-05
-0.4766860203441638,-0.4766860203441638,0.9999368248116841,8.442444782650265e-05
-0.4765878113298868,-0.4765878113298868,1.0002174393504013,8.615548207376278e-05
-0.47649138182648587,-0.47649138182648587,1.0001407191094738,8.468145929767941e-05
-0.47634190026499257,-0.47634190026499257,1.0000378069236877,8.537323462312805e-05
-0.47619273826664993,-0.47619273826664993,1.0000776129346725,8.299983328379813e-05
-0.47608107637411196,-0.47608107637411196,1.0000551659354122,8.49567789528548e-05
-0.4759987876293508,-0.4759987876293508,1.000172219942965,8.708250848650215e-05
-0.4758854823508045,-0.4758854823508045,1.0000118908265323,8.716365243604362e-05
-0.4757264210843914,-0.4757264210843914,0.9999817979788201,8.546404834297049e-05
-0.4756021801918905,-0.4756021801918905,0.9998841574355056,8.569222233086924e-05
-0.4754956906876259,-0.4754956906876259,1.0000843260965833,8.540299597631979e-05
-0.47539342568095433,-0.47539342568095433,0.9999267661014694,8.61188086773222e-05
-0.47525425689650547,-0.47525425689650547,0.999990240619292,8.505951625640721e-05
-0.4751693108076097,-0.4751693108076097,0.9999913765034971,8.485038791533125e-05
-0.47507249012744523,-0.47507249012744523,1.0000046694208566,8.639323864763752e-05
-0.4749568283833014,-0.4749568283833014,0.9999195900313034,8.479908279517768e-05
-0.47483319168622984,-0.47483319168622984,1.0000285842949903,8.693015378234448e-05
-0.474670600140621,-0.474670600140621,0.9999695137874575,8.746869353130614e-05
-0.4745182725480845,-0.4745182725480845,1.000059215325844,8.736801379607039e-05
-0.47436804154585843,-0.47436804154585843,1.0000316023341762,8.573580486148215e-05
-0.4741607114642875,-0.4741607114642875,1.0000079326071187,8.731462462022743e-05
-0.47397929866501726,-0.47397929866501726,0.9998753058861342,8.559943166961377e-05
-0.47375180631756847,-0.47375180631756847,1.0002689095026442,8.831262231290518e-05
-0.47363167178448295,-0.47363167178448295,0.9999369142407664,8.555797504954975e-05
-0.473541659794796,-0.473541659794796,0.9998845016377912,8.713417744665912e-05
-0.4734407585199506,-0.4734407585199506,0.9999784150008741,8.525587992216819e-05
-0.47332607291309614,-0.47332607291309614,1.0000527501386878,8.917174119539386e-05
-0.47316843785959006,-0.47316843785959006,0.9999754372620719,8.742457071630459e-05
-0.4730766381532021,-0.4730766381532021,0.9998013441923739,8.393002021293653e-05
-0.4729804197365638,-0.4729804197365638,1.000066646002185,8.664685482554954e-05
-0.4728869765288664,-0.4728869765288664,0.9999261670430248,8.421880206534017e-05
-0.47277250477841337,-0.47277250477841337,1.0001083906736254,8.731162919619106e-05
-0.47252696704872504,-0.47252696704872504,0.999935211587266,8.696165932584416e-05
-0.47244579625426014,-0.47244579625426014,0.9999705967597018,8.615366889208823e-05
-0.4723590864651442,-0.4723590864651442,0.999932558019107,8.583490863067693e-05
-0.4722283230666108,-0.4722283230666108,1.0001805810101305,8.491900496985073e-05
-0.4721188216625706,-0.4721188216625706,0.9998321069497276,8.751252200314732e-05
-0.4720139796851299,-0.4720139796851299,0.9999659157097451,8.7577743582081e-05
-0.4718901447592998,-0.4718901447592998,0.9999380860945204,8.463843701616674e-05
-0.4718056129446495,-0.4718056129446495,0.9999839420044502,8.564126019282478e-05
-0.4717400942001177,-0.4717400942001177,0.9999257958428102,8.670497108358052e-05
-0.47162739947711996,-0.47162739947711996,0.9999418663513296,8.475174686061686e-05
-0.4714620047913513,-0.4714620047913513,0.9999784031338285,8.52150800457682e-05
-0.4713414465774804,-0.4713414465774804,0.9999864569464849,8.408202287772613e-05
-0.4712101691437738,-0.4712101691437738,1.000002240187837,8.615475120731349e-05
-0.4710718070838766,-0.4710718070838766,0.999878573192581,8.714809655562928e-05
-0.4709127349050732,-0.4709127349050732,1.000089842244984,8.547923712129963e-05
-0.4707884841791838,-0.4707884841791838,0.9998538591274124,8.568446309253672e-05
-0.47068199708992325,-0.47068199708992325,1.000008700616086,8.539406490898676e-05
-0.47055184284779444,-0.47055184284779444,0.9998742416981312,8.592512746764541e-05
-0.47042608265310265,-0.47042608265310265,0.9999471241609591,8.603922311720029e-05
-0.47035821484982987,-0.47035821484982987,1.0000671633583669,8.38316580067847e-05
-0.47027036427148233,-0.47027036427148233,1.0000754837353931,8.667221683942287e-05
-0.470171014001744,-0.470171014001744,0.9999019428046996,8.643462880928813e-05
-0.47001952210187026,-0.47001952210187026,0.9999752315756878,8.69310454428057e-05
-0.46988995265146516,-0.46988995265146516,1.000140362821931,8.709675593809502e-05
-0.46972561859588496,-0.46972561859588496,0.9999736393262262,8.633010446147493e-05
-0.46960105418274906,-0.46960105418274906,0.9999595238364544,8.489418552762814e-05
-0.4693943581380381,-0.4693943581380381,1.000034838794019,8.743202073947679e-05
-0.469220029439316,-0.469220029439316,0.9999874705035309,8.478389425019046e-05
-0.46903380684295826,-0.46903380684295826,1.0001163169038934,8.654672293733828e-05
