time,time,flux,flux_err
-0.499941268291271,-0.499941268291271,1.0000566120163583,2.6588434396667434e-05
-0.49982946363888914,-0.49982946363888914,0.999951141351319,2.6676478840619913e-05
-0.4996928167832569,-0.4996928167832569,0.9999925803791546,2.6713006144736988e-05
-0.4995665863049605,-0.4995665863049605,1.000011899742784,2.6715814838257643e-05
-0.4993555793174892,-0.4993555793174892,0.9999346735243064,2.4308047563397887e-05
-0.4992380519019207,-0.4992380519019207,1.0000427665601002,2.4543698826224517e-05
-0.49912167622969716,-0.49912167622969716,1.0000086297015875,2.41765258925164e-05
-0.4990408004217898,-0.4990408004217898,0.9999600521247244,2.443099967985651e-05
-0.4989672446688928,-0.4989672446688928,0.9999735394611058,2.425538388880051e-05
-0.49883860670379365,-0.49883860670379365,1.000038260463625,2.445601294384277e-05
-0.4987142937636236,-0.4987142937636236,1.0000175919924683,2.426523336535111e-05
-0.4986617592810944,-0.4986617592810944,1.0000209787282568,2.4376818592146753e-05
-0.49850831941294016,-0.49850831941294016,1.0000563357618488,2.455450330745764e-05
-0.49837663384823827,-0.49837663384823827,1.0001012295735168,2.4279441070213897e-05
-0.49832243006385396,-0.49832243006385396,1.0000651586063833,2.4569402370495248e-05
-0.49827098370951717,-0.49827098370951717,0.9999780354195025,2.4380246886716448e-05
-0.4982122254419664,-0.4982122254419664,1.0000205481997644,2.431880362556762e-05
-0.498086238396354,-0.498086238396354,0.9999958393947498,2.4081800204798303e-05
-0.4979736755027261,-0.4979736755027261,0.9999971865346966,2.4327820093626362e-05
-0.497885642885376,-0.497885642885376,1.0000271468261819,2.4377078462422978e-05
-0.49778189612916324,-0.49778189612916324,1.000051902447052,2.4267975498537786e-05
-0.49758666268535306,-0.49758666268535306,1.0000505450110055,2.4413522327212517e-05
-0.4974725734689855,-0.4974725734689855,1.0000258285440464,2.4262416780646263e-05
-0.4973687649842759,-0.4973687649842759,0.9998798219415553,2.4202839000457372e-05
-0.4972176286901231,-0.4972176286901231,0.9999980752148696,2.4540687914795114e-05
-0.49702500330313343,-0.49702500330313343,1.0000095537139102,2.4200830746606315e-05
-0.49689209896314424,-0.49689209896314424,1.0000391814216685,2.449536432604578e-05
-0.4968115939249401,-0.4968115939249401,1.0000119457502783,2.4566434171894354e-05
-0.4966738203613204,-0.4966738203613204,0.9999907973251532,2.441417101364007e-05
-0.4964991864821059,-0.4964991864821059,1.000004358718302,2.4511415917654792e-05
-0.496327054304129,-0.496327054304129,0.9999838562268927,2.450212597496707e-05
-0.49618773721085746,-0.49618773721085746,0.9999721719035204,2.426095224402062e-05
-0.49611301812765307,-0.49611301812765307,0.999940555887823,2.4331435753932383e-05
-0.495929387864453,-0.495929387864453,1.0000039946050694,2.4285339270667816e-05
-0.4958318500735913,-0.4958318500735913,0.9999761197386619,2.4357878875298802e-05
-0.49571669184078926,-0.49571669184078926,1.0000357351876505,2.4410007365402496e-05
-0.4956027831307438,-0.4956027831307438,0.9999244871122901,2.4450696753799565e-05
-0.49550961347777045,-0.49550961347777045,1.0000620497363595,2.440802798311361e-05
-0.49533280001414826,-0.49533280001414826,1.0000321889254926,2.425336048317191e-05
-0.4951605417889368,-0.4951605417889368,1.0000558310240453,2.4307089742182005e-05
-0.49505634948654914,-0.49505634948654914,0.999966835876607,2.4322890037638664e-05
-0.4949818884051638,-0.4949818884051638,1.0000192083631516,2.4299156387229927e-05
-0.4948752927062742,-0.4948752927062742,1.0000048976961662,2.446999280668939e-05
-0.49474838927344533,-0.49474838927344533,0.9999441330568672,2.4206243145451132e-05
-0.49465734227342184,-0.49465734227342184,1.000039470281696,2.4095781048886976e-05
-0.49461481924299733,-0.49461481924299733,1.0000009824889318,2.4258913822810032e-05
-0.4944942511050613,-0.4944942511050613,0.9999983842364923,2.4538045760476037e-05
-0.49434256347012706,-0.49434256347012706,1.0000328113765997,2.432642752672856e-05
-0.49423141421575567,-0.49423141421575567,0.9999456234752511,2.4568803360021904e-05
-0.4941481491921877,-0.4941481491921877,1.0000328863950372,2.4374389883101014e-05
-0.4940916402672883,-0.4940916402672883,1.0000656758433268,2.4197026856991686e-05
-0.49403308010369074,-0.49403308010369074,0.9999135689041045,2.4199487123745695e-05
-0.493947360949096,-0.493947360949096,0.9999576537505245,2.4238167150777757e-05
-0.4937926292222983,-0.4937926292222983,1.0000089746019,2.4322176298487712e-05
-0.49355165868255424,-0.49355165868255424,1.0000013312270535,2.4318065436810884e-05
-0.49345183630648537,-0.49345183630648537,0.9999782540763464,2.4380089535767354e-05
-0.49338490699010434,-0.49338490699010434,1.000020754368195,2.426762128573138e-05
-0.49322527606418587,-0.49322527606418587,0.9999354771612626,2.4690301576917355e-05
-0.49309317204533726,-0.49309317204533726,1.0000220631660206,2.417434785072195e-05
-0.49298035464744316,-0.49298035464744316,0.9999929079149255,2.428816210616496e-05
-0.4928235565901559,-0.4928235565901559,1.000020358978178,2.4497458831606267e-05
-0.49274426985284664,-0.49274426985284664,1.000029654842009,2.4316591927836084e-05
-0.4926318567166163,-0.4926318567166163,1.000029974562767,2.4402489114733857e-05
-0.49247788243010293,-0.49247788243010293,1.0000343112602121,2.4389972315952663e-05
-0.4923142219478905,-0.4923142219478905,1.0000504929304763,2.4567219596934038e-05
-0.492129666373512,-0.492129666373512,1.0000523824599896,2.4362766526462714e-05
-0.49205135993106525,-0.49205135993106525,0.9999290879967384,2.432488883008259e-05
-0.4919322834859486,-0.4919322834859486,1.000042896854823,2.4259777828209454e-05
-0.49179252958711006,-0.49179252958711006,0.9999883970767165,2.4164852677970174e-05
-0.4917057398335601,-0.4917057398335601,1.0000509834634757,2.444634067660789e-05
-0.49160845844235157,-0.49160845844235157,1.000046243354091,2.4349322353806747e-05
-0.4914857067182311,-0.4914857067182311,1.0000223349431017,2.4431511482254544e-05
-0.4914301559183514,-0.4914301559183514,1.0000127488920663,2.441265454245398e-05
-0.49120479823031926,-0.49120479823031926,0.9999924259158263,2.4222454357601787e-05
-0.49104932029149495,-0.49104932029149495,1.0000444666370512,2.4535639778265388e-05
-0.490955688541726,-0.490955688541726,1.00003197163724,2.428058544739072e-05
-0.49083103670345735,-0.49083103670345735,1.0000380533527398,2.4306188653044372e-05
-0.4906919721412123,-0.4906919721412123,1.0000313908371161,2.442158508900064e-05
-0.49057816967688267,-0.49057816967688267,0.9999867761578779,2.426149231894865e-05
-0.49050123873894336,-0.49050123873894336,0.9999646925569865,2.4180381519632217e-05
-0.4903866835033114,-0.4903866835033114,0.9999845060599831,2.4604696124709163e-05
-0.49023872631878473,-0.49023872631878473,1.0000013568489956,2.4438721638204765e-05
-0.4901152207137784,-0.4901152207137784,0.9999451331168879,2.4390841136771734e-05
-0.4900136539821688,-0.4900136539821688,1.000007491567655,2.4216248869595152e-05
-0.4899423713883152,-0.4899423713883152,1.000028141076268,2.4284213248677783e-05
-0.48986463679902953,-0.48986463679902953,0.9999403017788918,2.4238791951181894e-05
-0.48978479023935506,-0.48978479023935506,0.9999887418599285,2.452435204720273e-05
-0.4896584828878986,-0.4896584828878986,1.0000093799219727,2.44916485931793e-05
-0.4895002550292702,-0.4895002550292702,1.0000034530792437,2.4245794033714487e-05
-0.4893883398130129,-0.4893883398130129,1.0000172072354445,2.4332730558776496e-05
-0.4893033983003988,-0.4893033983003988,1.0000402782535012,2.420313016787727e-05
-0.48925127026377596,-0.48925127026377596,0.9999360552681601,2.4257443781380162e-05
-0.48908430702285843,-0.48908430702285843,0.9999848940465903,2.474028526734526e-05
-0.48893026580335575,-0.48893026580335575,1.0000103245807823,2.43098962316947e-05
-0.4888058030504908,-0.4888058030504908,0.9999824163707295,2.4560512200172933e-05
-0.48868302085465987,-0.48868302085465987,1.0000022775092754,2.4240454878710015e-05
-0.48860088932342477,-0.48860088932342477,1.0000007046794104,2.4318237052777608e-05
-0.48852963673271005,-0.48852963673271005,1.0000570393580577,2.4406463999276735e-05
-0.4883501306452672,-0.4883501306452672,1.000049555852516,2.4736247110131438e-05
-0.48821466112494816,-0.48821466112494816,0.9999735511182907,2.439522085431837e-05
-0.4879629422466678,-0.4879629422466678,1.0000276045107341,2.4437221727141964e-05
-0.4878463563400146,-0.4878463563400146,0.9999672788632452,2.417599206601735e-05
-0.48774391935367023,-0.48774391935367023,1.0000166210478119,2.424290503895122e-05
-0.4876291983520787,-0.4876291983520787,0.999945116341037,2.418986557273781e-05
-0.4875339785539836,-0.4875339785539836,0.9999792218849471,2.435070665639158e-05
-0.4873916145894327,-0.4873916145894327,1.0000481762007243,2.429421446690809e-05
-0.487266188821377,-0.487266188821377,0.9999867779409527,2.4264279839189138e-05
-0.48718703728955004,-0.48718703728955004,0.999937756691935,2.419807022642527e-05
-0.48703407233406326,-0.48703407233406326,0.9999635272911547,2.4482804611307723e-05
-0.4869052183275926,-0.4869052183275926,0.9999980681750837,2.4268557125020958e-05
-0.48684111248803674,-0.48684111248803674,0.9999959470313449,2.4343101986950285e-05
-0.48666967958342866,-0.48666967958342866,0.9999986495676556,2.444723733501606e-05
-0.48651330271168264,-0.48651330271168264,1.0000289063938639,2.4097484785846818e-05
-0.48642934520976266,-0.48642934520976266,0.9999721833024597,2.4328911442659144e-05
-0.48633002745482373,-0.48633002745482373,1.0000154034365694,2.4549679845412355e-05
-0.4861473717959598,-0.4861473717959598,1.0000213257520862,2.4605290819521025e-05
-0.48600020483645495,-0.48600020483645495,0.9999442968653763,2.42917020953001e-05
-0.485871606865112,-0.485871606865112,1.0000431177896132,2.434369392736263e-05
-0.48576095947355497,-0.48576095947355497,0.999997732643204,2.456302972198706e-05
-0.48563750865068867,-0.48563750865068867,0.9999950534840144,2.4541188389096363e-05
-0.4854501935369626,-0.4854501935369626,1.0000095341290378,2.425698296459507e-05
-0.485320252123347,-0.485320252123347,0.9999784865154385,2.4252580584625655e-05
-0.4852190812351182,-0.4852190812351182,0.9999940474411785,2.4284177907279183e-05
-0.4851658108258562,-0.4851658108258562,0.9999530328083234,2.4190456266281607e-05
-0.48504200870229397,-0.48504200870229397,1.000014490676695,2.466198633129678e-05
-0.4848809563445684,-0.4848809563445684,0.9999988155563754,2.432129447661596e-05
-0.48473406526682083,-0.48473406526682083,0.99996095633568,2.457271050301054e-05
-0.48463989018127906,-0.48463989018127906,0.9999472119847044,2.4549782055125877e-05
-0.48453099294565616,-0.48453099294565616,1.0000087128848807,2.4238114864149402e-05
-0.4844404759751342,-0.4844404759751342,1.0000374521504802,2.4327387877521977e-05
-0.48426839027160895,-0.48426839027160895,0.9999809188250509,2.4635245187831644e-05
-0.48413551250923775,-0.48413551250923775,1.000013538646783,2.442447430725733e-05
-0.4840124652328086,-0.4840124652328086,0.9999667210061631,2.4309473694103216e-05
-0.4838438816426788,-0.4838438816426788,0.9999811371918007,2.457390103392947e-05
-0.48376379658511726,-0.48376379658511726,1.0000064495636578,2.4304138637079006e-05
-0.4837076595700637,-0.4837076595700637,0.9999708395518562,2.4328968282557617e-05
-0.4835915369461873,-0.4835915369461873,0.9999781240419896,2.4274834273518143e-05
-0.4834748021617997,-0.4834748021617997,1.000022159494808,2.442111976498449e-05
-0.4833106429585314,-0.4833106429585314,0.9999559342524005,2.4253187914071632e-05
-0.4831956371817796,-0.4831956371817796,0.9999500325916937,2.425278325413532e-05
-0.4831255159988359,-0.4831255159988359,1.000066156644528,2.4292185975310212e-05
-0.48303861806343773,-0.48303861806343773,0.9999508456246385,2.4378789752579955e-05
-0.48294509201150504,-0.48294509201150504,1.000028345931073,2.4326586569486495e-05
-0.48285136843187504,-0.48285136843187504,1.0000184848925968,2.4279646305921727e-05
-0.4827838040626375,-0.4827838040626375,0.9999944131239176,2.4210806738010854e-05
-0.4826674829535477,-0.4826674829535477,0.9999548974052613,2.453298925288236e-05
-0.4824898425846186,-0.4824898425846186,0.9999746736755949,2.4285163185747517e-05
-0.4823242812977696,-0.4823242812977696,0.9999830572945079,2.4469126744527314e-05
-0.4821816210751422,-0.4821816210751422,1.0000148275185081,2.4241570095364525e-05
-0.482064682032069,-0.482064682032069,0.9999807734271343,2.4537617580798234e-05
-0.48193187480719646,-0.48193187480719646,0.9999605898256366,2.419611966093931e-05
-0.48179159034843905,-0.48179159034843905,0.9999925906719707,2.4509287069140637e-05
-0.48165497164663973,-0.48165497164663973,0.9999916815108116,2.4392707132526802e-05
-0.4815753415394283,-0.4815753415394283,1.0000118191603526,2.4225602232705083e-05
-0.4814672867840272,-0.4814672867840272,1.0000177514622435,2.448003406993434e-05
-0.48130295779337756,-0.48130295779337756,1.0000682888187207,2.4412268964826163e-05
-0.48119875912743737,-0.48119875912743737,1.0000227570369364,2.4224813753608728e-05
-0.48108637637633367,-0.48108637637633367,1.0000011085500797,2.433145814974012e-05
-0.48102279587910746,-0.48102279587910746,1.0000456439419025,2.4368301773695863e-05
-0.4809132205460628,-0.4809132205460628,0.9999770412642803,2.4593742143800156e-05
-0.48074151032924417,-0.48074151032924417,1.0000068636111865,2.4281379015424406e-05
-0.48062404058218816,-0.48062404058218816,0.9999231321794559,2.4454136226652368e-05
-0.4805356208635203,-0.4805356208635203,0.9999822374883734,2.438612232912459e-05
-0.4804018444920075,-0.4804018444920075,1.0000652287686873,2.440699239648071e-05
-0.4802586026242352,-0.4802586026242352,1.0000325799357763,2.4562800656662643e-05
-0.48014202809354173,-0.48014202809354173,1.0000189685304268,2.4331379069511557e-05
-0.48005999937595334,-0.48005999937595334,1.000028284983997,2.4573479078862898e-05
-0.4799080315977335,-0.4799080315977335,0.9999651413116009,2.4317902004070598e-05
-0.4797430356775294,-0.4797430356775294,0.999976556951963,2.4273654358629862e-05
-0.479666722244292,-0.479666722244292,1.0000178905482626,2.4358584918870405e-05
-0.4796100381143333,-0.4796100381143333,0.9999822182817134,2.4333451138154685e-05
-0.4795013891081908,-0.4795013891081908,1.0000300482961035,2.4492255853533013e-05
-0.4793840443380759,-0.4793840443380759,0.9999294833737202,2.4333216940435416e-05
-0.47926347956599785,-0.47926347956599785,1.000045502109689,2.4341588532325558e-05
-0.4791895254449628,-0.4791895254449628,1.0000144952678363,2.4242706355195742e-05
-0.47910390395481955,-0.47910390395481955,1.000005247256762,2.4164221431474886e-05
-0.479032615932374,-0.479032615932374,1.000001406410215,2.4308014823156268e-05
-0.47893502515507863,-0.47893502515507863,1.0000136107610698,2.4253551718075576e-05
-0.4788427647028584,-0.4788427647028584,1.0000129437202598,2.4476686875574736e-05
-0.47874587953701847,-0.47874587953701847,1.0000180497147115,2.421815702452085e-05
-0.4786374037612404,-0.4786374037612404,0.9999370032852267,2.434956962317875e-05
-0.4784009683353361,-0.4784009683353361,0.9999894172357402,2.4335843579897268e-05
-0.478207592277613,-0.478207592277613,0.9999807027357888,2.450825094226245e-05
-0.47811408036141073,-0.47811408036141073,0.9999924359634835,2.4307123053779097e-05
-0.4779310239464394,-0.4779310239464394,1.0000070941927146,2.4572974523377588e-05
-0.4778489795346104,-0.4778489795346104,0.9999036231454685,2.4262577440870763e-05
-0.47776248920563374,-0.47776248920563374,0.9999725477719548,2.434409341910008e-05
-0.4776479257743631,-0.4776479257743631,0.9999945386613162,2.449620510697741e-05
-0.4775346093258122,-0.4775346093258122,0.9999535566677485,2.429238122728127e-05
-0.47750176943736733,-0.47750176943736733,1.000006787986813,2.4269597312113793e-05
-0.4774472468503518,-0.4774472468503518,1.0000313203082418,2.4486166259639183e-05
-0.4773074542834365,-0.4773074542834365,1.0000184159151213,2.4162437878600024e-05
-0.4772010099615727,-0.4772010099615727,1.0000170214571125,2.417832749335064e-05
-0.47713473351177527,-0.47713473351177527,0.9999886712781253,2.4280620828040213e-05
-0.47702126312287874,-0.47702126312287874,1.0000415336528605,2.4260795814828066e-05
-0.47693958052987,-0.47693958052987,1.000013811094027,2.4509590098322913e-05
-0.47684294140563,-0.47684294140563,1.0000360201111016,2.4332490220119093e-05
-0.4766880403542018,-0.4766880403542018,0.9999909267213631,2.4123092113785342e-05
-0.47656815386289963,-0.47656815386289963,0.9999881536416737,2.4487119413930697e-05
-0.4764811835360888,-0.4764811835360888,1.0000144427971533,2.4326562145127665e-05
-0.47639179561738276,-0.47639179561738276,1.0000254858424367,2.4385102668941624e-05
-0.4762032278413244,-0.4762032278413244,0.9999519063902031,2.4173527568856284e-05
-0.47613826564338524,-0.47613826564338524,0.9999772214540616,2.4571480625852318e-05
-0.4760336262654164,-0.4760336262654164,1.0000375075764079,2.4642339940543284e-05
-0.47587393946087103,-0.47587393946087103,1.000041831754248,2.4265907279963695e-05
-0.4757417288448778,-0.4757417288448778,1.0000133877357718,2.4248405871232347e-05
-0.4756515354951262,-0.4756515354951262,1.000051442321552,2.424181443468471e-05
-0.47553928318302496,-0.47553928318302496,1.0000640629591024,2.4262557574247897e-05
-0.4754458052229893,-0.4754458052229893,0.9999997790660717,2.449722559722742e-05
-0.4753020629497769,-0.4753020629497769,1.0000067293661883,2.4356252877201362e-05
-0.47515313322874136,-0.47515313322874136,0.9999759776831432,2.4248478154180376e-05
-0.47506734398848494,-0.47506734398848494,0.9999948119685197,2.4331792073209696e-05
-0.4749670157572837,-0.4749670157572837,0.9998465498628726,2.4139349623761305e-05
-0.47480067230644635,-0.47480067230644635,0.9999596267558326,2.4494933597932977e-05
-0.4746978151015355,-0.4746978151015355,0.9999989699010892,2.4156161010936e-05
-0.4745656570266874,-0.4745656570266874,0.9999369320292466,2.4325640612932342e-05
-0.47441737456829286,-0.47441737456829286,0.9999457184477161,2.4355906978238877e-05
-0.4742907765910786,-0.4742907765910786,1.0000510780783656,2.432255881110482e-05
-0.47417133870039835,-0.47417133870039835,0.9999982740505933,2.4467066632801166e-05
-0.47406483734521315,-0.47406483734521315,1.0000051631941005,2.432796285767939e-05
-0.47396793916777824,-0.47396793916777824,0.9999643873168298,2.4530360187920045e-05
-0.47383460743003525,-0.47383460743003525,1.0000298615545455,2.4210934370735888e-05
-0.4737511443097901,-0.4737511443097901,1.000002598308434,2.436190928699842e-05
-0.4736389802616031,-0.4736389802616031,0.9999905214332265,2.4557717900572196e-05
-0.47352782580346686,-0.47352782580346686,0.999963994916917,2.4438452435228895e-05
-0.47342904750112214,-0.47342904750112214,1.000074917640785,2.4296746783972727e-05
-0.47338316507666606,-0.47338316507666606,0.9999825791680464,2.451569797864145e-05
-0.47333858483543734,-0.47333858483543734,1.0000195581210696,2.4253910453709308e-05
-0.47323417248553595,-0.47323417248553595,0.9999614109435779,2.4446975590581284e-05
-0.47311213633729493,-0.47311213633729493,0.9999875084299383,2.4257513236957614e-05
-0.473023541198927,-0.473023541198927,1.0000327391639883,2.4264659486701987e-05
-0.47289991801299036,-0.47289991801299036,1.0000223040250291,2.4595115365302585e-05
-0.47279792130793796,-0.47279792130793796,1.000026526753279,2.432568428815525e-05
-0.4726687570248032,-0.4726687570248032,1.0000871891921297,2.4267873125895596e-05
-0.47254613805853296,-0.47254613805853296,0.9999414853506987,2.4357010728491484e-05
-0.4724322630630923,-0.4724322630630923,0.9999891981951311,2.4253811658864234e-05
-0.47232179126804114,-0.47232179126804114,0.9999524471614872,2.439844687560546e-05
-0.4722287864482496,-0.4722287864482496,0.9999622795785502,2.4344752491178936e-05
-0.4720894409583707,-0.4720894409583707,1.0000397560517562,2.4503305765870535e-05
-0.47200849806758927,-0.47200849806758927,0.9999493446901173,2.4498773636017107e-05
-0.4718957480297831,-0.4718957480297831,0.999995271340976,2.4474457377570554e-05
-0.4717671877995599,-0.4717671877995599,1.0000789968887687,2.4185906523162044e-05
