time,time,flux,flux_err
-0.4998139317928387,-0.4998139317928387,0.9999743637947583,5.531158292670106e-05
-0.49971452914663433,-0.49971452914663433,0.9999865073593871,5.526905896437906e-05
-0.4995563284167777,-0.4995563284167777,0.9999911778307253,5.558797408254853e-05
-0.49940258776114205,-0.49940258776114205,0.9999758750994221,5.100121897968272e-05
-0.49933383002862686,-0.49933383002862686,0.9999505610655834,5.0998732829304566e-05
-0.4991568512683443,-0.4991568512683443,1.0000115030324572,5.152028338982984e-05
-0.49895869928150205,-0.49895869928150205,1.0000474084009585,5.1092964669229675e-05
-0.4986586513950897,-0.4986586513950897,0.9999032543513676,5.107679912323143e-05
-0.4984758158912882,-0.4984758158912882,0.9999348168718185,5.058939901691563e-05
-0.49828978350778924,-0.49828978350778924,0.9999930434107178,5.086026384810182e-05
-0.4980845140191377,-0.4980845140191377,0.9998855801167666,5.057513199524401e-05
-0.4979203984286869,-0.4979203984286869,0.9999190848472892,5.083964245674305e-05
-0.4977374860420241,-0.4977374860420241,1.0000438198913097,5.022075914584355e-05
-0.4974019077824778,-0.4974019077824778,1.0000132854698403,5.133849730850166e-05
-0.49724878795459515,-0.49724878795459515,1.000058311486805,5.08936952564084e-05
-0.49701904976027433,-0.49701904976027433,0.9999676840538569,5.0746882847534266e-05
-0.49690874888328834,-0.49690874888328834,1.0000394113269508,5.082446344370882e-05
-0.4967216914330493,-0.4967216914330493,0.9999970638240722,5.0834454705738714e-05
-0.4966032948133943,-0.4966032948133943,1.0000569412521016,5.054121051065509e-05
-0.4964066072163405,-0.4964066072163405,1.000086470861331,5.2128402497877665e-05
-0.49601925538590874,-0.49601925538590874,1.0000229000733662,5.1133153219876646e-05
-0.49594158714535297,-0.49594158714535297,0.999958992689179,5.0194998402784676e-05
-0.4958370435859251,-0.4958370435859251,1.0000360084704583,4.9981823345486205e-05
-0.4957258885719057,-0.4957258885719057,1.0000670361463322,5.095175660352018e-05
-0.49558075166714843,-0.49558075166714843,1.0000149386465254,5.088952776881725e-05
-0.4953710477551795,-0.4953710477551795,0.9999324702731126,5.093376043336544e-05
-0.49528508624789536,-0.49528508624789536,1.000007510706467,5.057677918758279e-05
-0.49521505436641744,-0.49521505436641744,1.0000351035084887,5.058317215171453e-05
-0.4950581084209261,-0.4950581084209261,1.0000127731625783,5.118855838628978e-05
-0.4948683048845851,-0.4948683048845851,1.0000254086321312,5.1146494866079214e-05
-0.4946907123361598,-0.4946907123361598,1.0000195593158436,5.019626434056634e-05
-0.4945918488127063,-0.4945918488127063,1.000006596737132,5.112865525128675e-05
-0.494416486404225,-0.494416486404225,1.0000294384735817,5.218152945319673e-05
-0.49421013297469474,-0.49421013297469474,1.0000581477734252,5.1481825111863346e-05
-0.494056593113055,-0.494056593113055,0.9999298330660393,5.068687844164971e-05
-0.49373440338094954,-0.49373440338094954,1.000077695951177,5.1188348835524525e-05
-0.4935243866057135,-0.4935243866057135,0.9999911404650049,5.109710829938978e-05
-0.4933348990009108,-0.4933348990009108,1.0000051981444298,5.117345625419999e-05
-0.49301973173060104,-0.49301973173060104,1.0000672772740844,5.0677928776676556e-05
-0.492792524365359,-0.492792524365359,1.000019172271665,5.142170564060513e-05
-0.4926082960490021,-0.4926082960490021,1.0000218496916993,5.099760481410362e-05
-0.49243909290307786,-0.49243909290307786,0.9999312294302671,5.054219671576408e-05
-0.4921649936899485,-0.4921649936899485,0.9999900231763457,5.0760311139159835e-05
-0.49197513785184127,-0.49197513785184127,0.9999537696830971,5.1224874996324544e-05
-0.49174921027806706,-0.49174921027806706,1.000035198267731,5.0998691541441314e-05
-0.49152291205100485,-0.49152291205100485,1.0000219753218689,5.0789613894326206e-05
-0.49131873713995444,-0.49131873713995444,1.000033097613073,5.0545541122362906e-05
-0.4912498057812627,-0.4912498057812627,1.0000087434691554,5.068860918820496e-05
-0.4910957985339337,-0.4910957985339337,1.000014602238339,5.0290293436754605e-05
-0.4909550726377347,-0.4909550726377347,1.000080099924093,5.0879195471405486e-05
-0.49080642551271014,-0.49080642551271014,1.0000390662380432,5.091094075620231e-05
-0.49073635850436403,-0.49073635850436403,0.9998949669523138,5.123885324256703e-05
-0.490627662139741,-0.490627662139741,1.0001141379644802,5.105105355870852e-05
-0.4905106691112451,-0.4905106691112451,0.9999818876435352,5.1016935599856155e-05
-0.49036681611760286,-0.49036681611760286,0.999970232618886,5.054175567050672e-05
-0.49019720762880753,-0.49019720762880753,1.0000342310699855,5.100343812088457e-05
-0.49008612993493444,-0.49008612993493444,1.000057446456707,5.01323036460401e-05
-0.4899034886555455,-0.4899034886555455,0.999897370493049,5.1747428016182505e-05
-0.48976238366158215,-0.48976238366158215,0.999933850562687,5.052852383215214e-05
-0.4895649954320106,-0.4895649954320106,0.9999744433261558,5.096802111082456e-05
-0.489399697646877,-0.489399697646877,1.0000193185458248,5.023008033328732e-05
-0.4892937742777576,-0.4892937742777576,0.9999053037946798,5.078432684359922e-05
-0.48897728004449165,-0.48897728004449165,1.000007881895977,5.065416014430234e-05
-0.4887227510778757,-0.4887227510778757,1.0000456940132043,5.123682404804666e-05
-0.48853141958097696,-0.48853141958097696,1.000012111770523,5.081400436244333e-05
-0.48831491090240886,-0.48831491090240886,1.0000525013565258,5.02509564724524e-05
-0.48818470148617055,-0.48818470148617055,0.9999749032062691,5.0971240015474404e-05
-0.4879733233079605,-0.4879733233079605,0.9999419309163347,5.087425717266256e-05
-0.4878417401407205,-0.4878417401407205,0.9999599384187837,5.1688409898074105e-05
-0.4877038346894551,-0.4877038346894551,0.9999472345355047,5.035748037404359e-05
-0.48748912187074894,-0.48748912187074894,0.9998984973722914,5.081868116246557e-05
-0.48729521657005537,-0.48729521657005537,0.999962848843513,5.044951008338805e-05
-0.4870816369802924,-0.4870816369802924,1.0000099089842451,5.13629040652287e-05
-0.4868853620282607,-0.4868853620282607,1.0000456421619153,5.047491217676246e-05
-0.48671147930654113,-0.48671147930654113,1.0000034677717173,5.1153354550971335e-05
-0.4866271855280502,-0.4866271855280502,1.0000567111031557,5.0129186355215934e-05
-0.4864259247893642,-0.4864259247893642,0.9999065325097396,5.043433762709749e-05
-0.4862943109350454,-0.4862943109350454,0.999999598864685,5.115903491187063e-05
-0.4861571228910179,-0.4861571228910179,1.0000023628247505,5.0353657865727135e-05
-0.486000410548877,-0.486000410548877,1.000141579344874,5.1058320628194315e-05
-0.4859190384260728,-0.4859190384260728,1.0000272699517703,5.136757926053191e-05
-0.48575591334156343,-0.48575591334156343,1.0000772234494926,5.10680060265441e-05
-0.48563354004363646,-0.48563354004363646,0.9999611520040554,5.121599537133518e-05
-0.4854971922315599,-0.4854971922315599,0.9999695027780374,5.086190277700849e-05
-0.4853879929440154,-0.4853879929440154,1.0000045394151655,5.0457290894680334e-05
-0.4852208452706691,-0.4852208452706691,1.0000217950522072,5.069374618392863e-05
-0.4849572265782626,-0.4849572265782626,1.0000352331548652,5.128969074956944e-05
-0.48467676507643775,-0.48467676507643775,0.9999812337442924,5.129995449525963e-05
-0.4845172756780812,-0.4845172756780812,1.0000880013978537,5.096277477715617e-05
-0.48427877874637487,-0.48427877874637487,1.0000406952769463,5.142565760481363e-05
-0.4841515689266089,-0.4841515689266089,0.9999516415615843,5.092791085500232e-05
-0.484000565091992,-0.484000565091992,1.000034344027778,5.129897617653718e-05
-0.4837608601221291,-0.4837608601221291,0.9999995492192835,5.068697601245262e-05
-0.4835460757931287,-0.4835460757931287,1.0000242408825593,5.106155783920489e-05
-0.4833922667312436,-0.4833922667312436,0.999963327129324,5.105008953630604e-05
-0.48327524500127766,-0.48327524500127766,0.9999789419344234,5.070216779397059e-05
-0.48298653130914315,-0.48298653130914315,1.0000170193879239,5.099762736136326e-05
-0.48273871628189224,-0.48273871628189224,0.9998345631831784,5.082975587979858e-05
-0.4826649339804135,-0.4826649339804135,0.9999445990395172,5.062388454092709e-05
-0.48254114556257266,-0.48254114556257266,1.0000929803581777,5.010414421745507e-05
-0.4823443914538075,-0.4823443914538075,1.0000491447054318,5.127849590451281e-05
-0.4822037599456962,-0.4822037599456962,1.0001700994468912,5.145455202653939e-05
-0.4821189513102581,-0.4821189513102581,0.9999861576372217,5.06732312375787e-05
-0.4819374987091578,-0.4819374987091578,0.9999129267150602,5.032806085714839e-05
-0.48184187471924816,-0.48184187471924816,1.0000182488346243,5.0658199597635724e-05
-0.4817752355134871,-0.4817752355134871,0.99987978413508,5.085600218291378e-05
-0.48155650797925775,-0.48155650797925775,0.999879872790021,5.031406192210508e-05
-0.4814618855554727,-0.4814618855554727,0.999948517119222,5.117089157299213e-05
-0.4813984987435106,-0.4813984987435106,0.9998908635733919,5.096864293120238e-05
-0.48113018654548795,-0.48113018654548795,1.0000106202521937,5.1516729203925595e-05
-0.48086577642025075,-0.48086577642025075,1.0000449918851189,5.038547922676213e-05
-0.48061390655930153,-0.48061390655930153,0.9998800178695891,5.150259055840515e-05
-0.48034432269705574,-0.48034432269705574,1.0000168046659403,5.0572033084480945e-05
-0.4801139163871994,-0.4801139163871994,1.0000926118740714,5.056063412203588e-05
-0.479951387035544,-0.479951387035544,0.9999813797380582,5.06553693796111e-05
-0.4795968787453603,-0.4795968787453603,1.0000158605331293,5.070178774483327e-05
-0.4794096890393121,-0.4794096890393121,0.999953217305638,5.1886447352209974e-05
-0.47924447800323833,-0.47924447800323833,1.0000540205456583,5.045482219873926e-05
-0.479110861193476,-0.479110861193476,0.9999299356449691,5.0521130515770615e-05
-0.4790484206445399,-0.4790484206445399,1.0000297858638278,5.017575215988844e-05
-0.47889061665700866,-0.47889061665700866,1.0000737807276678,5.100897358947726e-05
-0.4787437726990902,-0.4787437726990902,0.9998968692796067,5.100679123645601e-05
-0.4786176838984829,-0.4786176838984829,0.9999635743675569,5.077377349193313e-05
-0.4783704542416672,-0.4783704542416672,0.9999960758502372,5.152585013423251e-05
-0.47809004619630285,-0.47809004619630285,1.0000585538496172,5.099701958458341e-05
-0.4779892950995418,-0.4779892950995418,1.0000268795375509,5.048592901946314e-05
-0.4779173899529269,-0.4779173899529269,1.0000746805851217,5.0047719321188284e-05
-0.4777828586411488,-0.4777828586411488,1.0000594214118057,5.095828192644029e-05
-0.4776677694411774,-0.4776677694411774,0.999976355547837,5.0774107940665424e-05
-0.4774320899945451,-0.4774320899945451,0.9999815443263985,5.084314310860096e-05
-0.47733884861154363,-0.47733884861154363,1.0000490265587334,5.073751663977327e-05
-0.4772037259841454,-0.4772037259841454,1.0001488826501217,5.125607059992663e-05
-0.47699819303597907,-0.47699819303597907,0.9999573431354266,5.084560620626185e-05
-0.4767885323235532,-0.4767885323235532,1.0000767874333967,5.0797391634264225e-05
-0.4767234979939531,-0.4767234979939531,0.9999238457113891,5.079002729798394e-05
-0.4766223576189077,-0.4766223576189077,1.0001775243204565,5.159566232644362e-05
-0.47640848788796575,-0.47640848788796575,1.0000408659756101,5.1385288331945197e-05
-0.4763199242923292,-0.4763199242923292,1.0000028627022963,5.052567088267475e-05
-0.4762303658877499,-0.4762303658877499,1.000050275082868,5.1470617289742874e-05
-0.4760962064108753,-0.4760962064108753,0.9999974679469996,5.083482312075909e-05
-0.4758622474852018,-0.4758622474852018,0.9999177182798722,5.078876290551928e-05
-0.4757283081606147,-0.4757283081606147,0.999995458319843,5.1062291090900116e-05
-0.4755157272746146,-0.4755157272746146,0.9999858756991384,5.1462743419175107e-05
-0.4752552705416747,-0.4752552705416747,0.9999986545807946,5.062695732419317e-05
-0.4749468856221938,-0.4749468856221938,0.999970687829393,5.101866318838818e-05
-0.4747798719952698,-0.4747798719952698,1.0000352891370299,5.11386974119268e-05
-0.47461736899713286,-0.47461736899713286,0.9999688510736171,5.046638155741376e-05
-0.47448757017191384,-0.47448757017191384,0.9999315549462964,5.1315298778172815e-05
-0.474257564983418,-0.474257564983418,1.0000207051145646,5.076680879768755e-05
-0.4740476967446739,-0.4740476967446739,1.00003405952163,5.099169886921955e-05
-0.47388579669132014,-0.47388579669132014,1.000108864736416,5.074536319656875e-05
-0.47361904809004046,-0.47361904809004046,1.000089264436831,5.12725894622273e-05
-0.47341188041245913,-0.47341188041245913,0.9999850559380675,5.0873864497806056e-05
-0.47329826296045213,-0.47329826296045213,1.0000209336503767,5.014877475421316e-05
-0.47315139841884957,-0.47315139841884957,1.0000239797005668,5.0748333112025034e-05
-0.4729785380994144,-0.4729785380994144,0.99997281900365,5.04439538251318e-05
-0.4728887638055312,-0.4728887638055312,1.000002781557089,5.08022850932359e-05
-0.47276562956321866,-0.47276562956321866,1.0000505762108431,5.1201528153604395e-05
-0.4726801500277361,-0.4726801500277361,1.0000452764192036,5.124563985223386e-05
-0.47254643486230635,-0.47254643486230635,0.9999924418636883,5.1007564675383094e-05
-0.47235960084799444,-0.47235960084799444,0.9999509060951641,5.080050387299646e-05
-0.47223150157224153,-0.47223150157224153,1.0000952842540596,5.05683160014892e-05
-0.47211789901411977,-0.47211789901411977,0.9999423931794686,5.071509094506744e-05
-0.47194776521573656,-0.47194776521573656,0.9999251427022309,5.1339309602318125e-05
-0.47179908531397813,-0.47179908531397813,0.9999666362349225,5.0827492392368144e-05
-0.47157837332779307,-0.47157837332779307,0.999971289370791,5.057255613592868e-05
-0.47141221281781326,-0.47141221281781326,1.0000001334200672,5.044718979315063e-05
-0.47115128472432843,-0.47115128472432843,1.000044607383508,5.0666034318891213e-05
-0.4708917995732918,-0.4708917995732918,1.000001540504576,5.16463654846995e-05
-0.4707580541893549,-0.4707580541893549,1.0000468674995031,5.092834193291442e-05
-0.47059814813765116,-0.47059814813765116,0.9998945490146989,5.0727646024889214e-05
-0.47043571610047363,-0.47043571610047363,0.9999876380910926,5.076044119710412e-05
-0.47034912653034555,-0.47034912653034555,0.9999986409743922,5.116113083127339e-05
-0.470146512251813,-0.470146512251813,1.0000284028131032,5.075036017133973e-05
-0.4699597975908546,-0.4699597975908546,0.999943454449005,5.150780968303048e-05
-0.4697508974153607,-0.4697508974153607,1.0000471464059715,5.056880441134588e-05
-0.46948069635545836,-0.46948069635545836,1.0000743855392755,5.1072626310667576e-05
-0.46928638395038436,-0.46928638395038436,1.0000543106772792,5.013462531587218e-05
-0.46916763298722797,-0.46916763298722797,1.0000856477010913,5.153278685781578e-05
-0.4690299841124215,-0.4690299841124215,0.9998875795509333,5.051168442148714e-05
-0.46879912800141027,-0.46879912800141027,1.0000671625006987,5.1150852084067445e-05
-0.46870159414029333,-0.46870159414029333,1.0000062416028193,5.051147431234847e-05
-0.4685180118009157,-0.4685180118009157,0.9999627444234027,5.0664441469890106e-05
-0.4683706206997158,-0.4683706206997158,0.9999163237541522,5.099214601752794e-05
-0.4681744368725049,-0.4681744368725049,0.9999585243459845,5.0512766005288165e-05
-0.4680411720437405,-0.4680411720437405,1.0000160641656717,5.1627788291023405e-05
-0.467932313986239,-0.467932313986239,1.0000927124654282,5.1376646560395356e-05
-0.4677903779949702,-0.4677903779949702,0.9999863457310803,5.062549864860524e-05
-0.4676956269271614,-0.4676956269271614,1.0000000824919582,5.141039674237665e-05
-0.46759392974709046,-0.46759392974709046,0.9999233825699811,5.086049370482043e-05
-0.46747523943558916,-0.46747523943558916,0.9998872961682533,5.053886035142678e-05
-0.4670740342568024,-0.4670740342568024,1.0000087255021146,5.181402324769232e-05
-0.4668204148656514,-0.4668204148656514,1.0000227061544067,5.137665835089258e-05
-0.4666364999415237,-0.4666364999415237,1.0000392605494652,5.088132844020192e-05
-0.4664103990595322,-0.4664103990595322,1.000016440147086,5.104092814395659e-05
-0.46624751710696727,-0.46624751710696727,0.9999962179303774,5.144584438020776e-05
-0.4660567198188801,-0.4660567198188801,0.9999148369233316,5.120197666289691e-05
-0.46583668562743696,-0.46583668562743696,1.000051417210775,5.082221377231839e-05
-0.46562702757582886,-0.46562702757582886,1.0000813365958847,5.105457746295586e-05
-0.4654809509163897,-0.4654809509163897,1.0000530037159172,5.105534174256671e-05
-0.4654073460318614,-0.4654073460318614,0.9999994590485983,5.058806237969174e-05
-0.4652215624555538,-0.4652215624555538,1.0000816273722335,5.102430777115216e-05
-0.46494324628365574,-0.46494324628365574,0.9999514094385781,5.078184279996694e-05
-0.46476176757496435,-0.46476176757496435,0.999932364997656,5.0708067089100046e-05
-0.46455841771385165,-0.46455841771385165,1.0000943975276162,5.066511160673824e-05
-0.46440509651074535,-0.46440509651074535,0.9999733396128715,5.179070901625684e-05
-0.46427121649321634,-0.46427121649321634,0.9999539227413559,5.126755979708988e-05
-0.46416656629226055,-0.46416656629226055,0.9999159443473056,5.0187856081176596e-05
-0.46397576195013246,-0.46397576195013246,0.9999628129298361,5.053637202940398e-05
-0.4639150635237456,-0.4639150635237456,1.0000586833414222,5.090048382505153e-05
-0.4638332868511498,-0.4638332868511498,1.0000555943884364,5.087212801849927e-05
-0.4636167254844622,-0.4636167254844622,0.9999103257284988,5.068280955078668e-05
-0.4635476421834028,-0.4635476421834028,1.0001531183810837,5.064321370026301e-05
-0.46349735898547806,-0.46349735898547806,1.0000762128438532,5.0755192378958214e-05
-0.4633090278766758,-0.4633090278766758,1.000004541184507,5.205964360770159e-05
-0.4631272232880292,-0.4631272232880292,1.0000553543735833,5.0779082103959586e-05
-0.46285219705241615,-0.46285219705241615,1.000025090685919,5.0637469477917415e-05
-0.4627100363788486,-0.4627100363788486,0.9999560852945757,5.125031804292685e-05
-0.46247132249045536,-0.46247132249045536,0.9999672004872624,5.054886010446618e-05
-0.4622614154322946,-0.4622614154322946,1.000003164701157,5.133607353669696e-05
-0.46207404798842616,-0.46207404798842616,0.9999408951265994,5.0280497762510036e-05
-0.46178332275376305,-0.46178332275376305,1.0000524842314729,5.0398238402451874e-05
-0.46154022488117336,-0.46154022488117336,0.9999842175868187,5.0795386088189174e-05
-0.4613218170947221,-0.4613218170947221,1.0000380139826766,5.1020090958518586e-05
-0.46120840544899694,-0.46120840544899694,0.9999956889857085,5.0522308022234274e-05
-0.4610779254639056,-0.4610779254639056,1.0000206545075883,5.0729960499343826e-05
-0.46089991086555526,-0.46089991086555526,1.0000293974087722,5.0533533608110815e-05
-0.46074749221807,-0.46074749221807,1.000050546032708,5.1034665091094814e-05
-0.46057287536459623,-0.46057287536459623,0.9999205571860632,5.1819645152372754e-05
-0.4602720099472208,-0.4602720099472208,1.0000242732752587,5.094035496757596e-05
-0.4601319232300739,-0.4601319232300739,0.9999726010091783,5.091937372386983e-05
-0.46004183823461064,-0.46004183823461064,0.9999475001453628,5.01826303237566e-05
-0.45995185311185194,-0.45995185311185194,1.0000437118786596,5.013290898651545e-05
-0.4598193583900866,-0.4598193583900866,0.9999803861891678,5.0944987120832894e-05
-0.45972456832096215,-0.45972456832096215,0.9999943608619581,5.0812225417410575e-05
-0.459513756648812,-0.459513756648812,1.000012209788919,5.075765111375153e-05
-0.4594129053570214,-0.4594129053570214,1.0000162211437447,5.08602812640356e-05
-0.45926231168414233,-0.45926231168414233,0.9999798744221007,5.1170249530448475e-05
-0.45910650767327754,-0.45910650767327754,1.000005983121804,5.078976921528212e-05
-0.45892792554877815,-0.45892792554877815,1.000054124620242,5.0922902815161834e-05
-0.4588507813248725,-0.4588507813248725,0.999966953552234,5.055683911249718e-05
-0.4587493771025038,-0.4587493771025038,1.000116284714108,5.132642093278497e-05
-0.45851166839929647,-0.45851166839929647,0.9999718566241176,5.1980261475461685e-05
-0.4583352802321315,-0.4583352802321315,1.0000302213633698,5.146853149783264e-05
