time,time,flux,flux_err
-0.4999057292184454,-0.4999057292184454,1.0001323252324479,0.00014271873948736182
-0.49973068684514493,-0.49973068684514493,0.9997715213383932,0.00014271459418125786
-0.4995556444764578,-0.4995556444764578,1.000064236786919,0.00014269479122931813
-0.4993806021123932,-0.4993806021123932,1.000027515750992,0.00014268386053971864
-0.49922014661604786,-0.49922014661604786,0.9999297268620602,0.00013025233624791083
-0.4990742779864023,-0.4990742779864023,0.9999990748898082,0.00013025056489339448
-0.4989284093599757,-0.4989284093599757,1.000082097958407,0.00013021236168083493
-0.49878254073680584,-0.49878254073680584,1.0000159320067898,0.00013023413218410932
-0.4986366721168535,-0.4986366721168535,0.9999485488231894,0.00013019845129541268
-0.49849080350011993,-0.49849080350011993,1.0000927441445833,0.00013018601029246072
-0.4983449348866335,-0.4983449348866335,1.000075399731601,0.00013017233885162863
-0.49819906627641436,-0.49819906627641436,0.9999257912482943,0.000130172011282049
-0.4980531976693934,-0.4980531976693934,0.9999767054868103,0.00013015042917772032
-0.49790732906566876,-0.49790732906566876,1.0000639985739674,0.0001301437755342237
-0.4977614604652004,-0.4977614604652004,0.9999058861074109,0.00013011916341252512
-0.4976155918679517,-0.4976155918679517,1.0000954907795494,0.0001301358767003608
-0.49746972327398886,-0.49746972327398886,0.9999905012077764,0.0001301554102160378
-0.49732385468332263,-0.49732385468332263,1.0000196497559783,0.00013013862986429957
-0.49717798609589414,-0.49717798609589414,1.0000603038206002,0.00013011537297475507
-0.4970321175117613,-0.4970321175117613,0.9999496131695433,0.00013010018013744589
-0.4968862489308764,-0.4968862489308764,1.0001270459287268,0.0001301103356324377
-0.49674038035327717,-0.49674038035327717,1.0000689157359002,0.0001301236921213256
-0.49659451177901454,-0.49659451177901454,0.9999828427694872,0.00013010515525755886
-0.49644864320799853,-0.49644864320799853,0.999902394378261,0.00013008425010988146
-0.4963027746403087,-0.4963027746403087,1.0000347984079725,0.0001300879236333925
-0.49615690607590573,-0.49615690607590573,1.0000125660661743,0.0001300848070016595
-0.49601103751479875,-0.49601103751479875,0.9999419231959085,0.00013008335286902571
-0.4958651689570358,-0.4958651689570358,1.0001153894749621,0.00013009961989179553
-0.49571930040255163,-0.49571930040255163,0.9999193320226757,0.00013008431454871993
-0.4955734318513917,-0.4955734318513917,1.0000397460071035,0.00013009686317565637
-0.4954275633035481,-0.4954275633035481,0.9999762971733139,0.00013007315455945402
-0.49528169475903033,-0.49528169475903033,1.0001047459264631,0.00013012616375155788
-0.4951358262178571,-0.4951358262178571,0.9998426550766217,0.00013009674017650712
-0.49498995768003057,-0.49498995768003057,1.0000460899213564,0.00013009262325577232
-0.4948440891455279,-0.4948440891455279,1.0000650983303094,0.0001300669041043105
-0.4946982206144009,-0.4946982206144009,0.99994141043467,0.00013011347960117426
-0.4945523520865896,-0.4945523520865896,1.000062628884811,0.00013011406265285629
-0.4944064835621619,-0.4944064835621619,1.000128848939585,0.0001301069620253025
-0.4942606150410807,-0.4942606150410807,1.000076652474943,0.00013009327494648769
-0.49411474652337384,-0.49411474652337384,0.999899569134308,0.0001300691467149402
-0.49396887800904066,-0.49396887800904066,1.0000047218756516,0.00013009241936957073
-0.4938230094981222,-0.4938230094981222,1.0000477210622745,0.00013010200542853777
-0.4936771409905093,-0.4936771409905093,1.000056918277131,0.00013010143553625968
-0.49353127248633016,-0.49353127248633016,1.0000979009517974,0.000130123090817203
-0.49338540398555414,-0.49338540398555414,0.9997757491119887,0.00013013947455954708
-0.4932395354881338,-0.4932395354881338,1.0003488301149772,0.00013016450782934606
-0.493093666994166,-0.493093666994166,0.9998561502009075,0.00013011326356152247
-0.4929477985035918,-0.4929477985035918,1.0001746255426691,0.0001301239908492922
-0.4928019300164131,-0.4928019300164131,0.999877202761915,0.00013014901429072835
-0.4926560615326864,-0.4926560615326864,1.0000975102236054,0.00013014453053917965
-0.492510193052383,-0.492510193052383,0.9999794950442613,0.00013015565521618062
-0.49236432457551305,-0.49236432457551305,1.0000493799416126,0.00013014440123831276
-0.4922184561021153,-0.4922184561021153,0.999881979942646,0.0001301288306158612
-0.49207258763210204,-0.49207258763210204,1.0001143943171122,0.0001301451707617651
-0.49192671916559066,-0.49192671916559066,1.000008803821001,0.00013016894831536068
-0.49178085070251265,-0.49178085070251265,0.9998911797936847,0.0001301776426620411
-0.49163498224291635,-0.49163498224291635,1.0001601695173348,0.00013017205310070256
-0.491489113786802,-0.491489113786802,0.9999426727021206,0.0001301612124508169
-0.49134324533417095,-0.49134324533417095,0.9998510988082637,0.00013015229056976386
-0.491197376885002,-0.491197376885002,1.000116254511592,0.00013017180063991157
-0.4910515084393639,-0.4910515084393639,0.9997781458810285,0.0001301753427507541
-0.4909056399972279,-0.4909056399972279,1.0000071354601383,0.00013020186678305758
-0.4907597715585636,-0.4907597715585636,1.0000471777340212,0.00013017575492309247
-0.4906139031234501,-0.4906139031234501,1.0000517809836007,0.00013018271832965775
-0.4904435287958476,-0.4904435287958476,0.9999578905557632,0.00013015193348870662
-0.4902813231045499,-0.4902813231045499,1.0000572145084374,0.00013014797120626927
-0.49013545468102715,-0.49013545468102715,1.000077317055784,0.00013017820724406967
-0.48998958626104605,-0.48998958626104605,0.9999678035882711,0.00013018215611052003
-0.4898437178446445,-0.4898437178446445,0.9999231595693766,0.00013017644044409233
-0.4896978494317937,-0.4896978494317937,1.0002615496766751,0.00013016356569710172
-0.4895519810225327,-0.4895519810225327,0.9998376313281627,0.00013015584700637575
-0.48940611261682176,-0.48940611261682176,0.9999233016620852,0.00013016020365467785
-0.48926024421474035,-0.48926024421474035,1.0000176738359505,0.00013017159180946772
-0.4891143758162487,-0.4891143758162487,1.0000992129937791,0.00013018825260847122
-0.48896850742140574,-0.48896850742140574,0.9998536083715622,0.0001301707566074824
-0.48882263903011225,-0.48882263903011225,1.000119667184888,0.00013020375638948426
-0.4886767706424683,-0.4886767706424683,0.9999520324628449,0.00013022445582419915
-0.4885309022584824,-0.4885309022584824,0.9999970380184713,0.00013022892323107614
-0.4883850338781347,-0.4883850338781347,0.9999907610882873,0.000130196098618576
-0.48823916550146473,-0.48823916550146473,1.00013802505437,0.00013024473257174248
-0.4880932971284736,-0.4880932971284736,0.999905732881824,0.00013023237374185887
-0.4879474287591007,-0.4879474287591007,0.9999630688867445,0.00013024536001516492
-0.48780156039329814,-0.48780156039329814,1.0001681420455852,0.00013026950090251735
-0.4876556920313595,-0.4876556920313595,0.9998586540258072,0.000130221992922035
-0.48750982367309825,-0.48750982367309825,1.0000742765535287,0.00013025241093386357
-0.48736395531860277,-0.48736395531860277,1.0000065779624316,0.00013023624144204774
-0.4872180869678246,-0.4872180869678246,0.999964954054985,0.00013028340599488336
-0.48707221862081285,-0.48707221862081285,0.9998257497048533,0.00013027584836866528
-0.48692635027753683,-0.48692635027753683,1.000036686588608,0.0001303002315308171
-0.486780481937987,-0.486780481937987,1.0000673046108322,0.00013028577529428014
-0.4866346136022818,-0.4866346136022818,0.9999903399950465,0.0001302915687503079
-0.486488745270362,-0.486488745270362,0.9999536953415872,0.00013029570365079364
-0.4863428769422177,-0.4863428769422177,0.9999638104236046,0.00013032478147523508
-0.4861970086178788,-0.4861970086178788,1.000051605931696,0.00013032878187609062
-0.4860511402973836,-0.4860511402973836,0.999964551683701,0.00013033299590258662
-0.4859052719807323,-0.4859052719807323,0.9999704643347656,0.0001303377508707903
-0.4857594036679448,-0.4857594036679448,1.000162788987479,0.00013034218748192694
-0.4856135353590112,-0.4856135353590112,0.9999370800327588,0.00013036349230618875
-0.4854676670539805,-0.4854676670539805,1.0000675677624475,0.00013035640372577304
-0.4853217987528131,-0.4853217987528131,0.9999909190165603,0.00013035532661498147
-0.48517593045558804,-0.48517593045558804,0.9999854769155789,0.0001303847868862515
-0.48503006216227523,-0.48503006216227523,1.0001082829114911,0.00013037202540089926
-0.4848841938729237,-0.4848841938729237,0.9999147194793798,0.00013036568314080967
-0.4847383255874558,-0.4847383255874558,1.0000219633911565,0.00013038756482897654
-0.48459245730603706,-0.48459245730603706,1.0000631346566211,0.0001303926852084686
-0.48444658902855,-0.48444658902855,1.0000177532171055,0.0001303704093766255
-0.48430072075508457,-0.48430072075508457,1.000000150267792,0.00013038666670929993
-0.48415485248564744,-0.48415485248564744,1.000049076988171,0.00013040490937252987
-0.4840089842202021,-0.4840089842202021,1.0000746645371748,0.0001303745286185209
-0.4838631159588351,-0.4838631159588351,1.0001419495553594,0.00013041393849717734
-0.4837172477015471,-0.4837172477015471,0.9999749776881185,0.0001303747808140184
-0.4835713794483281,-0.4835713794483281,0.9999667858422854,0.00013038476572000047
-0.4834255111992077,-0.4834255111992077,1.0000499558103133,0.0001303723877641842
-0.4832796429542057,-0.4832796429542057,0.9999331651166925,0.0001303990127556948
-0.4831337747133396,-0.4831337747133396,1.0000458071989025,0.00013038854706375806
-0.4829879064766612,-0.4829879064766612,0.9999715914211617,0.000130414111938389
-0.48284203824410027,-0.48284203824410027,0.9998977183629364,0.0001303997035057485
-0.4826961700157941,-0.4826961700157941,1.0001840740963237,0.0001304151513857354
-0.48255030179163594,-0.48255030179163594,0.9998916746235285,0.00013037973269395972
-0.48240443357174295,-0.48240443357174295,1.0001286719384777,0.00013038964711830473
-0.4822585653561232,-0.4822585653561232,0.9997762843830561,0.00013037172854914967
-0.482112697144739,-0.482112697144739,1.0001977152487578,0.00013039743481720585
-0.48196682893766846,-0.48196682893766846,0.9999428462480383,0.00013037345585634175
-0.48182096073492053,-0.48182096073492053,1.0000758649815176,0.0001303747104174284
-0.4816750925364877,-0.4816750925364877,0.9999101466503199,0.00013034345895438857
-0.4815292243424752,-0.4815292243424752,1.0001775113575877,0.00013034575706836793
-0.48138335615277655,-0.48138335615277655,0.9998797609905961,0.00013033573021646193
-0.4812374879675666,-0.4812374879675666,1.0001272838407127,0.00013036886106922266
-0.48109161978670106,-0.48109161978670106,0.9999886382595635,0.00013034181915420203
-0.4809457516103242,-0.4809457516103242,0.9998108399204536,0.00013031522799708645
-0.4807998834384371,-0.4807998834384371,1.0001003109908604,0.00013033601190496494
-0.48065401527103974,-0.48065401527103974,0.9998316051939948,0.00013032647704313224
-0.4805081471081712,-0.4805081471081712,1.0001587677610757,0.0001303333598217382
-0.4803622789499105,-0.4803622789499105,0.9999275423285015,0.00013029397459500615
-0.4802164107961874,-0.4802164107961874,0.999988855014494,0.00013032184878106917
-0.48007054264708093,-0.48007054264708093,1.0000439742830547,0.0001302781248026245
-0.4799246745026407,-0.4799246745026407,1.000013235001959,0.0001302528198211163
-0.47977880636287507,-0.47977880636287507,1.000187429089157,0.00013027797450412669
-0.47963293822775716,-0.47963293822775716,0.9999703411429749,0.0001302582115390415
-0.4794870700973915,-0.4794870700973915,0.9999665852341849,0.00013025847111564786
-0.4793412019717794,-0.4793412019717794,0.9998368726195682,0.00013024135821506714
-0.4791953338509611,-0.4791953338509611,1.000060823506628,0.0001302229881877445
-0.47904946573497503,-0.47904946573497503,0.9999612102433104,0.00013022790291175652
-0.4789035976238395,-0.4789035976238395,0.9999962383987568,0.00013021746353303684
-0.47875772951757584,-0.47875772951757584,0.9999159701243758,0.0001302021677946098
-0.4786118614162417,-0.4786118614162417,0.999954951367425,0.00013018715150042942
-0.4784659933198386,-0.4784659933198386,1.0000174075410633,0.00013016451792303968
-0.478320125228481,-0.478320125228481,1.0000929400600955,0.00013019035323406363
-0.4781742571421127,-0.4781742571421127,1.0001587168259636,0.00013015918862135375
-0.47802838906079026,-0.47802838906079026,0.9999163804242365,0.00013011828171196284
-0.477882520984595,-0.477882520984595,0.9999931284297281,0.0001301429347919278
-0.4777366529135634,-0.4777366529135634,1.000075877100007,0.00013014982780026985
-0.4775907848476869,-0.4775907848476869,0.9998683932861511,0.0001301252053291625
-0.4774449167869939,-0.4774449167869939,1.0000028749552046,0.00013009351948400948
-0.477263106843656,-0.477263106843656,0.9999494724012198,0.00013008159833424764
-0.47711233762842314,-0.47711233762842314,0.9999968954292713,0.00013007228361829195
-0.4769664695852104,-0.4769664695852104,1.0000226025848857,0.00013007006345753782
-0.4768206015473668,-0.4768206015473668,1.0000652549605522,0.00013003551681063815
-0.47667473351495226,-0.47667473351495226,0.9999253145756656,0.00013002160998599457
-0.47652886548806406,-0.47652886548806406,1.0000644554043556,0.0001300299974647896
-0.4763829974667219,-0.4763829974667219,0.9999830275332705,0.00013002427572113886
-0.476237129450935,-0.476237129450935,1.0000215255545022,0.0001299673616598765
-0.4760912614408516,-0.4760912614408516,1.0001641929326053,0.0001300186079145425
-0.4759453934363915,-0.4759453934363915,0.9998451052390276,0.00012996559436105983
-0.4757995254377329,-0.4757995254377329,1.000062793233011,0.00012994485343010605
-0.4756536574448541,-0.4756536574448541,1.0000595752989407,0.00012995995789813778
-0.47550778945784433,-0.47550778945784433,0.9998183327408693,0.00012993684819317621
-0.4753619214767138,-0.4753619214767138,1.0001206714173807,0.00012997624557342164
-0.47521605350157864,-0.47521605350157864,0.9999604577606588,0.00012994258092512877
-0.4750701855324683,-0.4750701855324683,1.0000131735719904,0.00012994474905691383
-0.47492431756945275,-0.47492431756945275,1.0000273610799244,0.0001299473569908987
-0.4747784496125986,-0.4747784496125986,1.0000275525113684,0.00012994054472537773
-0.4746325816619759,-0.4746325816619759,1.0001220776097846,0.0001299410126317616
-0.47448671371763285,-0.47448671371763285,0.9999745885454256,0.00012994411755129918
-0.4743408457796267,-0.4743408457796267,1.0000388406662062,0.00012993528771183512
-0.4741949778480771,-0.4741949778480771,0.9999303534048248,0.0001299427734737614
-0.4740491099229738,-0.4740491099229738,1.0000231520307168,0.00012992051106095986
-0.4739032420044733,-0.4739032420044733,1.000052258365817,0.00012994405675013
-0.4737573740926132,-0.4737573740926132,0.9998082188238195,0.00012992317343237298
-0.4736115061874445,-0.4736115061874445,1.000178102086071,0.00012995897825831263
-0.4734656382890833,-0.4734656382890833,0.9998082226496793,0.00012993233444953838
-0.47331977039763656,-0.47331977039763656,1.0001465437244064,0.0001299512691707966
-0.47317390251312563,-0.47317390251312563,0.9999518395770369,0.00012994568774839105
-0.47302803463565757,-0.47302803463565757,0.999995913821494,0.00012995427360551977
-0.4728821667653783,-0.4728821667653783,0.9999378538031303,0.00012995404012881466
-0.4727362989022783,-0.4727362989022783,0.9999936613184751,0.00012996121521205838
-0.4725904310465152,-0.4725904310465152,1.000022952087067,0.0001299615507709802
-0.4724445631981654,-0.4724445631981654,1.0000869852479215,0.0001299717489304041
-0.4722986953573187,-0.4722986953573187,1.0000909263747868,0.00012999941193659134
-0.47215282752411997,-0.47215282752411997,0.9999827061993226,0.00013001504141879258
-0.4720069596986594,-0.4720069596986594,1.0000450102884386,0.00012999646002570433
-0.4718610918809846,-0.4718610918809846,1.0000264653024238,0.00012998379229387942
-0.47171522407127087,-0.47171522407127087,1.0000534334965865,0.0001299815977128821
-0.4715693562695984,-0.4715693562695984,0.9999592427836923,0.00012999659818171155
-0.471423488476103,-0.471423488476103,1.0000001817567559,0.00013001949287352809
-0.4712776206908725,-0.4712776206908725,0.9999808776708162,0.00013000076843702727
-0.4711317529140537,-0.4711317529140537,1.0000711207668078,0.0001300219403678852
-0.4709858851457742,-0.4709858851457742,1.000007173438684,0.00013001965248690212
-0.47084001738613124,-0.47084001738613124,0.999948280097461,0.0001300442945244284
-0.47069414963528244,-0.47069414963528244,0.999913685079545,0.00013003892485228792
-0.47054828189337405,-0.47054828189337405,1.0000446325878136,0.0001300381113391037
-0.4704024141605023,-0.4704024141605023,0.9999423070293819,0.00013005925488691
-0.4702565464368552,-0.4702565464368552,1.0000512747296573,0.00013004762672355375
-0.4701106787225203,-0.4701106787225203,1.0000781815160376,0.00013008377787737774
-0.46996481101771154,-0.46996481101771154,0.9999347509817966,0.00013008622036231326
-0.46981894332249874,-0.46981894332249874,0.9999578169701049,0.0001300942206806076
-0.46967307563705774,-0.46967307563705774,1.0000920157548272,0.00013010888848063266
-0.4695272079615636,-0.4695272079615636,0.9999436315986024,0.00013010455259277978
-0.46938134029618367,-0.46938134029618367,1.0000295510042025,0.0001301102890792413
-0.4692354726410354,-0.4692354726410354,0.9999767451037231,0.0001301694707926252
-0.46908960499621555,-0.46908960499621555,0.9999631313557324,0.0001301314510018066
-0.46894373736200945,-0.46894373736200945,0.999884725361232,0.0001301771697424911
-0.4687978697385324,-0.4687978697385324,1.0000897814823877,0.00013016597031468728
-0.4686520021258742,-0.4686520021258742,0.9999901675539764,0.00013019186054980054
-0.4685061345242582,-0.4685061345242582,1.0000050495724786,0.00013019906324273915
-0.46836026693376454,-0.46836026693376454,1.000244678109062,0.00013020852169291455
-0.46821439935455816,-0.46821439935455816,1.0000047575847923,0.00013020863119521983
-0.46806853178678587,-0.46806853178678587,0.9999862548755913,0.00013020943803563448
-0.46792266423051687,-0.46792266423051687,1.0000193680485903,0.00013023360500224096
-0.4677767966859269,-0.4677767966859269,0.9999512259376921,0.000130235332438147
-0.4676309291530837,-0.4676309291530837,1.0000869317888308,0.00013024888669619503
-0.46748506163195885,-0.46748506163195885,1.0000648784556525,0.00013024888906978358
-0.46733919412268926,-0.46733919412268926,0.999941605180652,0.00013027525488556113
-0.4671933266252545,-0.4671933266252545,0.9999854536697604,0.00013026920771773502
-0.46704745913956724,-0.46704745913956724,1.0000593122267538,0.00013028078917500934
-0.46690159166559847,-0.46690159166559847,0.99991919779519,0.00013031286615928134
-0.4667557242032295,-0.4667557242032295,1.0000766774346976,0.00013031323146246547
-0.46660985675221733,-0.46660985675221733,0.9999099974178769,0.00013032237970135734
-0.4664639893122088,-0.4664639893122088,0.99996146956926,0.00013033418254908865
-0.4663181218829598,-0.4663181218829598,1.0001462250465878,0.0001303559865805734
-0.4661722544638739,-0.4661722544638739,0.9998821002309868,0.00013034560549777735
-0.4660263870543734,-0.4660263870543734,1.0001519696439347,0.00013036596522269714
-0.46588051965362764,-0.46588051965362764,0.99985833743544,0.00013036635459598214
-0.46573465226079414,-0.46573465226079414,0.9999534793619622,0.00013036621282409193
-0.46558878487469035,-0.46558878487469035,1.0000007113966507,0.0001303943655425936
-0.4654429174940063,-0.4654429174940063,1.0000572085193473,0.00013036653162966575
-0.46529705011708716,-0.46529705011708716,0.9999646198728376,0.00013040640498342425
-0.46328757276427196,-0.46328757276427196,0.9999709436535331,0.0001308012745584878
-0.4556872649103699,-0.4556872649103699,1.000190885975837,0.00013212206550179635
-0.4555413965905748,-0.4555413965905748,0.9999514483914431,0.00013195293352550244
-0.4553955282717673,-0.4553955282717673,1.0001337031127135,0.00013178825235777618
-0.45524965995420263,-0.45524965995420263,0.9998272265621434,0.0001316657846247809
-0.4551037916379485,-0.4551037916379485,1.0000924749678357,0.00013159391558464334
