time,time,flux,flux_err
-0.49951334351559734,-0.49951334351559734,1.000154589196961,0.0001756508619566579
-0.49870900068223517,-0.49870900068223517,0.9998771424886658,0.00017499108442691134
-0.4980509863002226,-0.4980509863002226,1.000062562126552,0.0001601473685241402
-0.49717415002523924,-0.49717415002523924,0.9999087567981257,0.0001631144889549524
-0.4962131812731968,-0.4962131812731968,1.0001670871600836,0.0001592310613883828
-0.49558938059053614,-0.49558938059053614,0.9998345658095023,0.00015942485685045381
-0.49466568078278217,-0.49466568078278217,0.9997456753891021,0.0001610392573890091
-0.49396919676219114,-0.49396919676219114,1.000156049027618,0.0001592000893342794
-0.49324442200013435,-0.49324442200013435,0.999882792974012,0.00015935162658155196
-0.4925284543503949,-0.4925284543503949,0.9997389945622963,0.00015770230069577296
-0.49185809871560193,-0.49185809871560193,1.0000247645580347,0.00015853521250268798
-0.4912460350118636,-0.4912460350118636,0.9996353558779647,0.00015901621173353
-0.4904707490190049,-0.4904707490190049,0.9999232199102732,0.0001592882885389095
-0.49006084890133933,-0.49006084890133933,0.9998925835527626,0.00016136664715532483
-0.4894891083065886,-0.4894891083065886,0.9999790655000209,0.00016024640215663518
-0.4882561267011624,-0.4882561267011624,1.0000911344093566,0.00016373745809389212
-0.4872426349051239,-0.4872426349051239,0.9997766462029384,0.000160069824405556
-0.4865702673792839,-0.4865702673792839,1.0000593592968507,0.00015877845917346855
-0.4857017032438307,-0.4857017032438307,1.0001823231452804,0.0001599600120929894
-0.4849454888870241,-0.4849454888870241,1.000177773510486,0.0001596796353967265
-0.4843791619474359,-0.4843791619474359,0.9999278068991033,0.00015970187820003447
-0.48397167546499986,-0.48397167546499986,1.0001185418334166,0.000158269313153737
-0.4833340990226134,-0.4833340990226134,0.9999465850938499,0.00015797270942370737
-0.4826043829350965,-0.4826043829350965,1.0000337221420226,0.00016009180162106592
-0.48171287503428173,-0.48171287503428173,1.0000781456124084,0.0001590621909871791
-0.48116030000237514,-0.48116030000237514,1.000038915569138,0.00016145196339547406
-0.48054170700124815,-0.48054170700124815,0.9999990124452017,0.00015956482594661894
-0.4793891938956222,-0.4793891938956222,0.9999757441074287,0.0001636219825379442
-0.47833124349417633,-0.47833124349417633,0.9998301568506509,0.00015989615466180783
-0.4777002083232219,-0.4777002083232219,0.9999298648802668,0.00015973063543109762
-0.47669137861012134,-0.47669137861012134,0.9999490163022818,0.00016035389203927078
-0.475999688632146,-0.475999688632146,0.9999017073577093,0.00015827625680076652
-0.475157772438979,-0.475157772438979,0.9997991528651469,0.00015825993791367452
-0.47437100412280414,-0.47437100412280414,0.9998576358109794,0.00016341288416906843
-0.47358871041069506,-0.47358871041069506,0.9998868976871849,0.0001640648242563678
-0.4728192696580663,-0.4728192696580663,0.9998652087854231,0.0001586058406791118
-0.4721638842223911,-0.4721638842223911,0.9999386194952911,0.00016159153767017321
-0.47124905728996963,-0.47124905728996963,0.9998998366413675,0.00015893518010915198
-0.4701522337374627,-0.4701522337374627,1.000270391971887,0.00015901683663808514
-0.4696079502260545,-0.4696079502260545,0.999672674062183,0.00015770310979275839
-0.4691564687767823,-0.4691564687767823,1.000060840418874,0.00015930976881181524
-0.46835729371960044,-0.46835729371960044,0.9998840178755615,0.00015992233810764852
-0.46733971033318084,-0.46733971033318084,0.99995056205235,0.00015932661256545902
-0.46662193962620224,-0.46662193962620224,0.9998540611294227,0.0001586895920540396
-0.46600728348639675,-0.46600728348639675,0.9999219715888887,0.00015788320033888512
-0.4656109839299461,-0.4656109839299461,0.9999311325697671,0.00015861957504717612
-0.4649766228809312,-0.4649766228809312,1.0001406544081177,0.00016047382845054873
-0.464013317052013,-0.464013317052013,0.9999788929636455,0.00015849188285882825
-0.4632223619330034,-0.4632223619330034,1.0000533073271474,0.0001616627010996912
-0.4618198551084788,-0.4618198551084788,1.0000011732901375,0.00016392370689308856
-0.4609957325570576,-0.4609957325570576,1.0000491873465347,0.00015993508191144618
-0.4605396404956991,-0.4605396404956991,0.9999372932659334,0.00015932496717570231
-0.45994586798842646,-0.45994586798842646,0.9999788802461141,0.0001607283732775754
-0.45903265137094423,-0.45903265137094423,0.9998972365896256,0.00015831800566246609
-0.4582060323191399,-0.4582060323191399,1.0001973749401494,0.00015857480940203168
-0.4570306697954948,-0.4570306697954948,0.9999458614490393,0.0001612830544743952
-0.45611552762638896,-0.45611552762638896,0.9998798763222695,0.00015974759798999182
-0.4552763707819395,-0.4552763707819395,1.0000835193918696,0.00015990105545971923
-0.45395407148243977,-0.45395407148243977,0.9998707719113018,0.0001617029784459047
-0.4528230169416929,-0.4528230169416929,0.999986652044683,0.0001589899165360266
-0.4522356644905813,-0.4522356644905813,1.0001746120000115,0.0001592031658734517
-0.4516321779548889,-0.4516321779548889,0.9998774063717114,0.0001598939036490357
-0.4510884709270613,-0.4510884709270613,0.9999989952404569,0.00016002245909778383
-0.45011969493571086,-0.45011969493571086,0.9996466512165008,0.00015829333597828528
-0.44935260783531705,-0.44935260783531705,0.9999994657563083,0.00015950076043278678
-0.44794812831751185,-0.44794812831751185,1.0001401634094491,0.00016047380371861657
-0.446893439291307,-0.446893439291307,1.0000821516768077,0.0001584168395051734
-0.4459636194696941,-0.4459636194696941,1.0001684968601379,0.00016012109786510265
-0.44527926187220146,-0.44527926187220146,1.0003241400688296,0.00015787797277369713
-0.444789226193825,-0.444789226193825,0.9997813006903099,0.0001589490120205228
-0.4439382380034658,-0.4439382380034658,0.9997439729577376,0.0001585585536810066
-0.44338721026215355,-0.44338721026215355,0.999788325157505,0.00015898376773240566
-0.4428467286212253,-0.4428467286212253,1.0000467197285623,0.00015987366325487536
-0.4422511204218608,-0.4422511204218608,1.0000300228973307,0.00015981217167411306
-0.44100944137608167,-0.44100944137608167,1.0000499425759148,0.00015902501835104212
-0.4399824424974213,-0.4399824424974213,1.000046452266488,0.00015836710740700207
-0.43872714516546696,-0.43872714516546696,0.9997659003216086,0.0001603334540839956
-0.4379812506515009,-0.4379812506515009,0.9997639388635406,0.00016012250338205927
-0.4374161790816288,-0.4374161790816288,0.9996386223709356,0.00015937344861733936
-0.43646325443623935,-0.43646325443623935,1.0000390713433052,0.00015924800249937922
-0.43597361645734056,-0.43597361645734056,1.0000573056582165,0.00015963480983376192
-0.4353686611619196,-0.4353686611619196,0.9997910066074998,0.00015895513895327875
-0.43477237928891554,-0.43477237928891554,0.9998839918054028,0.00015907795345443968
-0.434191213217855,-0.434191213217855,0.9997378822052057,0.00015970520865907472
-0.4333656564129342,-0.4333656564129342,0.999953830710415,0.00016041297566325515
-0.4322345158318058,-0.4322345158318058,1.0001245479527747,0.0001590560029634617
-0.4315401373656641,-0.4315401373656641,0.9998002496340523,0.00015828078319079733
-0.4305555179336807,-0.4305555179336807,1.0001630115623872,0.0001603211855168966
-0.4292429914479726,-0.4292429914479726,0.9999790586463316,0.00016003923746827487
-0.42827106257827835,-0.42827106257827835,0.9998772632033338,0.0001595997866592462
-0.42762081308101185,-0.42762081308101185,0.9998820287738962,0.00015918407141930101
-0.42674542587046743,-0.42674542587046743,0.9999984649342283,0.00015831659018806563
-0.4262672227428993,-0.4262672227428993,1.0000218317716014,0.00015843831807153995
-0.4256376503311913,-0.4256376503311913,1.0000832213861166,0.00016003574945004678
-0.4248909248926793,-0.4248909248926793,1.000202982588403,0.00015881120571943348
-0.4233304402820067,-0.4233304402820067,0.9997392121160169,0.00015844606411420724
-0.4224206051272631,-0.4224206051272631,0.9998081443387179,0.00015783192810051082
-0.42149757454462816,-0.42149757454462816,0.999966536926314,0.00016103445141223165
-0.42087097850526334,-0.42087097850526334,0.999927116632924,0.00015994961954455346
-0.4198784921427432,-0.4198784921427432,1.0001109507207557,0.00015846954933734333
-0.4192467117776687,-0.4192467117776687,1.0000084470333068,0.00016112893621778919
-0.4186935890160385,-0.4186935890160385,1.0002197835305966,0.0001606719041329638
-0.41796542917581975,-0.41796542917581975,0.9997331820097338,0.00015822242863361712
-0.41741380473977185,-0.41741380473977185,1.0001003909504358,0.00016177881780611998
-0.4168272723531118,-0.4168272723531118,0.9998584172155669,0.00015885721057605753
-0.4155962825476308,-0.4155962825476308,1.0001025758590614,0.00015951128169144823
-0.41421098130667816,-0.41421098130667816,0.999904654075574,0.0001594047724736522
-0.4132995207364729,-0.4132995207364729,0.9998453445094914,0.00016030734635263933
-0.4125352422124706,-0.4125352422124706,1.0000058151904387,0.0001593274197741049
-0.41174368894280633,-0.41174368894280633,1.0001246779176685,0.0001593789252812403
-0.4107563329591358,-0.4107563329591358,1.000123981376213,0.0001602678219831789
-0.41010471441040863,-0.41010471441040863,1.0000050667706792,0.00015913078445290498
-0.40934346349167755,-0.40934346349167755,1.0001601040512011,0.00016078702974572137
-0.40867794859586865,-0.40867794859586865,0.9999456815966401,0.00015975418927215867
-0.40800921313930305,-0.40800921313930305,0.9999350699608192,0.00016041688467093338
-0.40724267718978807,-0.40724267718978807,1.000037274179398,0.00016314496950546064
-0.40598052412387914,-0.40598052412387914,0.9999457919873362,0.0001597509601410564
-0.4049995246787148,-0.4049995246787148,0.9998065361662588,0.00016000446564203296
-0.4042910226475215,-0.4042910226475215,0.9996841389717714,0.00016028995664422622
-0.4037028223319794,-0.4037028223319794,1.0001511793234525,0.00015973305404526084
-0.4030133378211758,-0.4030133378211758,0.9998215329840164,0.00015967827410197878
-0.40226412269621503,-0.40226412269621503,0.9999545964094058,0.00015825709066695493
-0.40162076263586644,-0.40162076263586644,1.0000677559952096,0.0001586123273905812
-0.4010137413024495,-0.4010137413024495,1.000070022670447,0.00015890277327808096
-0.40035555924187066,-0.40035555924187066,0.9999746247108752,0.00015891245712299076
-0.39982278344105,-0.39982278344105,0.9997948317256098,0.00016036379665879062
-0.3992270502982137,-0.3992270502982137,0.9998672083561069,0.00016026679991929194
-0.39809736032184445,-0.39809736032184445,0.9996473599514137,0.00016374188691827463
-0.3969719049957348,-0.3969719049957348,0.9997228987717242,0.00015992360423907037
-0.3963702669891063,-0.3963702669891063,0.9997658397922038,0.00015928541077061186
-0.3955919832922518,-0.3955919832922518,0.9999056214394393,0.00015994854284959753
-0.39491773336121694,-0.39491773336121694,1.0001335522567794,0.00015967541133435407
-0.39438602839509257,-0.39438602839509257,1.0001983622237247,0.00015918856541816118
-0.39387898122586196,-0.39387898122586196,1.0000200016996184,0.00015897311317737204
-0.3933492266914982,-0.3933492266914982,0.999701747380645,0.00015792979685785657
-0.3927171324277879,-0.3927171324277879,0.999986709482221,0.0001601072604684579
-0.3918086533143651,-0.3918086533143651,0.9997020342487556,0.00015837286100459013
-0.3913772951244027,-0.3913772951244027,0.9996409382552687,0.0001609853049076555
-0.39074914706507113,-0.39074914706507113,0.999997321967618,0.0001603074763717424
-0.38979810362216083,-0.38979810362216083,1.000052478503591,0.00016332052941661176
-0.3888615094052511,-0.3888615094052511,0.9999737221801311,0.0001589147765233119
-0.3881999155622907,-0.3881999155622907,1.000076382623296,0.00015889098606232534
-0.3877250823396025,-0.3877250823396025,1.0000578239617839,0.0001598514461110821
-0.38677310405109894,-0.38677310405109894,0.9998731353687502,0.00016073606233029075
-0.38603252382890785,-0.38603252382890785,1.0001489039263396,0.00015879334400051303
-0.38537907672653093,-0.38537907672653093,0.9999952253724791,0.00015821273843695958
-0.3846316646631749,-0.3846316646631749,1.0001760565214664,0.0001590686263690354
-0.3839251005148981,-0.3839251005148981,1.0001335544779302,0.0001611199054160982
-0.38289762611238987,-0.38289762611238987,0.99983041349658,0.00015853964355466984
-0.38235562857807964,-0.38235562857807964,1.00024760087423,0.00016122517718138464
-0.38160878386042896,-0.38160878386042896,0.9997615925935369,0.00016118151853656572
-0.38032079352633447,-0.38032079352633447,0.9999134683209719,0.00015919720015532247
-0.3797750752783031,-0.3797750752783031,1.00012984157683,0.00015837295361163757
-0.379299157463538,-0.379299157463538,1.0001544458988725,0.00015930628717666147
-0.37878441011052927,-0.37878441011052927,0.9999682229833848,0.0001598715247973101
-0.37773293396312513,-0.37773293396312513,0.9997854975219639,0.000159197559865915
-0.3767805344403314,-0.3767805344403314,0.9999486775425422,0.0001576870398410644
-0.3760541154581006,-0.3760541154581006,1.0000227253789153,0.00015832955095480472
-0.3755238054756774,-0.3755238054756774,1.000195056736685,0.00015809266150349554
-0.3748659990000306,-0.3748659990000306,0.9997179768833393,0.00016044882130484948
-0.37390476411092094,-0.37390476411092094,0.999938720894656,0.0001584911802074882
-0.37312343530284126,-0.37312343530284126,0.9999721626874013,0.00016224553250048803
-0.37212376410243453,-0.37212376410243453,0.9999777298182562,0.00016728552324638278
-0.37132102038231096,-0.37132102038231096,0.9998378531984458,0.0001589177657294607
-0.3706611412249913,-0.3706611412249913,0.9998687653857999,0.00015926624600756068
-0.3703068050104775,-0.3703068050104775,0.9998762573897491,0.00015938282959685753
-0.3694781362100912,-0.3694781362100912,0.9998447231066458,0.00016072045315497719
-0.3685778363636928,-0.3685778363636928,1.0000081207953095,0.00015917886248194605
-0.3675884210955701,-0.3675884210955701,0.9998497929662135,0.00015731219044307204
-0.36657839128383785,-0.36657839128383785,0.999869386206423,0.0001591322480463055
-0.3655244466594013,-0.3655244466594013,1.0001046487337575,0.00015808197947579205
-0.3649080869123281,-0.3649080869123281,0.9997873382628841,0.0001615918052932826
-0.3635119102509634,-0.3635119102509634,1.0002285015851888,0.0001600329412911661
-0.3625508566598,-0.3625508566598,0.9999798719967566,0.0001626972765342302
-0.36195457385038027,-0.36195457385038027,1.0000137363332546,0.00015909764305551907
-0.36144130141183267,-0.36144130141183267,1.000175786257583,0.00016069016143624172
-0.36070957387928504,-0.36070957387928504,1.0001943028687286,0.00015968167321802636
-0.3598593046881433,-0.3598593046881433,0.9999109662278706,0.00015849563389242673
-0.35918745753660913,-0.35918745753660913,0.9998106454527182,0.0001594297692304891
-0.35787647042088794,-0.35787647042088794,1.0001186857487283,0.0001592111651004645
-0.3566267068272282,-0.3566267068272282,1.0000146681102837,0.00015833457978415118
-0.35570316362354787,-0.35570316362354787,0.9997747379768447,0.00016112921548369982
-0.3549670388136292,-0.3549670388136292,0.9998169580920162,0.0001584968731234206
-0.35413118191572723,-0.35413118191572723,1.0000512454037862,0.00015889411909846332
-0.35353836258655064,-0.35353836258655064,0.999907819928867,0.0001587769192284137
-0.3529110861396475,-0.3529110861396475,1.0000315525795247,0.0001597527227612621
-0.35246733538151603,-0.35246733538151603,0.9999412579126041,0.00015992788764624088
-0.35149097285611786,-0.35149097285611786,1.0000903273685338,0.00015935146812612707
-0.3507617134266184,-0.3507617134266184,1.000162675973225,0.00015847173864447014
-0.349654579719936,-0.349654579719936,1.000099003302799,0.00015893418490671102
-0.3486246890759503,-0.3486246890759503,0.9999352253975626,0.00016130636273443396
-0.3478712946911401,-0.3478712946911401,1.000127145403596,0.00016014628864709124
-0.34730731025119893,-0.34730731025119893,0.9999573489755955,0.00015940499656210907
-0.34634525322981063,-0.34634525322981063,0.9997000036759959,0.00015926961926343732
-0.34574300167078037,-0.34574300167078037,0.9998647076196981,0.00016007774699045924
-0.3451679901845637,-0.3451679901845637,0.9998353194063689,0.00015783354028983852
-0.34462141765470733,-0.34462141765470733,1.0001366393646527,0.00015910270029479285
-0.34408098716448876,-0.34408098716448876,0.9999225953469739,0.00015972360493066547
-0.34332591767961274,-0.34332591767961274,0.9996971883647736,0.00016001617775888334
-0.3422725592121424,-0.3422725592121424,0.9999285185406303,0.00015996812152273266
-0.3414498131132859,-0.3414498131132859,1.000024612395559,0.0001584783252462594
-0.3406783415761311,-0.3406783415761311,1.0000738859844478,0.00015986295909148606
-0.3395130968478043,-0.3395130968478043,1.00000909274211,0.00016137080773408365
-0.3386093165972852,-0.3386093165972852,0.9998567781055183,0.000158951013015002
-0.33784496277730797,-0.33784496277730797,1.0001415829605578,0.0001595962645594215
-0.33717273853399093,-0.33717273853399093,0.9998332420709225,0.00015955338903417182
-0.3363960020862578,-0.3363960020862578,1.0000014296539503,0.0001584196129458093
-0.33596612004330384,-0.33596612004330384,0.9999510069926559,0.00015853282675258482
-0.335357513998315,-0.335357513998315,1.0000759903120717,0.0001602043773748788
-0.3344122573347704,-0.3344122573347704,0.9998621638201468,0.00015857788866225744
-0.33294455911964177,-0.33294455911964177,1.000139514741727,0.00015777871299992808
-0.33227396367437906,-0.33227396367437906,0.9998964121276808,0.00015785200971111537
-0.3313876718770189,-0.3313876718770189,0.9998172376374471,0.00016102780047437271
-0.3307602786109783,-0.3307602786109783,0.9999564474444208,0.00015994364222084487
-0.329671576149849,-0.329671576149849,1.0001489075092829,0.00015941689047447596
-0.328838350908336,-0.328838350908336,0.9999090428345664,0.00015854672839957289
-0.3280501602908771,-0.3280501602908771,1.0002694564469272,0.0001589679892164201
-0.327509681549418,-0.327509681549418,1.0000377678415364,0.000159952903995355
-0.3269720965217857,-0.3269720965217857,1.0000224683730365,0.0001639955288686916
-0.32591458380265975,-0.32591458380265975,1.0000208183336952,0.0001594322039019612
-0.3240610856541025,-0.3240610856541025,0.9997836940277779,0.00015893514904444315
-0.3230852091495763,-0.3230852091495763,1.0002009133260077,0.0001603012975901144
-0.32227946362254445,-0.32227946362254445,1.0000852270255256,0.0001603523917937454
-0.32130796572309916,-0.32130796572309916,1.00040337076921,0.00015897686887072983
-0.3206466649702634,-0.3206466649702634,1.0001356148339524,0.0001602590305683041
-0.3199943837003957,-0.3199943837003957,0.9999340770731848,0.00015912769846864014
-0.3192743914652965,-0.3192743914652965,0.9999269948398407,0.0001596989256305729
-0.31863522922358245,-0.31863522922358245,0.9998909415836528,0.00015896427619200296
-0.3179894682718441,-0.3179894682718441,1.0003904584074177,0.00016066774708776722
-0.31673296986045896,-0.31673296986045896,0.9998094929164566,0.0001585354362440092
-0.3155122171257972,-0.3155122171257972,0.9999309653202886,0.00015909510393657353
-0.3145030221356137,-0.3145030221356137,0.9998771817980756,0.00016107239724967454
-0.3137973844750377,-0.3137973844750377,1.0000101197723168,0.00015938527689013176
-0.31327254466159504,-0.31327254466159504,0.9999815977068813,0.00016534894161567958
-0.3124505655192479,-0.3124505655192479,0.9997811549240836,0.00015820759337673533
-0.3119034034738434,-0.3119034034738434,0.9999664922334667,0.00016324160122262377
-0.3113984719144355,-0.3113984719144355,0.9998835005386908,0.00015853033653405663
-0.3106712779197551,-0.3106712779197551,1.00041510533782,0.00015896866784895767
-0.3101178360011545,-0.3101178360011545,0.9997820461504563,0.0001591133102798533
-0.30959068979937,-0.30959068979937,1.0001216284619185,0.00016085421125549478
-0.3087979988260486,-0.3087979988260486,1.000071178974384,0.00016013278590059921
-0.30755028266867157,-0.30755028266867157,1.0001189023225794,0.00016363041542537992
-0.3066893422866997,-0.3066893422866997,0.9999375316279879,0.00015981808009862773
