time,time,flux,flux_err
-0.499750546051655,-0.499750546051655,0.9998181533644734,0.0001073870417442829
-0.49906921686779243,-0.49906921686779243,1.0000190091619001,0.00010712161758575079
-0.49846635285648516,-0.49846635285648516,0.9999424220193911,0.00010684408936935772
-0.4976282464544056,-0.4976282464544056,0.9999597625317496,0.00010729321430913369
-0.49710137211950495,-0.49710137211950495,1.0002157656331545,0.00010592486087579448
-0.49655903785314875,-0.49655903785314875,1.0000945806255135,0.00010744013200198081
-0.4959105543239275,-0.4959105543239275,0.9999917261407744,0.00010712469868421372
-0.49527492526103745,-0.49527492526103745,1.000022854337454,0.00010680677005005965
-0.49442088982905263,-0.49442088982905263,1.000132158207699,0.00010665299641237045
-0.49395821172220167,-0.49395821172220167,1.0003155512054593,0.0001056796464749356
-0.49335648739070165,-0.49335648739070165,0.9998988825206107,0.0001081817878524066
-0.49272261330625045,-0.49272261330625045,1.0002196982765121,0.0001066274796024319
-0.4921388670045417,-0.4921388670045417,0.9999634922437582,0.00010662252939837725
-0.4913297457562294,-0.4913297457562294,0.9998121312445829,0.0001059071337226189
-0.4908238517266,-0.4908238517266,1.0001502193636487,0.00010649531459145325
-0.4901360191113781,-0.4901360191113781,1.0000295854329164,0.00010748303403783933
-0.4895614599372493,-0.4895614599372493,0.9998905826794395,0.00010741924656637909
-0.4888945589045761,-0.4888945589045761,0.9999139187583485,0.00010594170873570239
-0.48822332628187726,-0.48822332628187726,0.9997848884084817,0.00010590917175612856
-0.487655735417502,-0.487655735417502,1.0000077904833706,0.00010729842565509102
-0.48694270457199307,-0.48694270457199307,1.0000179877971456,0.00010725714055165765
-0.4863980076595908,-0.4863980076595908,0.999919037042386,0.00010762214079072822
-0.48569818936521186,-0.48569818936521186,0.9998879610411617,0.00010518392708622772
-0.48506654212833383,-0.48506654212833383,1.000015794453833,0.00010643522427299791
-0.48448800180340185,-0.48448800180340185,0.9999621355814261,0.00010747221347117732
-0.4837497958476888,-0.4837497958476888,1.0000640882017575,0.00010722273173041893
-0.4833307875698665,-0.4833307875698665,0.9999431067408049,0.00010759991426599249
-0.4826808027253719,-0.4826808027253719,0.9998154804217017,0.00010518777727035597
-0.48216064379084855,-0.48216064379084855,0.9999454670607196,0.00010729581373983041
-0.48176668549422175,-0.48176668549422175,1.0002071692168317,0.00010651528682416292
-0.4813263487390941,-0.4813263487390941,1.0002214971407366,0.00011136963635910232
-0.4806747671944322,-0.4806747671944322,1.000068921498467,0.00010670364255480495
-0.4802683639631141,-0.4802683639631141,0.9999900676629648,0.0001071971563408486
-0.4796611534256954,-0.4796611534256954,1.0000133393246606,0.00010613220926375955
-0.47910065756586845,-0.47910065756586845,0.999929978638374,0.00010659247107567109
-0.47854585662425964,-0.47854585662425964,0.9998615370816685,0.00011187258642607385
-0.47807611128664573,-0.47807611128664573,1.0001640988414544,0.00010818163744411256
-0.4774371671344852,-0.4774371671344852,0.9999774439199498,0.00010743603360461389
-0.477189229906071,-0.477189229906071,0.9998525435981399,0.00010733778126701227
-0.4767829560354585,-0.4767829560354585,0.9999412737485948,0.00010612459655670551
-0.47622345299459995,-0.47622345299459995,1.000080544337412,0.00010734060096114966
-0.4757907334918855,-0.4757907334918855,1.0000568290082925,0.00010754831547692333
-0.47539333775348497,-0.47539333775348497,1.0000909161379608,0.00011305133152305175
-0.47490535261458716,-0.47490535261458716,0.9999653414069833,0.00010705742613992554
-0.47432987500505985,-0.47432987500505985,0.9999084304103061,0.00010803971685610596
-0.4740875710675027,-0.4740875710675027,0.9999325031539625,0.00010743239344785445
-0.47367767165414987,-0.47367767165414987,1.000012660009686,0.00010602766413637496
-0.47317309836507776,-0.47317309836507776,0.9999932956858613,0.00010732567285171833
-0.4727575678116409,-0.4727575678116409,0.9998915731859139,0.00010716280518012268
-0.4723095901950728,-0.4723095901950728,0.9996611046162597,0.00011482176123728648
-0.47172672955784944,-0.47172672955784944,0.9999578835058228,0.00010708966869618652
-0.4712022076069843,-0.4712022076069843,1.0000019853582889,0.00010713540198700703
-0.47099773609952533,-0.47099773609952533,1.000080629241865,0.00010749202336048857
-0.4704948291910114,-0.4704948291910114,1.0000959424541493,0.00010685981871375486
-0.47003628583624957,-0.47003628583624957,1.000074870522035,0.00010660562234703595
-0.46962771951803006,-0.46962771951803006,1.0002895914522654,0.00010768166838197223
-0.46919314642436805,-0.46919314642436805,0.9999336041699193,0.00011672370792039307
-0.46851697175006846,-0.46851697175006846,0.9998477040164252,0.00010682303948686338
-0.46808461504988375,-0.46808461504988375,1.0000056564043787,0.00010714076009057901
-0.46786288837029133,-0.46786288837029133,0.9998829201793328,0.00010749511292575799
-0.4674070662265876,-0.4674070662265876,1.0000327626242032,0.0001061031461112498
-0.46698859794414604,-0.46698859794414604,0.999948244172221,0.00010658033645759417
-0.46668804094078953,-0.46668804094078953,0.9999581783013154,0.00010739920190023216
-0.4662158684106544,-0.4662158684106544,0.9996801129623462,0.00011656756902590434
-0.4658087508782046,-0.4658087508782046,0.999885841428989,0.0001080301924966099
-0.4650787109247176,-0.4650787109247176,0.9999355409557114,0.00010719957013397253
-0.46487890919379427,-0.46487890919379427,1.0000456117268894,0.00010665977788359812
-0.46439979170972945,-0.46439979170972945,1.000042812160998,0.00010688500839946434
-0.46394580059859436,-0.46394580059859436,0.9998717993418627,0.00010655528592023071
-0.46362859665823636,-0.46362859665823636,0.9998991892911937,0.00010735089064160931
-0.4632199900486739,-0.4632199900486739,1.0004354617234725,0.00010847990700875623
-0.462781198558514,-0.462781198558514,1.0001117078596713,0.0001087235952202613
-0.4620149541005958,-0.4620149541005958,0.9998794626272286,0.00010652985924893327
-0.46181871996086554,-0.46181871996086554,0.9999944472336741,0.00010730822460148317
-0.46140455223212484,-0.46140455223212484,0.9999161637447956,0.00010679650626215485
-0.4609955698804697,-0.4609955698804697,1.0000155924810374,0.00010664668407011384
-0.4606382366095204,-0.4606382366095204,0.9999715109353995,0.00010817058390501387
-0.4602628311433364,-0.4602628311433364,1.0000514636408764,0.00010698508559773382
-0.4596049503859831,-0.4596049503859831,1.000079107697962,0.00010690103172766361
-0.45896324120112697,-0.45896324120112697,1.0000739020632359,0.00010664178485817518
-0.4587469976802822,-0.4587469976802822,0.9999277168265654,0.00010720801574105464
-0.4583479042921681,-0.4583479042921681,1.0001023093189523,0.00010690674527147365
-0.4579725089104613,-0.4579725089104613,0.9999142334464629,0.00010654519801620718
-0.4575572789675789,-0.4575572789675789,1.0000102519150507,0.00010783336103557647
-0.45716970692446923,-0.45716970692446923,1.0000123439624873,0.00010788636336848671
-0.4564373393630376,-0.4564373393630376,1.0000054435320087,0.00010601137160869614
-0.45580596892395986,-0.45580596892395986,0.9998115302277935,0.00010747825369140546
-0.4555699949123664,-0.4555699949123664,0.9998904146699962,0.00010650046741607027
-0.4550423139007762,-0.4550423139007762,0.999943872978943,0.00010741363546514719
-0.4546641580411233,-0.4546641580411233,1.0001678715844409,0.00010656118126630009
-0.45423612001759467,-0.45423612001759467,0.9999888679562524,0.000107515847579418
-0.45370141210150905,-0.45370141210150905,1.000050857354202,0.00010650945331988314
-0.45295553232717795,-0.45295553232717795,1.0000685939806053,0.00010667179571614512
-0.45263780116511043,-0.45263780116511043,0.9999415601480047,0.00010663739515924078
-0.4521368894027546,-0.4521368894027546,1.0000291324534565,0.00010728138091372433
-0.45182880577631296,-0.45182880577631296,1.0000558255130523,0.00010666376964398898
-0.4513442193885567,-0.4513442193885567,1.0000236885555345,0.00010824081097957499
-0.4509506622591289,-0.4509506622591289,1.0000716766817412,0.00010694133181284518
-0.45041452847654,-0.45041452847654,1.0001877779059494,0.00010596149120843418
-0.44979127617843917,-0.44979127617843917,1.0001088566566978,0.00010701390787528842
-0.4495266668789554,-0.4495266668789554,1.0000656958984462,0.00010723137109561766
-0.44895557532727254,-0.44895557532727254,0.9997358258926751,0.00010744776963046512
-0.448559617754654,-0.448559617754654,0.9998837844788351,0.00010738325572905037
-0.4481456553330645,-0.4481456553330645,1.000207886001443,0.00010727767009504556
-0.447701426668209,-0.447701426668209,1.000275315231408,0.00010707704288623477
-0.44709629423741715,-0.44709629423741715,0.9998317471679998,0.00010603274243707356
-0.44661847267707344,-0.44661847267707344,1.0001354423390763,0.00010666793651922053
-0.44631376151519364,-0.44631376151519364,0.9998951920504744,0.00010749547109429958
-0.4458302698621992,-0.4458302698621992,0.999923901810433,0.00010736913078257518
-0.4454009647219209,-0.4454009647219209,0.9999159104353849,0.00010733144771236042
-0.4449927772395313,-0.4449927772395313,1.000064540419626,0.00010723632676526804
-0.4445716716872994,-0.4445716716872994,1.0000448910724686,0.00010646868615003429
-0.4439616613497492,-0.4439616613497492,0.9997480331561203,0.00010592230251626703
-0.44360408969223497,-0.44360408969223497,1.0001141007155365,0.0001073670700295747
-0.44333377307048066,-0.44333377307048066,1.0000159809402527,0.00010742451127672878
-0.4429620799928671,-0.4429620799928671,1.000223010736986,0.00010662108003278472
-0.4425263696961338,-0.4425263696961338,1.0001161061808486,0.00010737782943243618
-0.4420461984613212,-0.4420461984613212,1.0000577939578748,0.00010732225566555795
-0.4416590637236368,-0.4416590637236368,1.00019425915398,0.00010655123204155724
-0.44125175012741236,-0.44125175012741236,1.0000013816483808,0.00010661592703015954
-0.44077387838624416,-0.44077387838624416,0.9998892720819615,0.00010676691429849698
-0.44046196693670936,-0.44046196693670936,1.0002079454329345,0.00010671688444414005
-0.44022430104087107,-0.44022430104087107,0.9998405505781603,0.00010733151949263084
-0.43982507720356806,-0.43982507720356806,0.9999274775260816,0.00010747289755947754
-0.43935460671782495,-0.43935460671782495,0.9999895377331824,0.00010655152291954889
-0.438875923116575,-0.438875923116575,1.0000070927701354,0.00010785380814362365
-0.4385524725104915,-0.4385524725104915,0.9998749795641304,0.00010666396628030873
-0.4381088388065109,-0.4381088388065109,1.0000051178453937,0.00010590918082888062
-0.4376085618598154,-0.4376085618598154,0.9998588553099985,0.0001073816799209435
-0.4372820926073473,-0.4372820926073473,0.9999052985331336,0.00010755974813992876
-0.43697126147453674,-0.43697126147453674,1.0001315707755711,0.00010741879651717994
-0.4364535611588508,-0.4364535611588508,0.9999966282614217,0.00010732412922073451
-0.4360239091620315,-0.4360239091620315,0.9997792389984446,0.00010641078854223957
-0.4356494830950396,-0.4356494830950396,1.0001570140697116,0.00010654723656091118
-0.4352961052412866,-0.4352961052412866,1.0003068803040427,0.00010626524091065784
-0.4347486632934306,-0.4347486632934306,0.9999678835383108,0.00010655569980106234
-0.4342934790882282,-0.4342934790882282,0.9999922970369276,0.00010675675851173688
-0.43389468660170677,-0.43389468660170677,1.0000194713576498,0.00010820845615813392
-0.4333948612358654,-0.4333948612358654,1.0000502337344115,0.00010649560908089367
-0.4329557458171621,-0.4329557458171621,1.0000123042460272,0.00010687099492998615
-0.43261553131451363,-0.43261553131451363,1.000026653784024,0.00010675388086377248
-0.43214873622346206,-0.43214873622346206,1.0000874238323414,0.00010640745576573356
-0.43162911663239356,-0.43162911663239356,0.999985848391886,0.00010585914287565329
-0.43115458692482206,-0.43115458692482206,1.0000381063818542,0.00010751885084336374
-0.43066325574473013,-0.43066325574473013,1.0001191032054224,0.00010737445504386417
-0.4301136428141035,-0.4301136428141035,0.9998779650008025,0.0001066024421885624
-0.42963045240030623,-0.42963045240030623,1.0001067550054201,0.00010671935633922453
-0.42918856751348355,-0.42918856751348355,1.0001229583506057,0.00010568252678674977
-0.4287944413954392,-0.4287944413954392,1.0000348857081554,0.00010641567809781453
-0.428306903981138,-0.428306903981138,0.9998931935434827,0.00010678152301035491
-0.4279167067579692,-0.4279167067579692,0.9999715930878637,0.00010813569984443926
-0.4273749549785862,-0.4273749549785862,1.0000714383350364,0.00010592435859569643
-0.42686666279041674,-0.42686666279041674,0.9998874967464586,0.0001075679129311314
-0.4264695329562528,-0.4264695329562528,1.0000373495654937,0.00010707408621008491
-0.4260856917971978,-0.4260856917971978,1.0001240376904859,0.00010565076452458878
-0.42567279710783623,-0.42567279710783623,0.9999722493513564,0.00010589207431411611
-0.4251702420733636,-0.4251702420733636,0.9999193707601369,0.00010738167398022168
-0.4247425493755145,-0.4247425493755145,1.000160301854951,0.00010829103618259332
-0.4242381398042198,-0.4242381398042198,1.0000062007062684,0.0001057707533708118
-0.42368693931493906,-0.42368693931493906,1.0000595060301816,0.00010673511639604268
-0.42315513144712896,-0.42315513144712896,1.0000765737637338,0.00010630452102606842
-0.42281166510656476,-0.42281166510656476,1.0000757645879959,0.00010662417279551921
-0.42225931348511947,-0.42225931348511947,0.9999072513725087,0.00010582400673011124
-0.42176545391848774,-0.42176545391848774,0.9999688495687289,0.00010820731603905275
-0.4213207219407195,-0.4213207219407195,1.0001030473984316,0.00010593027496882223
-0.4207423431100324,-0.4207423431100324,1.0000221785883578,0.00010679344680273232
-0.42017097370699047,-0.42017097370699047,1.0000146028971169,0.00010609904939715676
-0.4198526314314222,-0.4198526314314222,1.000160458478011,0.0001066329446881978
-0.41937469439872077,-0.41937469439872077,0.9998624814366256,0.00010588358968754577
-0.41868792380264497,-0.41868792380264497,0.999971474368226,0.00010826568566446145
-0.4182935467979405,-0.4182935467979405,1.0001704586726659,0.00010576734398510237
-0.41764149598311634,-0.41764149598311634,0.999932458571827,0.0001058803568315776
-0.41706245063687675,-0.41706245063687675,1.0001129019463124,0.00010572014137579398
-0.4167165913007921,-0.4167165913007921,1.0002442642056724,0.0001072410661308637
-0.41622357120213566,-0.41622357120213566,0.9999330914089833,0.00010657917820177708
-0.41550365680886897,-0.41550365680886897,1.00010988028223,0.00010668460540042819
-0.41502162607503124,-0.41502162607503124,1.000041440011593,0.00010596033464559556
-0.41437088444363324,-0.41437088444363324,0.9999020720339311,0.00010623680610260419
-0.4138530785276089,-0.4138530785276089,0.9999771658909754,0.00010659631914595803
-0.41353437819052485,-0.41353437819052485,1.0001355279141637,0.00010564222524384257
-0.4128803081606748,-0.4128803081606748,0.9999893220734279,0.00010827893838098314
-0.41229424023767935,-0.41229424023767935,1.0000413320668469,0.00010592446003972905
-0.41171220994729085,-0.41171220994729085,1.0000150917557558,0.0001066549745540786
-0.41105558049457613,-0.41105558049457613,1.0000532596237284,0.00010500527720506195
-0.4105937464570161,-0.4105937464570161,1.0000050910480882,0.00010653629644831674
-0.41016376005136407,-0.41016376005136407,0.9999018411037304,0.00010727062633826097
-0.40955285565869415,-0.40955285565869415,0.9996950220178794,0.0001073386868836818
-0.40916932429827285,-0.40916932429827285,0.9999304855250891,0.00010602579015910879
-0.4085695122485049,-0.4085695122485049,1.0001221935084808,0.0001063790252971857
-0.40789743143832313,-0.40789743143832313,0.9999166548626514,0.00010524499192034436
-0.4074525810952764,-0.4074525810952764,1.0000768566847709,0.00010719584844439098
-0.40675479714700485,-0.40675479714700485,0.9999841894583421,0.00010738007729153886
-0.40622701817483176,-0.40622701817483176,0.9999377588203483,0.00010663017151000421
-0.4056414937454974,-0.4056414937454974,0.9999897398361176,0.00010584110787913022
-0.4050132418953581,-0.4050132418953581,1.0000878369183182,0.00010582257558891253
-0.40447151896660216,-0.40447151896660216,1.0002167126695232,0.00010656922215192042
-0.4038820902293082,-0.4038820902293082,1.0001894864453087,0.00010805746162559054
-0.4032876212033443,-0.4032876212033443,0.9999478254026286,0.00010600708279439245
-0.402546591614373,-0.402546591614373,1.0000265500567957,0.00010639578537674853
-0.40186613936675714,-0.40186613936675714,0.9998267970444937,0.0001059879887088145
-0.4013154681073502,-0.4013154681073502,1.000083326100599,0.0001072196495280836
-0.4006574113387614,-0.4006574113387614,1.000181690938109,0.00010728176169906129
-0.39982544134545606,-0.39982544134545606,1.0001328584238054,0.00010736487839857626
-0.39907009933667725,-0.39907009933667725,0.9999929179032598,0.00010589944420024998
-0.39850117968162524,-0.39850117968162524,1.0001155834430004,0.00010669698112422445
-0.39788871033815665,-0.39788871033815665,1.0001286050491784,0.00010795169973402583
-0.39710183829884044,-0.39710183829884044,0.9999863923329574,0.00010670428890676063
-0.3962363700440619,-0.3962363700440619,1.0001512828948147,0.00010722748386427991
-0.39558104815077966,-0.39558104815077966,0.999956979154889,0.00010595457892989283
-0.3949378077842994,-0.3949378077842994,1.0001138264818434,0.000107955135672364
-0.3942176503769588,-0.3942176503769588,0.9999514576979001,0.00010754240422450742
-0.3933195337333018,-0.3933195337333018,1.000082921417881,0.0001070960932276061
-0.3926719158946071,-0.3926719158946071,0.9999349631302717,0.00010613500488568546
-0.39198341915616763,-0.39198341915616763,1.0001066089565982,0.00010714873522638582
-0.3913477021094877,-0.3913477021094877,1.0000595782411703,0.00010750365857815028
-0.39043340894277206,-0.39043340894277206,0.9999948313418339,0.00010717118674001608
-0.389836016917252,-0.389836016917252,1.000003537660767,0.0001061078836288938
-0.3893188992980868,-0.3893188992980868,1.0000328819814996,0.00010740023392630351
-0.38864046996459367,-0.38864046996459367,0.9999662079723608,0.0001071124982015342
-0.38802908574871253,-0.38802908574871253,0.9999162371572075,0.00010685110505786536
-0.3872007310332265,-0.3872007310332265,1.0001890699194926,0.0001073101071218055
-0.3866632965480676,-0.3866632965480676,0.9999404795037259,0.00010590954670527786
-0.3861263806262286,-0.3861263806262286,0.9999813352190212,0.0001074134992072619
-0.3854837582766777,-0.3854837582766777,0.9998845966099361,0.00010712639982649922
-0.38484021680196745,-0.38484021680196745,1.0000624963844529,0.00010679909082426638
-0.38398710027977356,-0.38398710027977356,0.9999052412506886,0.00010665038418900615
-0.3835217917250702,-0.3835217917250702,0.9998427235429229,0.00010568102072421485
-0.38306286245642696,-0.38306286245642696,0.9999867662847673,0.0001083177574366647
-0.382404432198382,-0.382404432198382,0.9999753262635991,0.00010714266812001645
-0.3818176420812961,-0.3818176420812961,0.9999502773827238,0.0001059746786391751
-0.3810401750350138,-0.3810401750350138,1.0000862876473762,0.0001067550859736379
-0.3804857985523995,-0.3804857985523995,1.0001878867407992,0.00010567437990262542
-0.3798553757980699,-0.3798553757980699,1.000296479891089,0.00010820695561386862
-0.37923600861104206,-0.37923600861104206,0.9998687716753694,0.0001066455139292496
-0.37865817442070693,-0.37865817442070693,1.0000317088351536,0.00010663706785928372
-0.37786562661931383,-0.37786562661931383,0.9999521245385031,0.00010590266448506439
-0.3773419554287102,-0.3773419554287102,1.0002064903021117,0.0001064821446539962
-0.3766486541455379,-0.3766486541455379,1.0000669944501575,0.0001075058679568376
-0.376062333790469,-0.376062333790469,0.9999796055777225,0.00010739305176720927
-0.3754263493872713,-0.3754263493872713,1.000062130396334,0.00010598163733749517
-0.37475353136542255,-0.37475353136542255,0.9998344429253351,0.00010585567906016497
-0.37417270126461516,-0.37417270126461516,0.9999298086213244,0.00010730352596262911
