time,time,flux,flux_err
-0.49868331649183045,-0.49868331649183045,0.9999480379822513,0.00019183898166523356
-0.4970154993012936,-0.4970154993012936,1.0000688946117948,0.00019217361089853395
-0.4952363853074833,-0.4952363853074833,0.9998501494132328,0.0001914072555769822
-0.49354612629467737,-0.49354612629467737,0.9997699869251033,0.00017520190831517524
-0.4924173891020473,-0.4924173891020473,0.9998536889171195,0.00017486230727762746
-0.49047821552376264,-0.49047821552376264,0.9996096076757451,0.00017661390886282308
-0.489635150077811,-0.489635150077811,0.9999187112170631,0.00017480536803712643
-0.48885669436931495,-0.48885669436931495,1.0002826115837187,0.00017736080572672367
-0.48703750266649876,-0.48703750266649876,1.0000066062934636,0.00017484629653453292
-0.485522031274013,-0.485522031274013,0.9999621158409855,0.00017787385445128598
-0.48400465558006545,-0.48400465558006545,1.0001020841409811,0.00017485157427924605
-0.48231774516170844,-0.48231774516170844,1.0000477403872572,0.00017497658350828826
-0.48057606126676544,-0.48057606126676544,0.9997343078485625,0.00017917769392037346
-0.47927521914971294,-0.47927521914971294,1.000063724370747,0.00017490398587122433
-0.4781739522390126,-0.4781739522390126,1.000020561485043,0.00018054001453212388
-0.47619255693425655,-0.47619255693425655,0.9999570876184665,0.00017482208546651612
-0.4747653506172355,-0.4747653506172355,1.0001071866610949,0.00017748634539346413
-0.47346188866213196,-0.47346188866213196,0.999948203252444,0.00017517088550722044
-0.4721891141285596,-0.4721891141285596,0.9997708781548201,0.00017496482707976825
-0.471270103698771,-0.471270103698771,0.9998205700646041,0.0001747748683264588
-0.4700493973039556,-0.4700493973039556,0.9996777744416689,0.00017483079959230015
-0.4689662561213481,-0.4689662561213481,1.000632423951877,0.00017543760156003347
-0.4677690820288262,-0.4677690820288262,1.000087612128196,0.00017519455061179343
-0.4655303434949019,-0.4655303434949019,0.9996112314237614,0.00017568127101614468
-0.46469499541199183,-0.46469499541199183,0.9999951136598672,0.0001754076137060344
-0.4636300309393846,-0.4636300309393846,1.0001621336374524,0.0001748333158936873
-0.46216244327661116,-0.46216244327661116,1.0002786884221826,0.00017727266491193304
-0.4609848029387649,-0.4609848029387649,1.0000791388010053,0.00017572476783057295
-0.4599284492280276,-0.4599284492280276,1.0001295702504531,0.00017806393058733555
-0.45854214361534107,-0.45854214361534107,0.9997601841186616,0.00017483145303196597
-0.4574461193056777,-0.4574461193056777,1.0001869613066932,0.0001749622078983171
-0.45612980262885683,-0.45612980262885683,0.9996886863050788,0.00017476513255518944
-0.45479256408289076,-0.45479256408289076,1.0003893097954664,0.00017922906310371115
-0.45414435221246097,-0.45414435221246097,1.0001952324509285,0.0001769067482437427
-0.45238274094517694,-0.45238274094517694,1.000198792781647,0.00017483761746642926
-0.45099109984221286,-0.45099109984221286,1.000175092035359,0.00017820901512136618
-0.45006006778057783,-0.45006006778057783,1.0001039421157771,0.0001776026060221466
-0.4483234965453448,-0.4483234965453448,0.9998567923341148,0.00017509215365237444
-0.44718844137096314,-0.44718844137096314,1.0000757284300525,0.00017489128253658933
-0.446028460420348,-0.446028460420348,0.9999043777668453,0.00017519606648445146
-0.4441020641039358,-0.4441020641039358,1.0000511338219051,0.000175593590253234
-0.4429301793446939,-0.4429301793446939,1.0003028256523072,0.00017490547266460287
-0.44081067888400866,-0.44081067888400866,0.9999440386041222,0.00017468984151704724
-0.4396404425126093,-0.4396404425126093,0.9999050987274483,0.00017526317697538112
-0.4370997291771346,-0.4370997291771346,0.9996793431234036,0.00017479364719266694
-0.43595035290636586,-0.43595035290636586,0.9998798951219168,0.00017486755973737265
-0.4337906847278646,-0.4337906847278646,0.9999793799590957,0.0001768455005357531
-0.4323408687276242,-0.4323408687276242,1.0000638291373165,0.0001749602886302951
-0.43075160639928073,-0.43075160639928073,1.0002689540442493,0.00017980757260265828
-0.4296139511665388,-0.4296139511665388,1.000197929832328,0.00017621847359652933
-0.4280812837008853,-0.4280812837008853,1.0002745061003346,0.0001748590484337193
-0.4265333477196691,-0.4265333477196691,0.9998423089667672,0.00017896659196702484
-0.4256334184021398,-0.4256334184021398,1.0000613978242772,0.00017486197333323427
-0.4245719886130246,-0.4245719886130246,1.0001186092408019,0.0001772986790579737
-0.42278818636914367,-0.42278818636914367,1.000331825968917,0.00017481833087363912
-0.4211228294079774,-0.4211228294079774,1.00015466644013,0.00017757597443564398
-0.4192727904403,-0.4192727904403,0.9999966699345946,0.0001749798686918838
-0.4179478424222907,-0.4179478424222907,0.9998049981549346,0.00017481683159398915
-0.4163387137479731,-0.4163387137479731,0.9999627404824423,0.00017538840104580793
-0.41526011656678746,-0.41526011656678746,1.0001437768687462,0.00017519203511189718
-0.41453964730972076,-0.41453964730972076,0.9999667621765387,0.0001756184656265482
-0.4131284780771239,-0.4131284780771239,0.9999746409107525,0.0001756191042369824
-0.41169953866119613,-0.41169953866119613,0.9996827409226325,0.00017595114204676694
-0.4109019329036528,-0.4109019329036528,0.9999095775604532,0.00017476587179667883
-0.40898441637546057,-0.40898441637546057,0.999932044842733,0.0001755772776026574
-0.4079291712580016,-0.4079291712580016,1.0000321074496654,0.00017494058815794
-0.4071817880620074,-0.4071817880620074,0.9998076979200174,0.00017748849974022745
-0.4051245768918307,-0.4051245768918307,1.0002481231458027,0.0001748036815306128
-0.4040704190651013,-0.4040704190651013,1.0000627115754797,0.00017495229915429333
-0.40253034888446565,-0.40253034888446565,0.9998752489995768,0.00017927800090195418
-0.40119073771929836,-0.40119073771929836,1.0001644443168571,0.00017473994584600743
-0.4002403457096079,-0.4002403457096079,1.0001199303807584,0.00017706829263544014
-0.3981671436384204,-0.3981671436384204,0.9997873284849608,0.00017485114580189355
-0.3972599696920952,-0.3972599696920952,0.9998146839828588,0.00017497555527935875
-0.39619266729205266,-0.39619266729205266,0.999997124197027,0.00017759903171034436
-0.3949529592442559,-0.3949529592442559,1.0001886789454102,0.00017525700739998306
-0.39379997298601666,-0.39379997298601666,1.0000940586103408,0.00017484743305510962
-0.3929204572545132,-0.3929204572545132,0.9999140991869829,0.0001747096832138882
-0.3915678576435312,-0.3915678576435312,1.0000246586450219,0.00017487481500400454
-0.39030464826064415,-0.39030464826064415,0.9999170259581334,0.00017513391168659162
-0.3886130885934108,-0.3886130885934108,1.0001677291366757,0.0001748547710581221
-0.38691689225452136,-0.38691689225452136,0.9999476082077084,0.00017532547362508587
-0.3861304731675773,-0.3861304731675773,0.9998708271298054,0.00017477676315162406
-0.38420106398698406,-0.38420106398698406,1.0001957201264042,0.00017638571217938267
-0.38274926665908426,-0.38274926665908426,1.000273674344223,0.00017490561669161565
-0.38148648949354536,-0.38148648949354536,1.0002022489411448,0.00017565713925134354
-0.38021745357109465,-0.38021745357109465,1.0001089178623035,0.0001748246112771881
-0.3791594067479309,-0.3791594067479309,1.0003013868459383,0.00017933701689502236
-0.37752391519461526,-0.37752391519461526,0.9999444718303812,0.00018016851451453251
-0.376329331145098,-0.376329331145098,1.0001844928029464,0.00017621374675807572
-0.37538091560927567,-0.37538091560927567,1.0000206360114303,0.00017502028720188252
-0.37337149487357235,-0.37337149487357235,1.0000222109639516,0.0001786394417551575
-0.37260942994835206,-0.37260942994835206,0.9998570101070572,0.00017468705418874564
-0.37167776806891195,-0.37167776806891195,1.0000755214566008,0.00017766292980287758
-0.36973900444572794,-0.36973900444572794,1.000126568721798,0.0001748224130899421
-0.3686568088029162,-0.3686568088029162,0.9999550503768742,0.00017492638775359426
-0.3669541442475747,-0.3669541442475747,0.999869531867849,0.0001751835723858859
-0.3654105227389664,-0.3654105227389664,1.0000832482181914,0.00017554187492610352
-0.3638220298969827,-0.3638220298969827,0.9997144597585633,0.00017475447163263898
-0.36208261819701876,-0.36208261819701876,1.0001799802717768,0.00017484626808519354
-0.3612910277377523,-0.3612910277377523,1.0002301435413927,0.00017529047163712143
-0.3593457715753175,-0.3593457715753175,1.0000568307454087,0.0001747938873202895
-0.35829986062526586,-0.35829986062526586,0.999925008045585,0.00017671418469275134
-0.35756467471219366,-0.35756467471219366,1.0001232109149745,0.00017482822155802646
-0.35603459459889564,-0.35603459459889564,1.0001721509168593,0.00017667761227205833
-0.35440068079769843,-0.35440068079769843,0.9999150301503136,0.00017496972327221084
-0.3520689545817731,-0.3520689545817731,0.9997710807256034,0.0001748003064192411
-0.35063676756908535,-0.35063676756908535,0.9999273960708122,0.00017497895821511213
-0.348896308082476,-0.348896308082476,1.000274156138295,0.00017918865518795968
-0.3475946988175565,-0.3475946988175565,1.000109932527817,0.000174920539920183
-0.3461084638991451,-0.3461084638991451,0.9999565513017948,0.00017712329456226017
-0.34390038804413053,-0.34390038804413053,0.9999655213109226,0.0001747019634198177
-0.34274039165102294,-0.34274039165102294,1.000025596425374,0.00017794499030703766
-0.34124424307447043,-0.34124424307447043,0.9999124164520754,0.00017496706035875033
-0.34015356787567724,-0.34015356787567724,0.9995781651813462,0.00017484842485410295
-0.3390006986213848,-0.3390006986213848,0.9998730825609311,0.00017472038967781587
-0.3380993625789415,-0.3380993625789415,0.9998789081391599,0.00017778441685022258
-0.3372865622739482,-0.3372865622739482,0.999996087118076,0.0001754053562994274
-0.33608877361330086,-0.33608877361330086,1.000011219220711,0.00017520118792472807
-0.33399791332849416,-0.33399791332849416,1.0001927635428405,0.00017572773788198786
-0.333058057371818,-0.333058057371818,0.9999285621413758,0.0001748538839276978
-0.3316985673714953,-0.3316985673714953,0.9996651850011027,0.00017545640848999638
-0.3304319132468663,-0.3304319132468663,1.0000894930406539,0.00017554954253048052
-0.329244287408801,-0.329244287408801,0.9998961843860992,0.00017488401678383757
-0.32794537400477564,-0.32794537400477564,1.000123140236242,0.00017814118422952
-0.3266636557826132,-0.3266636557826132,0.9997940518597066,0.00017483514516085526
-0.3257434778046445,-0.3257434778046445,1.0000551718870425,0.00017495368957629902
-0.3246083554913639,-0.3246083554913639,1.0000881834771485,0.00017487439454720867
-0.32333586979148093,-0.32333586979148093,1.0000177184466332,0.00018009772680102528
-0.32258196787224735,-0.32258196787224735,0.999909866494663,0.00017498083427013852
-0.32125040447645004,-0.32125040447645004,1.0001851450577663,0.00017833139859753735
-0.3198055517525063,-0.3198055517525063,0.9999372942052354,0.00017554578316647808
-0.3188022176909726,-0.3188022176909726,0.9998715614215271,0.00017508173876640292
-0.3174841396888951,-0.3174841396888951,0.9999572308029328,0.00017814189486949108
-0.3163254659077211,-0.3163254659077211,1.0000045263130704,0.00017483959629601084
-0.31517716253656547,-0.31517716253656547,0.9997519035249077,0.0001747886540722436
-0.3132400414768199,-0.3132400414768199,1.0000735405130667,0.00017480323316543158
-0.31183939038673997,-0.31183939038673997,0.9999282217246372,0.00017559567511354332
-0.3101774798073166,-0.3101774798073166,1.0001623255250922,0.0001748081243154641
-0.3086097220875672,-0.3086097220875672,1.0001101454853094,0.00017573526689452842
-0.30757890446839153,-0.30757890446839153,1.0000460284151065,0.00017478175800981246
-0.30505301973607857,-0.30505301973607857,1.000107958680731,0.00017492648004667063
-0.3039721195338643,-0.3039721195338643,1.000185675160502,0.00017689307207552674
-0.30204811606017756,-0.30204811606017756,0.9999423994298736,0.00017476598851558377
-0.3006606433162233,-0.3006606433162233,0.9998892482153627,0.00017493927992426496
-0.29922216202394336,-0.29922216202394336,1.0003593549943801,0.0001795277105551501
-0.297966761564021,-0.297966761564021,1.0001549220934258,0.00018014524726714834
-0.29640144821460124,-0.29640144821460124,1.0002511054760959,0.00017484230620040125
-0.29489040857297366,-0.29489040857297366,1.0000067900399747,0.00017898557048852986
-0.2941505923459772,-0.2941505923459772,0.9999299275159362,0.00017491997322392514
-0.29321430849740865,-0.29321430849740865,0.9998848555869678,0.000177243340802746
-0.2914023566605465,-0.2914023566605465,0.9997697024789011,0.00017480346670809975
-0.28980844332036215,-0.28980844332036215,1.0000014258221859,0.0001771714403646086
-0.28791745714843275,-0.28791745714843275,0.9999299459876777,0.0001753496232155749
-0.2866633833968081,-0.2866633833968081,0.9998896030374211,0.00017477610578261194
-0.2848403731797589,-0.2848403731797589,0.9997766449464425,0.0001747702434007333
-0.28373207851182086,-0.28373207851182086,1.0002698326329518,0.00017581764042337968
-0.2830116224307858,-0.2830116224307858,0.9999942926816043,0.00017563940807336295
-0.2817225230472104,-0.2817225230472104,0.999904248569649,0.00017565002909898474
-0.280020171868091,-0.280020171868091,1.000592141659761,0.00017603713617371175
-0.2792216509769787,-0.2792216509769787,1.0000569353138224,0.00017477901120710638
-0.2773041245636705,-0.2773041245636705,1.0000348043921072,0.00017559783028758244
-0.27624208242923487,-0.27624208242923487,1.000006189168483,0.00017491994715366452
-0.27475573808696935,-0.27475573808696935,0.9998704333406472,0.000177424126151082
-0.2728648140298901,-0.2728648140298901,0.99998648631702,0.00017503871789791573
-0.27107552282177494,-0.27107552282177494,1.0000721184927581,0.0001792730693874658
-0.26950992106067134,-0.26950992106067134,1.0000985138551681,0.00017473807819924118
-0.26839135645059287,-0.26839135645059287,1.0002490085923128,0.0001771484749543884
-0.2662651545397239,-0.2662651545397239,0.9998648216581107,0.0001748489751566665
-0.2653696360124741,-0.2653696360124741,1.0005344545314259,0.00017496951015573512
-0.26397029993459,-0.26397029993459,0.9998795210570423,0.00017774377901163732
-0.2624970452809066,-0.2624970452809066,1.0000141827830131,0.0001749544369426749
-0.261531111777731,-0.261531111777731,0.9999989869990851,0.00017476527955149107
-0.26010956010068187,-0.26010956010068187,1.0002241456437162,0.0001751392217279915
-0.2586863548174733,-0.2586863548174733,0.9999826174402736,0.00017510250860371118
-0.2572131471926696,-0.2572131471926696,1.0002728100392653,0.00017492366806525874
-0.25575106257310837,-0.25575106257310837,0.9999584362609657,0.0001747320093709663
-0.25468470293853895,-0.25468470293853895,0.999944984256356,0.0001753821315694614
-0.25328930795003546,-0.25328930795003546,0.9999103883530488,0.00017639191306798504
-0.2515564593486488,-0.2515564593486488,0.9998797622906117,0.00017480672290943314
-0.25076453568399304,-0.25076453568399304,0.9999938861698577,0.0001748358972752442
-0.24886065133978263,-0.24886065133978263,0.9999912105586846,0.0001756723732562506
-0.2476313856030174,-0.2476313856030174,1.000071131969594,0.00017601849698145114
-0.24553109562184544,-0.24553109562184544,0.9999830412505866,0.00018020606086118114
-0.244543861495913,-0.244543861495913,0.9998152969962023,0.00017620059811509107
-0.2438412515548407,-0.2438412515548407,1.0003574230544992,0.0001767031000580208
-0.24221705273012048,-0.24221705273012048,0.9999485855598333,0.00017824985830342666
-0.2412214611271338,-0.2412214611271338,0.999824884180326,0.00017853105803695995
-0.24039450867203413,-0.24039450867203413,1.0000518308027577,0.0001775200326503464
-0.23896766282487078,-0.23896766282487078,1.000022175137207,0.0001748304583455638
-0.2378116910047538,-0.2378116910047538,1.00011260837499,0.00017484124829445462
-0.23673415349257992,-0.23673415349257992,0.9999569002137718,0.00017475992579422077
-0.2351176235366438,-0.2351176235366438,1.0003017408585237,0.00017526703603795425
-0.23373406908140168,-0.23373406908140168,0.9999068152194216,0.00017551720570176785
-0.23291240097387345,-0.23291240097387345,1.0000265447815717,0.0001750061270512919
-0.23118238839379046,-0.23118238839379046,1.0000031490817842,0.00017473417025831194
-0.23006314949379886,-0.23006314949379886,1.0000092407790109,0.0001752742671643362
-0.22854884306070744,-0.22854884306070744,1.0000521694675504,0.0001748631714922761
-0.22683208316957462,-0.22683208316957462,1.0003098671550241,0.000175385236435046
-0.22602990617306204,-0.22602990617306204,1.0001161558866904,0.0001748661024648908
-0.22499214666095213,-0.22499214666095213,1.0000855086566802,0.0001766580301961995
-0.22336474630938027,-0.22336474630938027,1.0000255665147255,0.0001749917886615723
-0.2217874094392755,-0.2217874094392755,1.0000528123858303,0.00017480842876170874
-0.219504213143955,-0.219504213143955,0.9999332231470965,0.00017494854025483319
-0.2178407016552228,-0.2178407016552228,0.9998772220403991,0.00017480882968950195
-0.21638461034090142,-0.21638461034090142,1.0000703335350614,0.00017910571425403915
-0.21558262156759156,-0.21558262156759156,1.000150477180879,0.00017723379457057828
-0.21361216330769822,-0.21361216330769822,0.9999685992578111,0.00017487134579202864
-0.2117094228604401,-0.2117094228604401,0.9999277739294483,0.00017742399497483235
-0.21048855804765482,-0.21048855804765482,1.0003125799475632,0.0001752573494195492
-0.209053533597762,-0.209053533597762,1.0000590968300505,0.00017496209015236902
-0.20824904469627653,-0.20824904469627653,1.0000776137580156,0.0001749280222601203
-0.20699958804398194,-0.20699958804398194,1.0003527724139183,0.00017488726151224505
-0.20624116474791662,-0.20624116474791662,1.0002824766202536,0.00017670148913678376
-0.20546253022330346,-0.20546253022330346,0.99990456326358,0.00017514385407241864
-0.20351017964421772,-0.20351017964421772,1.000166433509963,0.0001749154995311537
-0.2021340219747799,-0.2021340219747799,0.9998947896757719,0.00017573862625017088
-0.2012289797217818,-0.2012289797217818,0.9998413170329113,0.00017485956737433602
-0.19951952011324464,-0.19951952011324464,1.0000996985298292,0.00017557397582723506
-0.19783452963529272,-0.19783452963529272,1.0001393632542002,0.00017492658028824158
-0.1965688443131512,-0.1965688443131512,0.9999286777023053,0.00017815682359327497
-0.19531636390893253,-0.19531636390893253,1.0001125861793305,0.00017788475746227466
-0.19445677432813682,-0.19445677432813682,0.9999677293728709,0.0001750188578850882
-0.19334899219393265,-0.19334899219393265,1.0002757383460197,0.00017478536456329467
-0.19165748529558185,-0.19165748529558185,0.9998045548621846,0.00017928601113386083
-0.19090157680984704,-0.19090157680984704,0.9998577498607386,0.00017498242536525486
-0.18950596928189042,-0.18950596928189042,0.9997322373724259,0.0001767205948864166
-0.187661436253984,-0.187661436253984,0.99988118654028,0.00017476220482695807
-0.18647396915403078,-0.18647396915403078,1.0001920603386438,0.00017802180491903897
-0.18471212333024595,-0.18471212333024595,0.9999908959374502,0.00017482462581253376
-0.18349708476525847,-0.18349708476525847,1.0001611291760741,0.00017482273899537096
-0.18155948017956688,-0.18155948017956688,1.0000452713757344,0.00017479976959862965
-0.18001938712477566,-0.18001938712477566,1.0000731818016226,0.00017508761125418283
-0.178396567596792,-0.178396567596792,0.9998554803626579,0.00017475822944171274
-0.17709679909676196,-0.17709679909676196,1.000374572543837,0.00017532718059614982
-0.1760461351375852,-0.1760461351375852,0.9999872928850337,0.00017477135267921293
-0.17416235670170863,-0.17416235670170863,1.000033500005469,0.0001753916948166761
-0.1727299964550184,-0.1727299964550184,1.0002423507646099,0.00017489034990601985
-0.1712625600674073,-0.1712625600674073,1.0003868849092643,0.0001776561848230069
-0.16977929799759295,-0.16977929799759295,0.999930601726868,0.00017498361383026044
-0.1685296218973235,-0.1685296218973235,1.000183071313242,0.0001759604432030247
-0.16692259076080518,-0.16692259076080518,1.0001902538430325,0.0001836157705431658
