time,time,flux,flux_err
-0.49989588023308895,-0.49989588023308895,1.0000045082033846,6.586166024876371e-05
-0.4996389887921396,-0.4996389887921396,0.999987004489207,6.535314082543982e-05
-0.49939548487018326,-0.49939548487018326,0.999937825955023,6.551717235224954e-05
-0.49906701716972746,-0.49906701716972746,1.0000281246692355,6.580126750803942e-05
-0.49888139538088583,-0.49888139538088583,0.9999852403019973,6.519476806414362e-05
-0.49857648420293116,-0.49857648420293116,0.9999795453163607,6.727489946794471e-05
-0.4983747760226834,-0.4983747760226834,0.9999657054616982,6.543660477184275e-05
-0.4981013585362234,-0.4981013585362234,1.0000229172048456,6.521122102115239e-05
-0.49779619517939866,-0.49779619517939866,1.000042521128275,6.567986324026515e-05
-0.49739598076994296,-0.49739598076994296,1.000074455714595,6.550962772711348e-05
-0.49725064215017484,-0.49725064215017484,1.0001067133364394,6.526429500824262e-05
-0.4969820411701221,-0.4969820411701221,0.999948973335407,6.607402920096946e-05
-0.4966269366632332,-0.4966269366632332,1.0001038005252056,6.490982867138256e-05
-0.4963659709595959,-0.4963659709595959,1.0000726540150366,6.580968804275621e-05
-0.4961529429638176,-0.4961529429638176,1.000076856390742,6.502308679582232e-05
-0.49577166618109914,-0.49577166618109914,1.0000334148953014,6.640300136040314e-05
-0.49563348343363034,-0.49563348343363034,1.0001061878162982,6.565207026221455e-05
-0.49551759003807094,-0.49551759003807094,1.0002001352350198,6.517278465884825e-05
-0.49540492695523425,-0.49540492695523425,0.9999780371310237,6.637494271844924e-05
-0.4949978554417612,-0.4949978554417612,0.9999464221765908,6.5647985117349e-05
-0.49467362114810387,-0.49467362114810387,1.0000921578577597,6.569060133672315e-05
-0.4945264889596729,-0.4945264889596729,0.9999722186797471,6.53912022850254e-05
-0.4941573109055753,-0.4941573109055753,1.0001298409940431,6.625016258787057e-05
-0.49397673049970764,-0.49397673049970764,1.0000434139271477,6.591620435783332e-05
-0.49379552471655186,-0.49379552471655186,1.0000189291478454,6.507216266069567e-05
-0.4935705386771588,-0.4935705386771588,1.0000282010827481,6.546072642812341e-05
-0.4932768143087742,-0.4932768143087742,1.0000703990383546,6.561649316425413e-05
-0.4929818830525619,-0.4929818830525619,0.9999518997124985,6.519058190863482e-05
-0.49267667527747105,-0.49267667527747105,1.0000920947732976,6.601564904788325e-05
-0.4923701588326367,-0.4923701588326367,1.0000850015232725,6.516677183542873e-05
-0.4920283276907867,-0.4920283276907867,0.9999792835941932,6.545343242060475e-05
-0.49188942418404624,-0.49188942418404624,1.0000736526183047,6.491754325211844e-05
-0.4916095261767623,-0.4916095261767623,1.0000880646799897,6.489767413883812e-05
-0.4914161759283161,-0.4914161759283161,0.9999356170414947,6.619496680377637e-05
-0.4911489203863312,-0.4911489203863312,0.999959595051888,6.621894612141833e-05
-0.49089726418606006,-0.49089726418606006,0.9999405726742022,6.545490009615169e-05
-0.49060287431348115,-0.49060287431348115,1.0000419058352144,6.557267262718273e-05
-0.49034887761226853,-0.49034887761226853,0.9999750258277522,6.581795374094154e-05
-0.49016404783469625,-0.49016404783469625,1.0000198431804104,6.466267691793021e-05
-0.49002545456314694,-0.49002545456314694,0.9999826935605839,6.516537119998144e-05
-0.4898419269215083,-0.4898419269215083,0.9999208562264356,6.532774950525858e-05
-0.48964240794448416,-0.48964240794448416,1.0000752746247674,6.603809697301202e-05
-0.4893952193990117,-0.4893952193990117,0.9999277739127639,6.623691360688923e-05
-0.48917660398583396,-0.48917660398583396,1.000056879097348,6.55045295043383e-05
-0.48885226298589257,-0.48885226298589257,0.9999498292269123,6.515395033434047e-05
-0.48875423334829976,-0.48875423334829976,1.0001936953917732,6.547987817855043e-05
-0.48860321616957664,-0.48860321616957664,0.9999608555827674,6.505243254714388e-05
-0.48836486278887603,-0.48836486278887603,0.9999992178107654,6.532770466287832e-05
-0.4882496915059164,-0.4882496915059164,0.9999397487539918,6.574362781242754e-05
-0.4880098800174892,-0.4880098800174892,1.0001304764088395,6.72658226600626e-05
-0.48766721532156226,-0.48766721532156226,0.9999749289090214,6.641577211087581e-05
-0.48741529277031076,-0.48741529277031076,1.0000647711641695,6.519130491490633e-05
-0.48719494943507013,-0.48719494943507013,1.000039013520717,6.549236393356383e-05
-0.4870721226092428,-0.4870721226092428,0.9999345776617037,6.49103134618834e-05
-0.48681535424402683,-0.48681535424402683,0.9999587683505871,6.517697542465964e-05
-0.4866168610024033,-0.4866168610024033,1.0000319867194798,6.60012791786255e-05
-0.4862980177771533,-0.4862980177771533,1.0000349826526669,6.562235599804771e-05
-0.48599570854275953,-0.48599570854275953,0.9999790651315175,6.607105031597583e-05
-0.48564320243604014,-0.48564320243604014,0.9998962556033538,6.517692030688669e-05
-0.4854887652880279,-0.4854887652880279,1.0000124862644098,6.491992763844068e-05
-0.48515057270997203,-0.48515057270997203,0.999999670428936,6.584749015067892e-05
-0.48479686620557916,-0.48479686620557916,0.9998983701626877,6.525137996895523e-05
-0.4845100762671791,-0.4845100762671791,1.0000498400493487,6.605778558811879e-05
-0.4841405586528708,-0.4841405586528708,1.000018933697023,6.510197987369946e-05
-0.4838610853956197,-0.4838610853956197,1.0000183288319913,6.513832344767122e-05
-0.4834030698752031,-0.4834030698752031,1.0000470312792684,6.561810517447505e-05
-0.4830090166229638,-0.4830090166229638,1.0000387067291228,6.626843356572183e-05
-0.4828104462780175,-0.4828104462780175,0.9999837977944692,6.560207628859781e-05
-0.48261623031139605,-0.48261623031139605,0.9999684275042574,6.485207275892333e-05
-0.4822490230450057,-0.4822490230450057,0.9999735479588635,6.507570543380574e-05
-0.4816830448777182,-0.4816830448777182,1.000002264419842,6.527717000834076e-05
-0.48133015455823625,-0.48133015455823625,0.9999469979097955,6.578617760469443e-05
-0.4810707888478646,-0.4810707888478646,0.9999911812415345,6.560365764103412e-05
-0.48095651633630043,-0.48095651633630043,1.0000712280764568,6.504112830647686e-05
-0.48062643437151564,-0.48062643437151564,0.9999361976504517,6.598214141701557e-05
-0.48013574575888923,-0.48013574575888923,0.9999781156930379,6.631232847784536e-05
-0.4798772052134154,-0.4798772052134154,0.9999544075729,6.610984441586636e-05
-0.4795733313600067,-0.4795733313600067,1.0000449249457752,6.580011048576534e-05
-0.47938445826875975,-0.47938445826875975,1.0001220712247803,6.517809405226301e-05
-0.47904350019962294,-0.47904350019962294,1.0000251214433162,6.496361811070663e-05
-0.4786951875095838,-0.4786951875095838,1.0000431408605928,6.522358693944748e-05
-0.47844348448124946,-0.47844348448124946,0.9999987817750957,6.64607424703379e-05
-0.4783248693536734,-0.4783248693536734,1.000024626112889,6.611249891220368e-05
-0.4780500117019983,-0.4780500117019983,0.9999269502803083,6.570770834814954e-05
-0.47783101803070166,-0.47783101803070166,1.0000530724421517,6.515262409249473e-05
-0.47749077564512843,-0.47749077564512843,1.0000142688085476,6.508560406914695e-05
-0.47715776895638556,-0.47715776895638556,1.0000176701473955,6.530293199367769e-05
-0.4769023083397769,-0.4769023083397769,1.0000402639674366,6.615432069352006e-05
-0.4767368342625559,-0.4767368342625559,1.000067651223129,6.524708648919797e-05
-0.47650618614425183,-0.47650618614425183,1.0001018285111438,6.577001159216251e-05
-0.4763049584405962,-0.4763049584405962,1.0000547278701633,6.516487483921313e-05
-0.4757513957170886,-0.4757513957170886,1.0000009853981524,6.51986388575658e-05
-0.4754617328682798,-0.4754617328682798,1.000073289664957,6.573014501657923e-05
-0.4752618571787025,-0.4752618571787025,0.9999782502082833,6.62817663807353e-05
-0.47512439279962565,-0.47512439279962565,0.9999844114190353,6.50189647970017e-05
-0.474931160453707,-0.474931160453707,0.9999957372013333,6.537834366173534e-05
-0.4747819157491904,-0.4747819157491904,1.0000252827260458,6.499415421592078e-05
-0.474432025886199,-0.474432025886199,1.0001610419818965,6.504969144503688e-05
-0.4740754130136338,-0.4740754130136338,0.9998901273600873,6.510682091163454e-05
-0.47383365612622586,-0.47383365612622586,0.9999859536677788,6.548894128016645e-05
-0.4736810579226585,-0.4736810579226585,0.999906332150472,6.647931408320854e-05
-0.47352497183455855,-0.47352497183455855,0.9999247504151694,6.509705445833937e-05
-0.47337290221912554,-0.47337290221912554,1.000010765305909,6.562873033790311e-05
-0.4732862353193923,-0.4732862353193923,0.9999835588592649,6.49132983270992e-05
-0.47310589753469684,-0.47310589753469684,0.9998925486504623,6.468937674764377e-05
-0.4727194072882412,-0.4727194072882412,0.9999657284672925,6.525935309154394e-05
-0.47240231419564227,-0.47240231419564227,1.0000361225401764,6.620827776691983e-05
-0.4722338352716179,-0.4722338352716179,0.999993126524819,6.567567139694219e-05
-0.4721115282358369,-0.4721115282358369,0.9999679837219431,6.635179153018156e-05
-0.4720153994174325,-0.4720153994174325,1.000048749478869,6.592880409471946e-05
-0.4718228314377484,-0.4718228314377484,0.9999539484966291,6.511132919214774e-05
-0.47172437213594093,-0.47172437213594093,1.000055389823673,6.557741994925503e-05
-0.47163646529079417,-0.47163646529079417,1.0001042051964062,6.528843173185963e-05
-0.47124002962664235,-0.47124002962664235,0.9999869073122178,6.482816787905271e-05
-0.4709200778452214,-0.4709200778452214,1.0000557770030531,6.644801975247392e-05
-0.47063129922171354,-0.47063129922171354,0.9999757414242229,6.596866485485034e-05
-0.4704493922647089,-0.4704493922647089,1.0002717604817586,6.571006335001273e-05
-0.4702707588818157,-0.4702707588818157,0.9998964154262667,6.512534976855135e-05
-0.4701625499641523,-0.4701625499641523,1.0000503803083511,6.548381591153527e-05
-0.47004390584188516,-0.47004390584188516,1.0001029354645452,6.51702750438107e-05
-0.4698338918111403,-0.4698338918111403,1.000012154263114,6.638763631655115e-05
-0.4693274536213721,-0.4693274536213721,1.000036101551688,6.616102687666194e-05
-0.46906374793034045,-0.46906374793034045,1.000069872987086,6.675149621259959e-05
-0.46884724715637277,-0.46884724715637277,0.9999605936724631,6.559629243853808e-05
-0.46861095258645946,-0.46861095258645946,0.9998899322611438,6.560764566606403e-05
-0.46849406872934196,-0.46849406872934196,1.00002686532791,6.576250021692882e-05
-0.4682647623398225,-0.4682647623398225,1.0001125757348268,6.516443701569676e-05
-0.4679137787956279,-0.4679137787956279,1.0000153658022828,6.600680305950543e-05
-0.46762213328329383,-0.46762213328329383,0.9999692781746002,6.625031243830606e-05
-0.4673026024058345,-0.4673026024058345,1.000038221070189,6.600935761075653e-05
-0.4670327535408433,-0.4670327535408433,1.0001344872050892,6.55464228550627e-05
-0.4668914760579355,-0.4668914760579355,1.0000619003000306,6.483835908067319e-05
-0.46669451803318224,-0.46669451803318224,1.0000333195821913,6.546664552282179e-05
-0.466415500457515,-0.466415500457515,1.000035372580116,6.555928957160498e-05
-0.46607012332824527,-0.46607012332824527,0.9999958044151634,6.610773783027363e-05
-0.4657914996161708,-0.4657914996161708,0.9999713283812056,6.608164847705545e-05
-0.46552615331456765,-0.46552615331456765,1.0000052715349885,6.601275895713361e-05
-0.46531301694194555,-0.46531301694194555,1.0000219657842755,6.561960250254805e-05
-0.465004097414203,-0.465004097414203,0.9999324308847231,6.492188059803008e-05
-0.46469920319214,-0.46469920319214,1.0000201556106556,6.579130720691456e-05
-0.4644983670892543,-0.4644983670892543,0.9999885019078162,6.663547760986918e-05
-0.4642158416318125,-0.4642158416318125,1.0000645671141823,6.641033071749545e-05
-0.4638973702691146,-0.4638973702691146,1.0000791192592497,6.52686220413275e-05
-0.46362928643502527,-0.46362928643502527,1.0000394961735901,6.56254734583724e-05
-0.46315504401864016,-0.46315504401864016,0.9999739465264886,6.571349976519984e-05
-0.46300448373513065,-0.46300448373513065,0.9999916420805361,6.524207598677487e-05
-0.4627932513511041,-0.4627932513511041,0.9999237611276028,6.577749227305486e-05
-0.46253481969761195,-0.46253481969761195,0.9999683691454081,6.607860665974749e-05
-0.4622637157415738,-0.4622637157415738,0.9999669223454098,6.506586999711657e-05
-0.46204307086154583,-0.46204307086154583,1.0001759001571995,6.567615338525706e-05
-0.46170288905559576,-0.46170288905559576,1.0000188780828982,6.571138681822394e-05
-0.46145426657021743,-0.46145426657021743,1.000018762788824,6.604888014916574e-05
-0.4613058582530357,-0.4613058582530357,1.0000709255834213,6.430195352701657e-05
-0.461146454163827,-0.461146454163827,1.0000508110221737,6.519024665779546e-05
-0.4607683815629571,-0.4607683815629571,1.0000087188737292,6.535730003307033e-05
-0.46045756268285915,-0.46045756268285915,1.0000436798653796,6.568479310833632e-05
-0.4603310930295265,-0.4603310930295265,0.9999443788368414,6.527604436459685e-05
-0.4600735208252445,-0.4600735208252445,0.9999458067899646,6.641030497944129e-05
-0.45977306870627216,-0.45977306870627216,1.000031472152894,6.606941857309477e-05
-0.4596208955321345,-0.4596208955321345,0.9999540680322971,6.502654029402334e-05
-0.4594325792626478,-0.4594325792626478,0.999862894780802,6.550785629148314e-05
-0.45908744459593437,-0.45908744459593437,1.0000010651092546,6.504296650100857e-05
-0.45878505031287203,-0.45878505031287203,1.000006552121354,6.56976347117171e-05
-0.45856746966019274,-0.45856746966019274,1.0000957898364944,6.596720411487043e-05
-0.4582364129339112,-0.4582364129339112,0.9999648487840507,6.53165951153905e-05
-0.4579037039031391,-0.4579037039031391,0.9999729326461754,6.499322149967237e-05
-0.45769673416216394,-0.45769673416216394,0.9999641720121005,6.523989331874439e-05
-0.4574780535622267,-0.4574780535622267,1.0000460814997314,6.529467754337148e-05
-0.45725817619822917,-0.45725817619822917,0.9999744574376846,6.532996539043762e-05
-0.45690106816618936,-0.45690106816618936,1.000093647270273,6.59311717197864e-05
-0.45664277436590056,-0.45664277436590056,1.0000834483643035,6.595484563951776e-05
-0.45635796144779306,-0.45635796144779306,0.9998998012402817,6.564663543006237e-05
-0.4560908518411452,-0.4560908518411452,0.9999541003769554,6.574927072208482e-05
-0.4559233127132757,-0.4559233127132757,1.000019880901073,6.466767285962094e-05
-0.4557844213835779,-0.4557844213835779,1.0000222771423846,6.516115268602503e-05
-0.4556526375687099,-0.4556526375687099,1.0000216946981486,6.625721746558261e-05
-0.45545920914883026,-0.45545920914883026,0.9999741278373053,6.520102894463434e-05
-0.4551987163460581,-0.4551987163460581,1.0000543992765052,6.645177308991986e-05
-0.4550038806046359,-0.4550038806046359,0.9999104683025989,6.616106836095224e-05
-0.45471865306899417,-0.45471865306899417,0.9999466180257448,6.538087501500338e-05
-0.4545382479875116,-0.4545382479875116,1.000026705371777,6.55716084755052e-05
-0.4544214887384442,-0.4544214887384442,0.9999721939803893,6.499474601503568e-05
-0.4542138548582443,-0.4542138548582443,1.0000617060770478,6.484949454998797e-05
-0.45406586630560924,-0.45406586630560924,1.000048133231871,6.577460942582122e-05
-0.4539163782974356,-0.4539163782974356,0.9998806982309963,6.615927980340201e-05
-0.45351754509465536,-0.45351754509465536,0.9999796914975636,6.73587483487066e-05
-0.45327281440695516,-0.45327281440695516,0.9999491588264032,6.577232451322408e-05
-0.45295695469831115,-0.45295695469831115,0.9999055602411339,6.551283687729182e-05
-0.4528626903629629,-0.4528626903629629,1.0000448074665498,6.508019516375684e-05
-0.45262104747525883,-0.45262104747525883,1.0000778487623467,6.500570145422381e-05
-0.45240358177397866,-0.45240358177397866,0.9999613302435932,6.595524148614345e-05
-0.45219523039413617,-0.45219523039413617,0.9999519589160919,6.585748212398774e-05
-0.451937006728258,-0.451937006728258,1.000035786177865,6.603020315468888e-05
-0.45165741693344896,-0.45165741693344896,0.9999548996193092,6.602649660732458e-05
-0.45136910118017115,-0.45136910118017115,1.0000625921284256,6.511857069248194e-05
-0.45121099374810003,-0.45121099374810003,1.0001362944612464,6.482978298967653e-05
-0.45090110627788815,-0.45090110627788815,1.0000005106066716,6.588570117583652e-05
-0.45065069224219767,-0.45065069224219767,0.9999446501075372,6.539331400902998e-05
-0.4502960903570056,-0.4502960903570056,0.9999462791172704,6.546978699294964e-05
-0.44994794422527773,-0.44994794422527773,1.0000138221057662,6.557147944299763e-05
-0.4496602291706949,-0.4496602291706949,0.9999728658172391,6.527449225321409e-05
-0.44922769792028705,-0.44922769792028705,1.0000385076442675,6.53982751221268e-05
-0.4488489398761885,-0.4488489398761885,1.0000629096888178,6.622984797512311e-05
-0.44864201118180064,-0.44864201118180064,0.999947376234091,6.619851865777757e-05
-0.4485253474806086,-0.4485253474806086,0.999994534985501,6.564071276162178e-05
-0.44825657326291546,-0.44825657326291546,1.000044754797388,6.50540078332136e-05
-0.4477648112049792,-0.4477648112049792,1.000191377510038,6.515871189793871e-05
-0.44723831390583657,-0.44723831390583657,0.9999760567501642,6.56341263894346e-05
-0.44692880519287426,-0.44692880519287426,0.9999834501182183,6.556404620994396e-05
-0.4467322562588379,-0.4467322562588379,1.0000760726934184,6.51405262814204e-05
-0.44660595420136817,-0.44660595420136817,1.0000244065760453,6.480264952553964e-05
-0.4461159864149522,-0.4461159864149522,1.0000261136655797,6.5418288284785e-05
-0.4456900124758249,-0.4456900124758249,0.9999553292984917,6.661664984893364e-05
-0.44543136051943294,-0.44543136051943294,1.00005661044649,6.613381912652363e-05
-0.4452090831589885,-0.4452090831589885,0.9999384342677864,6.520622454352612e-05
-0.4449830394849414,-0.4449830394849414,0.999985483547831,6.525076041206888e-05
-0.44455301087145926,-0.44455301087145926,0.9999630415857228,6.550694937325425e-05
-0.4442843745171558,-0.4442843745171558,1.0000212218208178,6.615051633093284e-05
-0.44409685883438216,-0.44409685883438216,1.0000054053650582,6.662488248013364e-05
-0.4439230001531541,-0.4439230001531541,1.0000253987543464,6.561929060755708e-05
-0.44367955453781177,-0.44367955453781177,1.0000224725759932,6.538776948827021e-05
-0.4435111715865787,-0.4435111715865787,1.0000782652252482,6.53329510289755e-05
-0.4431768841430312,-0.4431768841430312,1.000121332510308,6.497816713522972e-05
-0.4428537444662652,-0.4428537444662652,1.0000278290975093,6.588268496085802e-05
-0.4426487640477717,-0.4426487640477717,1.0000400909081413,6.59830260403578e-05
-0.4424484910516185,-0.4424484910516185,0.9999428925887563,6.52348904644238e-05
-0.44225544052314947,-0.44225544052314947,0.9999789654439027,6.576098494321669e-05
-0.44204291663336337,-0.44204291663336337,0.999965725767537,6.516009982135442e-05
-0.44155131223233185,-0.44155131223233185,0.9999698490386398,6.519167130328185e-05
-0.4412012051558122,-0.4412012051558122,0.9999547601709082,6.571910464693674e-05
-0.441008830134524,-0.441008830134524,0.9999926316904981,6.586299207002597e-05
-0.44087562575296035,-0.44087562575296035,1.0000037147085328,6.541406189559383e-05
-0.4406722677493235,-0.4406722677493235,0.9999953725813867,6.536875595805915e-05
-0.4405262029293226,-0.4405262029293226,0.9999775211535624,6.499182154773379e-05
-0.44019117548887154,-0.44019117548887154,0.9999778482561401,6.502061376971139e-05
-0.43981721930904316,-0.43981721930904316,0.9999615347494821,6.58932898633013e-05
-0.43961090847296874,-0.43961090847296874,1.0000785866619213,6.554571045568869e-05
-0.4394587633156334,-0.4394587633156334,0.999952539541388,6.698373855773762e-05
-0.439307384667336,-0.439307384667336,0.9999384896134901,6.514737241371725e-05
-0.43915252584411063,-0.43915252584411063,1.0000142028259138,6.516543762496798e-05
-0.43903323658596494,-0.43903323658596494,0.9999725287168622,6.538741864713573e-05
-0.43886567698791623,-0.43886567698791623,1.0000980222383842,6.483169589430101e-05
-0.43848306804138704,-0.43848306804138704,0.9999852620460679,6.525794558444638e-05
-0.4381496628120658,-0.4381496628120658,1.0001054601992656,6.620993152579783e-05
