time,time,flux,flux_err
-0.49890418182258145,-0.49890418182258145,0.9988980064076469,0.0019501021720391477
-0.49743042599826975,-0.49743042599826975,1.0012082020989348,0.001955766118118508
-0.49617704047401884,-0.49617704047401884,0.9985593272567854,0.0019459880575972651
-0.49482936402127964,-0.49482936402127964,0.9993744938679072,0.0018103313366465864
-0.49366509218598364,-0.49366509218598364,1.002047402007631,0.0018368759687268413
-0.4921117352831061,-0.4921117352831061,0.9997744772649095,0.001772655583624665
-0.49053175908411506,-0.49053175908411506,0.9992979693679986,0.0017878432364076796
-0.489580774334172,-0.489580774334172,1.0002677959217992,0.0017519532677507783
-0.4887126768837334,-0.4887126768837334,1.0017953669926731,0.001811990676126147
-0.4878581756303902,-0.4878581756303902,0.9999229037353657,0.0017939055506569293
-0.48619597684955806,-0.48619597684955806,1.001471066707186,0.0017550963262957947
-0.4848069600033341,-0.4848069600033341,0.9989512700018018,0.0017725638301672412
-0.4836208124987024,-0.4836208124987024,0.9974354312440779,0.0017932407030234801
-0.48228663739209876,-0.48228663739209876,1.001088486623185,0.0017800798547217
-0.48107938175380693,-0.48107938175380693,0.9988828428800514,0.0017749863226173737
-0.4800202192614961,-0.4800202192614961,1.000543316252804,0.0017831768069288465
-0.4785210275760619,-0.4785210275760619,1.0015438642253254,0.0017419973554334898
-0.4770687473908765,-0.4770687473908765,0.9993827054819873,0.0017769000651971793
-0.47580144689491133,-0.47580144689491133,1.0004580653980155,0.001783226656167377
-0.47486658851630636,-0.47486658851630636,0.9992087033865262,0.0017738395534904663
-0.4736564372891735,-0.4736564372891735,1.0001777446150226,0.0017588290317440876
-0.4718520015820104,-0.4718520015820104,1.0021581551745207,0.001751450252922224
-0.47002914668701123,-0.47002914668701123,0.9992197024508442,0.0017695738717994412
-0.46835693933535366,-0.46835693933535366,0.9989998345960522,0.0017903572867391786
-0.4672117285423155,-0.4672117285423155,1.0028426455109831,0.0017442671185297323
-0.46661648511872045,-0.46661648511872045,0.9993465626290441,0.0017866907095714466
-0.46549643921243844,-0.46549643921243844,0.996863244183357,0.0017340935117463728
-0.4640321688399126,-0.4640321688399126,1.0009515132905427,0.0017854417551243188
-0.462853277058457,-0.462853277058457,0.9994223407481517,0.0017829148554603922
-0.460990111821593,-0.460990111821593,1.0035020062757707,0.0017544379920441631
-0.4595954967677244,-0.4595954967677244,1.0033120287773403,0.0017734303879670666
-0.458009739559202,-0.458009739559202,1.0003061262999497,0.0017653556855963617
-0.4558907817103318,-0.4558907817103318,0.9998304765374316,0.001769763454701963
-0.4541931551015296,-0.4541931551015296,0.9986365353593435,0.0017891455863801482
-0.45288896385754923,-0.45288896385754923,1.0027574676812858,0.0017548115446619505
-0.4515385837534268,-0.4515385837534268,0.9995688256786164,0.0017342864923837419
-0.4501878081675386,-0.4501878081675386,1.0011482119099917,0.0017858110729075355
-0.449354542929359,-0.449354542929359,1.000503127285448,0.001752835961305663
-0.44748109915235545,-0.44748109915235545,0.9990395129429505,0.001776292386272123
-0.4458880758706073,-0.4458880758706073,0.9985122549858036,0.001775936492670841
-0.44462123712146423,-0.44462123712146423,1.0000083673716207,0.0017791157021261762
-0.44374455273355123,-0.44374455273355123,1.004118092336782,0.0017690707915439508
-0.4417358124126622,-0.4417358124126622,1.0000854087514042,0.001806418408104121
-0.4394833839054627,-0.4394833839054627,0.9976881546793699,0.0017400555765973787
-0.438256969628128,-0.438256969628128,0.9982891159667717,0.0017969224581354127
-0.4371496642452257,-0.4371496642452257,0.996511573688044,0.0017370225452225962
-0.43510115268363736,-0.43510115268363736,0.9983828176702849,0.0017963169392334881
-0.4332964441731747,-0.4332964441731747,1.001831216000466,0.0017768105739340337
-0.432237271181657,-0.432237271181657,0.9988927760729787,0.0017762508956177033
-0.431008781066339,-0.431008781066339,0.9972053287852095,0.0017811717296777989
-0.4300298329420912,-0.4300298329420912,0.9999616007787923,0.0017533991038976959
-0.427295470880199,-0.427295470880199,0.9992290150864747,0.0017561230235808851
-0.425669695349643,-0.425669695349643,0.9961680120197431,0.0018009777825944088
-0.4246676409697102,-0.4246676409697102,0.9986829230689299,0.0018341537255533377
-0.42359053770269384,-0.42359053770269384,1.0020524239367052,0.0017361179151292746
-0.42190853259016875,-0.42190853259016875,0.9986074488352992,0.0017917427306770827
-0.42014534546615323,-0.42014534546615323,0.9977487396942495,0.0017592430886499946
-0.4187466411392961,-0.4187466411392961,0.9988506355956428,0.001777480528445178
-0.4178980548058462,-0.4178980548058462,1.0009600419321916,0.0017993799776061937
-0.4162428015748446,-0.4162428015748446,0.999150608008901,0.0017652749668148246
-0.4143367828270129,-0.4143367828270129,1.003138001914506,0.0017733279914071084
-0.4127496056360542,-0.4127496056360542,1.0001349054703557,0.0017617424371015934
-0.4119015929434681,-0.4119015929434681,0.9966154251214491,0.0017985431065089604
-0.4111117978238326,-0.4111117978238326,0.9966756719639553,0.0018124999422967788
-0.41014555880246917,-0.41014555880246917,1.0001896305052411,0.0017909127749994851
-0.4085460393827816,-0.4085460393827816,1.0086590150360404,0.0022061574747722313
-0.40697110490873456,-0.40697110490873456,0.9991984843560676,0.0017526107848710912
-0.40539093508341467,-0.40539093508341467,1.0002532087412284,0.0017655126310584875
-0.4041142346286506,-0.4041142346286506,1.0015836933285729,0.00179183723343041
-0.4031107823306229,-0.4031107823306229,0.9988705002795089,0.0018230236900902718
-0.4016357478009013,-0.4016357478009013,0.9983262725803849,0.0018561790497512974
-0.4005720321896661,-0.4005720321896661,1.0023617655566448,0.001761788753933087
-0.39887535180023403,-0.39887535180023403,0.9997896876711294,0.0017722081781100896
-0.3979702090873616,-0.3979702090873616,0.9972092136195663,0.0017908488860737069
-0.3969412659716909,-0.3969412659716909,0.9990923259686092,0.0017872540113452484
-0.39576314867736073,-0.39576314867736073,1.00187162241336,0.0018356290812358296
-0.39461058608067107,-0.39461058608067107,0.998866606804181,0.001839191485990094
-0.39305832348545666,-0.39305832348545666,1.002093404450534,0.0017731318120184562
-0.39151753587721033,-0.39151753587721033,0.9979379672158963,0.0017836489923263477
-0.3903685712561128,-0.3903685712561128,1.0009029010594317,0.0017716262001448526
-0.389570347188419,-0.389570347188419,1.0022349977436125,0.0017960905141859134
-0.38852795189377504,-0.38852795189377504,1.0003846798122762,0.001800031434493093
-0.3872150980612787,-0.3872150980612787,1.0000842223692592,0.0017670958551637636
-0.38540709483640967,-0.38540709483640967,0.9971622673273188,0.0017711580750060627
-0.38394122638273986,-0.38394122638273986,0.9993842610041141,0.0017569430916384912
-0.38270002942081194,-0.38270002942081194,0.9988163111510351,0.0017761157042082408
-0.3817922793379694,-0.3817922793379694,1.0015902517654804,0.0017881443341340396
-0.3807673235809489,-0.3807673235809489,0.9993164073371175,0.0017653751315670045
-0.3791924229357392,-0.3791924229357392,0.9983479140561696,0.001741302599726285
-0.37795256217796125,-0.37795256217796125,0.9977349924575407,0.0017785963092002608
-0.37687579285702666,-0.37687579285702666,1.0012646609099902,0.001764691681808554
-0.375572815212945,-0.375572815212945,1.0008334305636584,0.001776019414247289
-0.3741352537072089,-0.3741352537072089,0.9982214353753761,0.0017611137936459592
-0.3729310009002802,-0.3729310009002802,1.0003269021687002,0.0017893407343587784
-0.3714075170129945,-0.3714075170129945,0.9997621100131594,0.0017562121576113917
-0.3696202433377039,-0.3696202433377039,1.0002657677828417,0.001779666130572127
-0.3682828636628983,-0.3682828636628983,0.9999859817308945,0.0017759676930813716
-0.36728753697825595,-0.36728753697825595,1.0012528889291903,0.0017867598423676676
-0.36616752721383816,-0.36616752721383816,0.9985075046930287,0.001734901076340966
-0.36470246101525844,-0.36470246101525844,0.9977067180455569,0.001784372923939129
-0.36339722617849474,-0.36339722617849474,0.9996010680006387,0.0017720593078205716
-0.36174098755509476,-0.36174098755509476,0.9981068706560856,0.0017712407788490875
-0.36040825298405255,-0.36040825298405255,0.9996679640534836,0.0017689052224499863
-0.3590781877253903,-0.3590781877253903,1.0004550436307507,0.001778412926320009
-0.35733377351207307,-0.35733377351207307,1.002082632398295,0.001778164810119904
-0.3559492533073353,-0.3559492533073353,0.9966339626324707,0.0017857747651679272
-0.3544521409450681,-0.3544521409450681,0.9975795957279295,0.0017697363755732737
-0.3533195735850313,-0.3533195735850313,0.9998998370130444,0.0017615420520829066
-0.3515913586379611,-0.3515913586379611,0.9980239832927207,0.0017590784865661228
-0.3502193514541432,-0.3502193514541432,0.9990145917300772,0.0017709574587218117
-0.3484199305392394,-0.3484199305392394,1.0006195741123385,0.001778161896404429
-0.34677675779676065,-0.34677675779676065,0.9975651049389651,0.001738931375297759
-0.34553399572178023,-0.34553399572178023,0.9994372052167619,0.0017721717182291273
-0.3445996912094415,-0.3445996912094415,0.9991611475935013,0.0017766406456647568
-0.3432738829353184,-0.3432738829353184,0.9999848280869978,0.0017946146737080402
-0.3405712376072188,-0.3405712376072188,0.9995677169666187,0.0017525678410046084
-0.3398486184945796,-0.3398486184945796,0.9987219723635998,0.001781244603125017
-0.3385080258238304,-0.3385080258238304,0.9988708928485807,0.0017793137941197273
-0.33754895425518044,-0.33754895425518044,0.9974798641330951,0.001750808286967632
-0.3351426766625082,-0.3351426766625082,0.9973901249789682,0.0017795461396728648
-0.3334622932627099,-0.3334622932627099,1.0009850671880034,0.0017631444245639297
-0.3324159084855637,-0.3324159084855637,0.9982513168500884,0.0017964474307409061
-0.3315668437047862,-0.3315668437047862,0.9994198815802543,0.001763922334259672
-0.32912818118929865,-0.32912818118929865,0.9983270301277253,0.0017563469968657629
-0.3267346173422993,-0.3267346173422993,0.9978187587688175,0.0017638055547054055
-0.3258038366533583,-0.3258038366533583,1.0018992990939732,0.0018252546771402299
-0.3248707773091155,-0.3248707773091155,0.9979280580735452,0.0017629227553517888
-0.3230189506008173,-0.3230189506008173,0.9977286906670713,0.0017662293982831808
-0.32104503653463323,-0.32104503653463323,0.999464385148,0.001768211557387725
-0.31921201593359,-0.31921201593359,1.000971194181148,0.0017858298242830462
-0.3182673743664054,-0.3182673743664054,0.9987352625373511,0.0018204773366736998
-0.3164046763893566,-0.3164046763893566,0.9993992434327221,0.0017708001362839302
-0.31469388421537586,-0.31469388421537586,1.0017575738273343,0.0017555533657265573
-0.31306060423667076,-0.31306060423667076,1.001086550532213,0.0017839716175858593
-0.31221029329899463,-0.31221029329899463,1.0016215296065607,0.0018297793807734689
-0.3114825257944176,-0.3114825257944176,0.9993813631401613,0.0017866070188447443
-0.31031748556852107,-0.31031748556852107,0.9999206141039612,0.0018083961006061578
-0.30897192339543833,-0.30897192339543833,1.0083067518304598,0.002238614732932714
-0.3079354598194186,-0.3079354598194186,1.0005417614425838,0.001764347281049743
-0.3070715621353884,-0.3070715621353884,0.9988879034803473,0.00177298503536852
-0.3058296505834733,-0.3058296505834733,0.998969239501459,0.0017757104418662881
-0.30463552814835565,-0.30463552814835565,1.001816150674119,0.0017773744588792499
-0.3034772730032273,-0.3034772730032273,1.000887120463031,0.0018444271087599967
-0.302068492420949,-0.302068492420949,0.9988711199336249,0.0018485431858009601
-0.30044948999275223,-0.30044948999275223,1.0001686405353667,0.0017757347647155805
-0.2989285563082376,-0.2989285563082376,1.0012516781618763,0.001795670031335947
-0.2977279820741387,-0.2977279820741387,1.0035437798625213,0.001777627110038674
-0.2964320165607205,-0.2964320165607205,0.9993108669112744,0.0018346994914071762
-0.29528097269212594,-0.29528097269212594,0.9976705801977955,0.0018418199910079833
-0.2936946036585141,-0.2936946036585141,0.9990924091085571,0.0017690199663161425
-0.2921881058726285,-0.2921881058726285,1.0007257416497617,0.001784181550958
-0.29093075393830076,-0.29093075393830076,1.0004747176226696,0.001749829553512205
-0.2899086355071631,-0.2899086355071631,0.9980143713962747,0.0018283148190604368
-0.28853816659539006,-0.28853816659539006,0.9996482963394477,0.0017729145627126714
-0.28707173246730233,-0.28707173246730233,1.000655163036787,0.00177059982125195
-0.2854442270079744,-0.2854442270079744,1.0009854878801627,0.001769723234255716
-0.2839997400260472,-0.2839997400260472,0.998152727508397,0.0017701759347793261
-0.2828265893738717,-0.2828265893738717,0.9983754436850589,0.0017825296974165385
-0.28189545917193753,-0.28189545917193753,0.9991519876482636,0.0017601326553628855
-0.2803986337443348,-0.2803986337443348,1.001531821407229,0.0017610329743404398
-0.27901134279891265,-0.27901134279891265,1.0007785761648103,0.0017574191703396565
-0.2776488597468415,-0.2776488597468415,0.9996115437701854,0.001778204458239728
-0.2762430567156116,-0.2762430567156116,0.996946605934123,0.0017756175638121495
-0.2747248285319074,-0.2747248285319074,0.9990445434983455,0.0017596280721817628
-0.2731256288141594,-0.2731256288141594,0.9993885049532208,0.00176816625578971
-0.2713704740497633,-0.2713704740497633,0.998337065597727,0.00177068082728823
-0.26987642027379477,-0.26987642027379477,0.9999100557864841,0.0017822738611888273
-0.26887392255157466,-0.26887392255157466,1.0015177604149321,0.0017730902751811738
-0.26809501113020817,-0.26809501113020817,1.000346526610531,0.001769761140935968
-0.26712568343064047,-0.26712568343064047,1.0019129818540622,0.001747317377461563
-0.2658060259993363,-0.2658060259993363,1.0006281166050717,0.0017573576844738797
-0.2642524769413285,-0.2642524769413285,0.9984676893107924,0.0017869296365052051
-0.26264376779072335,-0.26264376779072335,0.9989274760925605,0.001765253031612447
-0.2615378687311022,-0.2615378687311022,0.9981725573932543,0.0017913715414316466
-0.25988099826136024,-0.25988099826136024,1.0027962997308844,0.0017653131904685603
-0.2573402750960668,-0.2573402750960668,1.0014805637985678,0.0017879868904420108
-0.2555323968845187,-0.2555323968845187,0.999212815597842,0.0017890242978945814
-0.2542306874813221,-0.2542306874813221,0.9984725941740944,0.0017543805682441846
-0.25251282423050725,-0.25251282423050725,1.0004051566665721,0.0017659599813133284
-0.25095620370047983,-0.25095620370047983,0.9969788843132866,0.0017679197998743707
-0.24958824382993045,-0.24958824382993045,0.99841859364516,0.0017835286674164768
-0.24853596747489065,-0.24853596747489065,1.0013105607411628,0.0017798631445835704
-0.2473955221743381,-0.2473955221743381,0.9990577562045738,0.0017642131634063789
-0.24596185181726468,-0.24596185181726468,0.9996393794763684,0.001779229663607029
-0.24494329248700525,-0.24494329248700525,0.9982837027424527,0.001775929364566553
-0.2425388014082273,-0.2425388014082273,0.9975467185297259,0.0017803895238361332
-0.24090541826299158,-0.24090541826299158,1.002395553846746,0.0017463140215023792
-0.23988373147876701,-0.23988373147876701,1.0004471722718886,0.0018158432700299044
-0.23886048692729672,-0.23886048692729672,0.9982487653459657,0.0017538421806295086
-0.23757842111226637,-0.23757842111226637,0.9979111258465789,0.001759726746471241
-0.2358547800220549,-0.2358547800220549,0.9979057539502104,0.001775785661767465
-0.23440727105771658,-0.23440727105771658,0.9991299653311693,0.0017621730156703232
-0.2333181494715973,-0.2333181494715973,0.9974570663224404,0.001794179155336667
-0.23232956260617357,-0.23232956260617357,1.000728193780106,0.0017617624712922288
-0.23132926284961286,-0.23132926284961286,0.9997717772170805,0.0017346747251294956
-0.22904660197818885,-0.22904660197818885,1.001079389148595,0.0017683881205952593
-0.22740577620934346,-0.22740577620934346,0.997967648638789,0.0017636936480959111
-0.2267141566488135,-0.2267141566488135,0.9998259029374867,0.0018241179864296971
-0.22569996778329368,-0.22569996778329368,0.996365539419848,0.0017892101814964863
-0.22381147364794743,-0.22381147364794743,0.9998782727963205,0.001762935808355573
-0.2215164844863466,-0.2215164844863466,1.0000913359508954,0.0017542126197648282
-0.22014813798014074,-0.22014813798014074,1.000118839034929,0.0017733882010171752
-0.21913981876205071,-0.21913981876205071,1.0006749985231997,0.001819227253346243
-0.21740904227335706,-0.21740904227335706,0.9995553751595463,0.0017962473697686163
-0.21512763548380462,-0.21512763548380462,1.0004293781483447,0.0017407748986374722
-0.21373123776284048,-0.21373123776284048,0.9990707482698354,0.0017841768172614726
-0.2125405730577768,-0.2125405730577768,1.0004395588666084,0.0018012643912807766
-0.21164776065488694,-0.21164776065488694,0.999736558237404,0.0017908594753921424
-0.2099539711147372,-0.2099539711147372,0.9996597910223392,0.0022627619063255383
-0.2085336021205876,-0.2085336021205876,0.9987785373865972,0.001746331463331929
-0.2073003460172913,-0.2073003460172913,1.0001413075760888,0.0017725732000495689
-0.20596932298358298,-0.20596932298358298,1.001745321312879,0.0017917482187089543
-0.2051283646527736,-0.2051283646527736,0.9982048739395072,0.00176841656290196
-0.20385448556116897,-0.20385448556116897,0.9978657716435636,0.001844747775010281
-0.2026552137482213,-0.2026552137482213,0.9997890576747329,0.0018483624342856332
-0.20115474815756898,-0.20115474815756898,1.0011176938369748,0.0017877776912197621
-0.20014809247222728,-0.20014809247222728,0.9986762038655342,0.001775163020130208
-0.1989446566090919,-0.1989446566090919,1.0004646674284463,0.0017999816713135167
-0.1981620167789515,-0.1981620167789515,0.9999155671741174,0.0017919558653332196
-0.19695082362813993,-0.19695082362813993,1.0003761516105467,0.0018230630326078166
-0.19595136063726387,-0.19595136063726387,0.999728321795011,0.001843614907071297
-0.19420095500245224,-0.19420095500245224,0.9994877444199656,0.0017699334065913001
-0.19300161969513283,-0.19300161969513283,1.0003216514748563,0.0018323142288300548
-0.19175977437480468,-0.19175977437480468,0.9998513249013999,0.0017611403142501474
-0.19080962349034963,-0.19080962349034963,0.9979597570554877,0.0018078601661702873
-0.18938686642650282,-0.18938686642650282,1.0009960762497259,0.001796328084750837
-0.18774206286543632,-0.18774206286543632,0.9995062782482474,0.0017702020186459357
-0.18611531664500944,-0.18611531664500944,0.9999075215657534,0.001769065094201124
-0.1846702152353828,-0.1846702152353828,0.9991616492422384,0.0017700984125796476
-0.1836142199790629,-0.1836142199790629,1.0009889316305385,0.0017940244181317267
-0.18261558953454368,-0.18261558953454368,0.9994958127808822,0.0017494249912487763
-0.18163274229882517,-0.18163274229882517,0.9998726444579825,0.0017644946596955956
-0.1801498842476576,-0.1801498842476576,1.0043626142650832,0.0017275429713283232
-0.17903670096420682,-0.17903670096420682,0.9996069016854477,0.0017802359180217366
-0.17813275959560998,-0.17813275959560998,0.996093636355023,0.0017647266809615362
-0.1765685248938098,-0.1765685248938098,1.0009255597591784,0.0017665044411360607
-0.17531922026391838,-0.17531922026391838,1.001146182842255,0.001772003403874969
-0.17354064349929105,-0.17354064349929105,0.9999131882758492,0.0017441909664009023
-0.1715959302178817,-0.1715959302178817,0.9988953718377326,0.0017829133960670523
-0.1703672511604964,-0.1703672511604964,1.0012558821935942,0.0017904802126648
-0.16911627461522585,-0.16911627461522585,0.9982656431270813,0.001765023506203861
-0.16829777900929913,-0.16829777900929913,1.00126361286129,0.0017747989860059058
-0.16691480619920185,-0.16691480619920185,1.0010243567896229,0.0017553325574546665
-0.1657305357439327,-0.1657305357439327,1.001151811836443,0.0017802849316596518
-0.1642260357948544,-0.1642260357948544,1.0032577677430417,0.0017789812791714557
