time,time,flux,flux_err
-0.499865867869327,-0.499865867869327,1.0009137462794817,0.0024482209814222383
-0.4997433674070635,-0.4997433674070635,1.0003636337823407,0.0018462010428075964
-0.4996701518553891,-0.4996701518553891,0.9996118133379109,0.002003948063978517
-0.4995765255822334,-0.4995765255822334,0.9996409401254513,0.0018045338228051128
-0.49946350524260197,-0.49946350524260197,0.998742688997225,0.0021684275683593987
-0.4993226583930664,-0.4993226583930664,1.0005568618615817,0.0026372440190040917
-0.4992606189785874,-0.4992606189785874,1.0010169269908584,0.0020148973936993534
-0.4991577282737126,-0.4991577282737126,1.0022403741092862,0.0019395648799924656
-0.49892757953784894,-0.49892757953784894,1.0017319145472394,0.0019083567972648912
-0.49878156878548907,-0.49878156878548907,1.000493691756348,0.0027192392156575973
-0.49865350626932925,-0.49865350626932925,1.0023797686426776,0.0022596729377121075
-0.49858173402317335,-0.49858173402317335,1.0006481957393434,0.0017878747620966365
-0.4984760532141081,-0.4984760532141081,1.0005959847731962,0.0022341054516802385
-0.49832498359755845,-0.49832498359755845,0.9999460202390281,0.002322194536302538
-0.49818386063852815,-0.49818386063852815,1.0017850009594949,0.0021287979852728724
-0.49802151649637383,-0.49802151649637383,1.000125541824446,0.0022284082588878685
-0.49781539461400826,-0.49781539461400826,1.0007803594379254,0.002692178075772996
-0.4977141472889343,-0.4977141472889343,1.0003921935959175,0.002325430598696349
-0.49743857854919044,-0.49743857854919044,1.0013313526902892,0.0020645503099589162
-0.4972562637369265,-0.4972562637369265,0.998600139469581,0.00219195119393534
-0.4971027114108438,-0.4971027114108438,0.9978649433912882,0.0020641375815412337
-0.4969482689542929,-0.4969482689542929,0.999257679446434,0.001875826377298668
-0.49684421467682116,-0.49684421467682116,0.9996154518749079,0.0024847094928937058
-0.49667680898855904,-0.49667680898855904,0.997294012377599,0.002297336280815778
-0.4964562304347055,-0.4964562304347055,1.0003521691275208,0.0017063953073728957
-0.49623743038391693,-0.49623743038391693,0.9987801108685659,0.0017866573268327604
-0.4961190907517448,-0.4961190907517448,0.9983817173253116,0.002511177923842887
-0.49596788510971235,-0.49596788510971235,0.9970819223837101,0.0019471771559704538
-0.49589388549356955,-0.49589388549356955,0.9986488822798917,0.0017884608752448835
-0.49582867624558274,-0.49582867624558274,0.9996339541241996,0.0017758224065809371
-0.49573654738633194,-0.49573654738633194,1.0007868785399598,0.0015344488931077782
-0.4955937274557073,-0.4955937274557073,0.9993223753398958,0.0018377698061182814
-0.49549069008353397,-0.49549069008353397,1.0013563771482858,0.002570569678344359
-0.49534823418216545,-0.49534823418216545,0.9990238911173549,0.0019142447486423103
-0.4951455185539089,-0.4951455185539089,0.9994036998011928,0.0018192580026980842
-0.49508690276998096,-0.49508690276998096,1.0006946305565132,0.0030134065641169183
-0.49504125989042225,-0.49504125989042225,1.0003259784314398,0.0019994240704768003
-0.4949293164390838,-0.4949293164390838,0.999871391892152,0.0017626976108833865
-0.4948862561272108,-0.4948862561272108,0.9997135877144455,0.0017895317872104616
-0.4947480898379581,-0.4947480898379581,1.0000431843274524,0.0021915571926299166
-0.494581653244677,-0.494581653244677,1.0013964404755191,0.0019618277956330206
-0.4943359179131221,-0.4943359179131221,0.9984786946367861,0.002069162231677353
-0.49423466942826055,-0.49423466942826055,1.0007132732267168,0.002212654458986642
-0.49417810747545443,-0.49417810747545443,0.9981698238075472,0.0021400253192445013
-0.4939933123619994,-0.4939933123619994,0.9994491250589821,0.0024744357764740522
-0.4938552543913829,-0.4938552543913829,0.9999780580123643,0.0026368875050422815
-0.4937194729136536,-0.4937194729136536,1.0004102396260026,0.0022431597870516693
-0.49353792189067464,-0.49353792189067464,1.0015819174705505,0.0023005985420744128
-0.4934377684840001,-0.4934377684840001,0.9984505876827099,0.002757542093168043
-0.49329565051593816,-0.49329565051593816,1.0009080134342916,0.002257432565280032
-0.49312987579469336,-0.49312987579469336,1.0008123199288133,0.0027104624194280104
-0.4930371658439981,-0.4930371658439981,0.999959217102704,0.002029519072060984
-0.4929377767170081,-0.4929377767170081,1.0029733071397193,0.001838411886978945
-0.49280313260969705,-0.49280313260969705,1.0022507726761094,0.0018514853340335293
-0.4926936045711045,-0.4926936045711045,0.9997370234795117,0.0023330672958192145
-0.4925368408192298,-0.4925368408192298,0.997505339263828,0.0019860950975856403
-0.4923931765573798,-0.4923931765573798,1.0005868532488946,0.002159370747084748
-0.49215707021503474,-0.49215707021503474,0.9999381966767349,0.002327973715711904
-0.49198066687094977,-0.49198066687094977,0.9992934361148172,0.0023419408973675065
-0.491841884306632,-0.491841884306632,1.0006741739006852,0.0024249538347790966
-0.49164695047802526,-0.49164695047802526,1.0009335864381506,0.001620149284200682
-0.4915400649144431,-0.4915400649144431,0.9992541616800983,0.002317321799584977
-0.49144168270431693,-0.49144168270431693,1.0020281942397953,0.0021562735457272934
-0.49134093812317586,-0.49134093812317586,1.0000738963708313,0.001829285314336477
-0.49122698950959603,-0.49122698950959603,0.9989409108825283,0.0018021389762743628
-0.49106274921505244,-0.49106274921505244,1.0011541268819242,0.00273692402004649
-0.4909275030091521,-0.4909275030091521,0.9973814219007894,0.00214501823227538
-0.4905628682667157,-0.4905628682667157,0.9986802118398318,0.0017943393599202488
-0.49047764634451596,-0.49047764634451596,1.0009350557132346,0.0016458196129819115
-0.4903696085180854,-0.4903696085180854,1.0006486025587644,0.001938950672791967
-0.4901813987147762,-0.4901813987147762,0.9999621326634852,0.0018235683777160015
-0.4900845569296507,-0.4900845569296507,1.0001258210782444,0.002151465457205613
-0.49001447663467845,-0.49001447663467845,0.9992655031797579,0.0019310238720991759
-0.48984661645372396,-0.48984661645372396,0.9985593549179412,0.002013810071352928
-0.48972983068670145,-0.48972983068670145,0.9990842678598817,0.0019293641160187795
-0.48953944814711575,-0.48953944814711575,0.9958922752876532,0.002436690758472779
-0.4893793588620611,-0.4893793588620611,1.0012072423407712,0.0015866581292598779
-0.48924697024922353,-0.48924697024922353,1.0006989140237919,0.0017884204490716958
-0.48914739533211105,-0.48914739533211105,1.0003239421587675,0.0020474557037243124
-0.48902829901635414,-0.48902829901635414,1.0009470653484966,0.0017200664166488518
-0.4889482362748822,-0.4889482362748822,1.0001346001084712,0.001776511173390899
-0.48886260597209913,-0.48886260597209913,1.0032357104261986,0.0021322476755530825
-0.4887807347200578,-0.4887807347200578,1.0009175842918576,0.001756786088077748
-0.4886518139668624,-0.4886518139668624,1.0005645598609096,0.001722873723456038
-0.4884141105707386,-0.4884141105707386,1.0002444830756125,0.0024506771980063458
-0.48825650553626476,-0.48825650553626476,1.0013286189394455,0.0018255517864683352
-0.48819521850527964,-0.48819521850527964,1.0018494030580294,0.001591902132014919
-0.48812102453230183,-0.48812102453230183,1.000723595996281,0.002354942914884628
-0.48802803701109954,-0.48802803701109954,1.0004496033616888,0.0018531667100305075
-0.48787909534730717,-0.48787909534730717,1.0011138099718164,0.0024923751998963675
-0.48770832978188994,-0.48770832978188994,1.001121797323464,0.0016759090096306946
-0.48753187962574884,-0.48753187962574884,1.002124595700645,0.002714912515249504
-0.4873572479831637,-0.4873572479831637,1.000337593247162,0.0020650831852095574
-0.48722310259618096,-0.48722310259618096,0.9989103049489394,0.002237535002416683
-0.48710523829067826,-0.48710523829067826,0.9984926226487902,0.0023720807315627795
-0.48702354613051285,-0.48702354613051285,0.9995335664670641,0.002217836826114153
-0.4869363079720642,-0.4869363079720642,0.99921827271794,0.002111620965262963
-0.4867913799069356,-0.4867913799069356,1.00280849499728,0.0026790906935440376
-0.486686411863775,-0.486686411863775,0.9990828709278977,0.0023066140948297302
-0.4865244913060451,-0.4865244913060451,1.0020628919840677,0.0019135143428083141
-0.48639745155669517,-0.48639745155669517,1.0003158129576688,0.002435629891754899
-0.48625157270871566,-0.48625157270871566,1.0013704916986512,0.00207208771723126
-0.48606882219755787,-0.48606882219755787,1.0002274329369047,0.0016403193993498144
-0.4859491636860184,-0.4859491636860184,1.001445595766209,0.0018343323308699932
-0.4858832457481185,-0.4858832457481185,1.0007204666700553,0.0018095405455372433
-0.4857712794575491,-0.4857712794575491,1.001681521064321,0.002190372572682827
-0.4855883496071328,-0.4855883496071328,1.001454734627662,0.002023778039129101
-0.4854504766888567,-0.4854504766888567,1.0002877949257916,0.0021948067233401466
-0.48534246786875884,-0.48534246786875884,0.9996252050721323,0.0024013843291342133
-0.48521814769192134,-0.48521814769192134,0.999744961753759,0.002254489456996455
-0.4851096823025728,-0.4851096823025728,0.9971079948474408,0.002161092316862569
-0.48495219849428395,-0.48495219849428395,1.0042502529446697,0.0021126901771768083
-0.48478681958658854,-0.48478681958658854,0.9993451723871425,0.0024839004709130393
-0.4846944131539203,-0.4846944131539203,1.0048025737632298,0.001968230866501692
-0.48456080698088044,-0.48456080698088044,1.0005134258204251,0.001889212474720715
-0.48442808431573214,-0.48442808431573214,0.9987024991403107,0.002460262784401823
-0.4843065659966669,-0.4843065659966669,1.0016815979044846,0.0024814486328817932
-0.4841820153669687,-0.4841820153669687,0.9998261673325681,0.0019028714557755393
-0.48401132790750123,-0.48401132790750123,1.0002334632407708,0.002354732447012791
-0.48377428735111605,-0.48377428735111605,0.9989218117751897,0.0018367521796047667
-0.48364786990277936,-0.48364786990277936,1.0021745915059668,0.0014575353922792011
-0.483508096402511,-0.483508096402511,0.998740320329371,0.0018677292813846394
-0.4833344950195169,-0.4833344950195169,1.00061471848162,0.0019279459338271843
-0.4832398112048395,-0.4832398112048395,0.9993947753928456,0.0020548844818207646
-0.4831379616734921,-0.4831379616734921,0.9996057328297665,0.0022247150686619138
-0.4830316018589656,-0.4830316018589656,0.9988567227878585,0.0019761339740546465
-0.4828206883787061,-0.4828206883787061,0.9985628776434506,0.0023448415346546264
-0.4826447567043942,-0.4826447567043942,1.0002277876550667,0.002085626500102882
-0.482489772074041,-0.482489772074041,1.0013975393852157,0.00170037600359806
-0.48231905150896637,-0.48231905150896637,0.9991618989076014,0.0021221293792333456
-0.4821644277311862,-0.4821644277311862,0.9992622140143499,0.0018729647506259973
-0.48207220931944905,-0.48207220931944905,1.0004280073741583,0.002553673386314528
-0.4819780100544449,-0.4819780100544449,1.0005595914345604,0.0017807837027323178
-0.48179511092894245,-0.48179511092894245,0.9993798340760142,0.0020386686664525784
-0.48159371211659163,-0.48159371211659163,1.0030015442622473,0.0019196092131266097
-0.48140707329148424,-0.48140707329148424,0.9979483518661304,0.002029714020213196
-0.4813163350263494,-0.4813163350263494,0.9975451923803929,0.0024816734740648948
-0.48113981573987985,-0.48113981573987985,0.9981272897423388,0.002155370982695155
-0.48088614073494684,-0.48088614073494684,0.9980000305407273,0.0019076220314338712
-0.4807025422618608,-0.4807025422618608,0.9994696545511375,0.002751413683251874
-0.4805204026590218,-0.4805204026590218,0.996011539846514,0.0025287596457519565
-0.48035095218656354,-0.48035095218656354,0.9994914465069421,0.0022829412958958305
-0.4802148771195789,-0.4802148771195789,1.001735222080971,0.0018131993962786266
-0.4801336507938686,-0.4801336507938686,1.0012424780307667,0.002415131408977633
-0.4800628540717298,-0.4800628540717298,1.000842653526799,0.001756114252196734
-0.47996070543740643,-0.47996070543740643,1.0003882975793374,0.002139323509263974
-0.47970998461387354,-0.47970998461387354,1.0012900760359496,0.002750974902138935
-0.4796386213231017,-0.4796386213231017,0.999534565960223,0.0020010544923979657
-0.4795100221745088,-0.4795100221745088,1.0002337834081358,0.0022319528592645308
-0.47928935087984426,-0.47928935087984426,1.002987281886046,0.0023496990890711136
-0.47912157536047745,-0.47912157536047745,1.000359909298909,0.0022550245007995984
-0.47904287089331776,-0.47904287089331776,0.9988328927754531,0.001595890548968163
-0.4789685774812824,-0.4789685774812824,0.9996231502333692,0.0022092565844531262
-0.4788065149972681,-0.4788065149972681,1.0003344745185518,0.001959765906269099
-0.4786322669388028,-0.4786322669388028,0.9997711602320536,0.0022365002769318635
-0.4785477193887345,-0.4785477193887345,1.003970453603403,0.003160821365172044
-0.47845075584191366,-0.47845075584191366,1.0005248966757525,0.002629261681865179
-0.47834468146174913,-0.47834468146174913,1.0001085485576402,0.001870325348664072
-0.47813460772886174,-0.47813460772886174,0.9988821970953052,0.0023712501532908584
-0.47801176760840464,-0.47801176760840464,0.9985162492884632,0.002622475005007382
-0.47785045616328714,-0.47785045616328714,1.0001020216291778,0.001916188545210774
-0.47774670467915714,-0.47774670467915714,1.0019084460982324,0.001890620521227729
-0.47760143799241633,-0.47760143799241633,0.9987257504672495,0.0019313132979950453
-0.47747263663768535,-0.47747263663768535,1.0011268038841354,0.0017895880310010719
-0.4773686727974564,-0.4773686727974564,0.9999360635494418,0.0021436481009329076
-0.4771647176981787,-0.4771647176981787,1.0008777841146106,0.0023994014966286148
-0.47685935325134776,-0.47685935325134776,0.9999202859203006,0.0017163448602034066
-0.47664043136901457,-0.47664043136901457,1.0007697367373294,0.0018861019461153428
-0.47656261050724424,-0.47656261050724424,0.9998666022994567,0.0016139691260923911
-0.4764491874477244,-0.4764491874477244,1.0006065654130434,0.0021153126225754377
-0.4764068322867388,-0.4764068322867388,0.9991828121762607,0.0025690555250986354
-0.4762810648186132,-0.4762810648186132,0.9989391669577369,0.0018762716709046154
-0.47618456377531404,-0.47618456377531404,1.0003124462858526,0.001752272646054817
-0.4759648694351199,-0.4759648694351199,0.9987550227590273,0.0024709497285344663
-0.47587884418462634,-0.47587884418462634,0.9999422183853465,0.0018174499353200812
-0.47577712310885545,-0.47577712310885545,1.0007509637599101,0.002014457999163052
-0.4756239763548365,-0.4756239763548365,0.9994022565293038,0.0014590274181181914
-0.47552228100976207,-0.47552228100976207,1.0009021536260767,0.001915639024449911
-0.4754621426865924,-0.4754621426865924,0.9998054164956048,0.001953663864148066
-0.47534748467005555,-0.47534748467005555,1.0003464924109946,0.002309089201091927
-0.47524897018738554,-0.47524897018738554,1.0002361977064114,0.0018216106511618688
-0.4751123241163441,-0.4751123241163441,0.9975387816795351,0.0022464600255417914
-0.474941302849038,-0.474941302849038,1.0002129108825295,0.0019662829743584513
-0.47477552407362966,-0.47477552407362966,1.0008312374970592,0.0016208436291317821
-0.4746340570753091,-0.4746340570753091,0.9981552010787574,0.0021308570099887797
-0.47447737550828606,-0.47447737550828606,1.0021734875087522,0.0025462150425331035
-0.47429288289131366,-0.47429288289131366,1.0004131026389618,0.0018979136089444693
-0.4740936352944118,-0.4740936352944118,0.9974866129503159,0.001807870255127505
-0.4739784471312305,-0.4739784471312305,0.9987942383337197,0.002240810131723534
-0.4737682584804134,-0.4737682584804134,0.9988495035365395,0.0024035761318048085
-0.4737040857973625,-0.4737040857973625,1.001166977650837,0.0021299969715215393
-0.4735802886527381,-0.4735802886527381,1.0009440949502522,0.0017615075399827463
-0.4734182132378919,-0.4734182132378919,0.9989404099830296,0.0023721347857451947
-0.47333286105131267,-0.47333286105131267,0.9997494486265601,0.0017337004332824784
-0.47327706667565506,-0.47327706667565506,1.0001643928169304,0.0024038805083890493
-0.47315476469811985,-0.47315476469811985,1.0008918592967937,0.0021428908275204156
-0.47307636281620946,-0.47307636281620946,0.9989192399408384,0.0018478124715575136
-0.47295916891889644,-0.47295916891889644,1.0026932963993977,0.0024233321439444183
-0.4728612097052974,-0.4728612097052974,0.9997398387609857,0.0020484584763576638
-0.4727585984772304,-0.4727585984772304,1.0004872660490722,0.0020397597968352748
-0.47252796137763653,-0.47252796137763653,1.0023428640579426,0.002372803958126728
-0.4723152810431202,-0.4723152810431202,0.999098746055302,0.002258222742444438
-0.47222161811223484,-0.47222161811223484,0.999540776075086,0.0018563605950774088
-0.4721483393310336,-0.4721483393310336,0.9987155728020307,0.0023578923607475485
-0.47199195315770337,-0.47199195315770337,0.9985111293793295,0.0022294579269778736
-0.4718296225633821,-0.4718296225633821,1.0021550641629957,0.0023434855486753536
-0.4717082640185254,-0.4717082640185254,0.9991515609498134,0.002625765453194051
-0.471589870218304,-0.471589870218304,0.9985783892014772,0.0021404722553084593
-0.4713897552224807,-0.4713897552224807,1.0007413780286343,0.002273609427926244
-0.47130505484674357,-0.47130505484674357,1.0001953793504492,0.0021821938753841144
-0.47109251849033174,-0.47109251849033174,0.999610975376106,0.0021854362477059445
-0.4709645805211039,-0.4709645805211039,1.0004286385176264,0.001905512174283179
-0.4707986371344305,-0.4707986371344305,1.0008729070149966,0.0017469563404378177
-0.4707117112047854,-0.4707117112047854,0.9984268094812299,0.0019740230114890967
-0.470533998881001,-0.470533998881001,0.9999462446006305,0.0022083492444962926
-0.4703380733000813,-0.4703380733000813,0.9995958092190547,0.002387156308415508
-0.4700206945752143,-0.4700206945752143,1.0000894251240429,0.0017586827587746392
-0.46977122548851186,-0.46977122548851186,1.0004770245508614,0.0024975265200195846
-0.469603428892151,-0.469603428892151,0.9998143473889888,0.0022097543026055925
-0.46953910003066995,-0.46953910003066995,1.0015427468908797,0.0016587153846024725
-0.4694414194804267,-0.4694414194804267,1.0017661836410494,0.0016428169686803905
-0.4693312516028527,-0.4693312516028527,0.9995344957331357,0.0015861866107202516
-0.46916454074234937,-0.46916454074234937,1.0006727279480034,0.0022658370206507655
-0.4690531198124518,-0.4690531198124518,1.00042632675124,0.0021069998308802292
-0.4689212412413326,-0.4689212412413326,0.9973282024369325,0.0024155723788049283
-0.4687527687987313,-0.4687527687987313,1.0001525922513312,0.0018562631749490324
-0.4686942273780005,-0.4686942273780005,1.0003152741066401,0.002172023848974942
-0.46860123452352126,-0.46860123452352126,0.9969012971436969,0.0020902036971000818
-0.4685098052039393,-0.4685098052039393,1.0030151556279865,0.0015406997451625124
-0.4683951810671715,-0.4683951810671715,0.9996928769007564,0.0018117118499214944
-0.4682281526285806,-0.4682281526285806,0.9978048742049703,0.0021427599499601194
-0.4680262025329284,-0.4680262025329284,1.0019761632913746,0.0019138238469088014
-0.4678787878685398,-0.4678787878685398,0.9995524183974224,0.001964529483358698
-0.4677951587742427,-0.4677951587742427,0.9982890683097498,0.0026638840421847206
-0.46756689999456286,-0.46756689999456286,1.0017219761458915,0.002416247210271245
-0.4674500490815262,-0.4674500490815262,1.0008064354663453,0.002312068054893753
-0.4673297361267032,-0.4673297361267032,0.9991191473359586,0.002463630763624555
-0.46718115718831543,-0.46718115718831543,1.0005521707191727,0.0022405992191548577
-0.46709003265277715,-0.46709003265277715,1.000576324959804,0.001863783266520478
-0.46697634206793737,-0.46697634206793737,1.001880023917576,0.003093814231106368
-0.46677753858384674,-0.46677753858384674,1.0002867389334131,0.0024565441972740866
-0.4666258164361352,-0.4666258164361352,1.0005459377977282,0.0018520364772736113
-0.4665354454089538,-0.4665354454089538,0.9992470933279961,0.0019512274645389065
-0.46645034025423227,-0.46645034025423227,0.9991246956616061,0.0017787052085736503
-0.46636234942561716,-0.46636234942561716,1.0015114289821885,0.0022878900034511906
