time,time,flux,flux_err
-0.49924208520133107,-0.49924208520133107,1.0001412919100918,0.0003701935562937627
-0.4973267251940949,-0.4973267251940949,0.9999932449721743,0.00036990337128353293
-0.4957571962240763,-0.4957571962240763,0.9998890951272964,0.000369124585198591
-0.4942595768923638,-0.4942595768923638,0.9996252161267967,0.0003384754420302246
-0.49338161461637353,-0.49338161461637353,0.9999719962980395,0.0003365800303517119
-0.49181511408605727,-0.49181511408605727,0.9997648507780081,0.000339762607323962
-0.49069994197052436,-0.49069994197052436,0.9997564330575226,0.0003371923713788736
-0.48927377659492777,-0.48927377659492777,0.999972011003026,0.0003399080604492667
-0.48842725153735955,-0.48842725153735955,0.9998178759475784,0.0003374106651058316
-0.4869287267880281,-0.4869287267880281,1.000135740605279,0.00033907278085471357
-0.48561787007347446,-0.48561787007347446,0.9998936561253222,0.00034099931862551685
-0.48422023295424876,-0.48422023295424876,0.999491487414147,0.0003389039210585648
-0.4822988060535863,-0.4822988060535863,1.0000238701163895,0.0003367350976852011
-0.4806201069171948,-0.4806201069171948,0.9998291663711258,0.00033663780314140487
-0.47923826476326215,-0.47923826476326215,0.9999544438667843,0.0003366119309161174
-0.4781842776079429,-0.4781842776079429,0.9998476628300426,0.00033717265824207034
-0.47683019294418044,-0.47683019294418044,1.0000511084670003,0.00034237307089933066
-0.47584725776032427,-0.47584725776032427,1.0002305404660021,0.00033785637074709723
-0.4736129848868586,-0.4736129848868586,0.9998197523753177,0.00033908400213750466
-0.47129200608178506,-0.47129200608178506,0.999915996065386,0.0003364407788292757
-0.4702971320191864,-0.4702971320191864,0.9998546495249222,0.00034134506033538703
-0.46885319619250365,-0.46885319619250365,0.9999313428216473,0.0003378047732578441
-0.46762025354182696,-0.46762025354182696,0.9997308520488801,0.00033861410514376733
-0.4662156643535127,-0.4662156643535127,1.0003225541212775,0.00033946925226278674
-0.46561932937911477,-0.46561932937911477,1.0001729050572998,0.0003410734118913587
-0.46415023551307966,-0.46415023551307966,0.9993542029212676,0.00033802527228473435
-0.46296231409505706,-0.46296231409505706,0.9997743119230957,0.0003367990218579763
-0.46174248169190835,-0.46174248169190835,0.9997387491887484,0.00033650797870272574
-0.4603307806988596,-0.4603307806988596,0.9994777615730523,0.0003366916203825805
-0.4588213381743117,-0.4588213381743117,0.9999971552885896,0.0003370727957969368
-0.45769950147005145,-0.45769950147005145,0.99920516482275,0.0003387540073945417
-0.4566728978985338,-0.4566728978985338,0.9996210477112284,0.0003382544714179589
-0.4549642853809928,-0.4549642853809928,1.0002977445093166,0.00033916018093669626
-0.45345594485188484,-0.45345594485188484,0.9999576844719783,0.00033859508014627527
-0.4521130209257535,-0.4521130209257535,0.9988114777269133,0.0003390165842059764
-0.45059424977225715,-0.45059424977225715,0.9995943566517849,0.0003411605429853297
-0.44925089101234333,-0.44925089101234333,0.9999331962074836,0.0003423223869444998
-0.44831992544859534,-0.44831992544859534,1.0001753403134046,0.000338575688434204
-0.4471998107401305,-0.4471998107401305,0.9997719476777819,0.00033840109615131586
-0.44550452893963666,-0.44550452893963666,1.0002315416237832,0.0003369706087939134
-0.4441992475018196,-0.4441992475018196,0.9998582640684619,0.0003365780244628002
-0.4426140730312909,-0.4426140730312909,1.0001160538453227,0.00033897663478348636
-0.44153700773458693,-0.44153700773458693,1.0001202219654293,0.0003378344475168004
-0.4400921199921868,-0.4400921199921868,0.9995284590930776,0.000337893427255207
-0.43808138780805167,-0.43808138780805167,0.999930865371223,0.0003379753451777169
-0.43557756944574066,-0.43557756944574066,0.9997358851818197,0.00034027029629472833
-0.4341453667570022,-0.4341453667570022,1.0004083129332262,0.00033663079111937946
-0.4328837885390385,-0.4328837885390385,1.0000147855598782,0.0003376475188767256
-0.4313830824386969,-0.4313830824386969,0.9994249987987676,0.0003391862634500466
-0.43076441279190475,-0.43076441279190475,0.9998654912486723,0.0003385936558505941
-0.42944501878882874,-0.42944501878882874,1.0000537105446516,0.00034118248406202754
-0.42828773651781377,-0.42828773651781377,0.9996482123883901,0.0003391982009687871
-0.42661769640690184,-0.42661769640690184,1.000391499327638,0.00033824605277673253
-0.42451550898476853,-0.42451550898476853,1.0002570350876154,0.000336988978928606
-0.42265309429712944,-0.42265309429712944,0.9996440305837373,0.0003365874802786048
-0.4217637168170768,-0.4217637168170768,1.0000016923860973,0.0003397707878101776
-0.4207057166902814,-0.4207057166902814,0.9999769656082395,0.0003371785461755894
-0.41885657204838933,-0.41885657204838933,0.9999171827990528,0.00033879803703512813
-0.4175108318013372,-0.4175108318013372,0.9994127857923699,0.0003382869059955085
-0.41664338831615166,-0.41664338831615166,0.9999840004417747,0.0003400801895338744
-0.4158400825333956,-0.4158400825333956,1.0001522226591342,0.0003393558536164837
-0.4140953393325617,-0.4140953393325617,1.000057923134738,0.0003405731155922481
-0.41273657997953705,-0.41273657997953705,0.9994736565924824,0.00034032816799310953
-0.41110336231431577,-0.41110336231431577,1.0000588109987483,0.00033746023611128643
-0.4096937526650436,-0.4096937526650436,1.0000344077480319,0.00033716456211548755
-0.40827488592476585,-0.40827488592476585,0.999538282050971,0.00033648900877430494
-0.4071155254263431,-0.4071155254263431,0.9998995630940277,0.0003371246812540326
-0.405989037292602,-0.405989037292602,0.9996810614594484,0.0003372394161563287
-0.4044553256862855,-0.4044553256862855,0.999436544173192,0.0003402297008845729
-0.4031361269961053,-0.4031361269961053,0.9999607988143863,0.0003385916286572185
-0.4011646065271634,-0.4011646065271634,0.9997319597820375,0.00033982232739247325
-0.3992056416180276,-0.3992056416180276,0.9993466856906746,0.00033673539321130315
-0.39806779968712364,-0.39806779968712364,1.0004696003539029,0.0003393017349764897
-0.39697311298004934,-0.39697311298004934,1.000399911361983,0.0003414324310176537
-0.3962610827824392,-0.3962610827824392,0.9997673382690498,0.00033929925261591803
-0.39523526926132035,-0.39523526926132035,0.9998699137906712,0.0003384178823674816
-0.3939771032979479,-0.3939771032979479,1.0002633227467363,0.0003397493036315764
-0.39300307825178604,-0.39300307825178604,1.0000177377887558,0.00033894704928444234
-0.3915984910672705,-0.3915984910672705,0.9998402014430269,0.0003381198398733329
-0.39023889039817733,-0.39023889039817733,0.9996675398074965,0.0003377243302926593
-0.3890753821600811,-0.3890753821600811,0.9999664243839149,0.0003371446344494486
-0.38735874163758127,-0.38735874163758127,0.9998557269039725,0.0003367682489166718
-0.3865668556260061,-0.3865668556260061,1.000293073349332,0.0003389156072769576
-0.38536930742557163,-0.38536930742557163,0.9999271781605884,0.00033674884817468256
-0.38385731980451965,-0.38385731980451965,0.9999031283868021,0.0003385478527691043
-0.3824202498231898,-0.3824202498231898,0.9998133495315683,0.000339808609381262
-0.3815614917402854,-0.3815614917402854,0.9996208073082693,0.0003372701464650206
-0.38059840393034394,-0.38059840393034394,1.0002008841323509,0.000342147107056439
-0.37923798534975506,-0.37923798534975506,0.9994694817453869,0.0003413032831587537
-0.3778885427615023,-0.3778885427615023,0.999657393757326,0.00033862760041628736
-0.37679655170286425,-0.37679655170286425,0.9999743048859436,0.00034091929606815585
-0.3750789871883171,-0.3750789871883171,0.999588953020314,0.0003366751554222128
-0.3734003924459103,-0.3734003924459103,0.999455340527313,0.00033661606989713347
-0.37193388635860175,-0.37193388635860175,0.9998604516079329,0.0003374375198553847
-0.37067577208654257,-0.37067577208654257,1.0001783844991472,0.000338756424467464
-0.36943019756363354,-0.36943019756363354,0.9998099715896563,0.00034006305224569625
-0.3679595129258814,-0.3679595129258814,0.9995655796967832,0.0003376757531901363
-0.36535035447959674,-0.36535035447959674,0.9999754469982205,0.00033779003635776015
-0.363682046210306,-0.363682046210306,0.9994486013510793,0.0003367754325720154
-0.36286773968167835,-0.36286773968167835,0.9998489507653249,0.0003409759026294353
-0.361632975856628,-0.361632975856628,1.0002044543254818,0.00033781472945579907
-0.3603996771678794,-0.3603996771678794,1.000070045936064,0.0003386229432522451
-0.3589255857979879,-0.3589255857979879,1.0001314858399781,0.00033956072115917104
-0.3577385846263496,-0.3577385846263496,0.9996684927300612,0.00033989547639753416
-0.356296294870117,-0.356296294870117,1.0000054550815658,0.0003369870745311685
-0.35499888559279497,-0.35499888559279497,0.9998230798046961,0.0003378160334955551
-0.3537284153368091,-0.3537284153368091,1.0002763054743111,0.0003368096121427765
-0.35190652481906,-0.35190652481906,1.0002993458396525,0.00033838604502358277
-0.35088679393011263,-0.35088679393011263,0.9994462838643363,0.0003365029977622675
-0.3498973510679207,-0.3498973510679207,1.0004537946997256,0.00033933845322180965
-0.3487951449067623,-0.3487951449067623,1.0000973829766184,0.00033850494236014456
-0.34683650435108576,-0.34683650435108576,1.0008057803686594,0.0003405599451438728
-0.34579395908222066,-0.34579395908222066,1.00012694294286,0.0003368875754594468
-0.344605774905358,-0.344605774905358,0.9998081161388022,0.00033901944770685767
-0.3431044258759357,-0.3431044258759357,1.0000134205329327,0.0003413665756494222
-0.3417973202042049,-0.3417973202042049,0.9997765153748451,0.00034205589945473993
-0.34084803947480397,-0.34084803947480397,1.000015053618955,0.0003408577674225431
-0.3391891871971893,-0.3391891871971893,0.9998533875507792,0.00033665382297290967
-0.33770888789731546,-0.33770888789731546,0.9997050087579179,0.00033674160213272253
-0.33667377096935525,-0.33667377096935525,1.0001001259817361,0.0003365770047929301
-0.3353944937247434,-0.3353944937247434,0.9999054650996182,0.0003389380874087644
-0.3342664372146828,-0.3342664372146828,1.0004136233701826,0.0003374295350499002
-0.33266238685027927,-0.33266238685027927,1.0001018109536437,0.0003400482198438896
-0.3312467730829667,-0.3312467730829667,1.0000866802713,0.0003382156139430683
-0.32877224153126006,-0.32877224153126006,0.9998171979605847,0.000338633039144616
-0.32730413873214276,-0.32730413873214276,0.9998192138026821,0.0003380185085011064
-0.3262502285549999,-0.3262502285549999,0.9999686246245526,0.0003379241079007647
-0.3247336864944373,-0.3247336864944373,0.9999434515622816,0.00033774231241580366
-0.3237381357947015,-0.3237381357947015,1.0002376959549704,0.0003402153979219075
-0.32250769201564256,-0.32250769201564256,1.000224128077152,0.00034130634121786537
-0.321451450913446,-0.321451450913446,0.9995354975407711,0.00033924652773146944
-0.31984442965986093,-0.31984442965986093,0.9995459768219712,0.00033676661499645964
-0.3178597898338921,-0.3178597898338921,0.9998461492303713,0.00033696387492524116
-0.31580200427924865,-0.31580200427924865,1.0001143289006342,0.00033652989780106875
-0.31501880173454994,-0.31501880173454994,1.000092444239273,0.00033840617901825565
-0.31419633638870437,-0.31419633638870437,0.9998218545316666,0.0003380914733238852
-0.31282708981452745,-0.31282708981452745,0.9995508479682537,0.0003390289843069379
-0.3111731756354857,-0.3111731756354857,0.9999444209627081,0.00033672691559505634
-0.30974167937092717,-0.30974167937092717,1.0001405255613192,0.0003391671349501145
-0.3086207827604085,-0.3086207827604085,1.0004984548791183,0.0003393666053842342
-0.30687597169089714,-0.30687597169089714,1.0005243243295117,0.00034062666810307293
-0.305299304084474,-0.305299304084474,1.000457866910121,0.00033864882859021075
-0.30357144246954704,-0.30357144246954704,0.999957316517232,0.0003376578433861102
-0.30177173119955114,-0.30177173119955114,1.000282516673078,0.0003366819146539544
-0.30039701471250735,-0.30039701471250735,1.0000590379900292,0.00033710254700354634
-0.2992419734131545,-0.2992419734131545,1.0001886404813436,0.0003373392598654048
-0.29777218271774475,-0.29777218271774475,1.0004773996697631,0.00033943406763078195
-0.29660250374217867,-0.29660250374217867,1.0000176544461898,0.00033967292990328134
-0.29503095048276007,-0.29503095048276007,0.9995355347084102,0.00034048137952691864
-0.29302967600524427,-0.29302967600524427,0.9999978682286127,0.0003386387984814109
-0.29155452166232865,-0.29155452166232865,0.9997586248412065,0.00033674610160383284
-0.29066002412364467,-0.29066002412364467,0.9995186392066497,0.00033896458359376834
-0.28945938892793494,-0.28945938892793494,0.9994655064965399,0.0003423250814972816
-0.2886510956734128,-0.2886510956734128,1.0007042806975044,0.00034002518838715395
-0.287409660765843,-0.287409660765843,1.0000902651015013,0.00034089919070739256
-0.286548891478742,-0.286548891478742,1.000160691108467,0.0003393536998118669
-0.2849853134022851,-0.2849853134022851,1.0004405329745847,0.0003379868358550975
-0.28368919300337436,-0.28368919300337436,0.9997219491957606,0.00033824677239456286
-0.28232550919128696,-0.28232550919128696,1.000032224567575,0.0003365559058601111
-0.28075964652744007,-0.28075964652744007,0.9999250104076772,0.0003370733152484747
-0.27970180945194445,-0.27970180945194445,1.0001614102117025,0.0003385276050189655
-0.27851780081982724,-0.27851780081982724,0.9994788633336616,0.0003366540703315092
-0.27675361737419735,-0.27675361737419735,1.000209990731281,0.0003387408488414056
-0.27554814209870526,-0.27554814209870526,0.9999752685805472,0.0003366849835427176
-0.2746366899598797,-0.2746366899598797,1.0008365190746729,0.0003406551804019827
-0.2738140780980757,-0.2738140780980757,0.9999796788886652,0.0003393319064349448
-0.27225031068883254,-0.27225031068883254,1.0001884773182161,0.00034139880918522406
-0.2706690160870494,-0.2706690160870494,1.0004338596519982,0.0003387820785493575
-0.2694776817166712,-0.2694776817166712,0.9999141398052398,0.0003388942842643932
-0.26769524857372745,-0.26769524857372745,1.0000091491434986,0.0003367903100245426
-0.266243775167095,-0.266243775167095,0.9995829737231594,0.0003371001628011311
-0.2650166965657263,-0.2650166965657263,0.9999485632165502,0.0003365884460043018
-0.263745223103615,-0.263745223103615,0.9999107564632761,0.00033721011968569
-0.2623915672280418,-0.2623915672280418,1.0001156379156746,0.00034246848415521913
-0.26132315595968975,-0.26132315595968975,0.9996008507476419,0.0003384760230696411
-0.2592837928285007,-0.2592837928285007,1.0003682796712596,0.0003392892360019661
-0.25685358714617906,-0.25685358714617906,1.0000516971441074,0.00033642125326594885
-0.2558575043491146,-0.2558575043491146,1.0001497119247866,0.0003413729725171478
-0.2544127558045147,-0.2544127558045147,1.0000761250903372,0.0003378203002665405
-0.2534524695467553,-0.2534524695467553,1.0005849688303725,0.00033886143174863747
-0.2519200924049073,-0.2519200924049073,1.0005814441104606,0.00033936455259929145
-0.2510682854757761,-0.2510682854757761,1.000792698516336,0.0003388742742255034
-0.24964230447440058,-0.24964230447440058,1.0004230493746216,0.0003382119454096328
-0.24825758845254314,-0.24825758845254314,1.0000855780769042,0.0003379228089891529
-0.2471163892521872,-0.2471163892521872,0.9995614131178577,0.0003367966710189481
-0.24531233342495398,-0.24531233342495398,0.9997581705192491,0.00033675173919443335
-0.24392297408048763,-0.24392297408048763,0.9997526420152736,0.0003365768405462423
-0.24305219889138244,-0.24305219889138244,0.9998454073116241,0.0003389295102127129
-0.24199650531154476,-0.24199650531154476,1.000588804385346,0.00033821260777788456
-0.24045007752647507,-0.24045007752647507,0.9999267366486997,0.000340674838233702
-0.23911431978995096,-0.23911431978995096,1.0000403077586844,0.00033678818736754555
-0.23812716896136407,-0.23812716896136407,0.9997563122112366,0.00033894898021724987
-0.23706010576643166,-0.23706010576643166,0.9997516893186523,0.00033974916765531506
-0.2355788763954479,-0.2355788763954479,1.0003789256320732,0.0003411135507800126
-0.2344481328924303,-0.2344481328924303,0.999793923282468,0.00034238539257966226
-0.2335411253523489,-0.2335411253523489,1.0001859599331946,0.0003386231049292726
-0.2315520233605639,-0.2315520233605639,1.0002286332658732,0.00033694935666844994
-0.23019880741048837,-0.23019880741048837,0.9999788677278687,0.0003366328089459443
-0.22900040872191313,-0.22900040872191313,0.9997582784769076,0.0003364106696494277
-0.22767188677898959,-0.22767188677898959,1.0003309817388355,0.00033902423548220107
-0.22647963277631789,-0.22647963277631789,0.9998110790075708,0.0003393567003674805
-0.22486491934978403,-0.22486491934978403,1.0000363327996842,0.00033797349705766384
-0.2224959696897713,-0.2224959696897713,1.0005896991075387,0.00033810930719683336
-0.22090839127922662,-0.22090839127922662,1.0001342257733923,0.0003402752022892342
-0.21957503891171654,-0.21957503891171654,0.9997775384460258,0.0003367577932973579
-0.21844346663710895,-0.21844346663710895,1.0003126238587652,0.0003376867346459206
-0.21676787090400468,-0.21676787090400468,0.9999003342192715,0.00034145175316678945
-0.21627974638104205,-0.21627974638104205,1.0003426954957775,0.00033866041689596254
-0.2150072454867768,-0.2150072454867768,0.9997774285451545,0.00034112637882692114
-0.21384733437444084,-0.21384733437444084,1.0002688925142134,0.00033925526024632406
-0.2119040954654338,-0.2119040954654338,1.0000027319780842,0.0003370054539138047
-0.2097456353403686,-0.2097456353403686,0.9998480669676729,0.00033705167234492756
-0.20821392015859602,-0.20821392015859602,1.0000813333250211,0.00033667536844466663
-0.20717085914220662,-0.20717085914220662,1.0002148322935493,0.0003396881433297877
-0.20585890873335302,-0.20585890873335302,1.0000019576429757,0.0003387163147983511
-0.20395332369589597,-0.20395332369589597,1.0003579113655536,0.00033677625222328496
-0.2025053919714992,-0.2025053919714992,1.0000918077744747,0.00033893801664252053
-0.2011314889678033,-0.2011314889678033,0.9998693371634607,0.0003412313178707463
-0.19932527082783053,-0.19932527082783053,0.9991919177559548,0.0003387452069456664
-0.19808013746442157,-0.19808013746442157,1.0003573810908895,0.00033867719937146927
-0.19637500099925093,-0.19637500099925093,1.000290828580877,0.0003375402030138096
-0.194908886882331,-0.194908886882331,0.9998290034758615,0.00033688159580744036
-0.193425836887036,-0.193425836887036,0.9994813704140636,0.0003368711986548989
-0.19227343838501837,-0.19227343838501837,0.9997544564542261,0.00033747558535441517
-0.19066661449251116,-0.19066661449251116,1.0002063187535,0.00033944043711448707
-0.18916508989714204,-0.18916508989714204,0.9999945958788267,0.0003380596509668762
-0.18724139874684625,-0.18724139874684625,0.99998098922745,0.00033801304827039914
-0.18528294289280894,-0.18528294289280894,1.000023213746011,0.00033866792223231164
-0.18405850162744172,-0.18405850162744172,1.00083869905628,0.00033791918046364246
-0.18300560954594403,-0.18300560954594403,1.0001949382052355,0.00033872212233000676
-0.18201076073819422,-0.18201076073819422,1.000713146494923,0.0003418984222085677
-0.18125870872027008,-0.18125870872027008,1.0000686827074339,0.00033842612805827434
-0.1799772427562857,-0.1799772427562857,0.9997711407193102,0.00034113604129053525
-0.17906937065854436,-0.17906937065854436,1.0000100739498066,0.0003394914156255227
-0.17765690528103734,-0.17765690528103734,0.9998209818884417,0.00033775535463903214
-0.1761297829609248,-0.1761297829609248,0.9997948081623663,0.00033802718173816165
-0.1749450098235684,-0.1749450098235684,1.0003133410428902,0.00033861695271125757
-0.1735395072879328,-0.1735395072879328,1.0004714696553585,0.00033717440757110385
-0.1721168664371362,-0.1721168664371362,1.000220673878071,0.00033869076071046716
-0.17047289909169194,-0.17047289909169194,1.0006553620045209,0.00033814860005201955
-0.16917981841179425,-0.16917981841179425,1.0005393245210032,0.00033728076602124364
-0.16795467855263269,-0.16795467855263269,1.000337453170062,0.0003385393413435701
-0.16730147276830393,-0.16730147276830393,0.9997745003774057,0.0003407684444369901
