time,time,flux,flux_err
-0.49992638802117045,-0.49992638802117045,0.9999557875706261,8.921158585917005e-05
-0.4997413106786553,-0.4997413106786553,0.999996574756462,8.418911595837726e-05
-0.49958575432538055,-0.49958575432538055,0.999936303555401,8.148886556569874e-05
-0.4994566279608989,-0.4994566279608989,0.9998969517023127,8.314897282363112e-05
-0.49926806863513773,-0.49926806863513773,0.9999887736722796,8.130656272262879e-05
-0.4991509696410503,-0.4991509696410503,0.999986829074596,8.054072810336048e-05
-0.4990148913464509,-0.4990148913464509,0.9999492320538235,8.056945611731592e-05
-0.4988893922767602,-0.4988893922767602,1.000042827573941,8.127981640649932e-05
-0.498756556873559,-0.498756556873559,1.0000175120862282,8.124360105045493e-05
-0.49867669005179777,-0.49867669005179777,1.000124079198226,8.131804365589147e-05
-0.49860172169283035,-0.49860172169283035,0.9999414722128167,8.333940949851979e-05
-0.4984978620079346,-0.4984978620079346,0.9999905994070424,8.134662764140742e-05
-0.4983611113973893,-0.4983611113973893,0.9999482297947975,8.188853208406721e-05
-0.49815298478933984,-0.49815298478933984,0.9999921012810283,8.26398128229171e-05
-0.4979657186020631,-0.4979657186020631,1.0000456998062754,8.235630104317919e-05
-0.4978750728041632,-0.4978750728041632,1.0002415513933076,8.23202041210688e-05
-0.49775934318895454,-0.49775934318895454,1.0000106410775285,8.097179588022623e-05
-0.49763260867039205,-0.49763260867039205,1.000039364746071,8.026047728607524e-05
-0.49751978281128684,-0.49751978281128684,0.9999509175251612,8.180132856923716e-05
-0.49744348747772166,-0.49744348747772166,0.9998911306206446,8.158664641250762e-05
-0.49733661485952324,-0.49733661485952324,0.9999647076396784,8.297213436952328e-05
-0.49718356504454275,-0.49718356504454275,0.9999661106269728,8.332341765465518e-05
-0.4968731137691066,-0.4968731137691066,0.9999830033147301,8.124399593018832e-05
-0.4967620467796223,-0.4967620467796223,0.9999957372920052,8.147423340748786e-05
-0.496628241694998,-0.496628241694998,1.0000798825863226,8.105427389681701e-05
-0.49650954011885917,-0.49650954011885917,0.9998542522778499,8.230747036568941e-05
-0.4963893904379802,-0.4963893904379802,1.0000738298095158,8.089324307719043e-05
-0.49630428171367386,-0.49630428171367386,0.9999531952576921,8.367828815902523e-05
-0.4961983085842803,-0.4961983085842803,0.9999971722402645,8.207245780717976e-05
-0.4961364292394137,-0.4961364292394137,0.9999723211519502,8.195207619863748e-05
-0.49607964656024706,-0.49607964656024706,1.000063431618989,8.193276543402046e-05
-0.49598101047158705,-0.49598101047158705,1.0000718717185142,8.096172417916702e-05
-0.49578483617224267,-0.49578483617224267,0.9999107441573465,8.372093247862122e-05
-0.49557415006274824,-0.49557415006274824,0.99992031993316,8.289228797965246e-05
-0.4954051157546928,-0.4954051157546928,1.0000772753423999,8.320220081218076e-05
-0.4951966914260993,-0.4951966914260993,0.9999612117710768,8.119500045601196e-05
-0.4951070482551586,-0.4951070482551586,0.9999730452660576,8.153195098115904e-05
-0.4949762460310012,-0.4949762460310012,1.000141269524703,8.255286854046515e-05
-0.4948402686743066,-0.4948402686743066,1.000014893054145,8.429171302519689e-05
-0.49473192292207385,-0.49473192292207385,0.9999909646041392,8.222363047868987e-05
-0.49459353169077075,-0.49459353169077075,0.9999468230820332,8.15219137032126e-05
-0.4944173017691355,-0.4944173017691355,1.0000334617232582,8.137544112473829e-05
-0.4943166173383361,-0.4943166173383361,0.9999758500408957,8.18651539542225e-05
-0.4941452975792345,-0.4941452975792345,0.9999870376738402,8.095581251743926e-05
-0.49399496183614244,-0.49399496183614244,0.9999205936361649,8.103923347026846e-05
-0.4938679102458991,-0.4938679102458991,0.9999250180689572,8.119921091162103e-05
-0.49378641244547905,-0.49378641244547905,0.9998706220821344,8.321673904690763e-05
-0.4937213639263064,-0.4937213639263064,0.9999963331130791,8.074011935615166e-05
-0.4935884192411322,-0.4935884192411322,0.9998426207530903,8.159827953612062e-05
-0.4934501561248908,-0.4934501561248908,0.9999675898846911,8.755538412851529e-05
-0.4933686534088338,-0.4933686534088338,1.0000410409360712,8.216878408146485e-05
-0.49325914881774224,-0.49325914881774224,0.9997833851568764,8.185719379492293e-05
-0.49307824895658997,-0.49307824895658997,1.000055687913984,8.352421166329908e-05
-0.4929141323111253,-0.4929141323111253,0.9999109670312073,8.174469573625242e-05
-0.49275084043911194,-0.49275084043911194,1.0000129523632597,8.124789363996577e-05
-0.4926613012619782,-0.4926613012619782,1.0000636538851704,8.081421532641e-05
-0.4925446822133381,-0.4925446822133381,1.0000139590658002,8.251322509242024e-05
-0.4924662020493997,-0.4924662020493997,1.0000053771776436,7.982267084062519e-05
-0.49233002204855436,-0.49233002204855436,0.9999183047382976,8.207185708500019e-05
-0.49219947482051796,-0.49219947482051796,0.9998916421541116,8.220845998236755e-05
-0.49209263394004665,-0.49209263394004665,0.9999201131811439,8.196195040831369e-05
-0.49199364905653054,-0.49199364905653054,1.0002517823624246,8.113115633518099e-05
-0.49194187025423164,-0.49194187025423164,1.0000032593789343,8.3391226880371e-05
-0.4918596960807918,-0.4918596960807918,0.999997531356873,8.165286794388969e-05
-0.4917688371031545,-0.4917688371031545,1.0000794576175323,8.090256521342758e-05
-0.49168584633152934,-0.49168584633152934,0.9999215514142726,8.178099112667819e-05
-0.491604097301024,-0.491604097301024,0.9999876897495374,8.138663817374075e-05
-0.4914751170348609,-0.4914751170348609,1.0000501930691073,8.171065071826057e-05
-0.4913309700641548,-0.4913309700641548,0.999997445246145,8.007878237164756e-05
-0.491236423960072,-0.491236423960072,1.0000226165757067,8.127833579342727e-05
-0.4911306744499598,-0.4911306744499598,1.0002095754716827,8.024942777865563e-05
-0.49101829317223744,-0.49101829317223744,0.9999883329941536,8.284128736727317e-05
-0.49086383256071714,-0.49086383256071714,1.0000067880167895,8.083189279196845e-05
-0.4907890266709728,-0.4907890266709728,1.0000200028941715,8.179361574482975e-05
-0.49072352542716546,-0.49072352542716546,0.9999059305261028,8.236256184408613e-05
-0.4906398825114593,-0.4906398825114593,0.9999494451787495,8.081014147511814e-05
-0.49043648367223797,-0.49043648367223797,1.0000248169314616,7.9971874321443e-05
-0.49027174744114743,-0.49027174744114743,0.9999176020311227,8.221130549231919e-05
-0.49013262045045847,-0.49013262045045847,1.0001240310773776,8.1614440762053e-05
-0.4900323799578473,-0.4900323799578473,1.0000687658049952,7.969075234241411e-05
-0.48995104458881544,-0.48995104458881544,0.9999098242452954,8.101540341969832e-05
-0.4898409634741256,-0.4898409634741256,1.0000720731681958,8.17287315378712e-05
-0.48968497311288955,-0.48968497311288955,1.0001323184240882,8.104281284727976e-05
-0.4895620867202524,-0.4895620867202524,0.9998082822551341,8.231380381943179e-05
-0.48943409834173507,-0.48943409834173507,0.9999294750878477,8.180098565555093e-05
-0.4893153344572056,-0.4893153344572056,1.0000704390609825,8.08719309527167e-05
-0.4891965373448329,-0.4891965373448329,1.0000076165076823,8.293454998199016e-05
-0.48906961422471795,-0.48906961422471795,0.9999013702435077,8.213159538871502e-05
-0.48899198979197533,-0.48899198979197533,1.000003771210475,8.215087494710873e-05
-0.48893143770983444,-0.48893143770983444,0.9998295630706883,8.391589864142524e-05
-0.488790897137369,-0.488790897137369,0.9999857386029827,8.225668952546546e-05
-0.4886509078758536,-0.4886509078758536,0.9999185002533959,8.224733215177879e-05
-0.4885066210204968,-0.4885066210204968,0.9999084048505615,8.173712515921572e-05
-0.4883677959034685,-0.4883677959034685,0.9999138010928492,8.005340502524242e-05
-0.4882836695440346,-0.4882836695440346,1.0000458174666762,8.280149635846438e-05
-0.4881611271586735,-0.4881611271586735,0.9999951028719591,8.06392847338856e-05
-0.4879453857662156,-0.4879453857662156,1.0000863245835603,8.287438548810596e-05
-0.4878251847141655,-0.4878251847141655,0.9998597769385871,8.097339816614639e-05
-0.48767863160173874,-0.48767863160173874,1.0000128664332095,8.140011583294843e-05
-0.4874784830259159,-0.4874784830259159,0.9999658754823131,8.12667035289543e-05
-0.48731902918952985,-0.48731902918952985,1.0000174102081907,8.35138699815719e-05
-0.4872182083170628,-0.4872182083170628,1.0001441879673219,8.1816690320208e-05
-0.487150794788613,-0.487150794788613,0.9998694448885853,8.112604661897026e-05
-0.4870302782423096,-0.4870302782423096,1.000054442038258,8.128880023025637e-05
-0.4868870812904788,-0.4868870812904788,0.9999831117885123,8.30220072065889e-05
-0.48675426306726877,-0.48675426306726877,0.9999456436899233,8.163652370204221e-05
-0.4866252296604216,-0.4866252296604216,0.9999526989977063,8.234903872489586e-05
-0.4865129384765169,-0.4865129384765169,0.9999822897148969,8.215006027796935e-05
-0.4864383377804188,-0.4864383377804188,0.9999926482151089,8.162987542629457e-05
-0.4863423944974784,-0.4863423944974784,1.000100152091457,8.182179120571816e-05
-0.48619309090136087,-0.48619309090136087,0.9999510468217732,8.250832978090037e-05
-0.48607292644446715,-0.48607292644446715,0.9999945264108195,8.14590415627598e-05
-0.48598498703504445,-0.48598498703504445,1.0001524997842972,8.181832823029958e-05
-0.4858927305409452,-0.4858927305409452,0.9999397369439202,8.209410586626201e-05
-0.48578420738922434,-0.48578420738922434,1.0001821729176297,8.161403782605584e-05
-0.48564129934238737,-0.48564129934238737,1.0000777483504282,8.123187672522276e-05
-0.4855454096570611,-0.4855454096570611,1.0001027205775865,8.240550438420654e-05
-0.48540145099686927,-0.48540145099686927,1.0000795999871586,8.308502293247997e-05
-0.4852178113593254,-0.4852178113593254,1.0000505748580084,8.073025980789885e-05
-0.48506114327174144,-0.48506114327174144,0.999976954848024,8.168880529327127e-05
-0.4849445196567103,-0.4849445196567103,1.0000745912973983,8.153503836634272e-05
-0.4847873100603465,-0.4847873100603465,0.9999158795417324,8.068681767871627e-05
-0.4847086281544762,-0.4847086281544762,1.0001941190288715,8.248445235534468e-05
-0.4845890556287486,-0.4845890556287486,0.9998988312089919,8.198291392605429e-05
-0.48448537677759307,-0.48448537677759307,0.9998173966194457,8.070505765449452e-05
-0.4843683753453661,-0.4843683753453661,0.9999882585627912,8.163202965734103e-05
-0.48422762114787476,-0.48422762114787476,1.0000837558350057,8.100990067512321e-05
-0.4840835726732621,-0.4840835726732621,1.0000651589616505,8.34012562026996e-05
-0.4839731045853114,-0.4839731045853114,0.9999951846662988,8.061013657344769e-05
-0.4838685662572971,-0.4838685662572971,0.9999757233317984,8.184567006347065e-05
-0.48380996551713906,-0.48380996551713906,1.000130983662515,8.159176744847476e-05
-0.48371108997380363,-0.48371108997380363,0.999902126805908,8.06042140878406e-05
-0.4835501000779914,-0.4835501000779914,1.0000212042948249,8.285521549716214e-05
-0.48337961779034233,-0.48337961779034233,0.9999783489874463,7.971382091018793e-05
-0.4832361789944116,-0.4832361789944116,1.0001548729656444,8.113496499085887e-05
-0.48310484750836624,-0.48310484750836624,0.9999428571339137,8.33750483032372e-05
-0.4829545274929842,-0.4829545274929842,0.9998735936832182,8.204674216672487e-05
-0.482824993081158,-0.482824993081158,1.000007479529205,8.215072963394281e-05
-0.48269263305410276,-0.48269263305410276,0.9999721433709888,8.213591017790171e-05
-0.48256970854708925,-0.48256970854708925,0.999851711528039,8.003426318633016e-05
-0.48241967775975353,-0.48241967775975353,0.9998317725775383,8.111526782792244e-05
-0.48223134494619446,-0.48223134494619446,0.9998971610228251,8.307983602208059e-05
-0.48213635857391635,-0.48213635857391635,1.0000218334190145,8.117361347158374e-05
-0.4820334504445782,-0.4820334504445782,1.0000658480643634,8.224686624788863e-05
-0.4818896141601726,-0.4818896141601726,0.9999918540482688,8.034204473659417e-05
-0.4817213795380667,-0.4817213795380667,1.000015965881578,8.048216233002612e-05
-0.4815644953399897,-0.4815644953399897,0.9999820980197327,7.96548014476305e-05
-0.4814588086970616,-0.4814588086970616,0.9999250140856567,8.328480818532136e-05
-0.4813250938168494,-0.4813250938168494,0.9999551734323553,8.168744789952276e-05
-0.4811788418737706,-0.4811788418737706,1.0000256892878892,8.178859247623817e-05
-0.48106088428758087,-0.48106088428758087,1.000066869286168,8.045859093081163e-05
-0.48088886112673207,-0.48088886112673207,0.9998746010331386,8.09295859901404e-05
-0.4807517069100868,-0.4807517069100868,1.0000095603840047,8.211177089148422e-05
-0.480630302472855,-0.480630302472855,0.9999867771435899,8.126178940209638e-05
-0.4805464423407102,-0.4805464423407102,0.9999914976716802,8.188016268501223e-05
-0.48041527840250636,-0.48041527840250636,0.9999960046293832,8.063234583676439e-05
-0.4803087491047336,-0.4803087491047336,1.0000670084437977,8.045560988949782e-05
-0.4801653459435329,-0.4801653459435329,1.0000074423627923,8.202094225239905e-05
-0.4800821954355342,-0.4800821954355342,1.0000745089618137,8.385705997910738e-05
-0.4799975761852693,-0.4799975761852693,1.0000770491875426,8.210461253534879e-05
-0.4798741567734396,-0.4798741567734396,0.999963255176997,8.230839715324944e-05
-0.47978530144901016,-0.47978530144901016,0.9999457889624297,8.286089932879488e-05
-0.47963222952967044,-0.47963222952967044,0.9999639669568581,8.20464210164882e-05
-0.4795201409026049,-0.4795201409026049,1.000067119624409,8.075307136371156e-05
-0.4794079573825002,-0.4794079573825002,0.9999076806310031,8.133577531340661e-05
-0.4793090020713862,-0.4793090020713862,0.999922448179371,8.105515878309976e-05
-0.4791634144348791,-0.4791634144348791,1.000038592338298,8.092588137184094e-05
-0.4790251053578686,-0.4790251053578686,0.9999477461516164,8.264838796112568e-05
-0.4789337581052678,-0.4789337581052678,0.9999565072841172,8.279540452203084e-05
-0.47870136080891823,-0.47870136080891823,0.9999698655167025,8.259660912321375e-05
-0.47856367836066055,-0.47856367836066055,1.0000394569585758,8.102353207527032e-05
-0.4784033507516142,-0.4784033507516142,1.0002075228234641,8.140064439039964e-05
-0.47834867690398825,-0.47834867690398825,0.9999625057814271,8.165804500636143e-05
-0.4781715255434392,-0.4781715255434392,1.0001483879315847,8.297640495971339e-05
-0.4780398543865886,-0.4780398543865886,0.9999778454399172,8.113153657749386e-05
-0.47790054537472315,-0.47790054537472315,0.9999790910990918,8.0917694692265e-05
-0.47774361007614063,-0.47774361007614063,0.9999863822935909,8.121374134788515e-05
-0.47760470650100617,-0.47760470650100617,1.0000085081685466,8.291170910248556e-05
-0.4775171781744575,-0.4775171781744575,0.9999872346827651,8.1863339334548e-05
-0.4774076274887193,-0.4774076274887193,1.0000772293100089,8.03435323950544e-05
-0.47730541018536315,-0.47730541018536315,1.0001855321504456,8.222842085166583e-05
-0.47725071574677713,-0.47725071574677713,1.0000921005347225,8.197044418614437e-05
-0.4772140774468426,-0.4772140774468426,1.00012784233559,8.136207703354344e-05
-0.47710145635646767,-0.47710145635646767,1.000107630233504,8.12376614903586e-05
-0.4769703609345015,-0.4769703609345015,1.000097232480339,8.067864745982801e-05
-0.4768846436287276,-0.4768846436287276,0.9999218297523831,8.157724871465556e-05
-0.4767759761860361,-0.4767759761860361,1.0001921870206816,8.177936432035705e-05
-0.4766386523609981,-0.4766386523609981,0.9999920019348411,8.253254381063556e-05
-0.4765365093975561,-0.4765365093975561,0.9999645852982239,8.170585287866497e-05
-0.47634487067116427,-0.47634487067116427,1.0000422339022472,8.24380312183607e-05
-0.47618618723063266,-0.47618618723063266,0.9999931708878839,7.998070326121795e-05
-0.4760410331276944,-0.4760410331276944,1.000208112277192,8.20172221924784e-05
-0.47596252101066056,-0.47596252101066056,1.00019778378621,8.239889879824077e-05
-0.475833824291476,-0.475833824291476,1.0000882782063296,8.117384324252937e-05
-0.47573103379982057,-0.47573103379982057,0.9999984645252245,8.159986064739263e-05
-0.47564131807012017,-0.47564131807012017,1.000081940134268,7.940368857685309e-05
-0.47543161452340427,-0.47543161452340427,0.9999329515813556,8.036661550560533e-05
-0.475308739580214,-0.475308739580214,0.9999227934642082,8.256341196896236e-05
-0.47515850763593337,-0.47515850763593337,0.9999639152663959,8.296996406802012e-05
-0.4750421825563535,-0.4750421825563535,0.9999984466022696,7.994528904749484e-05
-0.4749244686565362,-0.4749244686565362,0.9998707140163756,7.947002751781968e-05
-0.47483052708557805,-0.47483052708557805,0.9999940424150852,8.191098100596722e-05
-0.47472395830554887,-0.47472395830554887,0.999928100555629,8.238477572516893e-05
-0.4746005718887318,-0.4746005718887318,0.9999806891522989,8.218719428940941e-05
-0.47450183434120846,-0.47450183434120846,1.0001085220862547,8.274113649210378e-05
-0.4744255684054224,-0.4744255684054224,0.9998852580900859,8.117115155882683e-05
-0.47436979589692785,-0.47436979589692785,1.0000068541383687,8.089583359328101e-05
-0.4742939450603444,-0.4742939450603444,1.0000366391231374,8.144519889677857e-05
-0.47421707682078706,-0.47421707682078706,1.000142708567664,8.355170831513026e-05
-0.4740287316264585,-0.4740287316264585,0.9999203143068625,8.103240908111629e-05
-0.4738451942539541,-0.4738451942539541,1.0000128699379434,8.117260499177293e-05
-0.4736179039260605,-0.4736179039260605,0.999905088269804,8.276259249348268e-05
-0.473469346400816,-0.473469346400816,0.9999328594289987,8.348490471745394e-05
-0.4733883074397454,-0.4733883074397454,1.0000833562597833,8.285366404271181e-05
-0.4732132505188929,-0.4732132505188929,0.9999840576008652,8.016459922576314e-05
-0.4729696515918477,-0.4729696515918477,0.9999946243906075,8.151166893697793e-05
-0.4728521303186426,-0.4728521303186426,1.000062940064009,8.327534635825846e-05
-0.47268973478348925,-0.47268973478348925,1.0000346923214474,8.082053272242962e-05
-0.4725540075800382,-0.4725540075800382,1.0000698349425174,8.122903813775934e-05
-0.47242499253770803,-0.47242499253770803,1.000050454680782,8.127442234454221e-05
-0.4722650506533682,-0.4722650506533682,1.0000352719185261,8.13070105881464e-05
-0.47209607580152807,-0.47209607580152807,0.9999656921906921,8.076667874075573e-05
-0.4719697342312429,-0.4719697342312429,1.000039090311156,8.056816223531967e-05
-0.4718521096743643,-0.4718521096743643,0.9999131648868549,8.176644926176122e-05
-0.4717714078433346,-0.4717714078433346,1.0000571243466871,8.131097171491705e-05
-0.4716830783028854,-0.4716830783028854,1.000010936122909,8.316018166796534e-05
-0.47154760191042444,-0.47154760191042444,0.9998891151319043,8.163605886031856e-05
-0.47135875629319346,-0.47135875629319346,0.9999239151774144,8.250423077313566e-05
-0.4711387521150755,-0.4711387521150755,1.000088195911042,8.240820157623792e-05
-0.4709560415823944,-0.4709560415823944,0.9999993374751689,8.137939936851475e-05
-0.4708228555973619,-0.4708228555973619,1.000084575679021,8.243879298129261e-05
-0.47062221769592727,-0.47062221769592727,1.0000690099906453,8.110515826726198e-05
-0.4705225827783579,-0.4705225827783579,1.0000246242968576,8.233960920098761e-05
-0.47046867305180057,-0.47046867305180057,1.0001098494371492,8.330413231893099e-05
-0.47035087176482193,-0.47035087176482193,0.9999763640569259,8.249618651586554e-05
-0.47009273583826144,-0.47009273583826144,0.9999813118121155,8.056146430656316e-05
-0.46992084082739893,-0.46992084082739893,1.0000533466211188,8.140631154593044e-05
-0.4697607280133525,-0.4697607280133525,0.9999298672425321,8.243235082000651e-05
-0.46966919956030323,-0.46966919956030323,0.9999739866724788,8.131006573176493e-05
-0.46960791512101424,-0.46960791512101424,1.0000120368606091,8.115152884602799e-05
-0.4695607561006909,-0.4695607561006909,1.0000860564151843,8.094191306611082e-05
-0.4693813689838862,-0.4693813689838862,1.0000429280278218,8.412123555302662e-05
-0.4693000376719283,-0.4693000376719283,0.9999787926472296,8.120485407563386e-05
-0.46921629745920657,-0.46921629745920657,1.0000323270172635,8.064705591053269e-05
-0.46915305324655493,-0.46915305324655493,1.0000780491146561,8.197676843807016e-05
