time,time,flux,flux_err
-0.4999106573190442,-0.4999106573190442,0.9999831407741988,0.0001311124629554559
-0.4997202511968177,-0.4997202511968177,1.000082661236692,0.00013105250635499953
-0.49954571224975036,-0.49954571224975036,0.9999520230305382,0.00011956488017034826
-0.49938704047833793,-0.49938704047833793,1.000001885648396,0.00011945892092886494
-0.499228368705776,-0.499228368705776,1.0000071463832496,0.00011941779504649828
-0.49906969693212966,-0.49906969693212966,0.999939603642858,0.00011933160298437066
-0.49891102515750313,-0.49891102515750313,1.0000694545766513,0.00011931627687707858
-0.49875235338195234,-0.49875235338195234,0.9999525170660997,0.00011930255836183851
-0.498593681605538,-0.498593681605538,1.0000484758413468,0.00011932992121026409
-0.4984350098283802,-0.4984350098283802,0.9999767593009317,0.00011934506561136057
-0.4982763380504981,-0.4982763380504981,1.000042469868466,0.00011939804996861144
-0.49811766627193543,-0.49811766627193543,1.000117866744321,0.00011934072346581597
-0.4979589944927881,-0.4979589944927881,1.0000509300552256,0.00011931329411453283
-0.4978003227131186,-0.4978003227131186,1.000014175134023,0.00011924592647829725
-0.49764165093291785,-0.49764165093291785,0.9999465540475342,0.00011920955967198704
-0.4974829791523009,-0.4974829791523009,1.0000951185487628,0.00011917293332892962
-0.4973243073713025,-0.4973243073713025,1.0000072387946635,0.00011912241866244781
-0.4971656355899192,-0.4971656355899192,1.000009045056695,0.00011906001284926586
-0.49700696380821885,-0.49700696380821885,0.9999497233204337,0.00011901969739317768
-0.496848292026273,-0.496848292026273,1.0000861659120444,0.00011897933144576207
-0.49668962024409263,-0.49668962024409263,1.0000156304939525,0.00011891321022650704
-0.4965309484616995,-0.4965309484616995,1.0000809271098259,0.00011885134449135262
-0.49637227667914663,-0.49637227667914663,1.000075144636891,0.00011879589307162962
-0.49621360489645616,-0.49621360489645616,1.0000728757183055,0.0001187629034856707
-0.49605493311364873,-0.49605493311364873,0.9999117982120668,0.00011873863373447332
-0.4958962613307866,-0.4958962613307866,1.000035914444188,0.00011875945997434767
-0.49573758954788405,-0.49573758954788405,1.000054714718242,0.00011874110678416958
-0.4955789177649379,-0.4955789177649379,0.9999777152081405,0.0001187508503005921
-0.49542024598201395,-0.49542024598201395,0.9999187601299683,0.00011869551222665672
-0.49526157419910943,-0.49526157419910943,1.0001097224649613,0.00011861720993223434
-0.4951029024162487,-0.4951029024162487,0.9998601995994238,0.00011855148325933448
-0.4949442306334724,-0.4949442306334724,1.000170853084993,0.0001185335677631102
-0.49478555885078157,-0.49478555885078157,0.9999238983039216,0.00011846227947990963
-0.4946268870682086,-0.4946268870682086,0.9999606838597355,0.00011844052609897937
-0.494468215285773,-0.494468215285773,1.000061306684619,0.00011843123947793578
-0.494309543503476,-0.494309543503476,1.0000293336561559,0.00011840401170450385
-0.49415087172136063,-0.49415087172136063,1.000001589457082,0.00011840538836432846
-0.49399219993940413,-0.49399219993940413,1.0000419426819047,0.00011836861979634767
-0.49383352815766024,-0.49383352815766024,1.000010068201026,0.00011843293986933888
-0.49367485637612896,-0.49367485637612896,1.0000253660438883,0.00011840263013385998
-0.4935161845948214,-0.4935161845948214,1.0001999003463273,0.0001184392332819408
-0.4933575128137816,-0.4933575128137816,0.999844343703043,0.00011846700045663483
-0.4931988410329623,-0.4931988410329623,1.000100156237766,0.00011846061621395302
-0.4930401692524434,-0.4930401692524434,0.9999736054077093,0.00011842177184959323
-0.49288149747213533,-0.49288149747213533,0.9999601149600149,0.00011837838313348374
-0.4927228256922012,-0.4927228256922012,1.0000943990606697,0.00011838525143309136
-0.4925641539125431,-0.4925641539125431,1.0000578052761528,0.00011831961685706646
-0.49240548213317137,-0.49240548213317137,1.0000124343298862,0.00011822970259756386
-0.49224681035414175,-0.49224681035414175,0.9999331511330014,0.00011824433556058899
-0.49208813857546263,-0.49208813857546263,1.0000239979621155,0.00011821798999531329
-0.4919294667970918,-0.4919294667970918,0.9999988138348991,0.00011823929639376326
-0.4917707950190723,-0.4917707950190723,1.0000124250912348,0.00011823028034116329
-0.49161212324144576,-0.49161212324144576,1.0000052010345635,0.00011816047564284802
-0.49145345146415115,-0.49145345146415115,0.9999472137077824,0.00011811314558204185
-0.4912947796871743,-0.4912947796871743,1.0000310070217149,0.00011803130765602312
-0.49113610791073936,-0.49113610791073936,1.0002290558472948,0.00011802909311260632
-0.4909738818868039,-0.4909738818868039,0.9999037183341253,0.00011808829763062826
-0.4907598653958445,-0.4907598653958445,1.0000603766181753,0.00011818301444874068
-0.49057758326051476,-0.49057758326051476,0.999897263525354,0.00011823565140285013
-0.4904153572380586,-0.4904153572380586,0.999971139729251,0.00011820731322122248
-0.49025236959154006,-0.49025236959154006,1.0000185134035213,0.00011817720991093823
-0.49008278119966386,-0.49008278119966386,0.9999882093825813,0.00011815925916604093
-0.48992385555145096,-0.48992385555145096,0.9999404351633944,0.00011819714623370877
-0.4897651837785393,-0.4897651837785393,1.0001571967840879,0.00011824863929980917
-0.48960651200605215,-0.48960651200605215,0.9998952369351427,0.00011821843671473336
-0.4894478402340015,-0.4894478402340015,1.0001288223319043,0.00011820316491555145
-0.48928916846243115,-0.48928916846243115,0.9999287763401744,0.00011820927801789251
-0.4891304966912955,-0.4891304966912955,1.00001438030829,0.0001181669380795155
-0.4889718249206284,-0.4889718249206284,0.9999575545491796,0.00011817480143572899
-0.48881315315040796,-0.48881315315040796,1.0001652258837925,0.00011817924106572833
-0.48865448138069906,-0.48865448138069906,0.9998943268489041,0.00011819128522486332
-0.4884958096114788,-0.4884958096114788,1.000100576872291,0.0001181908969017719
-0.48833713784270605,-0.48833713784270605,0.9998821002104827,0.00011819324712155088
-0.4881784660744216,-0.4881784660744216,1.0000905405842204,0.00011819957138614167
-0.48801979430664916,-0.48801979430664916,0.9999428624159823,0.00011825315904801949
-0.48786112253936603,-0.48786112253936603,0.9999627774506736,0.00011824275029630486
-0.4877024507725716,-0.4877024507725716,1.0000380860851057,0.0001182348065154058
-0.4875437790062776,-0.4875437790062776,1.0000168945604737,0.00011821867193886864
-0.4873851072404946,-0.4873851072404946,0.9999818236985891,0.00011820308923832488
-0.487226435475222,-0.487226435475222,1.0000279622927981,0.00011820491598214188
-0.4870677637104711,-0.4870677637104711,0.9999498984522155,0.00011819124047535775
-0.48690909194620957,-0.48690909194620957,1.0001218445899536,0.00011818399997584226
-0.4867504201825545,-0.4867504201825545,0.9998893478355445,0.00011814396703658502
-0.48659174841929326,-0.48659174841929326,1.0000769585625993,0.00011816931772761443
-0.48643307665662744,-0.48643307665662744,0.9999598444145736,0.00011819495753932737
-0.48627440489449436,-0.48627440489449436,0.9999586947381305,0.00011815452937447975
-0.4861157331328608,-0.4861157331328608,0.9999726089443375,0.00011813308608236803
-0.48595706137180095,-0.48595706137180095,1.0000815049863259,0.00011813249178475624
-0.48579838961125377,-0.48579838961125377,0.9999560495165504,0.0001181186935831985
-0.4856397178512797,-0.4856397178512797,1.0000386624165576,0.00011807112936492634
-0.48548104609182696,-0.48548104609182696,1.000036186823001,0.00011808023242592159
-0.48532237433296077,-0.48532237433296077,0.9998708074373409,0.00011811028629456746
-0.4851637025746037,-0.4851637025746037,1.000088399024747,0.00011810316002499944
-0.4850050308168122,-0.4850050308168122,1.0000049924739398,0.00011811748005529823
-0.4848463590596371,-0.4848463590596371,1.0000936886543317,0.00011815810417801513
-0.4846876873029606,-0.4846876873029606,0.9998129375339617,0.00011814079920167071
-0.48452901554683925,-0.48452901554683925,1.000128330401527,0.0001181649854246028
-0.484370343791303,-0.484370343791303,1.0000589567741145,0.00011818528181039645
-0.4842116720363304,-0.4842116720363304,0.9999854063801722,0.0001181938606525204
-0.4840530002819534,-0.4840530002819534,0.9999724287027588,0.00011821482183553011
-0.48389432852814024,-0.48389432852814024,0.9999880844291725,0.00011823059645078913
-0.48373565677492303,-0.48373565677492303,1.000029273834412,0.00011825234609674029
-0.4835769850222695,-0.4835769850222695,0.9999897988145617,0.00011826176215177901
-0.4834183132702128,-0.4834183132702128,1.0000542653466065,0.00011829053137216111
-0.48325964151873,-0.48325964151873,0.9999093290406412,0.00011827087630540414
-0.48310096976784267,-0.48310096976784267,1.0000611270126825,0.0001182422264307095
-0.4829422980175423,-0.4829422980175423,0.9999064911524677,0.00011820459445224555
-0.48278362626787813,-0.48278362626787813,1.0000754306986603,0.00011816514601593027
-0.4826249545188107,-0.4826249545188107,0.99995796678454,0.00011817988138104686
-0.48246628277033904,-0.48246628277033904,1.00016830305785,0.00011818884367792348
-0.48230761102245323,-0.48230761102245323,0.9998998768185665,0.00011811928077543892
-0.48214893927518326,-0.48214893927518326,1.000112123743214,0.00011811958273293082
-0.48199026752853147,-0.48199026752853147,1.0000040614663575,0.00011809252801248773
-0.4818315957825071,-0.4818315957825071,1.0000215075535575,0.00011809883797812471
-0.4816729240371103,-0.4816729240371103,0.9999389684833027,0.00011806901320677652
-0.4815142522923104,-0.4815142522923104,1.0000777477724376,0.00011806750328196601
-0.48135558054819044,-0.48135558054819044,1.0000071531076486,0.00011805987898880067
-0.4811969088046656,-0.4811969088046656,0.9998896085002628,0.00011804097481797575
-0.48103823706173865,-0.48103823706173865,1.0000818475431497,0.00011802925173805238
-0.48087956531948084,-0.48087956531948084,1.0000174563810529,0.00011798217081816653
-0.4807208935778718,-0.4807208935778718,0.9999684533318366,0.00011796476675446695
-0.4805622218368912,-0.4805622218368912,1.0000186971050273,0.0001179409512725916
-0.48040355009657,-0.48040355009657,1.0000498654952292,0.00011794672083751666
-0.4802448783568874,-0.4802448783568874,0.9999326512523756,0.00011797268102744203
-0.48008620661787427,-0.48008620661787427,1.0000419082134955,0.00011794556016974393
-0.47992753487952183,-0.47992753487952183,0.9999220325455506,0.000117966210104141
-0.4797688631418179,-0.4797688631418179,1.0000807334174913,0.00011798087363739133
-0.47961019140479577,-0.47961019140479577,1.0000270078317117,0.00011796725307255348
-0.4794515196684433,-0.4794515196684433,0.9998850238611864,0.0001179620764568444
-0.4792928479327504,-0.4792928479327504,1.0002292804515946,0.00011800491627430001
-0.4791341761977382,-0.4791341761977382,0.9998414902135545,0.00011802072281017124
-0.4789755044634294,-0.4789755044634294,0.9999860949332307,0.00011805394825974307
-0.47881683272979086,-0.47881683272979086,1.0000293711896207,0.00011809222168315734
-0.47865816099686337,-0.47865816099686337,1.0000951199616508,0.00011803811448866399
-0.47849948926459707,-0.47849948926459707,0.9998822504890004,0.00011799428934615788
-0.47834081753302177,-0.47834081753302177,1.0000939300001475,0.00011792836491499854
-0.478182145802203,-0.478182145802203,0.9999753750067821,0.00011789298692102917
-0.4780234740720431,-0.4780234740720431,0.9999808707676335,0.00011788692444869911
-0.4778648023426177,-0.4778648023426177,1.000072442384732,0.0001179414490291059
-0.47770613061390393,-0.47770613061390393,0.9999417092266445,0.00011787200277822276
-0.4775474588858929,-0.4775474588858929,0.9999991452198506,0.000117890843135419
-0.47738878715861743,-0.47738878715861743,1.0000541481682188,0.0001178379310265001
-0.4772301154320857,-0.4772301154320857,0.9999765780303369,0.0001178088982216414
-0.47707144370628785,-0.47707144370628785,0.9999656717571327,0.00011771522044202068
-0.47691277198123566,-0.47691277198123566,1.0001342387196648,0.00011766979072473074
-0.4767541002568748,-0.4767541002568748,0.9999203742003152,0.00011765636420213107
-0.4765634403139778,-0.4765634403139778,1.0000208463144962,0.00011766384033711028
-0.47639232872825465,-0.47639232872825465,1.0000090302359894,0.00011767424422643347
-0.47623365700642584,-0.47623365700642584,0.9999829583866477,0.00011767628422145909
-0.4760749852853632,-0.4760749852853632,1.000006026140052,0.00011765243096777444
-0.47591631356507735,-0.47591631356507735,1.0000356163522315,0.00011762198928233661
-0.4757576418455157,-0.4757576418455157,0.9999345226855911,0.00011760822873842112
-0.47559897012679253,-0.47559897012679253,1.0001792264340863,0.0001176292244032832
-0.47544029840885943,-0.47544029840885943,0.999990163357238,0.00011765438629662158
-0.47528162669168045,-0.47528162669168045,0.9999653186581374,0.00011768624342843104
-0.4751229549753315,-0.4751229549753315,1.0000874157697592,0.00011776112307882434
-0.47496428325979084,-0.47496428325979084,0.9998897693204711,0.00011778104419741114
-0.474805611545049,-0.474805611545049,0.999996160306947,0.00011776732597201694
-0.4746413545868068,-0.4746413545868068,1.0001439557408476,0.00011774482103635796
-0.4744819212495258,-0.4744819212495258,0.9998507035060304,0.0001177220695560072
-0.4743232495373263,-0.4743232495373263,1.0000960151925604,0.00011771316082910702
-0.47416457782590304,-0.47416457782590304,0.9999827898858623,0.00011772645337837655
-0.47400590611538596,-0.47400590611538596,0.999912927557862,0.00011773876372349603
-0.473847234405687,-0.473847234405687,1.0001193600289389,0.00011774911110253594
-0.4736885626968501,-0.4736885626968501,0.9998738170595827,0.00011771380977610936
-0.4735298909888739,-0.4735298909888739,1.0000642469163343,0.0001176935065578528
-0.47337121928177145,-0.47337121928177145,0.9999640734543778,0.00011763736672587147
-0.4732125475755732,-0.4732125475755732,0.9999947295655014,0.00011763538781491257
-0.4730538758702162,-0.4730538758702162,1.0000809691174155,0.00011762493459134828
-0.47289520416578357,-0.47289520416578357,0.9999680043036377,0.00011763538494205426
-0.4727365324622562,-0.4727365324622562,0.9999579956883775,0.0001175995099349099
-0.47257786075962205,-0.47257786075962205,1.0000351421568452,0.00011760102384224884
-0.47241918905790337,-0.47241918905790337,0.9999513412135637,0.00011760912191729274
-0.4722605173571102,-0.4722605173571102,1.0000232476051116,0.00011758984360310438
-0.4721018456572434,-0.4721018456572434,1.0000503047847071,0.00011761991595716983
-0.47194317395831115,-0.47194317395831115,0.9999118018817004,0.0001175559746883778
-0.4717845022603381,-0.4717845022603381,1.0000967397890574,0.00011748515322099189
-0.47162583056332197,-0.47162583056332197,0.9999110355590892,0.00011743714364141965
-0.471467158867285,-0.471467158867285,1.000069295942206,0.00011741133887718524
-0.47130848717220514,-0.47130848717220514,0.999933315632088,0.00011740429169147611
-0.47114981547810475,-0.47114981547810475,1.0000292689649992,0.00011743320480823158
-0.47099114378501505,-0.47099114378501505,1.0000432379744384,0.00011746695866574465
-0.470832472092915,-0.470832472092915,0.99992493431334,0.00011754958313402536
-0.4706738004018366,-0.4706738004018366,1.0001348848343596,0.00011760437286490763
-0.47051512871173584,-0.47051512871173584,0.9998662724424389,0.00011768147294475993
-0.47035645702269024,-0.47035645702269024,1.0000221286294626,0.00011771345986761036
-0.47019778533469714,-0.47019778533469714,0.9999751061897093,0.00011762631219406311
-0.4700391136477359,-0.4700391136477359,1.0000404767262174,0.0001175963093470997
-0.4698804419618279,-0.4698804419618279,1.0000629044224698,0.00011753261130513309
-0.4697217702770272,-0.4697217702770272,0.9999274482765237,0.00011754583553603638
-0.46956309859327944,-0.46956309859327944,0.9999617394951027,0.00011754542017336698
-0.4694044269105845,-0.4694044269105845,1.0000842947139423,0.00011750338187494051
-0.46924575522902856,-0.46924575522902856,0.9999623617237052,0.00011750337813479846
-0.469087083548569,-0.469087083548569,1.000007720775301,0.00011744921835958109
-0.4689284118692365,-0.4689284118692365,1.0000795058202767,0.00011746413292160977
-0.46876974019103235,-0.46876974019103235,0.9998632458141742,0.00011741321648889877
-0.46861106851397755,-0.46861106851397755,1.0001757856113012,0.00011739579976904945
-0.46845239683809314,-0.46845239683809314,0.9999610759200742,0.00011736456612726105
-0.4682937251633678,-0.4682937251633678,0.9999774467490544,0.00011737441585972862
-0.4681350534898236,-0.4681350534898236,1.0000043114199881,0.00011734696418177755
-0.46797638181748236,-0.46797638181748236,1.0000182040286014,0.00011736635233394093
-0.4678177101462902,-0.4678177101462902,1.0000275085133583,0.00011739186934430477
-0.467659038476406,-0.467659038476406,0.9999628379050988,0.00011737314930032967
-0.4675003668077137,-0.4675003668077137,1.0001221299738539,0.00011738366342378613
-0.46734169514025653,-0.46734169514025653,0.9998801751627819,0.00011735413151570428
-0.467183023474054,-0.467183023474054,1.0000532903529376,0.00011733614809088205
-0.4670243518091288,-0.4670243518091288,1.0000461964014822,0.00011724307827983649
-0.4668656801454901,-0.4668656801454901,0.999940086361731,0.00011727931201191437
-0.4667070084831506,-0.4667070084831506,0.999972265598638,0.00011724970202818339
-0.4665483368221189,-0.4665483368221189,1.0000023426131166,0.00011724787350911008
-0.46638966516242847,-0.46638966516242847,0.9999878680035265,0.00011722814231971197
-0.4662309935040893,-0.4662309935040893,1.0000890134721132,0.00011720726162615527
-0.46607232184708014,-0.46607232184708014,0.9998593072979208,0.00011718609508379403
-0.4659136501914748,-0.4659136501914748,1.000066634865393,0.00011719451545252866
-0.4657549785372431,-0.4657549785372431,0.9999625044008171,0.00011716288701873495
-0.4655963068844045,-0.4655963068844045,1.0000183307196937,0.00011714458310508546
-0.4654376352330024,-0.4654376352330024,1.0000312339978854,0.00011707948404340903
-0.4652789635830473,-0.4652789635830473,1.0000738581664979,0.00011706957930362265
-0.4651202919345293,-0.4651202919345293,0.9998978161810571,0.0001170254163120475
-0.4649616202875217,-0.4649616202875217,0.9999685140461944,0.00011701144104636499
-0.4648029486419718,-0.4648029486419718,1.0000801256949294,0.00011699270107005948
-0.4646442769979425,-0.4646442769979425,0.9999618248528848,0.00011691799998011975
-0.46448560535541505,-0.46448560535541505,0.9999829002075848,0.00011692589203987313
-0.464326933714462,-0.464326933714462,0.9999603658702962,0.00011694710381861178
-0.4641682620750718,-0.4641682620750718,1.0001181303359064,0.00011700111734340114
-0.4640095904372359,-0.4640095904372359,0.9998928967536802,0.00011699113450710626
-0.46385091880104934,-0.46385091880104934,1.0000219383438949,0.00011691808451754298
-0.4636922471664585,-0.4636922471664585,1.0000655281477502,0.00011686654178049672
-0.4635335755335174,-0.4635335755335174,0.9999078987748184,0.00011681736123164174
-0.4633749039022243,-0.4633749039022243,1.0001184889241521,0.00011684903912347927
-0.4632162322726344,-0.4632162322726344,0.9999799117091535,0.00011693653255648226
-0.4630575606447474,-0.4630575606447474,0.9998489753391133,0.00011691046266816613
-0.4628988890186047,-0.4628988890186047,1.0001406946051987,0.00011691192263655126
-0.4627402173941858,-0.4627402173941858,0.9999737200329737,0.00011695503042398852
-0.46258154577153315,-0.46258154577153315,1.0000179885251077,0.00011695320864634479
-0.462421097028577,-0.462421097028577,1.0000092517429275,0.00011701079185488618
-0.4622197744787179,-0.4622197744787179,0.9999448904550203,0.00011700586349137056
-0.46206110286204505,-0.46206110286204505,0.9999791606563866,0.00011696489749508665
-0.46190243124729824,-0.46190243124729824,1.0000323364986186,0.00011693314379202504
-0.4617437596344235,-0.4617437596344235,0.9999259739906032,0.00011689091082027673
-0.4615850880234424,-0.4615850880234424,0.9999497329387548,0.0001168442884931368
-0.4614264164144949,-0.4614264164144949,1.0001298911950427,0.00011683925524939803
