time,time,flux,flux_err
-0.4992454466810159,-0.4992454466810159,0.9994325718298538,0.002502517544428148
-0.49824908273027785,-0.49824908273027785,1.0003923975559228,0.0026127685683256918
-0.49721296314419305,-0.49721296314419305,1.0018031687711708,0.0026153577135387416
-0.4962742683843923,-0.4962742683843923,1.0002559495966414,0.0026190333129990856
-0.4953341016844206,-0.4953341016844206,0.9985869820045833,0.002352814479712335
-0.4944471363218327,-0.4944471363218327,1.0015128794138957,0.002347597595879593
-0.49360159055213443,-0.49360159055213443,1.0009604214579444,0.0024624333278731804
-0.49277676719866575,-0.49277676719866575,0.9991786319140876,0.002222022009072425
-0.4917838573863264,-0.4917838573863264,0.999220316344957,0.0023520299803159853
-0.4909673378286243,-0.4909673378286243,1.0003903589851457,0.002348685037828662
-0.490067244887905,-0.490067244887905,1.0013540887285928,0.0022336883597054136
-0.48918792360491353,-0.48918792360491353,1.0008878325005786,0.0022275853907822367
-0.4881888382435136,-0.4881888382435136,0.9999811934551917,0.0022312292466062818
-0.48731222288988646,-0.48731222288988646,0.9995968295437807,0.0023500009584193292
-0.48579329050480735,-0.48579329050480735,0.9989759323236094,0.0022294995779097056
-0.48449407820153284,-0.48449407820153284,0.9995498656455032,0.0022301460890736926
-0.48325472151191207,-0.48325472151191207,1.001892701964261,0.0022292696865266626
-0.4820154315122636,-0.4820154315122636,1.0010013092669665,0.0022337187027186302
-0.4801631117843499,-0.4801631117843499,0.9995689942457048,0.0022301111387941054
-0.47841709095664553,-0.47841709095664553,1.0000205531611779,0.0022277168124440424
-0.47693565466979637,-0.47693565466979637,1.0020176550863755,0.0023514159837150954
-0.4753898527669662,-0.4753898527669662,1.0009193979455902,0.0023499006376027035
-0.47374700785803725,-0.47374700785803725,1.0003689812958214,0.002353075902832858
-0.4718590546755877,-0.4718590546755877,1.0016434070658267,0.0023513991759070703
-0.46999925623385935,-0.46999925623385935,1.0039759183971315,0.003022340931248085
-0.4682949027956056,-0.4682949027956056,1.0008534041098447,0.003188247638433655
-0.4667720334757178,-0.4667720334757178,0.997383453694329,0.002777770026940602
-0.4651567119413812,-0.4651567119413812,1.0019717347363795,0.002628152784747603
-0.4639311840568553,-0.4639311840568553,0.9998944542696767,0.002587425902537477
-0.46270571025524987,-0.46270571025524987,1.0017880201462053,0.002554950859323822
-0.46148623707413206,-0.46148623707413206,0.9998279086330253,0.0026379738925494706
-0.46031065861170645,-0.46031065861170645,0.9999957155199108,0.002397005473189401
-0.45920596852738527,-0.45920596852738527,0.9994294151349801,0.002346617437261048
-0.4580969162328984,-0.4580969162328984,0.9998986098211518,0.0022289108162352666
-0.4569596804118191,-0.4569596804118191,0.9985648460770244,0.0022278425379036082
-0.45563514777386444,-0.45563514777386444,1.001208825589581,0.0022283150923598934
-0.4544015050647431,-0.4544015050647431,0.9996541411968419,0.0022237799342568905
-0.45330288053519324,-0.45330288053519324,0.9991522149413452,0.0023512582627811173
-0.4522285311606538,-0.4522285311606538,0.9976580138587471,0.0023510480607275494
-0.4512310436111875,-0.4512310436111875,0.9990835645088494,0.0022298202601042667
-0.4502235344814835,-0.4502235344814835,1.0006477286976574,0.0020997544097777826
-0.44939187846466666,-0.44939187846466666,0.9996763585583766,0.002233099592754379
-0.44838950494668095,-0.44838950494668095,0.9984659740722929,0.0023532853966673167
-0.44764809128901106,-0.44764809128901106,1.001933908970819,0.0021482679677166617
-0.44693738074056455,-0.44693738074056455,1.001479420499872,0.0022575782692401554
-0.4460705167912238,-0.4460705167912238,1.0013824377546432,0.0022318384362856004
-0.4453562341281213,-0.4453562341281213,1.0004069495921752,0.002248014578648459
-0.44459899777721146,-0.44459899777721146,1.000322943050382,0.0022311698131153917
-0.44375222920643864,-0.44375222920643864,0.9984393046177488,0.002241570133115894
-0.44305169634099,-0.44305169634099,0.9990514896749328,0.002107925035263439
-0.4423530519154156,-0.4423530519154156,0.9992366897468999,0.0023534432246677807
-0.44176130600681063,-0.44176130600681063,1.0011011536018617,0.002098987549444561
-0.4410165076929843,-0.4410165076929843,1.0002062044813314,0.0023512122437645616
-0.4403619321703445,-0.4403619321703445,1.0002647519606387,0.0022300014722241883
-0.43971879742093734,-0.43971879742093734,0.9997572483482855,0.0023500737863515657
-0.43912318195434635,-0.43912318195434635,1.0003352493395266,0.0021018422066073584
-0.4384589157758455,-0.4384589157758455,0.998997653020712,0.0023498213302828746
-0.43778231381293153,-0.43778231381293153,0.9995455694922043,0.002102726627459025
-0.4372254872774647,-0.4372254872774647,0.9976315629570383,0.002350167366530136
-0.4367011916518095,-0.4367011916518095,0.9993387063484549,0.002269416917693749
-0.4361969380719529,-0.4361969380719529,1.0001490219700029,0.002352780743031537
-0.43575053965178084,-0.43575053965178084,0.9998722756569324,0.0023823334957851546
-0.43521982292368194,-0.43521982292368194,0.9995426801302806,0.0022318192598662556
-0.43475886496162275,-0.43475886496162275,0.9993693467760556,0.002350551667570196
-0.43422271090094,-0.43422271090094,0.9985650272056368,0.002250461556623495
-0.43362303571848315,-0.43362303571848315,0.9985778494422579,0.0023533493824216866
-0.4330986424305593,-0.4330986424305593,0.9985115385016229,0.0022486560603359297
-0.4324989820641349,-0.4324989820641349,1.0009430228109149,0.0022302028970246765
-0.4319853219923971,-0.4319853219923971,0.998447147356487,0.0023634450629146523
-0.4313141928127152,-0.4313141928127152,1.0003883084720224,0.0022320169291898664
-0.4306424342794344,-0.4306424342794344,0.9993009709998993,0.002233380361446842
-0.42996249010539034,-0.42996249010539034,0.9975700007990433,0.0023518631995583096
-0.42925806452913096,-0.42925806452913096,0.9988445865631377,0.0021029939434224253
-0.42865075499066735,-0.42865075499066735,0.9989604953745858,0.0023521074039174706
-0.4280155866515997,-0.4280155866515997,0.9980533973139183,0.0021030855163117123
-0.4273609418909473,-0.4273609418909473,1.0006369819503007,0.0023503761892335402
-0.42662697125342675,-0.42662697125342675,1.0000516463066313,0.002231989703019058
-0.4259595089919458,-0.4259595089919458,1.0002532226292389,0.0023504948851658515
-0.4251316259804298,-0.4251316259804298,0.998922265579688,0.002233011928119835
-0.42435239632759475,-0.42435239632759475,0.9996651449089924,0.0022296606748608964
-0.42366312714948434,-0.42366312714948434,0.9997491628146593,0.002353775822581567
-0.4227791601959325,-0.4227791601959325,0.9996720315771472,0.0023529056071107356
-0.42205670054318034,-0.42205670054318034,0.9999792826355721,0.002228968208149703
-0.4213389186486893,-0.4213389186486893,1.0006741751751669,0.002352701056047598
-0.4204513189935824,-0.4204513189935824,1.0010951367069767,0.0022306626352323533
-0.4196295242654742,-0.4196295242654742,1.0009952108864746,0.0022252630693368686
-0.41880927782985966,-0.41880927782985966,0.9975121987318099,0.002226059978525418
-0.4178472247782338,-0.4178472247782338,0.999382226895763,0.002351206898451928
-0.4169283452931268,-0.4169283452931268,1.0000407277393115,0.0021000687589518177
-0.4161685789855255,-0.4161685789855255,1.000043686908302,0.002350169042657503
-0.41524403410803645,-0.41524403410803645,0.998964537229009,0.0022289701377879753
-0.41425925766088767,-0.41425925766088767,0.9987670627293236,0.002352895972232137
-0.41346119994777836,-0.41346119994777836,0.9993087865372299,0.002228748723551346
-0.4126225928979693,-0.4126225928979693,1.0018063683209326,0.0020981953667376938
-0.4117776300176047,-0.4117776300176047,1.001342475206425,0.002387464567174102
-0.41122357139611265,-0.41122357139611265,1.0008250243440178,0.0020999718304078887
-0.41041336193011374,-0.41041336193011374,1.0014028770140875,0.0022308851203212588
-0.4093705774161208,-0.4093705774161208,0.9995943367350939,0.002229491818586215
-0.4086844911675144,-0.4086844911675144,1.000988732364705,0.002237248608810698
-0.40790489035862265,-0.40790489035862265,1.0015494072473872,0.002100821229317165
-0.4068969961925177,-0.4068969961925177,0.9997546930979164,0.0022270220142158784
-0.4062222226886661,-0.4062222226886661,0.9988803548056653,0.0022289150151279147
-0.40541770839627134,-0.40541770839627134,0.9982712195515161,0.002100097703285618
-0.4046021534129977,-0.4046021534129977,0.9973249679945473,0.002348737645828262
-0.40389501777972325,-0.40389501777972325,0.9978961747065165,0.0022296489708934367
-0.4030512063516653,-0.4030512063516653,1.001151675642673,0.0020993155899573625
-0.40232077366599694,-0.40232077366599694,1.0005254837928952,0.002350966802730669
-0.4015860952538787,-0.4015860952538787,1.0010412232213977,0.002098599579811843
-0.40071454210483354,-0.40071454210483354,0.9996480565910021,0.0022311130165695026
-0.4000291081632895,-0.4000291081632895,0.9982788705748191,0.0022271216541492776
-0.39920118826776163,-0.39920118826776163,1.0012820246494292,0.0021042037555702086
-0.39850123952273864,-0.39850123952273864,0.9994579146290054,0.0023528816220542248
-0.39785593526394225,-0.39785593526394225,1.000691630640483,0.0020976484062022274
-0.39727245252215654,-0.39727245252215654,0.9999487811278198,0.0022301772208474847
-0.3966126780753257,-0.3966126780753257,1.0003726135658986,0.0020994031591381676
-0.39597678128120606,-0.39597678128120606,1.000197315329282,0.0022316362172852267
-0.395286962974933,-0.395286962974933,1.0007552656193144,0.002228896440863131
-0.39443117285482004,-0.39443117285482004,0.9999271587732036,0.002225773722581124
-0.3938207140752638,-0.3938207140752638,1.0010876649794114,0.0022309454566540954
-0.3928435610680026,-0.3928435610680026,1.0001345929115233,0.0022274368562754366
-0.39206479774293257,-0.39206479774293257,0.9994212305876236,0.002338836883248412
-0.3913597393708187,-0.3913597393708187,0.9999474685874613,0.002340014453122554
-0.39049883328334545,-0.39049883328334545,1.0006318438260915,0.0022288817592028033
-0.3898119377408875,-0.3898119377408875,0.9993457112808235,0.0022159003244455154
-0.38901330347798646,-0.38901330347798646,1.0000627171470735,0.0023512886320361803
-0.3882513555487094,-0.3882513555487094,1.0009652694237388,0.0023456262992220594
-0.38747613162486233,-0.38747613162486233,1.0001820934694556,0.002346510141753541
-0.38659590478491734,-0.38659590478491734,0.9980929975205519,0.0022261370015958576
-0.3856522515103279,-0.3856522515103279,1.0008014789502102,0.0023459790954127317
-0.3849710806607618,-0.3849710806607618,0.9991198099516957,0.002468686829544287
-0.38404528207101973,-0.38404528207101973,1.0015060929603095,0.0023435561586941586
-0.3830037737163366,-0.3830037737163366,0.9994306891285631,0.0022303388292451124
-0.3821830667424365,-0.3821830667424365,0.9996573612240851,0.0024611784385849054
-0.38131786454468963,-0.38131786454468963,0.9979330832786836,0.0023473105552999627
-0.38041553791626936,-0.38041553791626936,1.0014004903095617,0.002227469519399745
-0.37950229139532893,-0.37950229139532893,1.00164051417158,0.002347415712541645
-0.37863943330885375,-0.37863943330885375,0.9997327949070144,0.002353792946002701
-0.37772010300686815,-0.37772010300686815,1.0021220451287276,0.002231383041625335
-0.3768322491545405,-0.3768322491545405,1.0011163960780294,0.0022311153055734117
-0.37578413540322797,-0.37578413540322797,0.9994579890712154,0.002229792982846222
-0.3742342454068421,-0.3742342454068421,0.9994784462447626,0.0022296825136070043
-0.37299484157192636,-0.37299484157192636,0.9995747054043281,0.002229004285209615
-0.3717555047973292,-0.3717555047973292,1.0008643411366338,0.00223111106783953
-0.370647636661306,-0.370647636661306,0.998351607587163,0.0023545757628431778
-0.36891455352160846,-0.36891455352160846,1.0015196793163057,0.0022320376886511314
-0.3671684935281519,-0.3671684935281519,1.0001319731514944,0.0022281622259695153
-0.3656879035697784,-0.3656879035697784,0.9992451315557656,0.0023500906285702115
-0.36414208063361003,-0.36414208063361003,0.9988813877898443,0.0023527135100125125
-0.3624992794364516,-0.3624992794364516,0.9990485785352756,0.002353388585392751
-0.36061122196770157,-0.36061122196770157,1.0015082420882495,0.002354375519900112
-0.358751985339768,-0.358751985339768,1.0037529340943603,0.0029971052595176334
-0.3570480272072018,-0.3570480272072018,0.9974569037234099,0.0031663700939373656
-0.3555254614999285,-0.3555254614999285,1.0013344181201589,0.0027717295958730693
-0.353909428735642,-0.353909428735642,0.9978007611662857,0.0026256426221663693
-0.35268390652199744,-0.35268390652199744,1.0013477992428281,0.0025817294430345535
-0.3514584389857191,-0.3514584389857191,0.9995590529661756,0.002549987423580498
-0.3502397267970082,-0.3502397267970082,1.0003571950301073,0.0026319365367163425
-0.34906276003093806,-0.34906276003093806,0.9982848473274311,0.002393057141930964
-0.3479582341373316,-0.3479582341373316,1.0015682205463974,0.002349229422379505
-0.34684858735708984,-0.34684858735708984,1.0013147850713855,0.0022305530465665463
-0.34553054864300065,-0.34553054864300065,1.0004119543987045,0.002227816231582054
-0.3441384934958478,-0.3441384934958478,0.9995474796274486,0.002223707273151734
-0.34290487928155927,-0.34290487928155927,0.9990973369866957,0.002223651267867865
-0.34189445370211613,-0.34189445370211613,1.000825498125543,0.0023517233084128933
-0.34082528725484734,-0.34082528725484734,0.9997612337061639,0.0023499623189886403
-0.3397639425849775,-0.3397639425849775,1.0014025437286984,0.0022310902486122326
-0.3387475646821258,-0.3387475646821258,0.998899662632146,0.002230314780758069
-0.33791533876647006,-0.33791533876647006,0.999650603977466,0.002232411961921488
-0.33706695824294003,-0.33706695824294003,1.0007214810472493,0.0022287270312286514
-0.33621035777032376,-0.33621035777032376,0.9978372414905581,0.002270384721665395
-0.3355349922137975,-0.3355349922137975,1.0013029706960352,0.0021267144221078014
-0.33467713570062185,-0.33467713570062185,0.9995224729417325,0.002352942481610021
-0.33392069937617636,-0.33392069937617636,0.9989473640531772,0.0021187257046977963
-0.3332071927921788,-0.3332071927921788,1.0016309028983572,0.0022427218038533177
-0.3323517627082765,-0.3323517627082765,1.0007567000171753,0.0022336982635738733
-0.3316588628862519,-0.3316588628862519,1.0007724608526476,0.0021082645085604085
-0.3309988319000695,-0.3309988319000695,1.0013986615602506,0.002353596104439861
-0.33035088243486826,-0.33035088243486826,1.0006776672881554,0.002229768389715154
-0.32967782294726933,-0.32967782294726933,0.999221116562959,0.002350368949608686
-0.32892253584432185,-0.32892253584432185,0.9991324930375425,0.0022323725378938773
-0.32836165424523645,-0.32836165424523645,1.001179926734593,0.00222758791569006
-0.32761203331174327,-0.32761203331174327,0.9982039233763447,0.002231606405860425
-0.32712452503037637,-0.32712452503037637,1.0011114010688622,0.0022297482978636076
-0.3263740313166636,-0.3263740313166636,0.9979984799454943,0.0022314328194029975
-0.3258989812115033,-0.3258989812115033,1.0003202936005,0.002385657897839386
-0.32533408098097427,-0.32533408098097427,1.0021711545804741,0.0022339726135300934
-0.32484380364694515,-0.32484380364694515,0.9999170174854004,0.0023528447286398466
-0.32438848632882583,-0.32438848632882583,0.9990056401457306,0.0022590095896311484
-0.32389614036655984,-0.32389614036655984,0.9997431751473448,0.0023534703653460094
-0.32343115032927017,-0.32343115032927017,0.999651549890935,0.00236919487112909
-0.32282710409272114,-0.32282710409272114,1.0003587891912669,0.0021016008468820813
-0.3222775454873045,-0.3222775454873045,1.0007972259766342,0.002350410428118286
-0.3217347779420379,-0.3217347779420379,0.9988223232871377,0.00224497529240677
-0.3211403636414616,-0.3211403636414616,1.0018309061803548,0.0023544498687495872
-0.3206100474904815,-0.3206100474904815,1.000585759804433,0.0022421734430249684
-0.3199467449238,-0.3199467449238,1.0002353755124556,0.0023534089797506213
-0.3192514453039621,-0.3192514453039621,1.0015596879900905,0.0021017869226244317
-0.31857848391664445,-0.31857848391664445,1.0010287656010741,0.002351394434615967
-0.317854573069053,-0.317854573069053,1.00070039617122,0.0022316089462323485
-0.3173073379235575,-0.3173073379235575,0.9986990643312389,0.002228092973323399
-0.31661639515587015,-0.31661639515587015,0.9986494352246542,0.0022335419790683255
-0.3159950310822751,-0.3159950310822751,0.9993768959779086,0.002231468613986328
-0.31523069981849405,-0.31523069981849405,1.0001331118040173,0.0023548776136346505
-0.3145227117558534,-0.3145227117558534,0.9991211819332744,0.0022279437218233
-0.3137862047100498,-0.3137862047100498,1.0024616981830667,0.0023552805918103264
-0.31291877807088897,-0.31291877807088897,1.0029317878095247,0.00222877298661973
-0.31224732383052467,-0.31224732383052467,0.9988329188013367,0.0023513451379871884
-0.3114107196633995,-0.3114107196633995,0.9988032513268699,0.002229439050263447
-0.3106954991490056,-0.3106954991490056,0.9985220211942639,0.0022307663885570697
-0.3100909618020523,-0.3100909618020523,1.0006794126210843,0.002352030140394229
-0.30920258064288647,-0.30920258064288647,0.999688262987039,0.0022291398971662577
-0.30838120575717765,-0.30838120575717765,1.000613078777308,0.0022323020160348395
-0.30756077439218643,-0.30756077439218643,1.0027231059640356,0.002231136170908219
-0.3065991320188914,-0.3065991320188914,1.000510479991246,0.0023549014537602468
-0.30567935225408294,-0.30567935225408294,0.9975746965098489,0.002098430689130643
-0.30492069271349465,-0.30492069271349465,1.0016921532712613,0.0023522331882527797
-0.3039956386150152,-0.3039956386150152,1.0012254182787488,0.0022312400842500286
-0.30301125620826497,-0.30301125620826497,1.0006329550403381,0.002354416886146974
-0.30221263474377336,-0.30221263474377336,1.0000930066884852,0.0022300608499593653
-0.3013737439090619,-0.3013737439090619,1.0005959520284253,0.0020994091334696425
-0.3005017376890464,-0.3005017376890464,1.0001728799304368,0.002353796787213219
-0.29978199190954913,-0.29978199190954913,1.001914267000378,0.0021016333339993493
-0.2989617840576102,-0.2989617840576102,1.0006143827869456,0.0022296477196655615
-0.2980093426420353,-0.2980093426420353,1.0003455373716776,0.0022290860698819235
-0.29725041252604567,-0.29725041252604567,1.0009206410226277,0.0022392884148809723
-0.29646105229112435,-0.29646105229112435,1.000521558094243,0.0022280426448419363
-0.2955279836955015,-0.2955279836955015,0.9996995239220077,0.002098198091049973
-0.29478788907726994,-0.29478788907726994,1.000136405972559,0.0022300889437798345
-0.2940489450505993,-0.2940489450505993,0.9981182653746694,0.00222679937551171
-0.2931752503558528,-0.2931752503558528,1.0014421400163105,0.0022304504624420197
-0.2924960565753281,-0.2924960565753281,1.0002591405406336,0.002231558287086886
-0.29168159023756746,-0.29168159023756746,0.9994344100793515,0.0021009808877000564
-0.2908912038546987,-0.2908912038546987,0.998587392847616,0.0023519323824728344
-0.29017062030252416,-0.29017062030252416,0.999521059152214,0.002225722988468266
-0.2893186193490692,-0.2893186193490692,0.9990770235214125,0.002098573223521504
-0.28860882010121713,-0.28860882010121713,0.9984371879822156,0.002351094179932483
-0.2878499965067022,-0.2878499965067022,0.9992949745349373,0.002095888481330532
-0.2870897828055604,-0.2870897828055604,1.0004508229234157,0.0022323509549048654
-0.28651565442123683,-0.28651565442123683,0.9996701987175876,0.0022283322638632567
-0.2858643650164595,-0.2858643650164595,0.9998548232310857,0.002097962027861958
-0.28527690703922415,-0.28527690703922415,0.9999313103220031,0.0022285890563436077
-0.2845273774000816,-0.2845273774000816,1.0000052091622755,0.0020998726489799926
-0.2839372525799263,-0.2839372525799263,1.0019311011768142,0.002353093488237522
-0.28300821563389034,-0.28300821563389034,0.9997971458456405,0.0020994086091879667
-0.28238378179157736,-0.28238378179157736,0.9996431561543021,0.0022324677566820184
