time,time,flux,flux_err
-0.4997719989332836,-0.4997719989332836,1.000463620234805,0.00014263307461879755
-0.4996161344588472,-0.4996161344588472,0.9999081512319856,0.00013044071110880176
-0.49943925419102014,-0.49943925419102014,1.0003163603520149,0.00013624742966385756
-0.49918816588942716,-0.49918816588942716,1.0000642010543797,0.00013477880495302346
-0.49894883954730174,-0.49894883954730174,1.0037841173410205,0.0001315257480332637
-0.49882775753794706,-0.49882775753794706,0.9980163450646599,0.00013563211234884524
-0.4986995273229695,-0.4986995273229695,0.9998797895771994,0.00013039826681664858
-0.49857223964463626,-0.49857223964463626,0.9993833364561253,0.00013506440992280556
-0.4983794381023472,-0.4983794381023472,0.9996675365756061,0.0001277831218342011
-0.4982278174917155,-0.4982278174917155,1.0005605241690674,0.00013271507257572092
-0.49813312640289953,-0.49813312640289953,1.0002992376585478,0.00013160983182955547
-0.4980365531977441,-0.4980365531977441,0.9999670124490683,0.00013485121982060886
-0.4978461292947031,-0.4978461292947031,0.9995134470130335,0.00013237669780269905
-0.49765524905305936,-0.49765524905305936,1.000518725003728,0.00013102884799250433
-0.49752884439549233,-0.49752884439549233,1.0008184566076508,0.0001308264499932824
-0.49739308267489835,-0.49739308267489835,1.0000236839601313,0.00013231892561988773
-0.4972448158390762,-0.4972448158390762,1.000596804148622,0.00013070025487295188
-0.4970458452044113,-0.4970458452044113,1.0000838785070043,0.00012810339661565245
-0.49689460968147614,-0.49689460968147614,0.9999384142973217,0.00013076114319000046
-0.4967238222652668,-0.4967238222652668,1.0004606985848132,0.00013308190644404765
-0.49643278348085007,-0.49643278348085007,1.0008287624620384,0.00013226820336906245
-0.49616203801524533,-0.49616203801524533,1.0001469518348454,0.00013467450835321813
-0.49605842868513716,-0.49605842868513716,0.9997375643625389,0.00013423301392077126
-0.49595360671664823,-0.49595360671664823,0.9998122552403791,0.00012948881510297446
-0.4958401239684463,-0.4958401239684463,1.0007608640129562,0.00013238187459293675
-0.4957343232938001,-0.4957343232938001,0.9998286366834052,0.00013133122973022545
-0.4954996134765679,-0.4954996134765679,1.0002654282392365,0.00013475240560590693
-0.4953870871111576,-0.4953870871111576,1.0002245003668602,0.00013214919840905185
-0.4952432114838302,-0.4952432114838302,1.0002183668155875,0.00013460781350720737
-0.49499383740585473,-0.49499383740585473,1.000071486362132,0.00013086770884634962
-0.4948659155001224,-0.4948659155001224,1.0003817634002055,0.00013130545553142372
-0.49474183222991996,-0.49474183222991996,1.0001551624281302,0.00013294501313927752
-0.49465058081696045,-0.49465058081696045,1.0001531383170872,0.00013256269580022112
-0.49448258070224255,-0.49448258070224255,0.9997659597752314,0.00013268405451794896
-0.4942573193788121,-0.4942573193788121,1.0001967835635088,0.00012764245470590983
-0.4940076193131972,-0.4940076193131972,1.0002485594075536,0.00013468036711481403
-0.4935684322830639,-0.4935684322830639,1.0003882361140366,0.0001278771305142446
-0.493380420882022,-0.493380420882022,1.0000382301267758,0.0001315127798232043
-0.4932339652430528,-0.4932339652430528,1.0000170798891557,0.0001314151534990127
-0.49310011925408614,-0.49310011925408614,1.0004234956169415,0.0001331220294399052
-0.49286362934180944,-0.49286362934180944,1.00012128298856,0.00013736881653803504
-0.49264577159301554,-0.49264577159301554,0.9999731475997091,0.00013125467318239958
-0.49256436412360927,-0.49256436412360927,0.9999910634193888,0.00013346347247702013
-0.49242900555655067,-0.49242900555655067,0.9999510283790041,0.00013142277140365343
-0.4922569128302712,-0.4922569128302712,0.9997348309858731,0.00013161337259603062
-0.492164157544903,-0.492164157544903,0.9998257016145093,0.00013145254580744715
-0.49202238788093383,-0.49202238788093383,1.0006320768427055,0.0001354862390986745
-0.4919737515145243,-0.4919737515145243,1.0004180675724732,0.00013128891372236393
-0.4918847354256286,-0.4918847354256286,1.000294662437602,0.00013796958492976323
-0.4916813278094196,-0.4916813278094196,1.000123882177871,0.00013470737138772477
-0.4914726734336,-0.4914726734336,0.9998340977793486,0.00013010770234442076
-0.49119932789326415,-0.49119932789326415,0.9997769744389169,0.0001321087447904012
-0.4909943631500937,-0.4909943631500937,0.9999467156307116,0.00013371022993193278
-0.4906691927364591,-0.4906691927364591,1.0005207659346271,0.00013454105599045512
-0.49042545742704535,-0.49042545742704535,1.000732807774143,0.00013394571744327895
-0.4903353218400298,-0.4903353218400298,1.000093832122332,0.00013558299063427785
-0.49021083812622235,-0.49021083812622235,0.9995267490100159,0.00013398935487919582
-0.4899788425955194,-0.4899788425955194,0.9997344608297041,0.000130487229157333
-0.4897960370104556,-0.4897960370104556,0.9997890580050042,0.0001310948916091867
-0.48962951842440816,-0.48962951842440816,0.9995548432278806,0.00012975987182746365
-0.4894836969437165,-0.4894836969437165,1.0002273406626982,0.00013354082961863496
-0.4893813868762663,-0.4893813868762663,1.0003576514967327,0.00013125636406165875
-0.48923934329468466,-0.48923934329468466,1.0003339046726325,0.00012979170368992396
-0.48918609351676423,-0.48918609351676423,1.0011514351625848,0.00013381785497068493
-0.4890916165972158,-0.4890916165972158,0.9998196298421806,0.00013663980832025066
-0.4889086858373048,-0.4889086858373048,1.0001599883147274,0.00013208405550016713
-0.4887500278207881,-0.4887500278207881,1.0000510191061536,0.00013174483685891262
-0.48850727719145653,-0.48850727719145653,0.9998940437066313,0.00013051877693454902
-0.4881914825848071,-0.4881914825848071,0.9998812791598481,0.00012915751319221645
-0.4877679211967916,-0.4877679211967916,1.0003377528600708,0.0001363872309463232
-0.4876532831145596,-0.4876532831145596,1.0000784666758182,0.00013364953565711475
-0.48754393214585434,-0.48754393214585434,0.9999009752696075,0.0001358023399102821
-0.48736337088485016,-0.48736337088485016,0.9997966628839942,0.00013412790314014538
-0.48720176140595867,-0.48720176140595867,0.9998456274790122,0.00013260167069606885
-0.48710518175212203,-0.48710518175212203,1.0018833574231398,0.00012961613554856807
-0.4869752509130194,-0.4869752509130194,0.9993598707261764,0.00013034526845616845
-0.48678315748366,-0.48678315748366,0.999989734099163,0.00013118739677564405
-0.48666916183792636,-0.48666916183792636,0.9996375347706593,0.00012990577753486214
-0.48656696581347203,-0.48656696581347203,1.0000792241764245,0.00013107120188790637
-0.4864604905131273,-0.4864604905131273,0.9997287060748701,0.0001303509294004164
-0.48640939982578857,-0.48640939982578857,0.9998878062430243,0.00013402401631282645
-0.4862643196800491,-0.4862643196800491,0.9997943013657029,0.00014013094660625
-0.48608608531721986,-0.48608608531721986,0.999715859154224,0.00013231967002738188
-0.4859271089811955,-0.4859271089811955,1.0047197652467328,0.000130691823493483
-0.48568907220105756,-0.48568907220105756,0.9989829339871708,0.00013091399416162897
-0.48550352286147247,-0.48550352286147247,1.0012229495013707,0.00013348930098241446
-0.485017443232573,-0.485017443232573,1.0004966240261508,0.00013381001964246468
-0.48488604836093147,-0.48488604836093147,0.9997460503942246,0.00013014849729016007
-0.4847849126988876,-0.4847849126988876,0.9995109519747899,0.00013776589881017086
-0.4845654841745272,-0.4845654841745272,1.0005731194363054,0.00013392363291345565
-0.4844166624472564,-0.4844166624472564,1.0045937515123495,0.00013017380668397345
-0.4842681406844349,-0.4842681406844349,1.00034254400286,0.0001277409979158451
-0.48412093961596836,-0.48412093961596836,1.0002317071817826,0.00013144123762832952
-0.4840000615862664,-0.4840000615862664,1.0001321729303176,0.00013264927309359443
-0.48386929811276785,-0.48386929811276785,1.000080750726416,0.00013068536683525723
-0.4837344649298757,-0.4837344649298757,0.9998030865505843,0.00013529474788479253
-0.48358406144361654,-0.48358406144361654,1.000595529520042,0.00013540386158016643
-0.48342924264943576,-0.48342924264943576,1.0001901273179292,0.00013378018875943252
-0.483346131948565,-0.483346131948565,0.9999033272039306,0.0001324931112406189
-0.4831851429553353,-0.4831851429553353,0.9993050598392381,0.00013089338431470014
-0.48298721982537246,-0.48298721982537246,1.003914804178066,0.00013239858497457734
-0.48260880167290454,-0.48260880167290454,0.9997996365557359,0.0001286771841784872
-0.48230166958383053,-0.48230166958383053,0.9997708298253661,0.0001280817127016176
-0.4821555618029379,-0.4821555618029379,1.000945384655684,0.0001295764890614981
-0.48202913581117174,-0.48202913581117174,0.9997647462799104,0.00013356406969151365
-0.4819257325860235,-0.4819257325860235,0.9997888958018818,0.00013346552066432124
-0.48176795047220367,-0.48176795047220367,0.9997054032755376,0.0001321321562539689
-0.4816393803932442,-0.4816393803932442,1.0005656678012167,0.0001276661225303987
-0.4814706614411989,-0.4814706614411989,1.0003333647345294,0.00013414178349672705
-0.48132528759851995,-0.48132528759851995,0.9993926531974127,0.00013368844377090213
-0.4811133616247389,-0.4811133616247389,0.9996861179294395,0.00012805147791011487
-0.48098719813424395,-0.48098719813424395,1.0000145080415241,0.0001312454878485344
-0.48084687223927175,-0.48084687223927175,1.0001994148908075,0.00013179697874484087
-0.4807298636602354,-0.4807298636602354,0.999974283140584,0.00013247948696310717
-0.48064083101635335,-0.48064083101635335,0.9997903316939505,0.0001340133874871742
-0.4803813189933862,-0.4803813189933862,1.0001362020769398,0.0001304490173137819
-0.480166067243772,-0.480166067243772,1.0005045914564483,0.0001363078116657695
-0.4798767352152936,-0.4798767352152936,0.9995969702829886,0.00012862867686599326
-0.4795379518531263,-0.4795379518531263,0.999550966926847,0.00013164170369633593
-0.47942506868675994,-0.47942506868675994,1.0006290118245644,0.00013109299256894096
-0.47934343613887903,-0.47934343613887903,0.996738821501765,0.00013356223095346183
-0.4792407575299876,-0.4792407575299876,1.0000599713801654,0.00013530969477386514
-0.47910243000806074,-0.47910243000806074,0.9999025102818215,0.00013343935458780186
-0.4788528017106728,-0.4788528017106728,0.9999353872928631,0.00013218994171712017
-0.47870127434252935,-0.47870127434252935,1.0002400133217495,0.00013295065993928207
-0.4785481545568473,-0.4785481545568473,1.0000404030617593,0.0001289537370034449
-0.47831820108694956,-0.47831820108694956,0.9996987080199755,0.00012982039431107232
-0.4781473957154958,-0.4781473957154958,0.9995434504397405,0.00013283373938101844
-0.47802355063140567,-0.47802355063140567,0.9997826451735881,0.0001339012731454809
-0.47794672790878395,-0.47794672790878395,1.0000099593502294,0.00012991078288415565
-0.4778212016186444,-0.4778212016186444,1.0002124951568185,0.00013244375910075534
-0.47754405105588377,-0.47754405105588377,0.9997859264704806,0.0001305857904709958
-0.47734238429329706,-0.47734238429329706,1.0003827255247855,0.00013097697993429667
-0.4771912397816777,-0.4771912397816777,1.0000239635956851,0.00013038359361263184
-0.47692536958202253,-0.47692536958202253,0.9995624525562222,0.0001298934861296985
-0.4766723044485843,-0.4766723044485843,1.0007951678640552,0.00013059872242677763
-0.4765817745716049,-0.4765817745716049,1.0001801842982732,0.00013071077392741662
-0.4764079310865782,-0.4764079310865782,1.0000563087854788,0.0001387365138659934
-0.47607324800192147,-0.47607324800192147,0.9998884658376544,0.00013462849483866277
-0.4759061302211194,-0.4759061302211194,1.0007419158023878,0.00013212010235605227
-0.4758127667751978,-0.4758127667751978,1.0000422525909785,0.00013010470595314569
-0.47565832549371406,-0.47565832549371406,1.0003612826392283,0.00013346450020118643
-0.4755362959640479,-0.4755362959640479,0.9998682543104855,0.00013285405183628368
-0.4753129100525257,-0.4753129100525257,1.0061914651836437,0.0001312302741022303
-0.4752257631029352,-0.4752257631029352,0.9997060198898167,0.000133288136996992
-0.4751525154602859,-0.4751525154602859,1.0003809307963587,0.00013692290869406508
-0.47501102642672777,-0.47501102642672777,1.000060529549851,0.00013162990702859592
-0.4748024355547386,-0.4748024355547386,1.0009742125649155,0.00013247940992753155
-0.4746509807064285,-0.4746509807064285,0.9998558732789325,0.0001324308973279801
-0.47450563443489957,-0.47450563443489957,1.0005680500394405,0.00013225585291991873
-0.4743865492262557,-0.4743865492262557,1.0002527396630714,0.00012991624088445406
-0.4742058160354645,-0.4742058160354645,0.9995440664201372,0.00013065012284585348
-0.47398419832097716,-0.47398419832097716,1.000038935709648,0.00012943148376534414
-0.4739208335216972,-0.4739208335216972,0.999802979171115,0.0001309875328762656
-0.47382414281491947,-0.47382414281491947,1.0005095788218346,0.00013588186386238077
-0.47367704296884766,-0.47367704296884766,1.001064767947176,0.0001348539489089337
-0.4733614564902382,-0.4733614564902382,1.0007391968085568,0.00013233075455057163
-0.4731889847869752,-0.4731889847869752,1.000601213289343,0.0001312716930440889
-0.47308231831302694,-0.47308231831302694,1.0007791877471326,0.00013378898388610464
-0.47293317163603205,-0.47293317163603205,1.0001560450665044,0.00013122743564725832
-0.47282944397229587,-0.47282944397229587,0.9989574005990312,0.00013098783454049357
-0.4725952405551652,-0.4725952405551652,1.00004174387247,0.00013255862759740125
-0.4724540294511826,-0.4724540294511826,1.0002737105323172,0.0001335404668779124
-0.47235281641151233,-0.47235281641151233,0.9998659916984739,0.00013199009598352434
-0.47210379758944326,-0.47210379758944326,1.00001747059333,0.00013313566840913985
-0.4719358831200225,-0.4719358831200225,1.0006295163630265,0.00013132336078052777
-0.47181308016479306,-0.47181308016479306,1.0004495680959011,0.00013040540931329343
-0.4717123044832988,-0.4717123044832988,0.9999508064499976,0.00013128539900915452
-0.47152268124154945,-0.47152268124154945,0.9997028448628983,0.00013616725182536302
-0.471251545616542,-0.471251545616542,0.9986154706482552,0.000130429973196388
-0.47108601532854666,-0.47108601532854666,1.000027093343492,0.00013078775574030648
-0.4708590536480187,-0.4708590536480187,1.0006061925907197,0.00013149297465302564
-0.4704981564544141,-0.4704981564544141,1.0002614404171506,0.00013258153213370277
-0.47041029709398574,-0.47041029709398574,1.0001228500938857,0.00013086919541798088
-0.47033738400277797,-0.47033738400277797,0.9994608135665004,0.0001338878449563282
-0.4702435854851501,-0.4702435854851501,1.0003890791532069,0.0001322480327483718
-0.47010507047889405,-0.47010507047889405,1.0003599537568528,0.0001333443605372354
-0.46998877167388853,-0.46998877167388853,1.0002886718073,0.00013150270509125923
-0.4697893353575637,-0.4697893353575637,1.000267497227235,0.00013419503274394296
-0.4696738307222404,-0.4696738307222404,1.000747231382162,0.00013120765108692352
-0.4695746263856563,-0.4695746263856563,1.000092537321804,0.00013300236317559267
-0.4693624431212811,-0.4693624431212811,0.9997436044324305,0.0001300900633625681
-0.46922273566124206,-0.46922273566124206,0.9999243828018793,0.0001336492619699316
-0.4690705522665667,-0.4690705522665667,0.9998980150986192,0.0001331319019331497
-0.46893506492779125,-0.46893506492779125,1.000752391866808,0.00013676376452706904
-0.4687841530234437,-0.4687841530234437,0.999424088875011,0.00013476618486104718
-0.46859518854544147,-0.46859518854544147,0.9999847278889181,0.00012960863138503374
-0.4684524514683289,-0.4684524514683289,1.0014007681999355,0.0001309437442175257
-0.46823206698136344,-0.46823206698136344,0.999773267503201,0.000133252750815036
-0.46778380485739035,-0.46778380485739035,0.9994157551174283,0.00012743780331546357
-0.46751152028737125,-0.46751152028737125,0.9998437910396751,0.00013571191691562345
-0.4674123219443572,-0.4674123219443572,0.9997474488973996,0.0001321462582231966
-0.4673371269436757,-0.4673371269436757,1.0007329439156902,0.00013525940192591357
-0.4671966022309789,-0.4671966022309789,0.9997803648095298,0.00013030634136337
-0.46698776470293524,-0.46698776470293524,1.0002977670352582,0.00013385866058753158
-0.466835825733142,-0.466835825733142,1.001238174855939,0.00013483513083146058
-0.46665384319639996,-0.46665384319639996,1.0029083562271093,0.00012921699481683154
-0.46649018219141,-0.46649018219141,1.0001582090267678,0.00013433211209233875
-0.4664003530942864,-0.4664003530942864,0.9998316451385113,0.00012887214294287052
-0.46627409709726636,-0.46627409709726636,1.0008216706350452,0.00013444846736057647
-0.46622996732148747,-0.46622996732148747,1.0001990216411,0.00013247795376560904
-0.4661295828187576,-0.4661295828187576,1.0005122544379959,0.00013723102289424428
-0.4659715271467576,-0.4659715271467576,0.9998131182378358,0.00013196658999386053
-0.46578408881068756,-0.46578408881068756,1.000371365627684,0.00013159692801974264
-0.4655657325682114,-0.4655657325682114,0.9995691349583579,0.000129990912559837
-0.4653009453417326,-0.4653009453417326,0.9996674558578057,0.00013118849857395322
-0.4649924403245677,-0.4649924403245677,1.0001972312016953,0.000135691912444415
-0.4647007873449184,-0.4647007873449184,0.9997394474539473,0.00013307026682063994
-0.4645862334360572,-0.4645862334360572,1.0018479309722885,0.0001358433109501835
-0.46448021459837036,-0.46448021459837036,1.000028137434345,0.00013524203380328004
-0.46424529175055795,-0.46424529175055795,0.9994869060625842,0.00013212289704284135
-0.4640665453422116,-0.4640665453422116,1.0002474961914285,0.0001317868197487076
-0.4639055554369406,-0.4639055554369406,1.0001794876672665,0.00012995049876209663
-0.46374917031826046,-0.46374917031826046,1.000118084015086,0.0001332090856163087
-0.46364293433653075,-0.46364293433653075,1.0001882375988407,0.00013003737474112686
-0.4635184931976255,-0.4635184931976255,1.0000061365757593,0.00012986217806890604
-0.46344347242957157,-0.46344347242957157,0.9998565055070383,0.00013348698675131395
-0.46336349524644904,-0.46336349524644904,0.9998219993754447,0.00014521831701805348
-0.46324106519823544,-0.46324106519823544,1.0001730219952976,0.00013180231514240667
-0.46305230507568923,-0.46305230507568923,0.9996913503903038,0.0001315508173302859
-0.4628389658064407,-0.4628389658064407,0.9994859727191063,0.00012783055992008087
-0.46254354075790616,-0.46254354075790616,0.9997795298589501,0.0001291313785839065
-0.46223433535742514,-0.46223433535742514,1.0001387259687324,0.00013508484088103738
-0.46196226204738194,-0.46196226204738194,1.0001291636744989,0.0001316516360937271
-0.46190348153359084,-0.46190348153359084,0.9996670086619547,0.00013275728496323202
-0.4617953536042478,-0.4617953536042478,0.999955583579025,0.0001343358258757568
-0.4615583718426933,-0.4615583718426933,1.000024449693338,0.0001295279167073368
-0.4614232341496972,-0.4614232341496972,1.0004641092962607,0.00013020436735205533
-0.46132782571803543,-0.46132782571803543,1.0002936947957932,0.0001309625265651508
-0.46120515028997033,-0.46120515028997033,1.0003878991366093,0.0001309199665415364
-0.46107066963413673,-0.46107066963413673,1.0011104748006932,0.0001308597189533657
-0.46097743868776886,-0.46097743868776886,0.9999445438300902,0.00012902796298021066
-0.4608897495429119,-0.4608897495429119,1.0006903639291156,0.00013215992422499368
-0.46079521635947457,-0.46079521635947457,1.0006242623629646,0.00012848400508409466
-0.46068746066375754,-0.46068746066375754,1.000497331699944,0.0001338356684237497
-0.4605109135791281,-0.4605109135791281,0.9997152838149157,0.00013435995608857443
-0.4603805962309707,-0.4603805962309707,1.0003407196663414,0.00013278121123345022
-0.4602245570240484,-0.4602245570240484,0.9997134242600249,0.00013132960144622663
-0.459923764312407,-0.459923764312407,0.9995386116781697,0.00013220625164148174
-0.45963369267956294,-0.45963369267956294,1.000288908205173,0.0001276735969774099
-0.459294720402977,-0.459294720402977,0.9996753688515106,0.0001314217303516044
-0.45918586604093437,-0.45918586604093437,0.9979676485249562,0.00013180625564413977
