time,time,flux,flux_err
-0.4997602276816906,-0.4997602276816906,0.9998515513294322,0.00011345598330736472
-0.4993845065109781,-0.4993845065109781,0.9999972917593564,0.00011424978875196515
-0.4989482731201861,-0.4989482731201861,1.0001540992146283,0.00011320938705263977
-0.49822147188679083,-0.49822147188679083,0.9999887296895592,0.00011307712505602954
-0.49760095350429767,-0.49760095350429767,0.9999867043175165,0.00011419973841940399
-0.4971456760322326,-0.4971456760322326,1.0001384008589183,0.00011385964665858068
-0.4965826472805929,-0.4965826472805929,1.0000339077986609,0.00011361651647061669
-0.49595846107331454,-0.49595846107331454,1.0000602616021976,0.00011308005383821466
-0.49531329062883744,-0.49531329062883744,0.9997844028524563,0.00011372816073005739
-0.49485861498324085,-0.49485861498324085,0.9998775321878908,0.00011381135798686545
-0.4944614374435332,-0.4944614374435332,1.0000994352863495,0.00011399442785691677
-0.49395491950126597,-0.49395491950126597,0.9999870257329627,0.00011324739621617857
-0.49316733126324835,-0.49316733126324835,0.9999980718575385,0.00011306988519365192
-0.4924544622444955,-0.4924544622444955,1.000085191976476,0.00011425268174353053
-0.492034264949325,-0.492034264949325,0.9999754862751804,0.00011384051504138024
-0.4914485459434218,-0.4914485459434218,0.9999605826837967,0.00011348041493059903
-0.4909039168036543,-0.4909039168036543,0.9999722702787963,0.00011306320343331715
-0.49026872900503804,-0.49026872900503804,0.9998856913199614,0.00011373488194702159
-0.4897919261667994,-0.4897919261667994,1.000020677733345,0.00011356335346260774
-0.4893062458409986,-0.4893062458409986,0.9999883749056331,0.00011424232452744557
-0.48883145432700986,-0.48883145432700986,1.0000132117726968,0.00011338551731891058
-0.48818745279786524,-0.48818745279786524,1.000028625799403,0.00011330634686494928
-0.4875399150500016,-0.4875399150500016,1.0001187469579154,0.00011411512608710923
-0.4870430418653996,-0.4870430418653996,0.999884082845376,0.00011384639105562378
-0.48652865905605724,-0.48652865905605724,0.9999543574769852,0.00011360650471483457
-0.48593817759829105,-0.48593817759829105,0.9999876111397421,0.00011307310270787841
-0.4853718108104658,-0.4853718108104658,0.99998685478183,0.0001135539556669677
-0.48483851007404155,-0.48483851007404155,0.9999780346664,0.00011399040897409115
-0.48434982988765113,-0.48434982988765113,0.999949598977621,0.00011398195408330615
-0.48389022448536706,-0.48389022448536706,0.9998448543561246,0.00011344723891019519
-0.483258077375649,-0.483258077375649,1.0000540394620436,0.00011334604379864186
-0.4826865111252118,-0.4826865111252118,0.9999412801429353,0.0001134744037122631
-0.48213817221476346,-0.48213817221476346,0.9999638557532539,0.00011409841067263815
-0.48175081511071766,-0.48175081511071766,1.0001460331036367,0.0001136020600283439
-0.48120481920559544,-0.48120481920559544,1.000137543517657,0.00011388658338280781
-0.48071619191978243,-0.48071619191978243,0.999920635953921,0.00011308470127758424
-0.48004968762979844,-0.48004968762979844,1.000090923759831,0.00011388282572920579
-0.47966148550476645,-0.47966148550476645,0.9999600616242483,0.00012047325191628636
-0.4792091330076801,-0.4792091330076801,1.0000724872044358,0.00011424298195567219
-0.47873135304180325,-0.47873135304180325,0.999722271226625,0.00011317017014615587
-0.4780759996407141,-0.4780759996407141,0.9998158232729862,0.00011341714396959062
-0.4774567792082962,-0.4774567792082962,1.000032574046589,0.00011409685491135642
-0.47694070116704096,-0.47694070116704096,1.0001210698215126,0.00011384756531616332
-0.4764685742353322,-0.4764685742353322,0.9999379046867165,0.00011398878344681356
-0.4759292053582612,-0.4759292053582612,1.000062530350385,0.00011339331525971851
-0.4754251231890521,-0.4754251231890521,1.0000208066197995,0.00011332540925501503
-0.4748202162016241,-0.4748202162016241,0.9996893275888074,0.00012028289001715515
-0.4743750909517985,-0.4743750909517985,1.0000416065497446,0.00011554184022963565
-0.47398090905408025,-0.47398090905408025,0.9999862584080391,0.00011361218117824672
-0.473496506093943,-0.473496506093943,1.0000759092698976,0.00011397737597183526
-0.4728749563990277,-0.4728749563990277,1.0000158877244707,0.0001137700271548969
-0.4722778571245726,-0.4722778571245726,0.9999642114393452,0.00011410513224991282
-0.4718312525183137,-0.4718312525183137,0.9999093097848414,0.00011397582010949452
-0.47129845933886827,-0.47129845933886827,0.9998544758475878,0.00011386245853761009
-0.47078384869164436,-0.47078384869164436,0.9999169398663158,0.0001131891326509048
-0.4701741770251829,-0.4701741770251829,0.9999288222914284,0.00011348047986307639
-0.46957925778187926,-0.46957925778187926,0.9998928574121579,0.00011922023689740402
-0.46918130732374264,-0.46918130732374264,1.0000531255769236,0.00011543652694891012
-0.4686968000467459,-0.4686968000467459,1.000009879242794,0.00011370745839197596
-0.4682761309486523,-0.4682761309486523,0.9999631622913988,0.00011440847528813438
-0.4678159183014941,-0.4678159183014941,0.9997507761656053,0.00011346323472062231
-0.46723740849411116,-0.46723740849411116,1.0000151698578759,0.0001141129669662868
-0.4667771117310622,-0.4667771117310622,1.0000614355061663,0.00011396529698051974
-0.46625489325015224,-0.46625489325015224,0.9999713286094873,0.00011399209403689771
-0.4658343240749673,-0.4658343240749673,1.000018411633297,0.0001135093199132574
-0.4652692160634615,-0.4652692160634615,1.0000379463733937,0.00011310238905083217
-0.4646571564473561,-0.4646571564473561,0.9997878830377027,0.00011818441140555565
-0.4642690752138151,-0.4642690752138151,0.999819161782769,0.00011455087807811291
-0.4638401921474724,-0.4638401921474724,0.9998085355397999,0.0001138389820432393
-0.4633135766947817,-0.4633135766947817,0.9999775594078297,0.0001136249161251394
-0.4626796832468244,-0.4626796832468244,0.999978103864534,0.00011332443985034373
-0.4621845546018449,-0.4621845546018449,0.9999866088867023,0.0001138707112920482
-0.4617230445706809,-0.4617230445706809,0.9996892367571707,0.00011397575339648107
-0.46120674210178547,-0.46120674210178547,1.0000656021180159,0.00011386560076700218
-0.46078477607516105,-0.46078477607516105,0.9999638828427908,0.00011374477714578101
-0.4602160609916609,-0.4602160609916609,1.0000426971224805,0.0001130919666734371
-0.45960399229006726,-0.45960399229006726,1.00005589253822,0.00011732210556133113
-0.45921616446066765,-0.45921616446066765,1.000190413718585,0.00011417625653159494
-0.45878837366544756,-0.45878837366544756,1.0000853449373655,0.00011387625641293695
-0.45826010867385775,-0.45826010867385775,0.9998464374770819,0.00011358270280594483
-0.45757005152408964,-0.45757005152408964,1.000112172142408,0.00011334212590671683
-0.4570297779137036,-0.4570297779137036,1.0000418205695305,0.00011424856753449841
-0.45658685996822895,-0.45658685996822895,1.0000350175624149,0.00011359973094024066
-0.45607528362670563,-0.45607528362670563,1.0001051821362608,0.00011424991457549731
-0.45572091143694704,-0.45572091143694704,1.0000516105658752,0.00011346388502114692
-0.45516294928384016,-0.45516294928384016,1.0001198509198337,0.000113078742594612
-0.4545508810857427,-0.4545508810857427,1.0001266502872146,0.00011658992052100095
-0.45412150496704273,-0.45412150496704273,1.0000429687609633,0.0001142841855114144
-0.45365102530195145,-0.45365102530195145,1.0001918979787816,0.00011371774323233243
-0.4530593903131376,-0.4530593903131376,1.0000635490475214,0.00011361376868580323
-0.4524268943772768,-0.4524268943772768,1.0000385304570067,0.00011347953635756753
-0.4518730118208623,-0.4518730118208623,0.9999120977178985,0.00011410418252652973
-0.45144109087996187,-0.45144109087996187,1.0000671508793295,0.00011360817609741916
-0.45094519833000957,-0.45094519833000957,0.9998579395804807,0.00011400352573638506
-0.45057609243885965,-0.45057609243885965,0.9999363465997313,0.0001138681508129197
-0.4499667543073883,-0.4499667543073883,1.000122468838543,0.00011325783811785813
-0.449343587133626,-0.449343587133626,1.000125831366328,0.00011364875401258913
-0.4489196264556085,-0.4489196264556085,1.0000206834010774,0.00011424909927492076
-0.4485007253009826,-0.4485007253009826,0.999907144026202,0.0001138362488838536
-0.44824128378313616,-0.44824128378313616,0.9999464805284498,0.00011322644041292129
-0.44761406250618163,-0.44761406250618163,1.0000596036608114,0.00011350024418795362
-0.44707625056180406,-0.44707625056180406,1.000075391604002,0.00011373693989050934
-0.446561276428838,-0.446561276428838,0.9997849717417819,0.00011395948420938047
-0.4460685282880149,-0.4460685282880149,1.000046467594136,0.00011387578291265496
-0.445634534698911,-0.445634534698911,0.9998047868477569,0.00011346795824271271
-0.4450507028537686,-0.4450507028537686,0.9999269209600223,0.00011325110475699231
-0.444402979248116,-0.444402979248116,1.000102001557568,0.00011345925605889154
-0.4439621748046193,-0.4439621748046193,1.000028326088315,0.00011385521998277008
-0.44346123579962293,-0.44346123579962293,1.0000236381470686,0.00011383745396409833
-0.44305477306916147,-0.44305477306916147,0.9999919492860588,0.0001132259859611947
-0.44249073646496984,-0.44249073646496984,0.9999414217599529,0.00011334248272725105
-0.4418913729095948,-0.4418913729095948,1.0001143467073144,0.00011387281935922387
-0.4414254313065612,-0.4414254313065612,0.9999231122155834,0.00011357258332289311
-0.44093807734025176,-0.44093807734025176,1.0000221280834682,0.00011424892207789953
-0.44047199219057803,-0.44047199219057803,0.9999934872186588,0.0001131211220567479
-0.43985343890090006,-0.43985343890090006,0.9999744886449644,0.00011324933934822785
-0.43927152472679154,-0.43927152472679154,1.0000185060521345,0.0001134320474887652
-0.438823715349281,-0.438823715349281,0.9999897699166853,0.00011425127197850745
-0.4383270853133581,-0.4383270853133581,0.9998472209493998,0.00011369318642123665
-0.43786694308291774,-0.43786694308291774,1.000005379158889,0.00011321707659219752
-0.4373356699630676,-0.4373356699630676,0.9998451167693296,0.00011310852261589848
-0.4367412743325986,-0.4367412743325986,1.000129281944752,0.0001140926046160749
-0.4363532842668064,-0.4363532842668064,1.0000126751564762,0.00011413563920426834
-0.43589238890563137,-0.43589238890563137,0.9999060891145307,0.0001139875264151351
-0.4354170090184198,-0.4354170090184198,1.00019407087761,0.00011316467806829517
-0.43479787358373867,-0.43479787358373867,1.0000282976155919,0.00011362614291781331
-0.43426646180814715,-0.43426646180814715,1.0000163495113996,0.00011346171251432456
-0.433868043867551,-0.433868043867551,1.0000288249121752,0.00011385142609621986
-0.433434804125136,-0.433434804125136,1.0000050181765918,0.0001134439614101799
-0.4330658525854233,-0.4330658525854233,0.9999116022927208,0.00011322350125152372
-0.43245733912845025,-0.43245733912845025,0.9999120001315284,0.00011346673881950831
-0.4319209021909046,-0.4319209021909046,0.9999866278751419,0.0001135895773242054
-0.43137914889885,-0.43137914889885,0.9999437551849979,0.00011414596709635669
-0.4309313456644304,-0.4309313456644304,1.0001030929816417,0.00011385717617922646
-0.4304736471509386,-0.4304736471509386,1.0002210656331754,0.00011360344830353884
-0.4299150005535921,-0.4299150005535921,1.0000354032512155,0.00011323961948971558
-0.42935586939856873,-0.42935586939856873,0.9999223147583054,0.00011396266892488753
-0.4289944495722011,-0.4289944495722011,1.0001081950282062,0.00011344398365323218
-0.42855722655076534,-0.42855722655076534,0.9999853398439157,0.0001138523758099986
-0.4281625085488486,-0.4281625085488486,1.0000290841857886,0.00011344965017010306
-0.42761986253608486,-0.42761986253608486,0.9999836021877158,0.00011346400838228661
-0.4271621452418913,-0.4271621452418913,0.9999878161870963,0.00011309906532946782
-0.4264894027779519,-0.4264894027779519,1.000073670661898,0.00011427382634982195
-0.4260652840093826,-0.4260652840093826,0.999928151888916,0.00011361102514461684
-0.42560658179936584,-0.42560658179936584,1.0002595650650103,0.00011361920522205277
-0.42500565497466597,-0.42500565497466597,1.0001392985365702,0.00011309178880309026
-0.4243784499994945,-0.4243784499994945,0.9998191403053214,0.00011398246058633033
-0.4239635880483547,-0.4239635880483547,0.9999076591270223,0.00011340557008880233
-0.42359690761804814,-0.42359690761804814,0.999821721907636,0.00011384172217958229
-0.42321515464936965,-0.42321515464936965,1.0000664269186903,0.0001140762193892419
-0.4228159739934199,-0.4228159739934199,0.999901284782483,0.00011282237773010206
-0.4223292141061393,-0.4223292141061393,1.0001372857809603,0.00011322493850411601
-0.4219753523611871,-0.4219753523611871,0.9999940201322624,0.00011355915034653508
-0.42144218932080546,-0.42144218932080546,0.9999371912471713,0.00011424921844197678
-0.4210123838383879,-0.4210123838383879,1.0001502847403185,0.00011360602065921296
-0.42055066622851883,-0.42055066622851883,1.0000450704847037,0.00011361097675619347
-0.41995153618845504,-0.41995153618845504,1.0000563915385703,0.00011309390374286633
-0.4193307623179862,-0.4193307623179862,0.9997689590250799,0.0001139585869759221
-0.41899061832009465,-0.41899061832009465,1.0000295884753794,0.00011343668162373948
-0.41863274768256814,-0.41863274768256814,0.999924860021078,0.00011424260310602746
-0.41821189009060616,-0.41821189009060616,0.9999849903984025,0.00011369665873295741
-0.41775282848757345,-0.41775282848757345,0.9998770461521296,0.00011281778508627003
-0.41727506595489106,-0.41727506595489106,0.9999305670240897,0.00011346744416287384
-0.41687868726730815,-0.41687868726730815,1.0000073684027053,0.00011333791481047119
-0.4162415803933982,-0.4162415803933982,0.9998883353321985,0.0001142662517354144
-0.41577917314571095,-0.41577917314571095,1.0000334781771951,0.00011360067866698848
-0.4153049647138687,-0.4153049647138687,0.9999464334750204,0.00011347313872966196
-0.41475817408718285,-0.41475817408718285,1.0000422622032576,0.00011361609149658698
-0.41427794635601456,-0.41427794635601456,0.999915311133674,0.00011382505070445638
-0.41384126331540755,-0.41384126331540755,1.0001755876567682,0.00011345622970704498
-0.41340595970032157,-0.41340595970032157,0.9999525175181475,0.0001138587260133233
-0.4129994848284696,-0.4129994848284696,1.0000682624180395,0.00011346828440923812
-0.4123787902506592,-0.4123787902506592,1.0002127466730613,0.00011348668909139865
-0.4120101087944931,-0.4120101087944931,0.9999731008956079,0.00011331596225544002
-0.4114924536435865,-0.4114924536435865,0.9999227528028427,0.00011388868790881614
-0.4110148171974288,-0.4110148171974288,1.0000600730439209,0.00011363706603191664
-0.41051963690115373,-0.41051963690115373,1.000191758148144,0.00011400810075447197
-0.4100439096786431,-0.4100439096786431,1.000065127124019,0.00011311905790713688
-0.40941825417321526,-0.40941825417321526,0.9999692439506059,0.0001139810191436559
-0.40889197918222636,-0.40889197918222636,1.0000106026683317,0.00011384092809054727
-0.40850133945205014,-0.40850133945205014,0.999913386253367,0.00011422467045264389
-0.4081203297653701,-0.4081203297653701,0.9999121274688403,0.00011369461928287806
-0.40757578234843095,-0.40757578234843095,1.0000016288104645,0.00011322213393714066
-0.40710480209527306,-0.40710480209527306,1.000064387034726,0.00011309989351871551
-0.40664795923439667,-0.40664795923439667,1.0000417633493317,0.0001135628249236668
-0.40604993938541156,-0.40604993938541156,1.0001333629298599,0.0001140234449111156
-0.40558832672613787,-0.40558832672613787,0.9999488978441663,0.00011399524605533242
-0.40507968363162944,-0.40507968363162944,0.9999770465709983,0.00011309556639004894
-0.40436944418324855,-0.40436944418324855,0.9998726722870395,0.00011361289938847737
-0.4037672555328754,-0.4037672555328754,0.9999601276239412,0.00011384506427953895
-0.40330546358527497,-0.40330546358527497,1.0000061882385924,0.00011385582040396934
-0.4029427925233904,-0.4029427925233904,0.9999781523776328,0.0001134741344277569
-0.4023716440242424,-0.4023716440242424,0.9999564670103371,0.00011347850616701167
-0.40199206473043886,-0.40199206473043886,0.9999098338537176,0.0001130731284367332
-0.40147529068563015,-0.40147529068563015,0.999865036970844,0.0001137088503226273
-0.40093238394692887,-0.40093238394692887,1.0000570562187356,0.00011402521477822994
-0.4005357031768654,-0.4005357031768654,1.0000051293440364,0.00011398687980723645
-0.40011185794355697,-0.40011185794355697,1.0000477984029328,0.0001134498667122092
-0.39935702631191816,-0.39935702631191816,1.0000645535454753,0.00011339455138332816
-0.39870141085921207,-0.39870141085921207,1.000038059790932,0.00011387251297135373
-0.39815245219433565,-0.39815245219433565,0.9999874544052391,0.0001138622510824234
-0.3976783968777454,-0.3976783968777454,0.9997615506465639,0.00011344260622816885
-0.39703322596542423,-0.39703322596542423,0.9999190827303399,0.00011323228580134685
-0.39656550374857036,-0.39656550374857036,1.00000555662712,0.00011357985127143005
-0.39597842417133505,-0.39597842417133505,0.9999731265482168,0.00011439481637917218
-0.39556612190863233,-0.39556612190863233,0.9998624584724963,0.00011358946876870379
-0.39517589938841413,-0.39517589938841413,1.0000432175295284,0.0001139824444436994
-0.3947237655796926,-0.3947237655796926,1.000206355936329,0.00011324352437723422
-0.39404737761142317,-0.39404737761142317,1.0000842463115727,0.00011360826493273807
-0.39352369355547123,-0.39352369355547123,0.9999493951744508,0.0001140101852134515
-0.3930381698781275,-0.3930381698781275,1.0000198892826688,0.00011370340837827365
-0.39248121743730735,-0.39248121743730735,0.9999721246796481,0.00011360757760460305
-0.39189683772128775,-0.39189683772128775,1.0000032475336258,0.00011310285629910507
-0.39138652129549883,-0.39138652129549883,1.0000937568393087,0.00011372448849351635
-0.390929993824102,-0.390929993824102,0.9998736606181857,0.00011402948749238721
-0.3905471596815914,-0.3905471596815914,1.0001908461300837,0.00011344733726629025
-0.39017507651951744,-0.39017507651951744,0.9999138149800869,0.00011399247752864923
-0.3896313439065125,-0.3896313439065125,0.9999232565751044,0.0001128559939873719
-0.38890995776237103,-0.38890995776237103,0.9999315673015117,0.00011400586166919021
-0.38836678566076444,-0.38836678566076444,0.9998293550801476,0.00011391317695970864
-0.3879316434307839,-0.3879316434307839,0.999971766032463,0.00011384107427552754
-0.38727036663040054,-0.38727036663040054,0.9999738158318703,0.00011348177184204032
-0.3867542112115189,-0.3867542112115189,1.0000170080688613,0.00011308315671386884
-0.38623071550609894,-0.38623071550609894,1.000120396378614,0.00011348180627957738
-0.3858751164669229,-0.3858751164669229,1.00000614749204,0.00011439882442716717
-0.38549527234354175,-0.38549527234354175,1.0000139146529756,0.00011345338449830148
-0.38512067036135705,-0.38512067036135705,1.0000037703986817,0.00011398915272455862
-0.3845715749892406,-0.3845715749892406,0.9998362959817524,0.00011290249758377914
-0.3837828893934784,-0.3837828893934784,1.0000693263823428,0.00011384566874078827
-0.3833216731305583,-0.3833216731305583,0.9999126530872097,0.00011396366931989633
-0.38288005277063347,-0.38288005277063347,1.0000230643667547,0.00011382941543926668
-0.3822195679400465,-0.3822195679400465,1.0001520825282277,0.00011347392158413652
-0.3816995188310102,-0.3816995188310102,1.000053508993117,0.0001130791568807048
-0.38115275512609514,-0.38115275512609514,1.0000127513571853,0.00011349967733095371
-0.3806574838985398,-0.3806574838985398,1.0001188575401647,0.00011359269928124445
-0.38032271660049444,-0.38032271660049444,1.000144149089256,0.00011423948511640537
-0.37993241992080584,-0.37993241992080584,0.999902367132448,0.0001134820328482317
-0.379235632441123,-0.379235632441123,1.000078664862237,0.00011269004973008257
-0.37855434509110636,-0.37855434509110636,1.0001488469112658,0.00011403084022779972
-0.3780624545281171,-0.3780624545281171,1.000145455725232,0.00011411440924488536
-0.37760811436746733,-0.37760811436746733,0.9999746254957511,0.00011344257757453933
-0.37691198041866303,-0.37691198041866303,0.9999749461647538,0.00011347704153649603
