time,time,flux,flux_err
-0.49994743640127126,-0.49994743640127126,0.9999518694853125,0.00021707270010659025
-0.49984248834080064,-0.49984248834080064,1.0002067874701601,0.00021929171524779655
-0.49976721896091475,-0.49976721896091475,0.9999884142553505,0.00021912316920313801
-0.4996204660710646,-0.4996204660710646,0.999903319315932,0.0002513874787666576
-0.49953692367707847,-0.49953692367707847,0.9997590556784746,0.00023419866603704124
-0.49935474699886984,-0.49935474699886984,0.9999608927742744,0.00021857482341827483
-0.4992027990607312,-0.4992027990607312,0.999988304640094,0.0002253988729711167
-0.49911783391726205,-0.49911783391726205,1.0002284968030026,0.00023800733941071396
-0.49901906423619946,-0.49901906423619946,0.9999755345204087,0.00020768441796741987
-0.49894090578018224,-0.49894090578018224,0.9996601303995458,0.00022577402558516497
-0.4988635905407136,-0.4988635905407136,0.999809765312602,0.00020836884872353317
-0.49880269821733236,-0.49880269821733236,0.9999791317568925,0.00022261090185075161
-0.49863890023261775,-0.49863890023261775,0.9997735030522563,0.00021736277678063672
-0.49849279776972255,-0.49849279776972255,0.9996418016330137,0.00021861344501805424
-0.49832830455561633,-0.49832830455561633,1.0000884624344786,0.00020322829176768468
-0.49821152625372633,-0.49821152625372633,0.9998190801492092,0.0002613598930243378
-0.49809332053991967,-0.49809332053991967,1.0000516134656623,0.00023602560249369372
-0.49801492191036234,-0.49801492191036234,0.9998271166274287,0.0002247742392858185
-0.4979039865371305,-0.4979039865371305,1.0001368996191309,0.00021910319536092043
-0.4978255469293799,-0.4978255469293799,0.9998411811038098,0.00021059792126764242
-0.49770244177489076,-0.49770244177489076,0.9997715932764981,0.00022190895810406743
-0.49755989664699884,-0.49755989664699884,0.9996392011344607,0.00023458921331063467
-0.49742901578429155,-0.49742901578429155,0.9999973065694892,0.0002035765865248515
-0.49736398628447204,-0.49736398628447204,0.9999780845421959,0.00020978463205517634
-0.49721742934780194,-0.49721742934780194,1.0000301324416736,0.00022130899414359275
-0.4971217405516654,-0.4971217405516654,0.9999377607326071,0.00023461429537412963
-0.49701218293921556,-0.49701218293921556,1.0001426494534456,0.0002366818983485516
-0.49689583641884383,-0.49689583641884383,0.9999557754902069,0.00021139178853284477
-0.4967857350828126,-0.4967857350828126,1.0001294535030698,0.00025010168226760854
-0.4967357075482141,-0.4967357075482141,1.000075481326977,0.0002141752364476389
-0.4966422958037583,-0.4966422958037583,1.0002964902844096,0.0002274483741137281
-0.4964908974478021,-0.4964908974478021,1.0001198160308378,0.00020800349423612686
-0.49635599113535134,-0.49635599113535134,1.0002657459443935,0.00023353976801275162
-0.49628540985286235,-0.49628540985286235,0.9999629006952612,0.0002245783873519222
-0.4961123957415111,-0.4961123957415111,0.9998460293008744,0.00022956131449553265
-0.4959683604509337,-0.4959683604509337,1.00013073318428,0.00022558622802288657
-0.4958402788150124,-0.4958402788150124,1.000379284931776,0.00021812785951039887
-0.4957239909330383,-0.4957239909330383,0.999744282054781,0.00023476424697917823
-0.49551182518480347,-0.49551182518480347,1.0000082160155714,0.00021703587869109764
-0.4954127475823043,-0.4954127475823043,1.0005109133348622,0.00021927040653173588
-0.49534931770467666,-0.49534931770467666,0.9998827283571744,0.0002190907890857545
-0.49518936762178783,-0.49518936762178783,1.000328014389686,0.000251423217925591
-0.4951145975006511,-0.4951145975006511,1.0002531885693033,0.0002452350096225165
-0.4949330624309368,-0.4949330624309368,1.0001684663542314,0.00021866708739828877
-0.4947798434412107,-0.4947798434412107,0.9997953347601751,0.00022525532204661162
-0.49469137108244465,-0.49469137108244465,0.9999096929861958,0.0002218959965746707
-0.4945960775599815,-0.4945960775599815,0.9998881479716273,0.0002172262288934355
-0.49452153203310445,-0.49452153203310445,1.000071458648577,0.0002186838640731526
-0.49444394823512994,-0.49444394823512994,1.0000752116116418,0.00022158339314962762
-0.49437115124601405,-0.49437115124601405,0.9998519695903836,0.00021971269850885276
-0.4941899663681397,-0.4941899663681397,1.000073851426368,0.0002206580533598337
-0.49400357546110174,-0.49400357546110174,1.0001434172364323,0.0002177592227282421
-0.49382618608360646,-0.49382618608360646,1.0000281535323032,0.00024553179169275406
-0.4936934092955198,-0.4936934092955198,0.9999858330965115,0.00022651097500890103
-0.493614282461931,-0.493614282461931,0.9999422641576533,0.00025448234705691684
-0.4934902875625994,-0.4934902875625994,0.9996588788549449,0.00021882975596106296
-0.49341431191714946,-0.49341431191714946,1.0002249972747872,0.00019669997475451535
-0.49331764827948066,-0.49331764827948066,0.9999766475443636,0.00022250592350762854
-0.49315442141378296,-0.49315442141378296,0.9999655530618711,0.0002248783351402576
-0.4930158066155855,-0.4930158066155855,1.0002649289086327,0.0002107717419378129
-0.49295267038687596,-0.49295267038687596,0.9999146780295473,0.0002023738595438902
-0.4928401308949105,-0.4928401308949105,0.9999679164765028,0.00021731070028764343
-0.4927547186263837,-0.4927547186263837,1.0002504579649225,0.00021270447823643112
-0.49266611704370006,-0.49266611704370006,1.000328868227177,0.00024177735277644362
-0.4925679502543062,-0.4925679502543062,0.9998243795621411,0.00023645489532344183
-0.4924143727432238,-0.4924143727432238,1.0000857350729615,0.00023338508741472174
-0.4923179798846832,-0.4923179798846832,0.9998700147910091,0.00023057815944957732
-0.49227866808359977,-0.49227866808359977,1.0002903998754948,0.0002246831121815165
-0.4921587165910751,-0.4921587165910751,0.999966482722134,0.00020726962306050062
-0.4920021485420875,-0.4920021485420875,0.9998500231582546,0.00021934002396801675
-0.49187967818288597,-0.49187967818288597,0.99987099185575,0.00023224924830025657
-0.4918076345900772,-0.4918076345900772,1.000153644355071,0.00021090653977732824
-0.4915947004541522,-0.4915947004541522,1.0000447313222467,0.00024146418265361957
-0.49148277324275114,-0.49148277324275114,0.9999438602238915,0.00022372634854982287
-0.4913620638952125,-0.4913620638952125,1.0003568997987213,0.00022919584866187625
-0.49126717572216877,-0.49126717572216877,0.9998612878889004,0.00021623727808767445
-0.49106375985429623,-0.49106375985429623,1.0000003112962852,0.00021555400818253225
-0.49096566847292705,-0.49096566847292705,0.9999869843246308,0.0002194255214673711
-0.49090227982087525,-0.49090227982087525,1.0000658057108776,0.00023012974100743603
-0.4907582790066954,-0.4907582790066954,1.0000345849272056,0.0002514247861093928
-0.49066000258608256,-0.49066000258608256,1.0000244351799183,0.0002330272033960364
-0.49049985757737885,-0.49049985757737885,0.9998637116557656,0.0002080935535096009
-0.49035535138391423,-0.49035535138391423,0.9996629682510989,0.0002321092409749973
-0.49024184469599275,-0.49024184469599275,1.0002454379384198,0.00023557900728327338
-0.4901202392327832,-0.4901202392327832,0.9998062556957242,0.00021511570682042374
-0.4900593553291401,-0.4900593553291401,1.0000188649511976,0.00022210733796016287
-0.48997409259318375,-0.48997409259318375,0.9999783735945519,0.00021945657841170046
-0.48985380635713227,-0.48985380635713227,0.9997952109792626,0.0002101805493999633
-0.4896882122033276,-0.4896882122033276,0.9999357261161099,0.0002394825282612434
-0.4895442221313715,-0.4895442221313715,0.9999272566633183,0.00021386701111327685
-0.48940542911586815,-0.48940542911586815,0.9999450952456191,0.0002366632164948909
-0.48929242366575637,-0.48929242366575637,1.0000986475213447,0.00024243711714775785
-0.48921705135144294,-0.48921705135144294,0.9997914195794511,0.0002355595690294964
-0.4891071506688604,-0.4891071506688604,1.0002222491508992,0.00022314530348374923
-0.4889992567943409,-0.4889992567943409,1.0003113642601078,0.00020805935801996108
-0.48890781099617014,-0.48890781099617014,0.999900064385524,0.00022053175462386767
-0.48874699664884247,-0.48874699664884247,0.9996846407405251,0.0002165023178279333
-0.48859818453202025,-0.48859818453202025,0.9997896857739086,0.00021929385244681194
-0.48854506997449787,-0.48854506997449787,0.9996088103635913,0.00020140226943754193
-0.48842994459555483,-0.48842994459555483,0.999924336868764,0.0002112348386820161
-0.48834848091646565,-0.48834848091646565,0.999813960441505,0.00019567556148982146
-0.48826395195792427,-0.48826395195792427,0.9999408514646108,0.00024439894651271695
-0.48818264420260676,-0.48818264420260676,1.0001376931335528,0.00021435159193142783
-0.4881013966660248,-0.4881013966660248,1.000022131133162,0.0002332816411302503
-0.4879687785753049,-0.4879687785753049,0.9998993394308352,0.0002428969102196909
-0.48788127696316225,-0.48788127696316225,0.99996089457507,0.0002281134941384405
-0.48783886947785504,-0.48783886947785504,1.0001439923142812,0.000227919668326243
-0.4877092797367368,-0.4877092797367368,0.9998345625621068,0.00020638813617453403
-0.48752762892690954,-0.48752762892690954,0.9999632356495114,0.00023131590283740881
-0.4874283487530192,-0.4874283487530192,0.9998478173541893,0.00022047445744758777
-0.48734586401842533,-0.48734586401842533,0.9998114066317848,0.00023403845572567898
-0.48715206199558453,-0.48715206199558453,1.0000590832516547,0.00020702067863213172
-0.48704839767306113,-0.48704839767306113,1.0000244444248954,0.00023529320631406877
-0.48692477274453266,-0.48692477274453266,0.9999616867813884,0.00022914641984077248
-0.4868050244433107,-0.4868050244433107,0.9998716920677817,0.00022513444148904572
-0.48663607362832406,-0.48663607362832406,0.9996972996713052,0.00021121101066463445
-0.4865414261177648,-0.4865414261177648,1.00011019735541,0.00022670679920815847
-0.4864686934364727,-0.4864686934364727,0.9997778783262193,0.00023850437563419834
-0.4863271180802258,-0.4863271180802258,0.9997092668461167,0.0002405934983625231
-0.4861985218769405,-0.4861985218769405,1.0001453424017206,0.0002192803023014146
-0.486008479152224,-0.486008479152224,0.9998304286387072,0.00024265043997712756
-0.48589584446162914,-0.48589584446162914,0.9997656879372236,0.00022465567986665514
-0.48574564534064846,-0.48574564534064846,1.0001085201080175,0.00021292139922474937
-0.4856586309848353,-0.4856586309848353,1.0003340011964146,0.0002186783096260307
-0.48560097574663813,-0.48560097574663813,1.000313577953751,0.00022372984483456216
-0.4855135938327294,-0.4855135938327294,0.999911141353879,0.00022020842893067318
-0.48538410087057854,-0.48538410087057854,1.000199826660656,0.00022580116735340842
-0.4851602600887418,-0.4851602600887418,0.9999881108304066,0.00023658098032650703
-0.4850500180298695,-0.4850500180298695,0.9999681718883127,0.00023136762264642645
-0.4848769768490456,-0.4848769768490456,0.9998850112740924,0.00023523200474538718
-0.48480876815738155,-0.48480876815738155,1.0001453378977718,0.00024406339096168873
-0.4847526368801482,-0.4847526368801482,0.9999840798813109,0.00023384575349867475
-0.4846525917062536,-0.4846525917062536,0.9996769988813294,0.0001988390783225976
-0.48454772067489105,-0.48454772067489105,1.0000042261284172,0.0002080426359783258
-0.4844633581436938,-0.4844633581436938,0.9999362926856288,0.00023338535376846666
-0.4842948070960119,-0.4842948070960119,1.0000424504516152,0.00022251609322621003
-0.48416509560192933,-0.48416509560192933,1.0006198688556778,0.0002087577163557124
-0.48408705386100337,-0.48408705386100337,1.0000283970645445,0.00020556668023740985
-0.4839741426956607,-0.4839741426956607,1.0001659248858163,0.00021911636814600228
-0.48385741421661804,-0.48385741421661804,1.0000826190789485,0.00021367708236012575
-0.4837811970442999,-0.4837811970442999,1.0003092332603931,0.00024398458372440232
-0.4837001112435246,-0.4837001112435246,1.0001215948658049,0.00023406814378082048
-0.48355718377279117,-0.48355718377279117,1.000072701570589,0.00023344534489480847
-0.48343735046510117,-0.48343735046510117,0.9999543337555016,0.00024279233025473177
-0.48338673094986007,-0.48338673094986007,1.000014596861996,0.0002120920451074849
-0.48325410807156005,-0.48325410807156005,0.9999068015147685,0.0002063783252525602
-0.4830697154160589,-0.4830697154160589,0.9999229547420949,0.00023136590917203405
-0.48297275075747165,-0.48297275075747165,0.9996754009236503,0.00023276251221125281
-0.48283604090684096,-0.48283604090684096,1.0000646859952098,0.00022325780317773323
-0.48267212687351274,-0.48267212687351274,0.9998981534802942,0.00022308100849749882
-0.4825638084555976,-0.4825638084555976,1.0000627277051373,0.0002229286400801125
-0.4824529518838972,-0.4824529518838972,0.9999134596580163,0.00022622722892614192
-0.48229559005994815,-0.48229559005994815,1.0002689856313225,0.00023612456197019243
-0.4821660984656774,-0.4821660984656774,1.0001263195968586,0.00020220977508947748
-0.48209752673865297,-0.48209752673865297,1.0000320762386736,0.00023173299622998534
-0.4819697624450782,-0.4819697624450782,1.0001119532465137,0.0002542676244625616
-0.48185499194660225,-0.48185499194660225,1.000331901916724,0.0002146459690663104
-0.48173337960324714,-0.48173337960324714,0.999975359495928,0.0002314164414766914
-0.4815852711704792,-0.4815852711704792,0.9998109056486575,0.00022148108161574237
-0.48146753092005384,-0.48146753092005384,0.9998035032629444,0.00023547058227367718
-0.48128348505415486,-0.48128348505415486,0.9997218775871557,0.0002212577164128906
-0.4812171817146009,-0.4812171817146009,0.9996653051087856,0.00021081799730461598
-0.4811426331580151,-0.4811426331580151,0.999772815037179,0.00022649071355453906
-0.4810284274630249,-0.4810284274630249,1.000331754643001,0.00023006262823162404
-0.48084047611628195,-0.48084047611628195,1.000107050921018,0.00022890586521682695
-0.48066041321144437,-0.48066041321144437,1.0001465027391434,0.00020575259002831363
-0.4804754832672188,-0.4804754832672188,1.0000382395356917,0.00024327382164621782
-0.4804000641743187,-0.4804000641743187,1.0001987682253084,0.0002459235396538149
-0.4803347460954683,-0.4803347460954683,1.0001207766772189,0.00024270422968288664
-0.4802272236614954,-0.4802272236614954,1.0002810264727744,0.00019776685683655892
-0.4801166555495001,-0.4801166555495001,1.0003656484092838,0.00022085510382421135
-0.4800128520699218,-0.4800128520699218,0.9999784233109251,0.00021021064317771598
-0.4798241301992675,-0.4798241301992675,0.9998560250798276,0.0002217912580066644
-0.47971028479223604,-0.47971028479223604,1.000082542907915,0.00021221841122359887
-0.4796172469708836,-0.4796172469708836,1.0003244335724841,0.00020316874507784032
-0.479491644675727,-0.479491644675727,1.0003191426269766,0.0002118623376857609
-0.4793894021218875,-0.4793894021218875,1.000211642005186,0.00023189487999637223
-0.4793159100023331,-0.4793159100023331,1.000332941689099,0.00022532926848690786
-0.47926055795396677,-0.47926055795396677,1.0000238010698124,0.00023329701033075233
-0.47909603561565745,-0.47909603561565745,1.0005457024948616,0.00022345545788168188
-0.4790108737826813,-0.4790108737826813,0.9999806514439736,0.00024275410639500034
-0.4789459413732402,-0.4789459413732402,1.0001863719475668,0.00022036549390303282
-0.478859464082052,-0.478859464082052,0.9999410673072375,0.0002225232663238054
-0.47867412338091525,-0.47867412338091525,1.0001403570102265,0.00022861586224738424
-0.478549120464595,-0.478549120464595,1.0002480425867772,0.00021322895929033872
-0.47844418624881657,-0.47844418624881657,1.0001427624837373,0.0002435663400016367
-0.4782724262942793,-0.4782724262942793,1.0000317351583259,0.00021145592449423105
-0.47816044073842934,-0.47816044073842934,0.9999816672095163,0.00023920131464511257
-0.4780558195459889,-0.4780558195459889,0.9998097920189559,0.0002265445750806821
-0.47793108207988555,-0.47793108207988555,0.9998126954994391,0.00021450585731230872
-0.47778547383495606,-0.47778547383495606,0.9998762639172583,0.0002245856670864778
-0.4776916428440018,-0.4776916428440018,1.0001287523666051,0.00022320884200312716
-0.4776087123726029,-0.4776087123726029,1.0000160184785831,0.0002417809484236244
-0.47745683629764246,-0.47745683629764246,0.9998637299366718,0.0002365501512367732
-0.47735088542976883,-0.47735088542976883,0.9998418014050966,0.00022361512905462948
-0.4771973097027512,-0.4771973097027512,0.9997018990089753,0.0002320268372158417
-0.47707228861690965,-0.47707228861690965,0.9999461857359833,0.00021224178160990115
-0.47692395552876404,-0.47692395552876404,1.000328354033898,0.0002364260432048524
-0.4767981029348448,-0.4767981029348448,1.0002072889359048,0.00021304471397018263
-0.4767511657788418,-0.4767511657788418,1.0000755760226536,0.00020842430389481371
-0.4766216188465478,-0.4766216188465478,0.9999422332844212,0.00023962672974107047
-0.476490731787635,-0.476490731787635,1.0001300047857236,0.00021964511574944272
-0.47628815535863395,-0.47628815535863395,1.000018642282654,0.00022632465326971087
-0.476110146913561,-0.476110146913561,0.999816477281613,0.000236576722971009
-0.47597515350207686,-0.47597515350207686,1.0000159762753023,0.00025308683492528616
-0.4759241941268556,-0.4759241941268556,0.9999817161401623,0.00024385508984783375
-0.47584731894603466,-0.47584731894603466,0.9999538808578222,0.00019725836293274323
-0.47573107259522657,-0.47573107259522657,1.0000471330623664,0.00021121947428448675
-0.47563804731180426,-0.47563804731180426,0.9998473608638637,0.00021476417287248032
-0.4755083643452963,-0.4755083643452963,1.0004048151807323,0.00021124223839396467
-0.4753103528812062,-0.4753103528812062,0.9997329425288196,0.00021935804949073623
-0.47521652769937645,-0.47521652769937645,0.9997792548847162,0.00020307821456916326
-0.47512001171999146,-0.47512001171999146,0.9998560559515581,0.00021051655944016252
-0.47499166894122025,-0.47499166894122025,0.9998266908508402,0.0002242248439270182
-0.47491299772809725,-0.47491299772809725,0.999787995376343,0.0002222739528698033
-0.4748346900276374,-0.4748346900276374,0.9998209197603277,0.0002448357957912428
-0.47466678006167057,-0.47466678006167057,0.9999285296090052,0.00023243603061390218
-0.4745679966028547,-0.4745679966028547,0.9999799261461424,0.00024411310988208464
-0.4744655311485985,-0.4744655311485985,0.9997686415901906,0.00021540784030198599
-0.47428607652254867,-0.47428607652254867,0.9998407964729144,0.0002254727236736456
-0.47413387379201594,-0.47413387379201594,0.9999753193817005,0.0002138780059462417
-0.47404154532123355,-0.47404154532123355,1.0002959756178114,0.00025324573317448004
-0.4738895349495579,-0.4738895349495579,1.000026042756212,0.00020378430522186787
-0.47373837350460235,-0.47373837350460235,0.9999930727794608,0.00022380024964426207
-0.47368988691887354,-0.47368988691887354,0.9999882555474308,0.00023771399308601958
-0.4735905748180812,-0.4735905748180812,1.00017364841321,0.00020394420249770015
-0.4734651983279036,-0.4734651983279036,0.9999246019900176,0.00022663132814737514
-0.4733344677486457,-0.4733344677486457,1.0003257791439115,0.00021119563738470688
-0.47325518625439145,-0.47325518625439145,1.0001791331254193,0.00022685396071768027
-0.47314287643530406,-0.47314287643530406,0.9998790399013291,0.00025913381048547944
-0.4730206752516096,-0.4730206752516096,0.9996672521562315,0.00021536028239913454
-0.472902423152118,-0.472902423152118,1.0001836310066559,0.00021380229217534907
-0.47271875335136426,-0.47271875335136426,1.0003362698878022,0.00024156509182442714
-0.4725986723380629,-0.4725986723380629,1.000007661100559,0.00022436670674925188
-0.47241215052781627,-0.47241215052781627,0.9997270679851219,0.00021766357310914214
-0.47235697458963843,-0.47235697458963843,1.0001626426762396,0.00021310689036832222
-0.47225744943134484,-0.47225744943134484,0.9997435987384999,0.0002209941225988681
-0.4721416645857971,-0.4721416645857971,0.9999068038112492,0.0002348832090562805
-0.4719570416782517,-0.4719570416782517,0.9999510583206386,0.00023368189494399366
-0.47179486938402987,-0.47179486938402987,0.9999460424298998,0.0002266517450065674
-0.47159668895765205,-0.47159668895765205,1.0002776238708107,0.00023543007526645273
-0.4715128090901999,-0.4715128090901999,1.0002048963382246,0.00025489795954519967
