time,time,flux,flux_err
-0.49965194675314706,-0.49965194675314706,0.9998736234208387,0.0002658939374625554
-0.4986721062021388,-0.4986721062021388,1.0002720032645662,0.00027069268578631836
-0.49765405479774927,-0.49765405479774927,0.9998735787728883,0.0002655712941963382
-0.49722329540818466,-0.49722329540818466,0.9998415562777533,0.00026587249079517664
-0.49613682367562434,-0.49613682367562434,1.0001192308052638,0.0002650870736794491
-0.49455113006188184,-0.49455113006188184,0.9993965894266645,0.00026659113709526255
-0.49303082324477143,-0.49303082324477143,1.0000500690746619,0.00026496483245632525
-0.4918227765883785,-0.4918227765883785,1.000065621417744,0.00026625907093737303
-0.4908791768459196,-0.4908791768459196,0.9999064568153008,0.00026517909154804724
-0.4900160686658637,-0.4900160686658637,1.0000993292892268,0.0002647174648962961
-0.4888375217917201,-0.4888375217917201,1.000057894510461,0.0002656052197376771
-0.4866389250142674,-0.4866389250142674,1.000201303696008,0.00026582291252957326
-0.4846282167251047,-0.4846282167251047,0.9998790524686244,0.00026680676642063694
-0.4826300507040287,-0.4826300507040287,1.0002296356541138,0.00026594954112938547
-0.4806194019249233,-0.4806194019249233,0.9999803862588639,0.0002653088257123867
-0.47905488559044895,-0.47905488559044895,0.9999659265562316,0.0002647964411529536
-0.4768164043976867,-0.4768164043976867,1.0000537681047867,0.000265222222903643
-0.4752364305444644,-0.4752364305444644,1.0003063954431934,0.00026543207691878717
-0.47429906506004044,-0.47429906506004044,1.000128474196178,0.00026571920400332105
-0.47332633991536566,-0.47332633991536566,0.9999041702196212,0.0002650554172564793
-0.4724192191097245,-0.4724192191097245,1.0000036360883062,0.0002654530203433043
-0.47147529105859576,-0.47147529105859576,1.0001312623555623,0.00026512278858800616
-0.47021062280764453,-0.47021062280764453,1.0006912585789594,0.00026598787651396576
-0.468991502992867,-0.468991502992867,1.0003964444807805,0.00026479983046788047
-0.46779887685625,-0.46779887685625,1.000064196382725,0.0002664661525308655
-0.46658827834253314,-0.46658827834253314,0.9998431152385366,0.0002653359992005471
-0.4658717971928127,-0.4658717971928127,0.9999106991196431,0.0002650776611931453
-0.4650167697087454,-0.4650167697087454,1.00023546963214,0.0002650135547910558
-0.46343781424875485,-0.46343781424875485,1.0004533523997385,0.000265354815801979
-0.4612635717377998,-0.4612635717377998,0.9999256614919089,0.0002663108107632269
-0.4585278099497373,-0.4585278099497373,0.9998808200623289,0.0002661767329644713
-0.45676236404469817,-0.45676236404469817,1.0003270095022554,0.00026491763026360025
-0.45505723104724893,-0.45505723104724893,1.000214202339223,0.0002654560184764994
-0.453678364672669,-0.453678364672669,1.0002679053311665,0.0002665519425803457
-0.45187744363211096,-0.45187744363211096,0.9999958386299005,0.0002654997373796405
-0.4506891493707371,-0.4506891493707371,1.000125744186444,0.0002655612066465162
-0.4500876581012562,-0.4500876581012562,1.0000419305926926,0.0002657543392178729
-0.44906745110201884,-0.44906745110201884,1.000420023363087,0.00026460373853946887
-0.4481394705937419,-0.4481394705937419,1.0001077858546066,0.000265312763152928
-0.4464661686688487,-0.4464661686688487,0.9998652869446192,0.0002665020034172743
-0.4451037596758397,-0.4451037596758397,1.0001629594975645,0.00026544997323996427
-0.4436260393995326,-0.4436260393995326,1.0001080316668831,0.00026541400741290634
-0.4426698558134376,-0.4426698558134376,1.000249216739895,0.00026557430635825504
-0.44178638873345333,-0.44178638873345333,0.999995287244077,0.0002645662365357929
-0.4411736220732564,-0.4411736220732564,0.9998662304525533,0.0002655171875091612
-0.4403744862829626,-0.4403744862829626,1.0003229029395113,0.00026499693191937374
-0.4390904513085843,-0.4390904513085843,0.9999195403614562,0.0002650902596579596
-0.4375094942632131,-0.4375094942632131,1.0000496608404497,0.0002655553031798021
-0.43567509955901185,-0.43567509955901185,1.0000453589006337,0.00026646878424165166
-0.43377782201059745,-0.43377782201059745,1.0002228586776092,0.0002654007495444423
-0.43201090122238384,-0.43201090122238384,0.9998430369863401,0.0002653270750908704
-0.42989322497014654,-0.42989322497014654,0.9997874542183233,0.0002658506474952676
-0.4278631895198487,-0.4278631895198487,1.000232594637009,0.00026521485947959497
-0.4260274246786139,-0.4260274246786139,0.9998900015946592,0.00026562717098037417
-0.4251228530636581,-0.4251228530636581,1.0002647931099318,0.0002653062627775913
-0.42435883597499924,-0.42435883597499924,1.000504612620801,0.0002651740627883851
-0.4235277354702703,-0.4235277354702703,1.0001385557671312,0.0002656608735251792
-0.422427723833971,-0.422427723833971,1.0004818705280167,0.0002659588586397783
-0.4205497206065047,-0.4205497206065047,1.0002934657124136,0.00026466980929131813
-0.41837544630034246,-0.41837544630034246,0.9999957921925701,0.0002648576298145115
-0.41728355227824065,-0.41728355227824065,0.9998001989969098,0.0002652594678333168
-0.4165884304922656,-0.4165884304922656,0.9992677423563748,0.0002654014117494226
-0.4158845661055238,-0.4158845661055238,0.9999070658918263,0.0002648514514925889
-0.41400066519345274,-0.41400066519345274,0.9999039027077968,0.00026516072714424246
-0.4126164291279565,-0.4126164291279565,1.000328608218653,0.0002659997868699283
-0.411167594393919,-0.411167594393919,1.000032753904851,0.00026672623871425616
-0.409232869920379,-0.409232869920379,1.000026354827424,0.0002647416986174435
-0.40787300952069927,-0.40787300952069927,1.0001658903679171,0.00026455894692679975
-0.40602888155044636,-0.40602888155044636,0.9998170642267865,0.0002658627902456467
-0.4045823887929146,-0.4045823887929146,1.0000843760139946,0.0002665879229464774
-0.4029981325234985,-0.4029981325234985,1.0003881833287542,0.00026543247986699815
-0.4016033905718359,-0.4016033905718359,1.0000349679973752,0.0002650197039932425
-0.40049421963340137,-0.40049421963340137,1.0001274951029147,0.00026630997651011333
-0.3999592424988805,-0.3999592424988805,1.000042836185504,0.0002660056429194166
-0.3993477139265451,-0.3993477139265451,1.0001919499874479,0.00026560623255811127
-0.39846434805804165,-0.39846434805804165,0.9997263942816412,0.00026543477512511366
-0.397014576044603,-0.397014576044603,1.0000560833090075,0.0002666600200474693
-0.39564494148798984,-0.39564494148798984,1.000147075988292,0.0002650964356737755
-0.3944073418417247,-0.3944073418417247,1.0001290185521252,0.0002666659393238904
-0.3933432468067622,-0.3933432468067622,0.9995192626248125,0.0002651451993251787
-0.392319524098275,-0.392319524098275,0.9995489381519576,0.00026483881493825673
-0.39105075193583616,-0.39105075193583616,1.0003403070561963,0.0002660963235215796
-0.38871861181178247,-0.38871861181178247,1.0000851970239328,0.0002658147706086994
-0.38756080708699303,-0.38756080708699303,1.000372949038657,0.0002656847133740192
-0.38575629554470653,-0.38575629554470653,0.9999255910678988,0.00026587674481265986
-0.38354090268039726,-0.38354090268039726,1.0002596449645804,0.00026568044700148446
-0.3802792238377151,-0.3802792238377151,0.9996761231549242,0.0002654086754067267
-0.3782736977416789,-0.3782736977416789,0.999983877678487,0.00026445844576495226
-0.37698731942800806,-0.37698731942800806,0.9998928457309251,0.0002657750517249839
-0.3759903782207402,-0.3759903782207402,1.0005885223315165,0.0002656444231323806
-0.37516411535543737,-0.37516411535543737,1.0004008912196385,0.0002650583788331148
-0.3740303370912443,-0.3740303370912443,1.00013339915324,0.000264664349549195
-0.37283893177518623,-0.37283893177518623,1.0000975254515485,0.0002656622410557411
-0.37142439775634556,-0.37142439775634556,0.9997693821314524,0.0002647113038571011
-0.37043347277140126,-0.37043347277140126,0.9999700786096538,0.0002658645762074306
-0.3695843861089088,-0.3695843861089088,1.0001797500010574,0.0002672207420371236
-0.36870492758462203,-0.36870492758462203,1.0000966552850448,0.0002647578732070479
-0.36786972198751755,-0.36786972198751755,1.0002604399158561,0.00026467151211386115
-0.36657083418613184,-0.36657083418613184,1.0001945552058602,0.00026495232162829875
-0.36468670667600234,-0.36468670667600234,0.9998951679977186,0.0002660398722282885
-0.36205108411450054,-0.36205108411450054,1.0002784706243637,0.00026601758246353705
-0.3600416665271041,-0.3600416665271041,1.0002595782517214,0.0002651338279643278
-0.35752124061764334,-0.35752124061764334,0.9999569694398543,0.000265476242768873
-0.35608175460147323,-0.35608175460147323,0.9999732250326853,0.0002660736255162665
-0.35434151706722333,-0.35434151706722333,1.0001366979255208,0.0002654975824771841
-0.35300432542644555,-0.35300432542644555,1.0000664780880841,0.00026579766350051057
-0.3523476232869143,-0.3523476232869143,0.9997087793493948,0.0002657359514382889
-0.3515160494753218,-0.3515160494753218,1.0003394440333153,0.00026471283988177796
-0.3506034701022145,-0.3506034701022145,0.9998438312185872,0.00026528654124410655
-0.3489299590328301,-0.3489299590328301,1.0001330214251778,0.00026653947161104226
-0.3474661042120715,-0.3474661042120715,0.9997685393672413,0.00026549192971193236
-0.34639401834792805,-0.34639401834792805,0.999933198147238,0.00026613373559131523
-0.345314905881969,-0.345314905881969,1.0001798921395417,0.00026535369638718947
-0.3442505757899198,-0.3442505757899198,1.0004441501462866,0.000264594750154686
-0.34365404353375195,-0.34365404353375195,1.000087453081685,0.0002653054096770933
-0.34283871148800243,-0.34283871148800243,1.0003053760274514,0.0002650066732962431
-0.34175856245346947,-0.34175856245346947,1.0004650393649073,0.0002658446835105094
-0.3407908055851294,-0.3407908055851294,0.9998215838265667,0.0002651491212272488
-0.33924001468840287,-0.33924001468840287,1.000340967073686,0.0002655716006969071
-0.3372163493382686,-0.3372163493382686,1.0001476514030845,0.00026610368593718646
-0.3352005205968453,-0.3352005205968453,1.0000679198589144,0.0002653430226651257
-0.333157276862039,-0.333157276862039,1.0004286269487828,0.0002655970477902849
-0.3313512217413518,-0.3313512217413518,1.0000235828408424,0.0002659965527784153
-0.32985879147599917,-0.32985879147599917,0.9999195648894137,0.0002655650533196618
-0.3283350088640873,-0.3283350088640873,0.9999997608152211,0.0002655958489883859
-0.3275865805306239,-0.3275865805306239,0.9998077888086829,0.0002652631889269206
-0.32682304350164487,-0.32682304350164487,1.0000516410902625,0.0002651608599659817
-0.32614944949164054,-0.32614944949164054,1.0000091153217163,0.00026553177010136967
-0.32536851217373625,-0.32536851217373625,0.999785625587298,0.0002652191043251807
-0.3236976678614155,-0.3236976678614155,0.9999573901397536,0.0002656980498533455
-0.3219898502313299,-0.3219898502313299,0.9997456955403117,0.0002650437194556235
-0.3204480517102638,-0.3204480517102638,0.9999001024392207,0.00026517268405771573
-0.31936873265876786,-0.31936873265876786,1.0003054905211861,0.00026493062903224044
-0.3188156309486658,-0.3188156309486658,0.99996658923837,0.00026494361304713645
-0.31746507703137467,-0.31746507703137467,1.0002063970944337,0.0002657296018342517
-0.3155213323654607,-0.3155213323654607,1.00028538347176,0.0002655830497698936
-0.31333113785003663,-0.31333113785003663,1.0004402008440212,0.00026680953498032264
-0.3114921753476665,-0.3114921753476665,0.999727691339702,0.00026524014298656944
-0.30981176560671886,-0.30981176560671886,1.000147738536364,0.0002645820309834534
-0.308079039506265,-0.308079039506265,1.0003689629578307,0.00026610802350183246
-0.30676230185854364,-0.30676230185854364,1.00014564551454,0.00026515503738289316
-0.3050210992194479,-0.3050210992194479,1.000095637917121,0.0002652033733874791
-0.3036183164382237,-0.3036183164382237,0.9998331557303267,0.0002660304080325899
-0.3025865860574413,-0.3025865860574413,0.9996688460729366,0.0002654644461464496
-0.302150489763153,-0.302150489763153,1.0001839232717817,0.0002658886752144771
-0.301315975948819,-0.301315975948819,1.0001606011188113,0.0002654665624027703
-0.3004997323230782,-0.3004997323230782,1.0003197356105584,0.0002660385575917187
-0.2993359796979348,-0.2993359796979348,1.0002744032215456,0.0002666833487742159
-0.29788959034267465,-0.29788959034267465,1.0000754587926437,0.00026533497201410494
-0.2965251392881328,-0.2965251392881328,1.0001153128496272,0.000266201690739251
-0.2954492274780932,-0.2954492274780932,0.9999434392780089,0.00026571484382546405
-0.29480695399979595,-0.29480695399979595,1.000438264884797,0.00026452223455880727
-0.29376525163825135,-0.29376525163825135,0.9998804357564257,0.0002656092593533748
-0.2917320205800934,-0.2917320205800934,0.9998737145854448,0.0002663623216202347
-0.28964737166606935,-0.28964737166606935,1.0003348905951701,0.00026653186381823724
-0.2873133714929281,-0.2873133714929281,1.000143316758305,0.0002651369690470907
-0.2853339765373676,-0.2853339765373676,0.999900839668077,0.0002652596316398629
-0.2821746065746993,-0.2821746065746993,0.9999730824073343,0.0002655539854138573
-0.28062938975635915,-0.28062938975635915,0.9999747608979168,0.00026477437294489476
-0.27945129065046787,-0.27945129065046787,0.9998425814939284,0.00026577075036918966
-0.27845460734533845,-0.27845460734533845,0.9999098760063869,0.00026559984730107646
-0.27771211425133513,-0.27771211425133513,0.9998146613849741,0.00026540935901237927
-0.2767672308342298,-0.2767672308342298,1.000226535054657,0.00026431108108608623
-0.2755991476784402,-0.2755991476784402,1.0000260442990188,0.0002655179007363538
-0.27407606363267406,-0.27407606363267406,0.9999074119185389,0.0002649148534620721
-0.27268794418196196,-0.27268794418196196,1.0001617840748733,0.00026647176615967184
-0.2717549187495024,-0.2717549187495024,0.9998001075429732,0.000266001235576472
-0.2709971351760032,-0.2709971351760032,0.9998402868777061,0.0002651399308704635
-0.27012572118110256,-0.27012572118110256,0.9996124781110121,0.00026466091397774673
-0.267973272697418,-0.267973272697418,0.9998805568892379,0.00026547382120942507
-0.2661186726567394,-0.2661186726567394,0.9997553397900271,0.00026646741959487544
-0.2638838545331964,-0.2638838545331964,1.0001860377094685,0.00026578326144473653
-0.2605551359411038,-0.2605551359411038,1.0000377464459518,0.0002649719602959261
-0.2588752266165102,-0.2588752266165102,1.000255997198506,0.00026584806735663487
-0.25736791051604085,-0.25736791051604085,0.9998467704990374,0.00026620337191277555
-0.2562038298543484,-0.2562038298543484,1.0001504532576786,0.00026508218764355795
-0.25511784224509026,-0.25511784224509026,1.0004021829689205,0.00026586818813275476
-0.25414150027863797,-0.25414150027863797,1.0000143522832516,0.00026499126876525345
-0.25327856634685303,-0.25327856634685303,0.9996768155640348,0.00026530385152255043
-0.2518533950758865,-0.2518533950758865,0.9998804522653343,0.0002661982840957726
-0.25038000517015463,-0.25038000517015463,0.9996433371773197,0.0002656401342088137
-0.24903850990303908,-0.24903850990303908,1.0002931300052276,0.00026546905307045304
-0.24783359991415638,-0.24783359991415638,1.0004389739217292,0.0002650398085855967
-0.24687743889007835,-0.24687743889007835,0.9996502296387701,0.0002652645721264125
-0.24618727647612104,-0.24618727647612104,0.9999454728239133,0.00026516816472337424
-0.24549914538292797,-0.24549914538292797,1.0000015317790396,0.00026474698732726335
-0.24441673806868494,-0.24441673806868494,0.9998299221696051,0.0002657157317439397
-0.2430959204219107,-0.2430959204219107,1.0000931072794839,0.0002651948218005926
-0.2415924273293058,-0.2415924273293058,0.9996370324813958,0.0002656889974519135
-0.2397683130497171,-0.2397683130497171,1.000083077490384,0.0002664545335536435
-0.23848423573508626,-0.23848423573508626,0.9996328921079269,0.00026502568081665387
-0.23670288471039386,-0.23670288471039386,1.0001461823826523,0.00026593735698476494
-0.23493423079271453,-0.23493423079271453,1.0002111913005787,0.000266008150011136
-0.23301265873451485,-0.23301265873451485,1.0004299051447976,0.0002656269010677306
-0.23136266734873062,-0.23136266734873062,0.9998320158204853,0.00026514399018280177
-0.23042946515924995,-0.23042946515924995,1.000358378888828,0.00026531580290554724
-0.22965979686850915,-0.22965979686850915,1.0001519434701045,0.0002660386241358878
-0.2289790400522179,-0.2289790400522179,1.0002088234296023,0.00026552916175212886
-0.22830632855548175,-0.22830632855548175,0.9997285405003794,0.0002647237289095884
-0.227308717762935,-0.227308717762935,0.9998024884863975,0.00026635113016617803
-0.22547769879965926,-0.22547769879965926,1.0000169258251894,0.00026464783779792556
-0.22370021334354534,-0.22370021334354534,1.0001888905701608,0.00026515278458630353
-0.22250725658013834,-0.22250725658013834,0.9998756328203153,0.00026511555857994067
-0.22174328736946336,-0.22174328736946336,1.0000651441133157,0.00026499668940502486
-0.22142284510773608,-0.22142284510773608,1.0003488239751188,0.00026497537963284044
-0.22017337472716464,-0.22017337472716464,0.9998803665241678,0.0002654536347673485
-0.21837330667767674,-0.21837330667767674,0.9999282262670622,0.0002655115523391933
-0.21630186179027078,-0.21630186179027078,0.9998483036519662,0.0002652900558937958
-0.2143123734269466,-0.2143123734269466,1.000117286681159,0.00026601697489158103
-0.21265543914414592,-0.21265543914414592,1.0000039106575147,0.00026487246121730077
-0.21059283762442646,-0.21059283762442646,1.0004833427982764,0.0002657887621316081
-0.20886778853746363,-0.20886778853746363,0.9998188269145712,0.00026558549598322534
-0.20724154134222772,-0.20724154134222772,0.9998237650780688,0.00026535911952598194
-0.20591000535277998,-0.20591000535277998,0.9997285316993274,0.00026557928301572186
-0.205229765598051,-0.205229765598051,0.9995532977533752,0.00026570927602208403
-0.20472977408571752,-0.20472977408571752,0.9999638965343159,0.0002664430082574689
-0.20399850484391208,-0.20399850484391208,1.0003374961025508,0.00026515192611372546
-0.20263427375539322,-0.20263427375539322,0.9998737517363013,0.0002668163249632631
-0.20104687008279143,-0.20104687008279143,0.9996525384179853,0.00026568939135976284
-0.20001942779781529,-0.20001942779781529,1.0002858512043815,0.00026647968016413695
-0.19890794597231434,-0.19890794597231434,1.000293500695209,0.0002657996715679622
-0.1979131458363554,-0.1979131458363554,1.0001355896435338,0.0002657306025624785
-0.19706554258518735,-0.19706554258518735,0.9999265967508915,0.0002646930136603694
-0.1954743089263502,-0.1954743089263502,1.0004268365531412,0.0002659897364487578
-0.19392349005647702,-0.19392349005647702,0.9998277986048306,0.0002654670977081937
-0.19228067941585322,-0.19228067941585322,0.9999952129423008,0.0002667286892845961
-0.19044694747717586,-0.19044694747717586,0.9998571537985601,0.0002655208442582541
-0.1885214205693046,-0.1885214205693046,0.999920007117654,0.0002653883787281968
-0.18597812356820215,-0.18597812356820215,1.0004981699922972,0.0002658780456763957
-0.18417105571425055,-0.18417105571425055,1.0001335522458052,0.0002655008419436785
-0.18284990564425244,-0.18284990564425244,0.999934133057286,0.00026475226939208735
-0.18166766286085476,-0.18166766286085476,1.000235611800009,0.0002658246071045079
-0.1803826344788831,-0.1803826344788831,0.9998950731672439,0.0002654208289539398
-0.17958656085465918,-0.17958656085465918,1.0002586404262692,0.00026535931705178284
-0.17855633472281623,-0.17855633472281623,1.000183805926596,0.00026499701274884126
-0.17728438465564977,-0.17728438465564977,1.0002342421739292,0.0002650924238021818
-0.17573311014930368,-0.17573311014930368,1.0000262121604626,0.00026510353833411317
-0.17478295135952066,-0.17478295135952066,0.9999136626711931,0.0002664849139779596
-0.17416447871728452,-0.17416447871728452,0.9999090029078215,0.0002656983160770628
-0.17346114906322327,-0.17346114906322327,1.0000394809278028,0.0002652085596183813
-0.17275745954539162,-0.17275745954539162,1.0003692489174227,0.00026457447443301214
-0.1709188127089874,-0.1709188127089874,0.9997561240583176,0.00026515671614304147
-0.16910564517893362,-0.16910564517893362,0.9998947424595622,0.00026606407763092116
