time,time,flux,flux_err
-0.49993848656110157,-0.49993848656110157,1.0003144657609058,0.00020697719773625614
-0.4997920307990474,-0.4997920307990474,1.000106247220659,0.00019435195124706977
-0.4995468227886401,-0.4995468227886401,0.9998016203989871,0.00019311848482658092
-0.4993563041013355,-0.4993563041013355,1.0000955550187538,0.00019631533436358854
-0.49915790228405965,-0.49915790228405965,0.9998371818603241,0.0001891509105557137
-0.4990387288358761,-0.4990387288358761,0.9999059090814082,0.0001815136493097089
-0.49887315185042097,-0.49887315185042097,0.9998976561881964,0.0001958412924337681
-0.498771934537217,-0.498771934537217,0.9999424638791126,0.00018835089654841973
-0.4986950051272288,-0.4986950051272288,1.0000968369677494,0.00017855835592422013
-0.49862015330581927,-0.49862015330581927,0.9998530934641657,0.00017305228024498836
-0.4985361872037174,-0.4985361872037174,1.00011879537889,0.00018171901223902305
-0.4984327629004838,-0.4984327629004838,0.999957743803613,0.00018855305254667233
-0.4983716736722272,-0.4983716736722272,1.000244263299627,0.00017664809110542874
-0.4983212332561379,-0.4983212332561379,0.9999427861620329,0.00018883957131320828
-0.49820353524410166,-0.49820353524410166,0.9996844856235032,0.00018626071436116568
-0.4981131939770421,-0.4981131939770421,0.9999660394431732,0.0001810684326675218
-0.4980460997205228,-0.4980460997205228,0.9996862182816649,0.00017686159436263832
-0.4979559466388309,-0.4979559466388309,1.00005456651209,0.0001812003054785773
-0.4978710904775653,-0.4978710904775653,0.9997706889762956,0.0001883302106415919
-0.49778683906188237,-0.49778683906188237,1.0001376331168388,0.00017643719948773099
-0.49757818526995834,-0.49757818526995834,1.000228947426184,0.00018098709373670364
-0.49746487666561734,-0.49746487666561734,1.0000188323862362,0.0001829992878761007
-0.49737647751753683,-0.49737647751753683,0.9999317827850451,0.00018278375162417615
-0.4972595894680126,-0.4972595894680126,0.9998062090448885,0.0001814070825173295
-0.4971213584154611,-0.4971213584154611,1.0000496101589662,0.00017090108178746368
-0.4970055521436734,-0.4970055521436734,1.0000720104937177,0.00017489828105617534
-0.49694741977727974,-0.49694741977727974,1.0000513740091708,0.00018674737007156624
-0.4967851069639437,-0.4967851069639437,0.9999161419997529,0.00017542568374104972
-0.4965945033414755,-0.4965945033414755,0.9999892936337904,0.00019212507486149558
-0.49652955949131866,-0.49652955949131866,0.9998872210548807,0.00018909467799542497
-0.4964483942865627,-0.4964483942865627,0.9998341403711237,0.00017789466250413738
-0.49632150216493753,-0.49632150216493753,1.0000120086128081,0.00017905565793771788
-0.4960932731657522,-0.4960932731657522,1.0000158341934147,0.0001873375834804579
-0.495935339157586,-0.495935339157586,1.0000208628679652,0.00017947366106664512
-0.4958621607220266,-0.4958621607220266,0.9999411737727625,0.00018150894140201817
-0.49570155174587854,-0.49570155174587854,1.0000885230663374,0.00017550748869373244
-0.4956087579426821,-0.4956087579426821,1.0000695538756659,0.00018804953437942792
-0.4954681309493026,-0.4954681309493026,1.000136032091598,0.00018094919982395954
-0.4953504867968149,-0.4953504867968149,1.000293108347416,0.0001811669364241861
-0.4952865713188658,-0.4952865713188658,0.9999512936054706,0.00018246351846253896
-0.4951861147157615,-0.4951861147157615,0.9997502362380046,0.00018411495053321565
-0.495055473287357,-0.495055473287357,1.0000055937527765,0.00017898220888717102
-0.494941112032393,-0.494941112032393,0.9999340827624774,0.00018323822065989073
-0.49482731345051434,-0.49482731345051434,0.9997364231714281,0.00017478495269117664
-0.494708452213672,-0.494708452213672,1.0000123001576535,0.00019378425709388856
-0.49453533023188356,-0.49453533023188356,0.9998913730700645,0.00017787660604950958
-0.4944996500737034,-0.4944996500737034,0.9997063170629129,0.00017734688709329443
-0.4944134895049501,-0.4944134895049501,0.9997677941708535,0.00017991217295031136
-0.4943056889605941,-0.4943056889605941,1.0000926038710882,0.00018067522592397694
-0.4941295263182838,-0.4941295263182838,1.0000785854429257,0.00017858640074020068
-0.4939725891832495,-0.4939725891832495,1.000075171434522,0.00018311684953183828
-0.4938507701212075,-0.4938507701212075,1.0001818448522746,0.00018826253222287373
-0.4938075398036744,-0.4938075398036744,1.000104622315694,0.00018902774567343368
-0.4937127983168466,-0.4937127983168466,1.0001346635247088,0.00017975667687318347
-0.493567924600211,-0.493567924600211,1.0000375397377856,0.00018226124240904414
-0.4934656539669959,-0.4934656539669959,0.9999291800349042,0.00017357978022130788
-0.49337372981826777,-0.49337372981826777,0.9998447445299619,0.0001888895899525694
-0.49324253787926864,-0.49324253787926864,0.9999207483802655,0.00017665574738016934
-0.4931438190338667,-0.4931438190338667,1.0003043135270835,0.0001874567777536898
-0.4930621946667088,-0.4930621946667088,1.0000116072808356,0.00019013282894026127
-0.49299165661795996,-0.49299165661795996,1.0000887713163598,0.00018071150489880648
-0.4928448399034096,-0.4928448399034096,1.0000880168996837,0.0001822082687778751
-0.492667581452406,-0.492667581452406,1.0001265029793867,0.00018626272151426557
-0.4925198570912471,-0.4925198570912471,1.0000166914728996,0.00019635675105526628
-0.49243349114549345,-0.49243349114549345,0.9997644803055404,0.00017378895144382165
-0.49232115533086473,-0.49232115533086473,1.000003004786791,0.00018348140444013754
-0.492190370161552,-0.492190370161552,0.9999786572817877,0.00017818455155602553
-0.49207896580337546,-0.49207896580337546,0.9999389166130606,0.00017842754538868112
-0.4919287856610026,-0.4919287856610026,1.0001298474133589,0.00017476869991326502
-0.49187013183836825,-0.49187013183836825,0.9999576151968682,0.00018451590478113725
-0.4917638578685001,-0.4917638578685001,0.9997789135662278,0.00017858904402522842
-0.4916579912242014,-0.4916579912242014,1.0001218373781673,0.0001815741306847551
-0.4915331482130568,-0.4915331482130568,1.0000507580558902,0.0001805033946200471
-0.4914109942648793,-0.4914109942648793,0.9999119167270265,0.00017516632153779773
-0.4912900651048403,-0.4912900651048403,0.999972797251027,0.00018822064082398763
-0.49118218088988214,-0.49118218088988214,0.9997099861568151,0.00019131653039012128
-0.491011791661731,-0.491011791661731,1.000091554162613,0.00018378723458587404
-0.4909297545003938,-0.4909297545003938,0.99999464270458,0.0001753771986245033
-0.49075189205468633,-0.49075189205468633,1.0002290851704074,0.00018372582572045036
-0.49065064571332184,-0.49065064571332184,1.0002414967568662,0.0001886750567454703
-0.49057759301213083,-0.49057759301213083,0.9997075156859487,0.00017994433029685125
-0.4905469163088128,-0.4905469163088128,0.9999666805849203,0.00018461158099435793
-0.4904755468276562,-0.4904755468276562,1.0000140670993125,0.0001820737139851857
-0.49037669085373636,-0.49037669085373636,1.0001104988881269,0.00018301721676779515
-0.4902482346195029,-0.4902482346195029,1.0000739843436879,0.00018401261058801152
-0.4900325991358841,-0.4900325991358841,0.9999852076756619,0.0001802302320198566
-0.4899121586611727,-0.4899121586611727,0.9998071320318891,0.00018585321800265175
-0.48981426245300097,-0.48981426245300097,1.0002044737114961,0.00018871756357256313
-0.48972384912194683,-0.48972384912194683,0.9998455106965467,0.00018515224839055683
-0.48961102905741427,-0.48961102905741427,0.9997859902512551,0.0001737515372252731
-0.4895035220630234,-0.4895035220630234,0.9998628190008093,0.00018035280799657137
-0.4894389529945329,-0.4894389529945329,1.0000029222283864,0.00017473122785031844
-0.4893751129333396,-0.4893751129333396,1.0001344693293548,0.0001730556173160051
-0.48924872269271874,-0.48924872269271874,1.0000873992743555,0.00018492676802306965
-0.4891136287624249,-0.4891136287624249,0.9999927042458108,0.00017231383271322146
-0.48901468013064003,-0.48901468013064003,0.999971079542141,0.0001790233968471366
-0.4888869333808543,-0.4888869333808543,0.9999477008622752,0.00018977920789736762
-0.48872487869521136,-0.48872487869521136,1.0000355801789635,0.00019291397023843903
-0.48859466490976045,-0.48859466490976045,0.9999889224212428,0.00016929229476771618
-0.48847523402364457,-0.48847523402364457,0.9998163999144181,0.00017964232063104283
-0.4883022986119613,-0.4883022986119613,0.9999576826066037,0.00017870996648095672
-0.4882013243099209,-0.4882013243099209,0.9999142457906552,0.00017624159257964092
-0.4881171778019052,-0.4881171778019052,1.000023532915903,0.00017869441367669513
-0.4879911152384011,-0.4879911152384011,0.9999641664132299,0.00017822566329656048
-0.48790099563193506,-0.48790099563193506,0.9998434129553126,0.00018941174231339248
-0.4877989774337038,-0.4877989774337038,0.9998450475665231,0.00017997809976905298
-0.4876947579876287,-0.4876947579876287,1.00026743118116,0.00017493603650248996
-0.4876393279642798,-0.4876393279642798,0.9999865967593241,0.00018640560137789234
-0.48755290467815937,-0.48755290467815937,0.9999378126621687,0.0001828217011404248
-0.4874190529924817,-0.4874190529924817,0.9999063225782134,0.00018553442522561514
-0.48724103498389015,-0.48724103498389015,1.0001965287948447,0.00018487578428872184
-0.4871673214220209,-0.4871673214220209,1.0000466472668712,0.00017406183945655523
-0.4870968538481975,-0.4870968538481975,1.0000678124757747,0.0001763802909493037
-0.4869837173318956,-0.4869837173318956,0.9999783465453813,0.00017866455017471566
-0.48684485895792023,-0.48684485895792023,0.9999696294236786,0.0001811830908534654
-0.48673629991244527,-0.48673629991244527,0.9998800405209447,0.00018088440908063327
-0.48654453476774506,-0.48654453476774506,0.9999087859969681,0.00018443442809247496
-0.48637131044524723,-0.48637131044524723,1.0000596199513352,0.0001771813168961811
-0.48622353801620194,-0.48622353801620194,0.9998796069078958,0.00018719149328329755
-0.4860267832700629,-0.4860267832700629,0.999897507567314,0.00018460112987358587
-0.4859283183061052,-0.4859283183061052,0.9998373180371759,0.00017526269638888826
-0.48584488771448375,-0.48584488771448375,0.9998745518634143,0.00018280493119063183
-0.48562742822396104,-0.48562742822396104,1.0000689078890088,0.00017745602937742442
-0.48541859042015856,-0.48541859042015856,0.9998540457166923,0.00018677543706506272
-0.485196595985326,-0.485196595985326,1.0000864432618641,0.0001815085690879392
-0.48510351549775804,-0.48510351549775804,0.9997746070989111,0.00019188252479699277
-0.48505143585498445,-0.48505143585498445,1.0002005850690612,0.0001821292230130191
-0.48489100364095067,-0.48489100364095067,0.9999737800882771,0.00017968434229880003
-0.48468822426511904,-0.48468822426511904,1.0000714483788538,0.000195030138711036
-0.4845674925338244,-0.4845674925338244,0.9998326104205448,0.00018225158240576446
-0.48444040791655424,-0.48444040791655424,1.0000561442842466,0.00017293727008702264
-0.4843663350387942,-0.4843663350387942,0.9999550947383551,0.00018320018505243942
-0.4842496767116245,-0.4842496767116245,0.9998682288169445,0.00017797431986506164
-0.48414303007884885,-0.48414303007884885,0.9999261063505174,0.00018177884297286543
-0.4840805629530223,-0.4840805629530223,1.0002102389277219,0.000184270754601594
-0.4839731404004851,-0.4839731404004851,0.9999832912126122,0.00018265741866746088
-0.48382749942538794,-0.48382749942538794,1.0001357183278001,0.000179525131174227
-0.4836823067220394,-0.4836823067220394,0.9999588583890242,0.00017625209269780308
-0.48355355888488705,-0.48355355888488705,0.9998222644412295,0.00016964423040338766
-0.48345298200438264,-0.48345298200438264,0.9997963677752413,0.00017740107130625915
-0.4833653154084459,-0.4833653154084459,1.0000143003710553,0.000182030056191714
-0.483247515646508,-0.483247515646508,0.9998459063276028,0.0001829669277302167
-0.48316588026063984,-0.48316588026063984,1.0000345287488799,0.00018027583623964665
-0.4830676405574195,-0.4830676405574195,0.9999337584646929,0.00017578687885725047
-0.4829170831450028,-0.4829170831450028,1.0001685349049516,0.0001779948690046824
-0.48275005516188685,-0.48275005516188685,0.9997994186946062,0.00018516515193458237
-0.482667918651714,-0.482667918651714,1.0001608759164435,0.00018581794646914133
-0.4825789055728819,-0.4825789055728819,0.9997849173042912,0.00017817653237428533
-0.4824681033147499,-0.4824681033147499,0.9998710962776981,0.0001844444595767566
-0.48228129565832206,-0.48228129565832206,0.9998808817918367,0.00017972857785679663
-0.48211535725276916,-0.48211535725276916,1.000029393223568,0.00017677208189206914
-0.4820252293138765,-0.4820252293138765,0.999906108916587,0.00019215886599977018
-0.48190666421724015,-0.48190666421724015,1.000095479618465,0.00017882096687973554
-0.48175255114038007,-0.48175255114038007,0.999824140822339,0.0001855973560137393
-0.48163157536182555,-0.48163157536182555,1.0000454642857979,0.00016846250027254624
-0.4814932067383779,-0.4814932067383779,1.0000939511765643,0.00018270151284956112
-0.4814063442318002,-0.4814063442318002,1.0001822292512075,0.00018253226491554385
-0.4813359423831571,-0.4813359423831571,1.000077662259758,0.00018684952688088956
-0.48124310866987796,-0.48124310866987796,1.0002017184523457,0.0001848934333846647
-0.48104580098879524,-0.48104580098879524,1.0001485408038986,0.00017514075138860442
-0.4809128033200977,-0.4809128033200977,0.9996977572555856,0.00019124068646161652
-0.4807954212650657,-0.4807954212650657,1.0000154603776044,0.00017862263493840944
-0.4806946612108732,-0.4806946612108732,1.0000237193851609,0.0001726241523586634
-0.4806401870737318,-0.4806401870737318,0.9998821343413923,0.00017903102581538034
-0.48052044758514967,-0.48052044758514967,1.0001930745473488,0.00017955731402101473
-0.4804101255373098,-0.4804101255373098,1.0000509196432052,0.00017895583849309384
-0.4803065229934873,-0.4803065229934873,0.9999258701002554,0.00017681698645912591
-0.4801604772801511,-0.4801604772801511,1.000213609987371,0.00017891856418234656
-0.4800062343390891,-0.4800062343390891,1.000042849769811,0.0001940438817399155
-0.47989575351821256,-0.47989575351821256,0.9999520575966507,0.00019516030581525427
-0.47979605160362554,-0.47979605160362554,1.0002952196352157,0.00017662439433769925
-0.4797017115808558,-0.4797017115808558,0.9999379169655483,0.00017208398949291505
-0.4796275169384899,-0.4796275169384899,0.9996784794921428,0.00017879434607022851
-0.4795445769705111,-0.4795445769705111,1.0000274313180653,0.000181702227929146
-0.4794924090907443,-0.4794924090907443,1.0000868077768055,0.0001848778066095655
-0.47937359003699387,-0.47937359003699387,1.0000007035362803,0.00018259543642050593
-0.47930358863668515,-0.47930358863668515,1.0001532757116034,0.00018450587778115094
-0.47924729947117156,-0.47924729947117156,1.0001551391488817,0.00018857198974832955
-0.47910353310871867,-0.47910353310871867,0.9998813899340864,0.00017558259349472746
-0.4789419036678737,-0.4789419036678737,1.000198268556951,0.0001781693156443501
-0.4788366385415429,-0.4788366385415429,1.0001050206159188,0.00017433337952454952
-0.4787195878074272,-0.4787195878074272,0.9999523159651396,0.00018074646640586715
-0.4786010308016557,-0.4786010308016557,1.0001197548044076,0.00018922119102367162
-0.4784325268439716,-0.4784325268439716,1.0000990063694357,0.00018513157734171106
-0.4782694368681405,-0.4782694368681405,0.9998424403700195,0.0001846938642508221
-0.4781160383485258,-0.4781160383485258,0.9996395368432485,0.00017727880588651958
-0.47806481896550396,-0.47806481896550396,0.9999039704959707,0.0001753037682271975
-0.47800086245988493,-0.47800086245988493,0.9999807785723803,0.00018320789316557374
-0.47781801978417204,-0.47781801978417204,1.0001265731630786,0.00017636222749188292
-0.477721219099476,-0.477721219099476,0.9998177092632993,0.00017595606134820314
-0.4775935786688933,-0.4775935786688933,0.9998159395465633,0.00017228811249941374
-0.47752082193037493,-0.47752082193037493,0.9998632630183449,0.00018518394654333206
-0.47742606833926404,-0.47742606833926404,1.000025778091405,0.0001915389576857516
-0.4773376751487376,-0.4773376751487376,1.0000205289972128,0.00018306093776221936
-0.4772473566612462,-0.4772473566612462,0.9999915705858726,0.00017798871611829063
-0.47708334770577493,-0.47708334770577493,0.9996793454017734,0.00018162757123289677
-0.47696820890705566,-0.47696820890705566,1.0001932297572895,0.0001825943302915956
-0.47685459104250183,-0.47685459104250183,0.9998563742841722,0.0001793907640747332
-0.47681347974867094,-0.47681347974867094,0.9999705335993093,0.0001807559170414979
-0.4767420385614969,-0.4767420385614969,0.9998028216063515,0.000185312289184547
-0.47667967992892957,-0.47667967992892957,1.0000362412649069,0.0001879503436163417
-0.47663902317290197,-0.47663902317290197,1.0000086951708598,0.00017547456385714355
-0.4764873915759381,-0.4764873915759381,0.9999315057235625,0.00017996830432956632
-0.47639392353303267,-0.47639392353303267,0.9999441881842557,0.00017931574473855553
-0.476307872554753,-0.476307872554753,0.9999413437440762,0.0001751670640660605
-0.4761690022685798,-0.4761690022685798,0.9997134635094719,0.00017531394263590157
-0.47611437814775853,-0.47611437814775853,1.0003411521684964,0.00019111667784047702
-0.47594330133579205,-0.47594330133579205,0.9999831183226304,0.0001761334681535561
-0.4757129016245017,-0.4757129016245017,0.9999311115757727,0.00019557241954269912
-0.4756074043078115,-0.4756074043078115,0.9997629612904861,0.00017438287269861617
-0.47550516124174463,-0.47550516124174463,0.9998069136541397,0.00019745969538390392
-0.4754156440787483,-0.4754156440787483,1.0000047041926532,0.00018561412896653807
-0.4752984271355672,-0.4752984271355672,0.9999096508256556,0.00017997798420366597
-0.47523109696048776,-0.47523109696048776,0.999848712281786,0.0001801351350815592
-0.4751535185292596,-0.4751535185292596,0.9999557679998364,0.00017471751591255892
-0.475073711638106,-0.475073711638106,1.0002356985801415,0.000181074855743358
-0.4749251631787047,-0.4749251631787047,0.9998013087486577,0.00018930756389888846
-0.47486768746748564,-0.47486768746748564,1.000114115626134,0.0001798762314415447
-0.4747817072609905,-0.4747817072609905,1.0000226775356296,0.00018283592134387658
-0.47461147991998587,-0.47461147991998587,0.9998805356687663,0.00017923163545707218
-0.4744632535992423,-0.4744632535992423,1.000369200626539,0.00017824106653937965
-0.4743762654863531,-0.4743762654863531,1.00007199652435,0.00017940059477951966
-0.47412585909187327,-0.47412585909187327,0.9999078619422332,0.00019169378253121896
-0.4740413370745955,-0.4740413370745955,1.0000710038172635,0.0001784624468019793
-0.4739962175663095,-0.4739962175663095,1.000301354977957,0.00017643019481114003
-0.47388130229664965,-0.47388130229664965,0.9997799878772643,0.00018388791259848477
-0.4737733482354088,-0.4737733482354088,0.9997328105427759,0.00018309448061031862
-0.4736913864937378,-0.4736913864937378,0.9999404002869874,0.0001753267760223366
-0.4735771638486767,-0.4735771638486767,0.9999685899151937,0.00018049575030622397
-0.4734598167880904,-0.4734598167880904,0.9998921713156399,0.0001846117176259572
-0.47340356943022927,-0.47340356943022927,1.0001072986054171,0.00018083711163916256
-0.47331190465483813,-0.47331190465483813,0.9999813191608652,0.00018741729704891357
-0.4732175953395199,-0.4732175953395199,1.0000751984014158,0.00018354125567935059
-0.47305668584012894,-0.47305668584012894,1.0000998875689535,0.00018493558983991682
-0.4729386136197718,-0.4729386136197718,0.9999786527735605,0.00017082122355538084
-0.472864753799513,-0.472864753799513,1.0001096269896252,0.00017228747613565597
-0.4728197654185351,-0.4728197654185351,1.0000000624071734,0.00018847649842143764
-0.47269908319285603,-0.47269908319285603,1.0002614089583415,0.00018471060183252583
-0.4725010042515351,-0.4725010042515351,1.000049600567868,0.0001773870888599405
-0.47236865215818397,-0.47236865215818397,0.9999016944110106,0.0001842859698438586
-0.47226900538953487,-0.47226900538953487,0.9996648538585804,0.00019009847106360689
-0.4721883706370136,-0.4721883706370136,0.9999249442344169,0.00017207224551506962
