time,time,flux,flux_err
-0.49998007746277534,-0.49998007746277534,1.0000202005027432,0.000853329787574034
-0.4999388392570836,-0.4999388392570836,0.9998578466799934,0.000814604312783411
-0.49988548640467345,-0.49988548640467345,1.0002594238465143,0.0008742554127249847
-0.49975359408272196,-0.49975359408272196,0.9989003898219619,0.000882786435490858
-0.49964867293892895,-0.49964867293892895,1.0004781546347838,0.0008861713168652965
-0.4995514853413624,-0.4995514853413624,1.0000696469454846,0.0009378496087953912
-0.49946422951907155,-0.49946422951907155,0.9998920874748294,0.0010567727652240784
-0.4993314526087488,-0.4993314526087488,1.000322694443454,0.0008057494380847643
-0.4991759686177829,-0.4991759686177829,0.9999306879428987,0.0006547252163392154
-0.4990056144917617,-0.4990056144917617,0.9998391458212457,0.0009936640469529322
-0.4989535590095329,-0.4989535590095329,1.001005523895937,0.0009005747110145242
-0.49880794940618217,-0.49880794940618217,0.9998440706309042,0.0009796810689926137
-0.49861830742884194,-0.49861830742884194,0.9992346291115272,0.0009790776427458679
-0.49846765000911547,-0.49846765000911547,1.0000546485595048,0.001088503919234553
-0.49832604379407713,-0.49832604379407713,1.0002056288720305,0.0008204444636327474
-0.4982197371733491,-0.4982197371733491,0.9996829498151965,0.0007763618093440281
-0.498106775512133,-0.498106775512133,0.9995437507449868,0.000912189406182848
-0.4979690641652269,-0.4979690641652269,1.0001184900753421,0.0008003764309289074
-0.49780218455853176,-0.49780218455853176,1.0006998984037252,0.0009778006680194816
-0.4977362680045189,-0.4977362680045189,1.0003965671275756,0.000962150722029728
-0.497619509913784,-0.497619509913784,1.0001896874555303,0.0010759981111052972
-0.4974358389168628,-0.4974358389168628,0.999877356004974,0.000911250464440465
-0.49728632805490636,-0.49728632805490636,1.000330536762122,0.0008248808081865322
-0.4971607908664737,-0.4971607908664737,1.000460456211219,0.0009513044637533023
-0.4970133349328535,-0.4970133349328535,0.9999471579953596,0.0010448725313084166
-0.49695314782511557,-0.49695314782511557,0.9998071190329372,0.0009207151192175172
-0.49683343760334536,-0.49683343760334536,1.000640353615632,0.0007596129579740563
-0.4967106053431053,-0.4967106053431053,0.9987278990060112,0.0011621163271438536
-0.4965531086520059,-0.4965531086520059,1.000487334337394,0.0009626831391168163
-0.49643598444527015,-0.49643598444527015,0.9997717436571069,0.0009995145383867548
-0.4963010150939226,-0.4963010150939226,1.0008190451132344,0.0009608853293678183
-0.4962015492623323,-0.4962015492623323,1.0007006143658206,0.0009396465278472635
-0.4960931072651874,-0.4960931072651874,1.0004540661321861,0.0009246132041916967
-0.49591628065536497,-0.49591628065536497,1.0002948276639612,0.001178542026052752
-0.49578396718934525,-0.49578396718934525,0.9994806158344135,0.0010693680932887541
-0.495598758928827,-0.495598758928827,1.0005287172460968,0.0010197019674898597
-0.49537296020571375,-0.49537296020571375,0.9994939814912931,0.0010715049539510215
-0.4952241824568773,-0.4952241824568773,0.9990208756124526,0.0010407329325278724
-0.4949911222945957,-0.4949911222945957,1.0007519697199592,0.000727498185596061
-0.494777847151272,-0.494777847151272,1.0005650407168776,0.0011519219497014405
-0.4945527792049688,-0.4945527792049688,1.0005013068067887,0.0008898663588729502
-0.49443937664327675,-0.49443937664327675,1.000673095390932,0.0010011449869891077
-0.4943768422825087,-0.4943768422825087,1.0003051676443495,0.0010603070140833067
-0.494310395768116,-0.494310395768116,1.0006650024392734,0.0007927260671780126
-0.49425948565694855,-0.49425948565694855,0.9995028763783603,0.0007393700124689927
-0.49418263038242005,-0.49418263038242005,1.0005417916613617,0.000930753810966114
-0.494085664312297,-0.494085664312297,0.9992344023911757,0.0010572099404914566
-0.49395942136252413,-0.49395942136252413,0.9999458060437089,0.000776458037372627
-0.4938562858849764,-0.4938562858849764,1.000276847860993,0.0007499370261415268
-0.49370738784782586,-0.49370738784782586,1.0003141046364497,0.000790611711380022
-0.4935346623256919,-0.4935346623256919,0.9996424155159715,0.0008503454742113121
-0.49337370599459973,-0.49337370599459973,0.9999452675547456,0.0008657734002706046
-0.4932693275884958,-0.4932693275884958,1.0001681082951341,0.0009565279132211056
-0.4931599515810376,-0.4931599515810376,0.9995505502067552,0.0007170710259298083
-0.493052560176875,-0.493052560176875,0.9998580243042993,0.0010438623879339322
-0.4929397048930696,-0.4929397048930696,0.9998720261369776,0.0008832530607137057
-0.4928735499968752,-0.4928735499968752,1.0000341892397446,0.0010515327335028127
-0.4927406927825359,-0.4927406927825359,0.9993703818853843,0.000927461286798471
-0.4925955880251422,-0.4925955880251422,1.0003174424532024,0.0008783572177480242
-0.49243260299335817,-0.49243260299335817,0.9994919237361621,0.0009085374519306521
-0.4922827723916271,-0.4922827723916271,1.0016487962439988,0.0007053386566292265
-0.49211072153702845,-0.49211072153702845,1.000294680155343,0.0010071449457572741
-0.491939709570579,-0.491939709570579,0.9999496242188132,0.000952995612346997
-0.4917951708383043,-0.4917951708383043,1.0017677213537541,0.0010978188722321276
-0.4916727353469469,-0.4916727353469469,1.0005691545811433,0.0007929595768986621
-0.4915776963585813,-0.4915776963585813,0.9991759248609,0.0009064662354220897
-0.4914538692086353,-0.4914538692086353,0.9999990079268087,0.0008603903001106231
-0.49135358632629506,-0.49135358632629506,1.0003226431118624,0.0010562622032339356
-0.4912353542895289,-0.4912353542895289,0.9984537931796696,0.0010314275069799109
-0.4911239889130229,-0.4911239889130229,1.0004591504372784,0.0009004623014890406
-0.49098612739617237,-0.49098612739617237,0.999764529159927,0.0008209652268739452
-0.4908945722767385,-0.4908945722767385,0.9999875580907045,0.0011154648172765906
-0.49074230470869223,-0.49074230470869223,1.0009688622680124,0.000794806194838747
-0.49062721481604965,-0.49062721481604965,1.0007492169346364,0.0011345528523167034
-0.4905446605051111,-0.4905446605051111,0.9991274878981556,0.0008708663137144499
-0.4904131634022633,-0.4904131634022633,1.0000103307339767,0.0008783694659392398
-0.490269977011485,-0.490269977011485,1.0005003381776434,0.0010291790881718347
-0.4901551888608083,-0.4901551888608083,0.9993593295072541,0.0010387606364794175
-0.4900312249912531,-0.4900312249912531,1.0007578734585163,0.0008467438669494903
-0.4899069648941804,-0.4899069648941804,0.9990071178719923,0.0011005220651778929
-0.48983020016530643,-0.48983020016530643,0.999438179438539,0.0008349477272739146
-0.48963440325387636,-0.48963440325387636,0.9992070503929144,0.0011195459797025899
-0.48955190942506305,-0.48955190942506305,0.9999069497828443,0.0009502707914710638
-0.4893531688197982,-0.4893531688197982,0.9993418063969907,0.0008916320373301249
-0.48913070542766945,-0.48913070542766945,1.0000864185825038,0.0010884223877772022
-0.4889892233106366,-0.4889892233106366,0.999747300912124,0.0008808686896572147
-0.48887499446937,-0.48887499446937,1.0001705594280161,0.0010966757625957084
-0.4887659342472034,-0.4887659342472034,1.000110594087402,0.0007451968344014358
-0.4886877702527272,-0.4886877702527272,0.9994910426795736,0.0010601488225540447
-0.488595678161073,-0.488595678161073,0.9988497405414428,0.000882459565155338
-0.48853887376899363,-0.48853887376899363,0.9990138307594455,0.0009436975205864515
-0.48845373639924217,-0.48845373639924217,0.999681787098764,0.0008319319854827619
-0.4883416107666562,-0.4883416107666562,0.9996351310200678,0.0009965846553434067
-0.48815924336595345,-0.48815924336595345,1.0000376912073914,0.0007170771022117571
-0.4880270664471027,-0.4880270664471027,1.000091568810727,0.000770209144299521
-0.4879133730297326,-0.4879133730297326,0.9991918006217301,0.0006747045528061376
-0.48780318324206745,-0.48780318324206745,1.0005940263066309,0.0009298249793615856
-0.48767982999343074,-0.48767982999343074,0.9995328433216276,0.0008210744894215843
-0.4876018123264657,-0.4876018123264657,0.9992499247686032,0.001087563712057575
-0.4874732073985797,-0.4874732073985797,1.0003380230784062,0.0007120032343499972
-0.48734169862800625,-0.48734169862800625,0.9997091858093746,0.00090745588866243
-0.48722818683017977,-0.48722818683017977,0.9998293999418207,0.0007764057989980256
-0.4871214065438835,-0.4871214065438835,1.0001422511253442,0.0010843214070488448
-0.4869744251285738,-0.4869744251285738,0.9991211093295107,0.0010227135896221907
-0.48681841501384043,-0.48681841501384043,0.9994515436728755,0.0007812983315942225
-0.48669966354282224,-0.48669966354282224,0.9992414601372935,0.0009439387175646784
-0.4865754774393281,-0.4865754774393281,1.0001675579776805,0.001158599846447134
-0.48645318635171864,-0.48645318635171864,1.0006959537015456,0.001032523025371033
-0.48625017941667464,-0.48625017941667464,0.9993096210219307,0.0010154309868891339
-0.4860394055620418,-0.4860394055620418,0.9999186134849779,0.0009158525374497111
-0.48592930195954975,-0.48592930195954975,0.999976237898489,0.0008579093413592064
-0.48585714824002935,-0.48585714824002935,1.0000716549705846,0.0008890005858742158
-0.48570751920779004,-0.48570751920779004,1.0003758791085513,0.0009897810155531112
-0.4855501669320802,-0.4855501669320802,0.9998278669376204,0.0009170704907161103
-0.4854715323119308,-0.4854715323119308,0.9998950091031311,0.0008323098786770149
-0.48535321509916685,-0.48535321509916685,0.9994281971748269,0.0010793392977910803
-0.4851790433283895,-0.4851790433283895,1.0002131363467548,0.0011852736235559355
-0.4850565018008638,-0.4850565018008638,0.9992085418984302,0.0007908291877707346
-0.48498518480191705,-0.48498518480191705,1.000231557357273,0.0009721501100519768
-0.4848089244267612,-0.4848089244267612,1.0000075065074863,0.0010206727300816694
-0.48469126718191546,-0.48469126718191546,0.9984712482548647,0.0008714625356580337
-0.48452273320581296,-0.48452273320581296,0.9990848060213857,0.0009934378443177442
-0.4843740254684235,-0.4843740254684235,1.000947042563542,0.0010008442878957705
-0.4842134164617164,-0.4842134164617164,1.0003812563179473,0.0009142611183822407
-0.4841060110593389,-0.4841060110593389,0.9996004833116521,0.0009866296625771944
-0.48392693826463073,-0.48392693826463073,0.9994909936708529,0.00108241838112614
-0.4838090498917154,-0.4838090498917154,0.9999029200324905,0.0009881631199737406
-0.48365474374732004,-0.48365474374732004,0.9994060367396125,0.0008939254455138353
-0.4834842197073158,-0.4834842197073158,1.000749355744492,0.0007045793832692771
-0.48337991001681074,-0.48337991001681074,0.9997510964382268,0.0010719890134149466
-0.48327202930668134,-0.48327202930668134,1.000351609511189,0.0008662632268372362
-0.48310232545481996,-0.48310232545481996,1.0006849948211767,0.000860079132667112
-0.48298086544091345,-0.48298086544091345,1.0009487330637254,0.0011355490810351393
-0.4828992245231348,-0.4828992245231348,0.9999256047061709,0.0006975626886130294
-0.4828296943473106,-0.4828296943473106,1.000466287241736,0.0008066014824837199
-0.48270536097043076,-0.48270536097043076,1.000405246309108,0.0010240935919691452
-0.48251899399474496,-0.48251899399474496,0.999972868359879,0.0007226112751785331
-0.4823851829256455,-0.4823851829256455,1.0005284025184065,0.0007836370292421083
-0.48232181177663735,-0.48232181177663735,1.0009642791329298,0.0006981368332388776
-0.4821665080213279,-0.4821665080213279,0.9997197218315413,0.0008755934619481055
-0.4820502039656276,-0.4820502039656276,0.9995181925725639,0.0010832515003310799
-0.4819545862184896,-0.4819545862184896,0.9995662570438151,0.0008980896710450914
-0.48186199431947896,-0.48186199431947896,0.9992719362113516,0.0009150705609376261
-0.48173779810240375,-0.48173779810240375,1.0004487110654061,0.0008637242514522332
-0.4816135630586359,-0.4816135630586359,1.0011331254524072,0.000850941172624212
-0.48149412137063335,-0.48149412137063335,0.9993567729776082,0.0010576715055302074
-0.48133574944295104,-0.48133574944295104,0.9997449714301796,0.0010353502236493076
-0.4811665267894568,-0.4811665267894568,0.9993349065641027,0.0009295198651106881
-0.4810609351974563,-0.4810609351974563,1.0005596957065968,0.0009395300729962171
-0.4809925219589786,-0.4809925219589786,1.0006402080993655,0.0006393103408999727
-0.48091785041542606,-0.48091785041542606,0.9987537127723541,0.0011082895889065456
-0.4807216914538003,-0.4807216914538003,1.0003282339175423,0.0008567568568050696
-0.4805013285847963,-0.4805013285847963,0.9996973449384405,0.0011452644307829703
-0.48036197795154295,-0.48036197795154295,1.0004011951956966,0.0008067534727049565
-0.48029647384100826,-0.48029647384100826,1.0002034438555605,0.0008889739377433824
-0.4802407756083994,-0.4802407756083994,0.9998432249531352,0.0010881636801261265
-0.4801162147756258,-0.4801162147756258,1.0008109059634769,0.0009287729215664387
-0.4799889408852323,-0.4799889408852323,1.0003307635170209,0.0010211018486652999
-0.4798449583962793,-0.4798449583962793,0.9998172291046075,0.0008746001068291714
-0.47974419835518345,-0.47974419835518345,0.9996937804522356,0.0008519371552554771
-0.47956080499425296,-0.47956080499425296,1.0001631710455343,0.0008768251315777348
-0.479452699158719,-0.479452699158719,0.9999572305314987,0.0009791029059676285
-0.4793634298017423,-0.4793634298017423,0.9995492101101009,0.0009079614835396382
-0.47923882622490055,-0.47923882622490055,1.0003478094320513,0.0008952489130334664
-0.47911871089818303,-0.47911871089818303,0.9996614213927908,0.000999760012141994
-0.4789002276716928,-0.4789002276716928,1.000212561773018,0.0007590890079194798
-0.47878368834935825,-0.47878368834935825,1.0004115235719901,0.0010930378916696197
-0.47863665608456357,-0.47863665608456357,1.0006857098102444,0.0009355287754784003
-0.478502356493118,-0.478502356493118,0.9996265748125748,0.0009064178765670905
-0.47835948347346857,-0.47835948347346857,0.9987024557092268,0.0009308187667818732
-0.4782078035401355,-0.4782078035401355,1.0000883216213288,0.001194539281697316
-0.4780945163496654,-0.4780945163496654,0.9991015211894974,0.000766807825490681
-0.4779431508955895,-0.4779431508955895,1.0002542378690151,0.0006006384492054804
-0.47780541808751875,-0.47780541808751875,1.0004955989360869,0.0010592622710952349
-0.4776809645583853,-0.4776809645583853,1.000107486005876,0.0009952944471515427
-0.4775674278957013,-0.4775674278957013,0.9993997565708381,0.0010278251424258886
-0.4774614747519081,-0.4774614747519081,1.0004645486346952,0.0009551248562594561
-0.47732142475724687,-0.47732142475724687,1.0003397180524884,0.0008406656269121261
-0.4771779836351925,-0.4771779836351925,0.9994890174936357,0.0009538609158302019
-0.4769774254506046,-0.4769774254506046,1.0002624961069415,0.0008499556769703606
-0.4767887669207994,-0.4767887669207994,1.0006799708136782,0.0006764496402287848
-0.47670993339415874,-0.47670993339415874,1.0001712524461337,0.0007209912006199158
-0.4766567958147789,-0.4766567958147789,0.9996685386753785,0.000851850603401144
-0.47654921210050816,-0.47654921210050816,0.9997617419082987,0.0008502693872390145
-0.4764321410591947,-0.4764321410591947,1.0007970175404786,0.0009674774111602599
-0.47637089463387383,-0.47637089463387383,1.00073460021678,0.0008839573094960674
-0.4762765521169058,-0.4762765521169058,1.0004081859652436,0.0008883845424898515
-0.4761658397175779,-0.4761658397175779,1.0008252879364545,0.0008368403190219526
-0.47606755154702113,-0.47606755154702113,1.0001714840573181,0.0007846237388302793
-0.4759250057133613,-0.4759250057133613,1.0008389615444189,0.000729908845986107
-0.4758215914451284,-0.4758215914451284,0.9997619686917358,0.0007726946038986813
-0.47567101255772287,-0.47567101255772287,0.9999262244280335,0.0006818480054915744
-0.4755402923299698,-0.4755402923299698,0.999604530337374,0.000992287501692322
-0.4754431875771843,-0.4754431875771843,0.9984576554816934,0.0011972484294773943
-0.4753060579765588,-0.4753060579765588,1.0007983075490663,0.0010441557797675938
-0.47508413519099124,-0.47508413519099124,0.9998658300935697,0.0008309547038791003
-0.47495139409875264,-0.47495139409875264,0.9996979078030488,0.0008882338468373978
-0.47482732299686176,-0.47482732299686176,1.0004676352878188,0.0009234009054856747
-0.4747300684764923,-0.4747300684764923,1.0009656194346201,0.000946925094931238
-0.47465311826235845,-0.47465311826235845,1.0002300081218607,0.0009879318534000254
-0.47451931845207584,-0.47451931845207584,1.0008073053160023,0.0010539924823934278
-0.4744256773672532,-0.4744256773672532,1.0003952110361927,0.0009751512508069474
-0.4742486091083265,-0.4742486091083265,0.9998499508874765,0.0011281063314877526
-0.4741661957843462,-0.4741661957843462,0.9997931679581843,0.000830537473351506
-0.4740833156465669,-0.4740833156465669,1.0008455538671734,0.0007798438693902112
-0.4739456019749923,-0.4739456019749923,0.9995698466872502,0.0007984820708589373
-0.47379733953275716,-0.47379733953275716,0.9996701738510334,0.0011381809437991783
-0.47369840464089064,-0.47369840464089064,0.9992971019480603,0.0008143414738763718
-0.4736340640803974,-0.4736340640803974,0.999532852228046,0.001183977545801857
-0.47347092815398356,-0.47347092815398356,0.9989423727277144,0.0009864831865198666
-0.47318092850837273,-0.47318092850837273,1.0006435869889074,0.0008350718135016853
-0.4730799653363647,-0.4730799653363647,1.0003095880577995,0.001204760247459928
-0.47294377188954967,-0.47294377188954967,0.99941237823958,0.0008691611171918997
-0.4728851962994668,-0.4728851962994668,0.9992959783563748,0.001281208552763093
-0.4728075214618002,-0.4728075214618002,0.9990252592179969,0.0008422469559993357
-0.47269594567260353,-0.47269594567260353,1.001142487906853,0.001041534535894608
-0.4725813141296385,-0.4725813141296385,0.9985269137156226,0.0010627014933766988
-0.4724493988454924,-0.4724493988454924,1.000541898189311,0.0009261459583404484
-0.4723418735062296,-0.4723418735062296,1.0010008778769843,0.0007541863296240204
-0.47219145046256017,-0.47219145046256017,0.9998535841856478,0.0008727200693572724
-0.4720627331196738,-0.4720627331196738,1.000169018179993,0.0009841156197297227
-0.47200463188273717,-0.47200463188273717,1.0000984499191565,0.0008496013592242373
-0.47188650455645986,-0.47188650455645986,0.9997423017967257,0.0011295531324137683
-0.4717427476629382,-0.4717427476629382,0.9998412127399261,0.0006869391371347583
-0.47160701036336833,-0.47160701036336833,0.9994324151387296,0.0008801520116706425
-0.4714669052060344,-0.4714669052060344,1.000043825140992,0.0009716058547385477
-0.4712459923270217,-0.4712459923270217,1.0004479086590767,0.0007121054371334533
-0.4711299123700883,-0.4711299123700883,0.9989401925154743,0.0007018638577408974
-0.4710496441352007,-0.4710496441352007,0.99986234813386,0.0007707861706768281
-0.47102738495814267,-0.47102738495814267,0.9998031436681654,0.0008256836938002081
-0.47095515425826306,-0.47095515425826306,0.9995591533272126,0.0009669709500179126
-0.4708118141628802,-0.4708118141628802,0.9998823496376602,0.0008841738675176115
-0.470710353612958,-0.470710353612958,0.9998070780418384,0.0010030086241315753
-0.47063403767751877,-0.47063403767751877,1.0008075695168386,0.0008776583306739884
-0.4705397179714055,-0.4705397179714055,1.0000040057064208,0.0010287126328984058
-0.47041343020900966,-0.47041343020900966,1.0005629157354492,0.0008636653304329763
-0.4703216730602435,-0.4703216730602435,0.9998302597716444,0.0006097846345505649
-0.47005861047437064,-0.47005861047437064,0.9999295028338441,0.000703549764522539
-0.46996067433647115,-0.46996067433647115,0.9994521620785559,0.0009935006636482544
-0.46984514152863993,-0.46984514152863993,1.0005082827330158,0.0008012532476663183
-0.4696848611296446,-0.4696848611296446,1.0007568265432025,0.0009797968619162914
-0.46951022700231987,-0.46951022700231987,0.9997162437246896,0.0010854297263476007
-0.46936495398404077,-0.46936495398404077,0.9997994909645744,0.0008514285644869359
-0.4692351193065406,-0.4692351193065406,1.0005445950331011,0.000717839501274586
-0.4691248651019123,-0.4691248651019123,0.9996807469202722,0.0008509492640214045
