time,time,flux,flux_err
-0.4998658914406822,-0.4998658914406822,0.9999770453574603,0.0004327511531183671
-0.49948067277647396,-0.49948067277647396,0.9998648866552422,0.0004691238761779815
-0.49908879531363937,-0.49908879531363937,0.9998402032258717,0.0005229214862865968
-0.49886445127535806,-0.49886445127535806,1.000608570373587,0.0004708682705806615
-0.49866129524585856,-0.49866129524585856,1.000070797907773,0.0003980878876025844
-0.4982982018455573,-0.4982982018455573,0.9998182266915542,0.000468895749284207
-0.49790631290638887,-0.49790631290638887,1.0000721773529766,0.0005225260629342662
-0.4976819802578348,-0.4976819802578348,0.9995130096253275,0.0004704188939591746
-0.4974788227662543,-0.4974788227662543,1.0000466861070412,0.0003979633481365953
-0.49711573091943817,-0.49711573091943817,0.9998515156613701,0.00046931657653300266
-0.49672383050683494,-0.49672383050683494,0.9996379852701379,0.0005230608216590102
-0.4964995092457798,-0.4964995092457798,0.9999547781585253,0.00047013191661293425
-0.4962963502882644,-0.4962963502882644,1.0000027008110997,0.00039804927765887276
-0.4959332600012317,-0.4959332600012317,1.000149052941366,0.00046880671486959266
-0.49554134811146466,-0.49554134811146466,1.0002140619756106,0.0005226618412016005
-0.4953093690643186,-0.4953093690643186,0.9999197093440154,0.0004738480036739621
-0.4950742483690078,-0.4950742483690078,1.0003876435724817,0.00039367817574523744
-0.4947507890896986,-0.4947507890896986,1.0001334149717103,0.0004691101403037556
-0.4943588657212672,-0.4943588657212672,0.9995431897207687,0.0005224019189428777
-0.4941268938833446,-0.4941268938833446,1.000778788586615,0.00047445457884933524
-0.4938917800738977,-0.4938917800738977,0.9999603927112026,0.00039360605512262024
-0.4935683181842251,-0.4935683181842251,1.0004826422584903,0.0004695288075558502
-0.49317638333579905,-0.49317638333579905,1.0005634021219012,0.0005223798348542453
-0.49294441870803213,-0.49294441870803213,0.999494033528026,0.00047389518936367833
-0.4927093117799359,-0.4927093117799359,0.9997807014463188,0.000393535572316876
-0.4923858472865959,-0.4923858472865959,0.9999275531246319,0.0004689669436823426
-0.4919939009563109,-0.4919939009563109,1.0000694589239,0.000522077601110629
-0.49176194353589153,-0.49176194353589153,1.00063740336429,0.0004736108097362412
-0.49152684348723596,-0.49152684348723596,1.0001232533069955,0.0003935258047504626
-0.4912033763949012,-0.4912033763949012,0.999713143310682,0.0004692239549379449
-0.4908114185819613,-0.4908114185819613,0.999760519223767,0.0005221826696355346
-0.4905794683669683,-0.4905794683669683,0.9997811086412416,0.0004734581644501171
-0.49034437520158464,-0.49034437520158464,1.0001894631725925,0.0003937527643479803
-0.4900161941263491,-0.4900161941263491,0.9999858927500975,0.00047156667970000546
-0.4895557084934694,-0.4895557084934694,1.0002435528365718,0.0005270656920724237
-0.4893539546203101,-0.4893539546203101,0.9991618982293445,0.00046651648316296465
-0.48910913010147394,-0.48910913010147394,0.9997550615347517,0.00039801525843867697
-0.4887314447617769,-0.4887314447617769,1.0005407185270365,0.0004670957333205143
-0.4883106370514497,-0.4883106370514497,0.9998033587217545,0.000579984684497524
-0.48812936023872455,-0.48812936023872455,0.999612126874594,0.0004028015302321716
-0.4878321225183072,-0.4878321225183072,0.9998276503614412,0.0003975192495874414
-0.4874037971462485,-0.4874037971462485,1.000413779379737,0.0005231784540327789
-0.48709756483305,-0.48709756483305,1.000539580294914,0.0005285139935965872
-0.48688318670672287,-0.48688318670672287,1.000273753963834,0.00039882268119591517
-0.4865748853920877,-0.4865748853920877,0.9993019510836305,0.0004010450701748086
-0.4861460372241481,-0.4861460372241481,0.999761895308197,0.0005224323078720737
-0.4858913172012535,-0.4858913172012535,1.0002368214288853,0.0005300178225257386
-0.48563427417356025,-0.48563427417356025,0.9996073510651199,0.00039446421211102685
-0.48530558051443223,-0.48530558051443223,1.0000551461406397,0.00047079847563618303
-0.48489900678588355,-0.48489900678588355,1.0000389652443848,0.0005224619663551903
-0.48466709258647145,-0.48466709258647145,1.0003828599187912,0.0004734429451879048
-0.4844045453895774,-0.4844045453895774,1.0004959642871638,0.0003967170809525556
-0.48403671771980045,-0.48403671771980045,1.0001397383662516,0.0004683381338235318
-0.48364328645279786,-0.48364328645279786,1.0000448819890462,0.0005266546253257838
-0.4834415982961218,-0.4834415982961218,1.0003325592503596,0.00046657566466295634
-0.4831776562738469,-0.4831776562738469,1.0000706441251248,0.00039873099082448124
-0.48276252832851013,-0.48276252832851013,0.999694150034178,0.00046647564598956007
-0.4823981978427696,-0.4823981978427696,1.0002208541672146,0.0005801994407384174
-0.4822170289960127,-0.4822170289960127,0.999638744626892,0.00040273419780102477
-0.48199194175518867,-0.48199194175518867,0.9998755961897396,0.0003935558880521022
-0.4815800526152998,-0.4815800526152998,0.9996624728927086,0.00046625058319696726
-0.48121571000996255,-0.48121571000996255,1.0000611160250412,0.0005798582855658073
-0.4810345627551328,-0.4810345627551328,1.0002658419575259,0.00040304456069221106
-0.4807373293761884,-0.4807373293761884,0.9997983357208653,0.0003974548089640857
-0.4803089023916641,-0.4803089023916641,1.000152407293836,0.0005237374315139263
-0.48000268221560416,-0.48000268221560416,1.0000189202067105,0.0005279482569842503
-0.47978837834923527,-0.47978837834923527,0.9999036240462633,0.00039916963900913987
-0.47948007527476194,-0.47948007527476194,0.9997460017217554,0.00040096442452032115
-0.4790511466450084,-0.4790511466450084,1.0001014177524714,0.0005220391180756659
-0.47879646013942645,-0.47879646013942645,1.0000226893689024,0.0005300617115055332
-0.4785394565161937,-0.4785394565161937,1.0001598759668897,0.0003947566985566628
-0.47821073919872104,-0.47821073919872104,1.000182172058757,0.0004701222535150657
-0.47780411280542695,-0.47780411280542695,1.0003434296159437,0.0005231749000324383
-0.47757224178174057,-0.47757224178174057,0.9998632104066283,0.0004721943907335706
-0.4773003033033092,-0.4773003033033092,0.9995900940794276,0.00039657430192470005
-0.4769418509324851,-0.4769418509324851,0.9996167365760364,0.0004686944326319622
-0.4765483800857737,-0.4765483800857737,0.9998216676180617,0.0005268311686980866
-0.47634677087198724,-0.47634677087198724,0.9994135576825356,0.00046652994217946024
-0.47603555826516414,-0.47603555826516414,1.0001529751159564,0.00039876181432382476
-0.4756676741245087,-0.4756676741245087,1.0001186361381196,0.0004665870038682623
-0.47530327089820046,-0.47530327089820046,0.9996981035332588,0.0005798179425487796
-0.4751222316127155,-0.4751222316127155,1.000437390148756,0.0004031704974559652
-0.4747777032471504,-0.4747777032471504,1.0004254048802441,0.00039736366701272654
-0.47439649024933034,-0.47439649024933034,1.0005815583230446,0.0005231257986134207
-0.474090280146504,-0.474090280146504,1.0001229810013121,0.0005274716983885377
-0.4738722760929477,-0.4738722760929477,0.9994810876407187,0.0003998860042049942
-0.4735241970315087,-0.4735241970315087,1.0003036545724946,0.00040017852819155907
-0.47313873799627115,-0.47313873799627115,0.9999698137978019,0.0005220964756589405
-0.4728840793524114,-0.4728840793524114,1.000457162234135,0.0005301817374542134
-0.47261945821566087,-0.47261945821566087,1.0002238730180775,0.0004010945147832904
-0.4722587232610408,-0.4722587232610408,0.9997823251823773,0.00046466049715449985
-0.4718917012999668,-0.4718917012999668,0.9994518728635248,0.0005223879918798377
-0.47165986622544553,-0.47165986622544553,1.0006101249050607,0.00047225526617584795
-0.4713791627641172,-0.4713791627641172,0.9998618389572893,0.00040127511948433745
-0.47100044518480216,-0.47100044518480216,1.0000403057132377,0.0004644755981285267
-0.4706359581794686,-0.4706359581794686,1.0000922858529986,0.0005259690562785875
-0.47043441482609294,-0.47043441482609294,0.999588762358709,0.0004662759121078862
-0.4701232255171021,-0.4701232255171021,0.9996759809622894,0.00039863299429419277
-0.46971745643078294,-0.46971745643078294,0.9999371731341009,0.00046635140120365607
-0.46939083187053254,-0.46939083187053254,0.9999893518071937,0.0005793713922087859
-0.46920990055557465,-0.46920990055557465,0.9998505845407832,0.00040307766145698516
-0.46886537581358423,-0.46886537581358423,0.9999632164918213,0.0003971166921409636
-0.46843677906638276,-0.46843677906638276,0.999780125187467,0.0005228840117782267
-0.46817787818189344,-0.46817787818189344,0.9997119808769147,0.0005273054224704515
-0.46795993874162606,-0.46795993874162606,1.000075225021431,0.00039979572241835603
-0.46759599580316263,-0.46759599580316263,1.0001573386843692,0.00046688969364398877
-0.467194887171695,-0.467194887171695,0.9997586136815775,0.0004637691332274353
-0.46697169865792604,-0.46697169865792604,1.0002878175164993,0.0005293692223660246
-0.4667071187956367,-0.4667071187956367,1.0001241011136124,0.0004013512611491534
-0.4663270723335359,-0.4663270723335359,0.9998917147486054,0.0004652073513965073
-0.46594180580680133,-0.46594180580680133,1.00003021321225,0.0005217848920706748
-0.4657474907732421,-0.4657474907732421,1.0001620980389494,0.00047190468118635443
-0.46546682640511106,-0.46546682640511106,1.0004010977859967,0.0004011706241835645
-0.46505291724681685,-0.46505291724681685,1.0000199368588336,0.00046358954525979704
-0.464660880707379,-0.464660880707379,1.0003295731709863,0.0005799595861104966
-0.46448003577295366,-0.46448003577295366,0.9999842326470713,0.0004030359735431782
-0.4642088311866246,-0.4642088311866246,0.9998329785783409,0.00039477664024827736
-0.4637754298443156,-0.4637754298443156,0.99995666340889,0.0005247830737567637
-0.4634479566862069,-0.4634479566862069,0.9994616729946397,0.0005267464405758102
-0.4632535960103382,-0.4632535960103382,1.0000203548954842,0.0004027026880049451
-0.46295304847359375,-0.46295304847359375,1.0002265827832164,0.00039712999054900564
-0.46249640281642995,-0.46249640281642995,0.9999197365989296,0.0005227009514485889
-0.46224179416987,-0.46224179416987,1.0001577941537523,0.0005296383871328524
-0.4620046496408463,-0.4620046496408463,1.0000609164949714,0.00039828136328404825
-0.46168364249227806,-0.46168364249227806,1.0000490384854563,0.00046702859829585397
-0.4612493609365629,-0.4612493609365629,1.0000386706979254,0.0005226272008480653
-0.4610175904879725,-0.4610175904879725,0.9998152479364295,0.0004717287355471599
-0.4607945965356407,-0.4607945965356407,1.0000977158011886,0.00041836685705814465
-0.46050117184048533,-0.46050117184048533,0.9997935153654562,0.00046731190974659873
-0.46006687870059293,-0.46006687870059293,0.9998955114220038,0.0005221975918898788
-0.45983511542966654,-0.45983511542966654,1.0001449187242675,0.00047223604212101876
-0.4596121264212002,-0.4596121264212002,0.9997466369505028,0.00041819124782324624
-0.45931870119542284,-0.45931870119542284,1.000327537780119,0.00046687037516259026
-0.4588843964703301,-0.4588843964703301,0.9999601431733378,0.0005224401486895917
-0.45865264037332737,-0.45865264037332737,1.0002006977185895,0.0004715931661875334
-0.4584296563106477,-0.4584296563106477,1.000019334152561,0.0004179472447188472
-0.45813623055037167,-0.45813623055037167,0.9996162594262575,0.00046689791135810137
-0.45770191424627454,-0.45770191424627454,1.0002077759803563,0.0005228787899252857
-0.45747016532076257,-0.45747016532076257,1.000012808574235,0.0004718663293795169
-0.45721980197490664,-0.45721980197490664,0.9992810339909772,0.0004202057510937772
-0.4569338450762416,-0.4569338450762416,1.0001513745004615,0.0004648261698945033
-0.4565194320271303,-0.4565194320271303,0.9999102394114067,0.0005226491119539203
-0.45628769027389354,-0.45628769027389354,1.0003463035598905,0.0004716788530048298
-0.45603733639258054,-0.45603733639258054,1.0000445605056256,0.000420001997876909
-0.45570455095497664,-0.45570455095497664,1.0002029325740143,0.00046868039171743916
-0.45533647005059946,-0.45533647005059946,0.9998022064750289,0.000519089103757997
-0.4551052152311854,-0.4551052152311854,0.9999461849091139,0.0004717705936100183
-0.45485487081263043,-0.45485487081263043,1.0002383031039985,0.0004199332631410046
-0.45452207327964517,-0.45452207327964517,0.99953026367535,0.00046857999647738726
-0.4541539903624653,-0.4541539903624653,0.999886700869275,0.0005193491960069924
-0.45392274019271783,-0.45392274019271783,0.9999746465581028,0.0004715513681092568
-0.4536724052323393,-0.4536724052323393,0.9995542134508991,0.00041951847218699097
-0.45333959560950915,-0.45333959560950915,1.0002603328358466,0.00046882763023272533
-0.4529715106834374,-0.4529715106834374,1.000151622471582,0.0005189118808149033
-0.452740265159764,-0.452740265159764,0.9999909398293447,0.00047208579160176734
-0.4524899396539809,-0.4524899396539809,0.9999644442062138,0.0004194061045450006
-0.452157117944887,-0.452157117944887,1.0006767484482446,0.00046885025747835736
-0.45178903100282924,-0.45178903100282924,0.9999792227534072,0.0005188239692512054
-0.45155779012879976,-0.45155779012879976,0.9994958508466045,0.00047097952977689857
-0.4513074740764068,-0.4513074740764068,1.0005864253831604,0.0004193922375476871
-0.45097464028463036,-0.45097464028463036,0.999576742419847,0.00046817970339749275
-0.4506065513277804,-0.4506065513277804,0.9998205171844294,0.0005197654848506711
-0.4503753151043952,-0.4503753151043952,0.9998846106388622,0.0004715663958024586
-0.4501250085000493,-0.4501250085000493,1.000202685928998,0.00041905926106596653
-0.44979216263034233,-0.44979216263034233,1.0003307317662915,0.00046836117026089917
-0.4494240716575291,-0.4494240716575291,1.0004860106458378,0.000518608230025806
-0.4491928400842767,-0.4491928400842767,0.9997082838374857,0.0004716250224076449
-0.4489425429244534,-0.4489425429244534,1.0000137362543233,0.0004189532077074883
-0.44860968498314835,-0.44860968498314835,0.999659617536933,0.00046823725555775577
-0.448241591992155,-0.448241591992155,0.9998615626554415,0.0005186291124476503
-0.44801036506720493,-0.44801036506720493,1.0001499716493227,0.0004715548159245259
-0.44776007735246137,-0.44776007735246137,1.0000004058717065,0.00041884194609316213
-0.4474272073419684,-0.4474272073419684,1.0001248961382352,0.0004686582855711424
-0.447059112330021,-0.447059112330021,1.000030890405528,0.0005190826442614779
-0.44682789005726137,-0.44682789005726137,1.0000882999876248,0.0004712486296818659
-0.44657761178042393,-0.44657761178042393,0.9999988392387957,0.00041867320849023955
-0.4461974305283093,-0.4461974305283093,0.9999737559065492,0.0004681842852057549
-0.4458766326734008,-0.4458766326734008,1.0000360602513962,0.0005191774660925387
-0.4456454150500804,-0.4456454150500804,1.0001477079982966,0.0004710814399141308
-0.44539514621124,-0.44539514621124,0.9998405723735656,0.00041866242204507053
-0.4450149528989186,-0.4450149528989186,0.9998866646037822,0.0004687908880488147
-0.4446941530183722,-0.4446941530183722,0.9997527348134845,0.0005190011573939401
-0.4444629400480153,-0.4444629400480153,1.0000656754258384,0.0004705613947830734
-0.4442126806427268,-0.4442126806427268,0.9995855950593151,0.00041873131376473163
-0.44383247527483716,-0.44383247527483716,0.9996347548779274,0.0004687369937388726
-0.44351167337010794,-0.44351167337010794,1.000401258706122,0.0005190833959266634
-0.4432804650501453,-0.4432804650501453,1.0007219513998766,0.0004713224872426571
-0.44303021507352014,-0.44303021507352014,0.9999831263814463,0.0004184838524870357
-0.44264999765739504,-0.44264999765739504,0.999983881413361,0.0004683421494646804
-0.4423291937239696,-0.4423291937239696,0.999829501301359,0.0005188740384939378
-0.4420979900568341,-0.4420979900568341,0.9996336134213839,0.0004710122808781926
-0.44184774950664407,-0.44184774950664407,1.0002228820602739,0.00041828799886448514
-0.44146752004509154,-0.44146752004509154,0.9999566299123602,0.0004683990123439322
-0.44114671408364076,-0.44114671408364076,1.0003890097191648,0.0005193982117966203
-0.44091551506770654,-0.44091551506770654,0.9996082896852064,0.00047063992681155965
-0.4406652839398021,-0.4406652839398021,1.0004165987198752,0.00041826151534297767
-0.4402850424395865,-0.4402850424395865,1.0006580622258896,0.00046811286204813526
-0.43996423444602895,-0.43996423444602895,0.9996659841191541,0.0005195493029724664
-0.43969541227850184,-0.43969541227850184,1.000207476457259,0.00047040065469055307
-0.4394382879072964,-0.4394382879072964,1.0004395329137838,0.00042020269977206153
-0.4390074263440965,-0.4390074263440965,0.9993820739212346,0.00046442538393255136
-0.4387088810283558,-0.4387088810283558,1.0003403081753257,0.0005252238436756635
-0.4384657485800744,-0.4384657485800744,1.0003769333826167,0.000468945229644254
-0.4381804641290955,-0.4381804641290955,0.9996115470875612,0.00041853670122697076
-0.4377400783163125,-0.4377400783163125,0.9997212944907524,0.000461496831980574
-0.43746366263380876,-0.43746366263380876,0.999963835163775,0.0005787654745589945
-0.43723141978852026,-0.43723141978852026,0.9996655248510711,0.000420147290641808
-0.4368953131567537,-0.4368953131567537,1.0001965866550082,0.00046702813943987065
-0.4365059541985715,-0.4365059541985715,0.9997978646577368,0.00046181455167499237
-0.4362498891781456,-0.4362498891781456,1.0001720453234633,0.0005270833335085043
-0.43602159127676715,-0.43602159127676715,1.000237032385617,0.0004190769532410979
-0.43571284312855596,-0.43571284312855596,1.0003318275233954,0.0004683043512985584
-0.43532347662270465,-0.43532347662270465,0.9995104292326324,0.00046225514218995367
-0.4350674091907081,-0.4350674091907081,0.9998500476184538,0.0005270538304879462
-0.4347999688776213,-0.4347999688776213,0.9996996353798325,0.00041597282391249435
-0.43443995456716494,-0.43443995456716494,1.0001388983821573,0.0004706575599659291
-0.4340850182273471,-0.4340850182273471,1.0000749076672129,0.00045965311196308694
-0.4338379913709559,-0.4338379913709559,1.0003149336349637,0.0005284215874897151
-0.4335704905767216,-0.4335704905767216,0.9998082868442015,0.00041780414676423317
-0.4331704794254051,-0.4331704794254051,0.9999568890846178,0.00046547205998171857
-0.43284175504351197,-0.43284175504351197,1.0002971463479813,0.0005213516196965267
-0.43260054706670414,-0.43260054706670414,1.0002021088285518,0.000469721722385157
-0.43234347752575103,-0.43234347752575103,1.0002710587383503,0.0004198273737405408
-0.43189638315575396,-0.43189638315575396,0.9999508836034128,0.0004634183008801169
-0.43160179501909396,-0.43160179501909396,0.9999596386145239,0.0005261180087060294
-0.43137091172602593,-0.43137091172602593,0.9994208272403394,0.0004684968580094788
-0.4310856602132048,-0.4310856602132048,0.9996965550394327,0.00041836950191825883
-0.4306452187253399,-0.4306452187253399,0.9998706587187629,0.0004613603477425756
-0.4303687365039991,-0.4303687365039991,1.0007717121239323,0.0005789451568092689
-0.43013660062558756,-0.43013660062558756,1.0000323873237655,0.00041994065130218064
-0.42980049304167095,-0.42980049304167095,1.0003621721268017,0.0004674087102904584
-0.4294078977630079,-0.4294078977630079,1.0001348630906004,0.0004618403672182616
-0.4291781377886082,-0.4291781377886082,0.9997356135236053,0.0005261437418706357
-0.4289541307731611,-0.4289541307731611,1.0000005764455921,0.0004196390530883783
-0.4286180230344939,-0.4286180230344939,1.0000759563861197,0.0004669415829543967
-0.42822542490904425,-0.42822542490904425,1.0005648938864558,0.00046234418590073226
-0.4279725293493243,-0.4279725293493243,0.9993082059059489,0.000527039866238919
-0.4277096459309746,-0.4277096459309746,1.0000229064952955,0.0004183811599546757
-0.4274355530313073,-0.4274355530313073,0.9994594943832688,0.0004670222542920496
-0.4270429520580251,-0.4270429520580251,1.0004165435651018,0.0004618448495041707
-0.42679004939038806,-0.42679004939038806,1.0005737183996914,0.0005267802232733616
-0.42652266904727865,-0.42652266904727865,1.0001815159094207,0.000415262232638469
-0.42616298676528,-0.42616298676528,0.9999142935861867,0.00046977626012341845
-0.42586047921813586,-0.42586047921813586,1.000073161506872,0.0004614828742627219
