time,time,flux,flux_err
-0.4993535029522415,-0.4993535029522415,1.0000238293310513,5.329894563976873e-05
-0.4982791324534143,-0.4982791324534143,0.999962500409679,5.3872792667878474e-05
-0.49691940912695526,-0.49691940912695526,0.9998381816732685,5.3883851620358664e-05
-0.4952034907158425,-0.4952034907158425,0.9998766056944111,5.358605203969032e-05
-0.49400163078680637,-0.49400163078680637,0.9999887402805395,4.8303619229853064e-05
-0.49329900273951355,-0.49329900273951355,1.0002157724826195,4.783065595289726e-05
-0.4926001968611672,-0.4926001968611672,0.9998573353519967,4.787019629574272e-05
-0.4917066776557476,-0.4917066776557476,0.9999807594140384,4.81388560713779e-05
-0.4902938795494265,-0.4902938795494265,1.0000423653758799,4.8933411565467024e-05
-0.48909377599993603,-0.48909377599993603,1.0003027439613503,4.852329425652061e-05
-0.4880588744636043,-0.4880588744636043,0.9998710127154766,4.851557822296313e-05
-0.48723671875413854,-0.48723671875413854,1.000049077174677,4.826538255708746e-05
-0.4862828042379988,-0.4862828042379988,0.9998742612800327,4.791723286512078e-05
-0.4855556715396233,-0.4855556715396233,1.0000318107206039,4.700035092041426e-05
-0.48472634143618054,-0.48472634143618054,0.9998355689540508,4.85328954578371e-05
-0.4813392255673534,-0.4813392255673534,0.9999529331155858,4.807240629533646e-05
-0.479786412051908,-0.479786412051908,1.000152524726667,4.8405180731116516e-05
-0.47902881409827386,-0.47902881409827386,0.9998691602633063,4.7811647772312705e-05
-0.47854028036308593,-0.47854028036308593,0.9998648214640902,4.7814971476402944e-05
-0.47795752971069305,-0.47795752971069305,1.000044840602874,4.7987476877895896e-05
-0.4773003929411061,-0.4773003929411061,0.9998813667579141,4.8382210848834376e-05
-0.47686979810969204,-0.47686979810969204,0.9998032398323135,4.7971218018707754e-05
-0.47644345370790686,-0.47644345370790686,0.9999321612873271,4.833560914627161e-05
-0.47601226477709135,-0.47601226477709135,0.9998929555576774,4.830044135006257e-05
-0.4756135897048807,-0.4756135897048807,0.9997633312366945,4.840237601195296e-05
-0.47516585512712484,-0.47516585512712484,1.0000300536121423,4.844335079321518e-05
-0.4746349061446381,-0.4746349061446381,1.0000412484857097,4.8766812493752495e-05
-0.4741128824745829,-0.4741128824745829,0.9998456315534302,4.873431251256767e-05
-0.4735460076968593,-0.4735460076968593,1.000120170988962,4.853324216611609e-05
-0.47303041938503154,-0.47303041938503154,0.9999816664184173,4.879016452879826e-05
-0.47242080183496,-0.47242080183496,0.9999249428506116,4.854383336798617e-05
-0.4718808203404478,-0.4718808203404478,1.0001370853802825,4.80132224462022e-05
-0.47143268050713233,-0.47143268050713233,0.9998751537662395,4.826275890032097e-05
-0.4709771888570685,-0.4709771888570685,1.0000461377054755,4.795658678724369e-05
-0.4702354975619528,-0.4702354975619528,0.9996576729932519,4.8451675684481775e-05
-0.4690178626799025,-0.4690178626799025,0.9999231910462036,4.8619445956847313e-05
-0.46803518137312494,-0.46803518137312494,0.999827079185037,4.9112300440913155e-05
-0.46683115155829,-0.46683115155829,0.9996795098086645,4.9193794176040504e-05
-0.4656313880426751,-0.4656313880426751,0.9998216403881891,4.915727512618534e-05
-0.46423881317241467,-0.46423881317241467,0.9998537326130613,4.861034234953905e-05
-0.46352948749408823,-0.46352948749408823,1.0001318767631042,4.7859973110671975e-05
-0.4629671081653214,-0.4629671081653214,0.9999341590122206,4.751574083868329e-05
-0.4623731338739162,-0.4623731338739162,1.0000045598936622,4.787073851231532e-05
-0.46147954104162636,-0.46147954104162636,1.0000649925050147,4.836639756581404e-05
-0.4598863874794915,-0.4598863874794915,1.0002460318022943,4.8939410915598586e-05
-0.4586905946809566,-0.4586905946809566,0.9999253266207561,4.852933740319046e-05
-0.4577846259358921,-0.4577846259358921,1.0000077869061337,4.819657780686511e-05
-0.45683449739954085,-0.45683449739954085,1.0000162392802645,4.828639643613024e-05
-0.45587745707380234,-0.45587745707380234,0.999862584932034,4.789711450404024e-05
-0.4551551024749642,-0.4551551024749642,1.0001495957340651,4.693027036748432e-05
-0.4543180513610423,-0.4543180513610423,0.9995850560552363,4.852082296231456e-05
-0.4504120202647755,-0.4504120202647755,1.0001549869134387,4.8092283110747336e-05
-0.4494729796242609,-0.4494729796242609,0.9998784714405886,4.808899949671783e-05
-0.44875022745764,-0.44875022745764,1.0000808207151588,4.812213898732463e-05
-0.44821306335143163,-0.44821306335143163,0.9999159405109598,4.7791637672678065e-05
-0.44755214256365433,-0.44755214256365433,0.9999553821826697,4.797526866667132e-05
-0.44689217121413094,-0.44689217121413094,1.0000035518138861,4.8385282707338474e-05
-0.4464640024030814,-0.4464640024030814,0.9999489613936945,4.7968814276636894e-05
-0.44603579316462855,-0.44603579316462855,0.9997871480728195,4.831688285390664e-05
-0.44560486576665426,-0.44560486576665426,0.999700651672194,4.828939870884608e-05
-0.44520895979148917,-0.44520895979148917,1.000131675741796,4.840631723959921e-05
-0.44475931305423727,-0.44475931305423727,1.0002386764237021,4.845226702774229e-05
-0.44422865766246106,-0.44422865766246106,1.0000937028702332,4.876553960390519e-05
-0.44370564189521244,-0.44370564189521244,1.0000067072329817,4.874244174936269e-05
-0.4431413716971292,-0.4431413716971292,1.0000776969516614,4.8544459337679764e-05
-0.4426251698889246,-0.4426251698889246,1.0000250393214867,4.879262782357055e-05
-0.44201824020638014,-0.44201824020638014,0.9996006012383422,4.85411722502329e-05
-0.4414836659125285,-0.4414836659125285,1.0001043802481484,4.80053920355928e-05
-0.44100445613003103,-0.44100445613003103,0.999939432252899,4.796566763831139e-05
-0.4403811100513849,-0.4403811100513849,1.000102742678714,4.8202288962299676e-05
-0.4388938124975539,-0.4388938124975539,0.9998127415437537,4.866842001089159e-05
-0.4378088535304414,-0.4378088535304414,1.0001456417926071,4.9125697992117156e-05
-0.4366900902336056,-0.4366900902336056,0.9997537577774924,4.9172473617948696e-05
-0.4356713665809366,-0.4356713665809366,1.0000973357092549,4.9153884162659484e-05
-0.4343296624829236,-0.4343296624829236,1.000052827320027,4.8902927011425624e-05
-0.4335084481179365,-0.4335084481179365,0.9995893580689114,4.859379331753579e-05
-0.43289121692068877,-0.43289121692068877,1.0000279244540566,4.7633920407075516e-05
-0.4322079929428583,-0.4322079929428583,1.0000155948433245,4.739077057296303e-05
-0.4314786143717356,-0.4314786143717356,1.0000160538750422,4.837736410909022e-05
-0.4301675838752999,-0.4301675838752999,1.0000730728526643,4.8613752224402915e-05
-0.42870074999736973,-0.42870074999736973,1.0000019684074624,4.851917963456165e-05
-0.42770693137063065,-0.42770693137063065,0.9999353054491926,4.81893394020433e-05
-0.4268405409056868,-0.4268405409056868,0.9999627133471719,4.826384465822937e-05
-0.42581535397912373,-0.42581535397912373,0.9999189475234671,4.788651146006817e-05
-0.42505138178603374,-0.42505138178603374,0.9998774854667367,4.775941355784023e-05
-0.424292333998892,-0.424292333998892,1.000034333573819,4.7668378092441644e-05
-0.42183611442524127,-0.42183611442524127,1.0000139238965062,4.817592756185662e-05
-0.41958080401454934,-0.41958080401454934,0.9999377099693059,4.807354637613119e-05
-0.4187044597514614,-0.4187044597514614,1.0001652861575359,4.811431233339635e-05
-0.4181384924420854,-0.4181384924420854,1.0001210424915894,4.78277430097805e-05
-0.41763184918818297,-0.41763184918818297,0.9999089930657303,4.8029511370433313e-05
-0.4169904822418175,-0.4169904822418175,1.0000320637988676,4.8014343422817796e-05
-0.41639946885188694,-0.41639946885188694,0.999843966084353,4.8373304301608196e-05
-0.41597408665911645,-0.41597408665911645,0.999932112812893,4.794834557804506e-05
-0.41554434140707597,-0.41554434140707597,1.0000344193235713,4.831244232505368e-05
-0.4151400527334772,-0.4151400527334772,0.9998863820371342,4.84130432088789e-05
-0.4147000973833201,-0.4147000973833201,1.0000313256851423,4.846157853665594e-05
-0.4142484259944467,-0.4142484259944467,0.9998805786247239,4.8769546364823616e-05
-0.41372848655373673,-0.41372848655373673,1.0000252183150944,4.8740842658323616e-05
-0.41315611717145656,-0.41315611717145656,0.9999536992314411,4.853279909586835e-05
-0.41264175603064357,-0.41264175603064357,0.9998918685763677,4.8784439653839504e-05
-0.4121149034210248,-0.4121149034210248,0.9999640122955078,4.88246739726753e-05
-0.41147500637598566,-0.41147500637598566,0.9997851325581097,4.800922909140019e-05
-0.4109774793163524,-0.4109774793163524,0.9999141779638917,4.7964705476025e-05
-0.41052192646602637,-0.41052192646602637,1.0001137080249363,4.79973160770532e-05
-0.4097473819674633,-0.4097473819674633,0.9999735067762368,4.846142349329857e-05
-0.4082162460021209,-0.4082162460021209,1.0001218717503941,5.011712486141488e-05
-0.4073927368030127,-0.4073927368030127,0.9999330872772253,4.913321386358824e-05
-0.4062749912787694,-0.4062749912787694,0.9999045527424502,4.918121202264493e-05
-0.4051663129990629,-0.4051663129990629,0.9999938853050672,4.917365678739069e-05
-0.4037057970199385,-0.4037057970199385,1.0001054164667935,4.861498857153787e-05
-0.4028963362587092,-0.4028963362587092,0.9998362205280913,4.8130613364896954e-05
-0.4021992012632836,-0.4021992012632836,0.9998936698297282,4.747024624237074e-05
-0.40157610898459095,-0.40157610898459095,0.9998777077908427,4.7846632127940435e-05
-0.4006804197313613,-0.4006804197313613,1.0000501391756995,4.836234594174518e-05
-0.39922710674800327,-0.39922710674800327,0.9996936947627988,4.9012724734823035e-05
-0.3980657012165466,-0.3980657012165466,1.0000683430635071,4.846905371008179e-05
-0.39709616690306576,-0.39709616690306576,0.9998955705133149,4.8530758891776194e-05
-0.3962503835820826,-0.3962503835820826,0.999813231716192,4.827486018033747e-05
-0.39530927949017497,-0.39530927949017497,0.9998688343066788,4.725612950817621e-05
-0.39464654613620953,-0.39464654613620953,1.0001597863534935,4.7732574499987685e-05
-0.39371990984946026,-0.39371990984946026,0.9998239364463632,4.827135346134751e-05
-0.39092895389403565,-0.39092895389403565,0.9996415583861079,4.7663391068483255e-05
-0.38899445443894365,-0.38899445443894365,0.9998910595620142,4.841138618725535e-05
-0.38823263523372586,-0.38823263523372586,1.0000368303612954,4.781780191745806e-05
-0.387739289644378,-0.387739289644378,1.0000633968299137,4.7823123344136147e-05
-0.38716368350724223,-0.38716368350724223,1.0000123493547768,4.8007873742118794e-05
-0.38647142515474114,-0.38647142515474114,0.9999519661143909,4.80250613066443e-05
-0.3859919417620404,-0.3859919417620404,1.0000577408667444,4.79794083668223e-05
-0.38556804274267054,-0.38556804274267054,0.9999921446861079,4.8334995363864704e-05
-0.3851368864830874,-0.3851368864830874,1.0000805270123603,4.8308683368961827e-05
-0.3847353903875046,-0.3847353903875046,0.9998616796759572,4.840640669918688e-05
-0.3843788539248635,-0.3843788539248635,0.9997825317865876,4.871427066036742e-05
-0.3839259385575133,-0.3839259385575133,1.0000612527347923,4.850659033295517e-05
-0.38341637304620235,-0.38341637304620235,0.9999667672795252,4.877253111337226e-05
-0.38289135213635744,-0.38289135213635744,1.0001467015774026,4.8757848935704626e-05
-0.38233232448619675,-0.38233232448619675,0.9999903858985577,4.8544127670076376e-05
-0.3818148298647429,-0.3818148298647429,1.000007942677011,4.8802519245344134e-05
-0.3811871658646851,-0.3811871658646851,0.9998123034577461,4.828704437250392e-05
-0.3807112291760859,-0.3807112291760859,0.9999568426860573,4.826070755007506e-05
-0.38028886898027847,-0.38028886898027847,1.0000898226181758,4.795129495552116e-05
-0.37958073974587025,-0.37958073974587025,1.0001475676474376,4.8199016121583754e-05
-0.3782233219462796,-0.3782233219462796,0.999921690916963,4.857301129536328e-05
-0.37739896245184357,-0.37739896245184357,0.9998196227069425,4.9143928384480905e-05
-0.37632255482458277,-0.37632255482458277,0.9999689085697838,4.9161959893246376e-05
-0.37512043074093526,-0.37512043074093526,1.0000458377387134,4.916996130431995e-05
-0.3735091565096809,-0.3735091565096809,1.0000253947609505,4.889325983956837e-05
-0.37264589773258194,-0.37264589773258194,0.9999738215314377,4.7848076362462916e-05
-0.37195937947180935,-0.37195937947180935,0.9998532645555016,4.8008097152557834e-05
-0.3712569367475226,-0.3712569367475226,0.9999576422610483,4.7884625256083485e-05
-0.3702809425412852,-0.3702809425412852,1.0002052963967731,4.8365495082698154e-05
-0.368817875852983,-0.368817875852983,1.0000106810146518,4.901555968818434e-05
-0.36766439354614705,-0.36766439354614705,1.0001174505088404,4.8470969304088615e-05
-0.3666919604220311,-0.3666919604220311,0.9997322514317986,4.851951814709126e-05
-0.3658453474447015,-0.3658453474447015,1.0000076586059132,4.828278779081863e-05
-0.3649082288109639,-0.3649082288109639,0.9998409228909502,4.7220295422795315e-05
-0.3642417894094251,-0.3642417894094251,0.9998395908303002,4.7694455538122646e-05
-0.36324129317436016,-0.36324129317436016,0.9998130079874556,4.853284845791234e-05
-0.35944138854174523,-0.35944138854174523,1.0000799841785843,4.8092454139043394e-05
-0.3583719991489488,-0.3583719991489488,0.9999389802637066,4.8093473588183306e-05
-0.35773706235631836,-0.35773706235631836,1.0000790206066912,4.7834263660936254e-05
-0.3572433499408362,-0.3572433499408362,0.9998770725636351,4.774268259344314e-05
-0.35660371607154956,-0.35660371607154956,0.9999821386036176,4.8030586919016134e-05
-0.35601668060771774,-0.35601668060771774,1.0000144326791196,4.8381884101208194e-05
-0.3555861558059405,-0.3555861558059405,0.9999881267678233,4.7977045554218795e-05
-0.35516039106005337,-0.35516039106005337,0.999785887733507,4.83235867762163e-05
-0.35472949389368297,-0.35472949389368297,0.9999830473968366,4.830584780957887e-05
-0.35433077819106984,-0.35433077819106984,0.9999170325535506,4.840212229955413e-05
-0.3538622823121841,-0.3538622823121841,1.0000107513303136,4.877158462845566e-05
-0.35334439694634057,-0.35334439694634057,0.9996732489669282,4.872975462789294e-05
-0.3527665906549373,-0.3527665906549373,0.9999054330093552,4.8513175086832403e-05
-0.35225335055292817,-0.35225335055292817,0.9999905333518303,4.877754108157231e-05
-0.3517298491213296,-0.3517298491213296,1.0001505574070642,4.882613826723091e-05
-0.35110219156485983,-0.35110219156485983,0.9999428571694702,4.8275443114528964e-05
-0.3505675159511156,-0.3505675159511156,0.9998633643504284,4.797822561924596e-05
-0.350162805072614,-0.350162805072614,0.999956864364475,4.826933098556333e-05
-0.3496370346729236,-0.3496370346729236,0.9999579163934282,4.794640271555745e-05
-0.3486591166431026,-0.3486591166431026,0.9999841735172526,4.8483518302477194e-05
-0.3474345543545496,-0.3474345543545496,1.0001542918418493,4.891653272628433e-05
-0.3463712475582724,-0.3463712475582724,1.0000110957603143,4.91464048882503e-05
-0.3451696888078004,-0.3451696888078004,0.999706437404084,4.917697037279163e-05
-0.3439441918191733,-0.3439441918191733,1.0000801004667639,4.9160638168969496e-05
-0.3427146339294268,-0.3427146339294268,0.9997674710071605,4.860075980152164e-05
-0.3420893120557594,-0.3420893120557594,0.9999611032234001,4.7661964538622736e-05
-0.3415511023849831,-0.3415511023849831,0.9999185444325018,4.763993193172932e-05
-0.3408585176825,-0.3408585176825,1.0001328983228706,4.7869541431064776e-05
-0.33971030923348733,-0.33971030923348733,0.999871157739026,4.85921155679474e-05
-0.3383291028003441,-0.3383291028003441,1.0000345301976146,4.881312810695496e-05
-0.3372631508966151,-0.3372631508966151,1.00009428061451,4.847105361208575e-05
-0.33626971209887413,-0.33626971209887413,0.9998565153435421,4.827564901646332e-05
-0.3352148404796026,-0.3352148404796026,0.9999627077249176,4.8266786204097297e-05
-0.33436310303222855,-0.33436310303222855,0.9997913088851096,4.744096779612037e-05
-0.3336836379414308,-0.3336836379414308,0.9998819834515553,4.7400666725018504e-05
-0.33201424059152485,-0.33201424059152485,1.0000259641901306,4.851208966472172e-05
-0.32903517770537294,-0.32903517770537294,0.9999465119662961,4.80853647682448e-05
-0.32796533734072,-0.32796533734072,1.000005373728215,4.80849187604798e-05
-0.32733768986581707,-0.32733768986581707,1.000066703640229,4.78305472080859e-05
-0.326775579850073,-0.326775579850073,0.9999696097329739,4.801456429149073e-05
-0.326072728982399,-0.326072728982399,0.9999771737431242,4.76495014671272e-05
-0.325527852219966,-0.325527852219966,0.9999405694417842,4.837507145908162e-05
-0.3250952000707912,-0.3250952000707912,0.999990179621442,4.834493632491968e-05
-0.3246636505355127,-0.3246636505355127,1.0000062501221183,4.831330816312461e-05
-0.32423317070060875,-0.32423317070060875,0.9999371628748299,4.828981540445144e-05
-0.3238373772044724,-0.3238373772044724,0.9998484491700859,4.838943624265443e-05
-0.3233670343841368,-0.3233670343841368,1.0000087180558626,4.876941258476006e-05
-0.3227826874346647,-0.3227826874346647,1.0000930909613028,4.850575159559622e-05
-0.3222708926150517,-0.3222708926150517,0.9999747223006882,4.878050262188807e-05
-0.32175228758496816,-0.32175228758496816,1.0001230527717286,4.882029946838884e-05
-0.321194469636248,-0.321194469636248,1.0001515810116401,4.854254368121543e-05
-0.3205839483474847,-0.3205839483474847,1.0000831533875338,4.8237942933971416e-05
-0.3200897472626821,-0.3200897472626821,0.9999388721691582,4.801516874723955e-05
-0.3196059874513594,-0.3196059874513594,0.999998527945885,4.825205648860074e-05
-0.31879918152844766,-0.31879918152844766,1.0000360001130684,4.815946185275858e-05
-0.3174136139670736,-0.3174136139670736,0.9999952422485524,4.867685612955036e-05
-0.3164210512768477,-0.3164210512768477,0.9998982460822866,4.912121107056887e-05
-0.31521800020636875,-0.31521800020636875,0.9998587141431017,4.920429313070351e-05
-0.314287626719306,-0.314287626719306,1.0001180309642135,4.9135700247174674e-05
-0.31291246119653804,-0.31291246119653804,0.9999484270585016,4.8610110926469125e-05
-0.3121643067992409,-0.3121643067992409,0.9999966645747722,4.858984775287077e-05
-0.3115469564079831,-0.3115469564079831,0.9998914834123971,4.763700639894373e-05
-0.3109023213335604,-0.3109023213335604,1.0000797864297077,4.7618049452695056e-05
-0.31009811148105654,-0.31009811148105654,0.9999586604414995,4.815536438670483e-05
-0.30861881629025445,-0.30861881629025445,0.9998411326875365,4.8910429671146947e-05
-0.3072672493261052,-0.3072672493261052,1.0001162278851612,4.846561817233608e-05
-0.30633898051746655,-0.30633898051746655,1.0000914112437413,4.8198864686982506e-05
-0.3054561652432312,-0.3054561652432312,1.0000575953093143,4.828841451724625e-05
-0.30442242996141433,-0.30442242996141433,1.0001443088133284,4.78811502951151e-05
-0.3037033638895082,-0.3037033638895082,1.0000978629984418,4.6890027644445225e-05
-0.3029233584442409,-0.3029233584442409,0.9999051761795229,4.8268238675992875e-05
-0.29987167445724483,-0.29987167445724483,1.0000588644649921,4.810108240872981e-05
-0.2982025876874104,-0.2982025876874104,0.9999307583482,4.8414628918132146e-05
-0.2973657131806249,-0.2973657131806249,1.0000768290181876,4.782005803384997e-05
-0.2968470498963143,-0.2968470498963143,0.9999838091863126,4.7755146920767645e-05
-0.29621734894535623,-0.29621734894535623,1.000031424507542,4.805311139219579e-05
-0.2955316178209614,-0.2955316178209614,0.9999929876591036,4.800220149660096e-05
-0.2950281781857484,-0.2950281781857484,1.000065581725028,4.837176863066793e-05
-0.2946003904362442,-0.2946003904362442,1.0000758178424167,4.826275541827441e-05
-0.2941852136849775,-0.2941852136849775,0.99989094603751,4.801934365059744e-05
-0.29378227708366467,-0.29378227708366467,1.0001256242033336,4.840470813838442e-05
-0.2932743572018808,-0.2932743572018808,0.9999709782605748,4.904184089085743e-05
-0.292708899234276,-0.292708899234276,1.0002375851816654,4.850894048581397e-05
-0.2921984627333586,-0.2921984627333586,0.999955279824281,4.877362215122968e-05
-0.29167037631123094,-0.29167037631123094,0.9999056965910347,4.8767738817989334e-05
-0.2911192930747347,-0.2911192930747347,0.999927723189735,4.8540202137570245e-05
