time,time,flux,flux_err
-0.49983268986276624,-0.49983268986276624,0.9998565121552071,0.00012593116138673462
-0.4995982017123121,-0.4995982017123121,1.0001413914700323,0.00012725317657160355
-0.49936298437824006,-0.49936298437824006,1.0000459606987024,0.00011528801780478155
-0.49920390651459456,-0.49920390651459456,1.0000100971390216,0.00011509858886600728
-0.4990808450289478,-0.4990808450289478,1.0002493002490858,0.00011008060283274386
-0.498877131025074,-0.498877131025074,1.0001238305702298,0.00011507732749278933
-0.49867157792687067,-0.49867157792687067,1.0000568017574838,0.00011289461831197351
-0.4984776444987801,-0.4984776444987801,0.9999456270063481,0.00011431407829434788
-0.49824566189490727,-0.49824566189490727,0.99995638698913,0.00011162554051129064
-0.498054281448276,-0.498054281448276,1.0000301623265746,0.00011393904056868462
-0.4978410029223596,-0.4978410029223596,0.9999479288617021,0.00011098986716323741
-0.4975991815146699,-0.4975991815146699,1.0000566300848626,0.00010874542590105321
-0.49745511252986035,-0.49745511252986035,1.00015307397343,0.00011453129605591626
-0.4973072679786128,-0.4973072679786128,1.000071514283547,0.00011265222016642916
-0.49715495965065204,-0.49715495965065204,0.9999683923855031,0.00011582530689567986
-0.49692208330525317,-0.49692208330525317,1.0001676329452118,0.00011438449923142432
-0.49666668991048935,-0.49666668991048935,0.9999022988776665,0.00011221112421633291
-0.49637239808507727,-0.49637239808507727,1.0000022340314922,0.0001158373494518486
-0.4961383894566097,-0.4961383894566097,0.9999788134426865,0.00011509285945241533
-0.49586204699444353,-0.49586204699444353,1.000256809342488,0.0001158808261835211
-0.4956159558918444,-0.4956159558918444,1.0002566376896218,0.00011194581644705264
-0.49537362403134466,-0.49537362403134466,1.0000247145658072,0.00011361053015936234
-0.49524183893372536,-0.49524183893372536,0.9999631757656282,0.00011054998375443353
-0.4950247249595122,-0.4950247249595122,0.9999528204600777,0.0001106939667041023
-0.4947366237676761,-0.4947366237676761,0.9999249119656826,0.00011445959779312225
-0.49458914862480013,-0.49458914862480013,1.0000273450059047,0.00011277492366960841
-0.49442735442498814,-0.49442735442498814,0.9999735912222734,0.00011250194407524754
-0.4942958757193992,-0.4942958757193992,0.9999582298012573,0.00011181078787078148
-0.494042548636935,-0.494042548636935,1.0001062209470548,0.00011364546513961938
-0.49386233124605494,-0.49386233124605494,1.0001915294993384,0.00011561899934530158
-0.493616079500498,-0.493616079500498,1.000021518019666,0.00011345078023796912
-0.49346090069957427,-0.49346090069957427,1.0000488568428367,0.0001159471176047485
-0.49309601178538287,-0.49309601178538287,1.0003160961256927,0.00011665040301279747
-0.49282141698131454,-0.49282141698131454,0.9999087317375659,0.00011382224943834737
-0.4926294971279276,-0.4926294971279276,1.0000593694534088,0.00011348672209859601
-0.4924777508196712,-0.4924777508196712,1.0000941680011937,0.00010998383313765174
-0.4922561882303853,-0.4922561882303853,1.000022019441724,0.00011193233467991987
-0.4920282621489605,-0.4920282621489605,1.0000495812195924,0.00011180880669418182
-0.4919032134115696,-0.4919032134115696,1.0001914451349403,0.00011541175622197683
-0.49170689890161157,-0.49170689890161157,0.9999589535020552,0.00010920498405959156
-0.4915018091262027,-0.4915018091262027,0.9999394362205966,0.00011208392288205165
-0.4913587440554693,-0.4913587440554693,1.000107862271736,0.00011386107008178425
-0.49123142786265817,-0.49123142786265817,1.0000142302732,0.00011229833614262568
-0.49108499185167603,-0.49108499185167603,1.000011805075569,0.00011524289375441964
-0.4909148090191593,-0.4909148090191593,0.9999187159420714,0.00011025528344513953
-0.490800370767829,-0.490800370767829,1.0002833760399508,0.00011444884097781187
-0.4905358992378751,-0.4905358992378751,1.0000303570280455,0.00011211660037228675
-0.49036505073527226,-0.49036505073527226,1.0000141608261999,0.00011449019379926461
-0.4901561696875433,-0.4901561696875433,1.0000998927940576,0.00011452514499595836
-0.4899691111590073,-0.4899691111590073,1.0001462872090854,0.00011161127516223586
-0.48966916832141577,-0.48966916832141577,0.9999757608630979,0.00011589163635117945
-0.48942017649751507,-0.48942017649751507,1.000104440065531,0.00011471942424973693
-0.4891962462272204,-0.4891962462272204,0.9999139690607033,0.00011400537168335065
-0.488938861983479,-0.488938861983479,0.9997659100581104,0.00011170078180345073
-0.4886736254200514,-0.4886736254200514,0.99995187726252,0.00011535757014101051
-0.4885011993465014,-0.4885011993465014,1.0000814636297104,0.0001127654303992277
-0.4882705664851528,-0.4882705664851528,1.0000493778122856,0.00011353589118164942
-0.48811934160112286,-0.48811934160112286,0.9998631571500736,0.00011614096182207517
-0.48793701490649255,-0.48793701490649255,1.0001437788054004,0.00011116143398157876
-0.48763570037772297,-0.48763570037772297,0.9999457380389456,0.00011507773443097109
-0.48738512663549044,-0.48738512663549044,1.0000338508700408,0.00011635198801749136
-0.48715797857730647,-0.48715797857730647,0.9998272704016292,0.00011847742114052028
-0.48696081965681515,-0.48696081965681515,1.0000807839109946,0.00011166504450159664
-0.48664788181486074,-0.48664788181486074,1.000010455795484,0.00011544301683020059
-0.4863591630142764,-0.4863591630142764,1.000031449245879,0.00011300718889254407
-0.4861090594858979,-0.4861090594858979,1.0000905232598138,0.00011281294339284887
-0.48594396914340904,-0.48594396914340904,1.0001506510085332,0.0001105250309085182
-0.48584528664287063,-0.48584528664287063,0.9999210878899122,0.00011416530641517083
-0.48561515734982097,-0.48561515734982097,1.000119199040861,0.00011695145537945998
-0.4853566032019444,-0.4853566032019444,0.9999124797060087,0.00011757826688328624
-0.4852339300319727,-0.4852339300319727,1.000020603919139,0.00011118330816777466
-0.4849536519170215,-0.4849536519170215,0.9998812551417892,0.00011412738031518085
-0.48477625199593605,-0.48477625199593605,1.000101186787344,0.00011009646550350519
-0.4846327653169283,-0.4846327653169283,0.9998999904102716,0.00011096935425429857
-0.48423435695149236,-0.48423435695149236,0.9999739319471331,0.00011136916840959874
-0.4839380672114203,-0.4839380672114203,1.000075339358701,0.00011517783015854469
-0.48372829217332763,-0.48372829217332763,0.9998696303583327,0.00011654226522304152
-0.48343687032538585,-0.48343687032538585,0.9999671986711501,0.00011136577707450521
-0.48325050776038553,-0.48325050776038553,1.0001607627427322,0.00011077852788540481
-0.48314158149223657,-0.48314158149223657,1.0000173486435113,0.00011179491351251754
-0.4830118951278564,-0.4830118951278564,1.0000737819134407,0.0001173340341958371
-0.4827538556688523,-0.4827538556688523,1.000004953437768,0.00011413299168503682
-0.48259281119608205,-0.48259281119608205,0.9999481204170078,0.00011368427905438796
-0.4823589394807641,-0.4823589394807641,1.0001555200070515,0.00011427353425597375
-0.4821779196288844,-0.4821779196288844,0.9998068482897035,0.00011260284088602149
-0.48188145886015266,-0.48188145886015266,1.0000479602803318,0.00011272017573124491
-0.4815262474956398,-0.4815262474956398,1.0000247053757723,0.00011424667809682305
-0.48127195835113523,-0.48127195835113523,0.9999542544303569,0.00011431485265267873
-0.4810633026951109,-0.4810633026951109,0.9999371914024836,0.00011134430822381839
-0.48090074017745793,-0.48090074017745793,1.0000503397524887,0.00011432075848433415
-0.4807404761457292,-0.4807404761457292,1.0002963364928454,0.00010909564284970679
-0.4805758390939445,-0.4805758390939445,0.9999310850522981,0.00011415245200340103
-0.48037288575724235,-0.48037288575724235,1.0000084004903902,0.00011556516748252941
-0.48016003064913093,-0.48016003064913093,1.0001516942165325,0.00011445279131910654
-0.4799830509153253,-0.4799830509153253,1.0000575221057484,0.00011604500253549427
-0.47980536186587414,-0.47980536186587414,0.999943982581183,0.00011269402032071897
-0.47965033268774276,-0.47965033268774276,0.9999830600289208,0.00011264994264126822
-0.4794441194018873,-0.4794441194018873,0.9999926312248373,0.00011528302086481485
-0.4792981557948224,-0.4792981557948224,1.000023705844621,0.00011253608354183694
-0.478994328124827,-0.478994328124827,0.9999752740176948,0.00011329726987020197
-0.47869491105957424,-0.47869491105957424,0.9998273212037819,0.00011218845567498112
-0.4784359887788014,-0.4784359887788014,1.0001567532551952,0.000112413302495025
-0.47822437266659107,-0.47822437266659107,0.9998238318380446,0.00011234409875239219
-0.4778800346291973,-0.4778800346291973,0.9999112711993272,0.00011537642296315547
-0.4776030474095023,-0.4776030474095023,1.0000342932644177,0.00011658206156817629
-0.4773810639846488,-0.4773810639846488,0.999843806234637,0.00011477595998079883
-0.4772618301685725,-0.4772618301685725,0.9999500130604974,0.00011579322306125548
-0.4770990647601138,-0.4770990647601138,0.9999232089410691,0.00011580613696624406
-0.47693362755890123,-0.47693362755890123,0.9999940786004622,0.00011289685236038063
-0.4767183143034345,-0.4767183143034345,0.999850621263654,0.00011228687224720376
-0.47647511865798153,-0.47647511865798153,1.00006984842247,0.00011051304920919327
-0.47628609947423683,-0.47628609947423683,0.999959085687828,0.00011424505581000634
-0.4759949664090527,-0.4759949664090527,1.0000110344960842,0.00011219265239673173
-0.47560013253605576,-0.47560013253605576,0.999694268889882,0.00011298278142324162
-0.4753313886874821,-0.4753313886874821,0.9999322643754418,0.000110406364531413
-0.4751430330594303,-0.4751430330594303,0.999930659431049,0.00011401882369622716
-0.47491052113691695,-0.47491052113691695,1.000045672224657,0.00011679187671751736
-0.47467670809273843,-0.47467670809273843,0.9999565733848362,0.000111480815663923
-0.4745218153948372,-0.4745218153948372,0.9999904719449827,0.00011568772607714577
-0.4743442701546883,-0.4743442701546883,1.0001657109253181,0.00011546672433901869
-0.4742131313454593,-0.4742131313454593,1.0000715112595506,0.00011204659459873318
-0.4740333162248135,-0.4740333162248135,0.9998838303337871,0.00011576116269188124
-0.4737778048554901,-0.4737778048554901,0.9999683634472026,0.00011323355478242325
-0.47362059186343686,-0.47362059186343686,1.0001485460711421,0.00011291880948916295
-0.4733942262289929,-0.4733942262289929,0.9999141868782871,0.00011462293775044853
-0.4730622431765369,-0.4730622431765369,1.0000159452737405,0.0001148188341010726
-0.4728738042547775,-0.4728738042547775,1.0000725153488057,0.00011054709727056995
-0.4726799445168581,-0.4726799445168581,1.0001539764307572,0.0001110638525778817
-0.47248060338679354,-0.47248060338679354,1.0000973604381656,0.00010973273856202832
-0.472336239652941,-0.472336239652941,1.000147413497438,0.00011575906586074305
-0.47215971987825467,-0.47215971987825467,0.9998638987526514,0.0001154373404078606
-0.4719325242396735,-0.4719325242396735,1.0000486964942,0.00011087095132918332
-0.4716422858844453,-0.4716422858844453,1.0000956884457044,0.00011578045962718769
-0.4713556820744998,-0.4713556820744998,1.0001143348530035,0.0001169224230087202
-0.47109667915065073,-0.47109667915065073,1.00000237398961,0.00011418321081715631
-0.47073795983815214,-0.47073795983815214,1.000078277647725,0.00011789644252127819
-0.47037987715448254,-0.47037987715448254,0.9998323324962509,0.00011356933407339435
-0.47022698852524625,-0.47022698852524625,1.000148380774085,0.0001137942224803276
-0.47006591353783733,-0.47006591353783733,0.99999600653331,0.0001096269881171485
-0.4698510420254024,-0.4698510420254024,1.0001042692071398,0.0001110944956007374
-0.46965004605881405,-0.46965004605881405,0.9999219143334239,0.00011579958485192953
-0.4694936806699843,-0.4694936806699843,1.0000872703577177,0.00011208958260205388
-0.46934229415855955,-0.46934229415855955,1.0000892575470082,0.00011238988685712476
-0.46917273559884054,-0.46917273559884054,1.0001972601707934,0.00011215271081311588
-0.46891936138490564,-0.46891936138490564,1.0000123922378619,0.00011380655042287232
-0.46874921057460595,-0.46874921057460595,1.000023021971147,0.00011425696966926735
-0.46850928031271905,-0.46850928031271905,1.0000500292142407,0.00011446947597781735
-0.46824129737433395,-0.46824129737433395,1.0001269115512084,0.0001200552311387928
-0.46799551375661397,-0.46799551375661397,1.0000656508302757,0.00011361923204588503
-0.4676976607312099,-0.4676976607312099,1.0000755721190178,0.00011179187233176637
-0.46750162826647285,-0.46750162826647285,1.0001347091730781,0.00011232691953129918
-0.46729072539819755,-0.46729072539819755,1.0000338834740963,0.00011509397828307333
-0.467062830649229,-0.467062830649229,0.99998938485632,0.00011116661638757874
-0.4668940137657046,-0.4668940137657046,1.0000072337271027,0.00011690686767755765
-0.46665437310221025,-0.46665437310221025,1.0001798288481714,0.00010914533895560235
-0.46640641099074853,-0.46640641099074853,1.0000010692127421,0.00011220163212665476
-0.4662472457392141,-0.4662472457392141,0.9999117221681878,0.00011691408703967192
-0.4661436071750359,-0.4661436071750359,1.0000050990588008,0.00011234831862265748
-0.4659649276676646,-0.4659649276676646,0.9998128086261124,0.00011097055419753213
-0.46574060220154934,-0.46574060220154934,0.9999497873924538,0.00011535003975713642
-0.4653635442329687,-0.4653635442329687,1.000071218337066,0.00011660806271965044
-0.46504531389582554,-0.46504531389582554,1.0001618929853628,0.00011489476128892615
-0.4648559631954413,-0.4648559631954413,1.0000784534816245,0.00011502599385113583
-0.4643815608607838,-0.4643815608607838,0.9999530292333055,0.00011473310729616707
-0.46417864455506785,-0.46417864455506785,0.9999753895681316,0.00011457932169213727
-0.46391031265156923,-0.46391031265156923,0.9999799181259403,0.00011135182668306625
-0.4636268384027062,-0.4636268384027062,1.0000628898170838,0.00011599609354163043
-0.46339575315942055,-0.46339575315942055,1.000116998693011,0.00011456114870307674
-0.46317901669099226,-0.46317901669099226,1.0000533562453355,0.00011196073115164031
-0.46300931224541275,-0.46300931224541275,1.000207673358819,0.00011756964575153217
-0.462826557092194,-0.462826557092194,1.0000844790487673,0.0001103458830789349
-0.46254855644947385,-0.46254855644947385,0.9999917097451899,0.0001174446404380866
-0.4623131089305389,-0.4623131089305389,1.0000015483916536,0.00011279360423911973
-0.46193497137574013,-0.46193497137574013,1.0000793784881974,0.00011472498350545063
-0.46163128635889733,-0.46163128635889733,0.9999121286675059,0.00011544006850276714
-0.4613200505176792,-0.4613200505176792,0.9998798724524285,0.00011297791316357431
-0.46111369638820177,-0.46111369638820177,1.0000746316195535,0.00011220578862535207
-0.4610086042790499,-0.4610086042790499,1.0000475734225571,0.0001130025114721507
-0.46086095991777254,-0.46086095991777254,0.9998856661506761,0.00011427789078677199
-0.4606735248395125,-0.4606735248395125,0.9999180196535606,0.00011514681605877632
-0.46038244378069065,-0.46038244378069065,0.9998417788473815,0.00011761584466678772
-0.4602277936130122,-0.4602277936130122,1.000055035214085,0.00011172864800354444
-0.4599085829919204,-0.4599085829919204,1.0000719259918873,0.00011434592689813651
-0.45965545569270033,-0.45965545569270033,0.9999514680224972,0.00011010167019571348
-0.4592869055479241,-0.4592869055479241,0.9998970723568833,0.00011142114703344991
-0.4588932910344738,-0.4588932910344738,0.999840062289234,0.00011519694555984132
-0.4586829612926522,-0.4586829612926522,1.000018239120777,0.0001164830584731143
-0.45845522992531185,-0.45845522992531185,0.9998086933140462,0.00011133890816579549
-0.4582310105615761,-0.4582310105615761,1.000030676737792,0.00011203452613815012
-0.45811938442057,-0.45811938442057,0.9999677337358112,0.0001114623571272902
-0.4579271436065028,-0.4579271436065028,1.000160769557726,0.00011731859915194223
-0.45768390198427367,-0.45768390198427367,1.0000031477018048,0.00011430339048451815
-0.4575606060527207,-0.4575606060527207,1.000039534688607,0.00011441688534524115
-0.4573812426329823,-0.4573812426329823,0.9999966444732319,0.00011102510692610077
-0.45723388635669837,-0.45723388635669837,1.000060137673174,0.00011408696061682662
-0.45709669760472027,-0.45709669760472027,1.0002575458485385,0.00011557421579999371
-0.45677617882320193,-0.45677617882320193,0.999900726336216,0.00011265603302001767
-0.45651454773760636,-0.45651454773760636,0.9998218774955516,0.00011289505872132694
-0.4562800332714687,-0.4562800332714687,0.9998990418717735,0.00011513933631300854
-0.45608822260837767,-0.45608822260837767,1.0001303534243975,0.00010972801812350137
-0.4558659580805397,-0.4558659580805397,0.9999731741708373,0.00011304292203699383
-0.455525401608611,-0.455525401608611,0.9998986622626008,0.00011413066723996508
-0.4553045090280648,-0.4553045090280648,1.0000782809928388,0.00011611616915312103
-0.4550127676055126,-0.4550127676055126,1.0000720798809999,0.00011471903532907816
-0.4548650995413482,-0.4548650995413482,1.0001169971811072,0.00011687654983849616
-0.45471300411445553,-0.45471300411445553,0.9999243620113016,0.00010923138746491315
-0.45452691215177765,-0.45452691215177765,0.9998726033136016,0.00011343746724300104
-0.4543346113321604,-0.4543346113321604,1.0000217383494472,0.00011442881272750393
-0.4541213477074052,-0.4541213477074052,0.9998303377208014,0.00011207099812103204
-0.45391340539208613,-0.45391340539208613,1.0001374867883668,0.00011447955228487846
-0.4535588303406257,-0.4535588303406257,0.9999754430916239,0.00011570727678670602
-0.4533353433704178,-0.4533353433704178,1.0000034161212532,0.00010892987648605515
-0.45307684130020787,-0.45307684130020787,1.0000297104846523,0.00011073516294764574
-0.45282756999731644,-0.45282756999731644,0.9999124570065675,0.0001145203685468193
-0.4525696860349854,-0.4525696860349854,1.0001155535746276,0.00011435820729767483
-0.45231409744228585,-0.45231409744228585,1.0000312335953156,0.0001132452514692228
-0.45211470174763235,-0.45211470174763235,1.0001056124644594,0.00011582164300928651
-0.4519909308095521,-0.4519909308095521,0.9999916026363456,0.00011552907586619183
-0.4517511168683995,-0.4517511168683995,0.9999388048729877,0.00011339267779133413
-0.45151773110264914,-0.45151773110264914,1.0000047824452176,0.00011400344112529799
-0.4512572166961036,-0.4512572166961036,0.9999918173295441,0.00011109772838711664
-0.45100369600986595,-0.45100369600986595,1.0001003885927957,0.00011375671097545466
-0.4506830894271843,-0.4506830894271843,1.0000715843652395,0.00011404467716946973
-0.45045076442111165,-0.45045076442111165,0.9999668854396141,0.00011060190025639815
-0.4502701718847675,-0.4502701718847675,1.0000505960758157,0.00010915299324861648
-0.4500947640066443,-0.4500947640066443,0.9998240833666763,0.00011288352236453053
-0.4499592812811898,-0.4499592812811898,1.0000266274816894,0.00011394781864859287
-0.44967755513280283,-0.44967755513280283,1.0000217650876766,0.00011400176231484822
-0.44951930859533606,-0.44951930859533606,0.9999521574689707,0.00011242946396888191
-0.4493038375083415,-0.4493038375083415,1.0000182108767384,0.00011883271706791007
-0.4492144021030981,-0.4492144021030981,0.9998719761624459,0.00011227695366276206
-0.44904667996088393,-0.44904667996088393,1.0000502703815193,0.00011023705515051585
-0.4487650930204836,-0.4487650930204836,0.9997847534915364,0.00011537271360189602
-0.4485561293680803,-0.4485561293680803,0.9999956962714472,0.00011652061325837704
-0.448274631446111,-0.448274631446111,0.9999288949881799,0.00011248237251896417
-0.4479344289051369,-0.4479344289051369,1.0000492249040065,0.00011391669349168256
-0.4477540298707027,-0.4477540298707027,0.9999731444222313,0.00011030892184023848
-0.4475584335748863,-0.4475584335748863,1.0000086548749043,0.00011098061039479937
-0.4473547199762834,-0.4473547199762834,1.0001082651281563,0.00011458320015711202
-0.4471620144642657,-0.4471620144642657,0.9999376222654364,0.00011278844107750158
-0.44702345566183793,-0.44702345566183793,1.000082811752398,0.00011435693386256275
-0.44676613525807624,-0.44676613525807624,1.0000881480333734,0.00011544466578957979
