time,time,flux,flux_err
-0.49987734140455586,-0.49987734140455586,0.9970198119966039,0.003290722623570521
-0.499682005844799,-0.499682005844799,1.001840377741118,0.0038069751759907955
-0.4994020348528238,-0.4994020348528238,0.9994845719975392,0.002974647980179176
-0.49892746477578387,-0.49892746477578387,1.0025417546061157,0.003002320529273982
-0.4986541921591424,-0.4986541921591424,1.0005207846111903,0.003029876523074938
-0.49843800957542045,-0.49843800957542045,0.9983237276761242,0.0032354006310959756
-0.49819064537600755,-0.49819064537600755,1.0018694690488756,0.002675264764411279
-0.4978509663091927,-0.4978509663091927,0.9969935313757737,0.0029295113712132976
-0.4974436752155043,-0.4974436752155043,1.0002460930645887,0.0029425138102426324
-0.4971744773339196,-0.4971744773339196,0.9960700375235942,0.0031077745296286745
-0.49690812274252494,-0.49690812274252494,1.002077734499419,0.0032023853899177043
-0.4965361399215908,-0.4965361399215908,0.9996622517053828,0.0032425640825952404
-0.4961972862824496,-0.4961972862824496,0.9991693527051778,0.0033310617280049156
-0.4960513713351702,-0.4960513713351702,1.0009937150876258,0.003039251302728408
-0.4957401906815676,-0.4957401906815676,0.9988504625762165,0.0029366683951857152
-0.4954899267683913,-0.4954899267683913,1.0002617968686558,0.0027253173910649314
-0.4952472153555846,-0.4952472153555846,1.0023313020451154,0.0034589000279527174
-0.49496940429305597,-0.49496940429305597,0.999786944616376,0.0033104930588756854
-0.49479991457392314,-0.49479991457392314,0.9999815453245517,0.0031050058276953104
-0.49459138677671033,-0.49459138677671033,1.0008823536969802,0.0033091052233664327
-0.4941523227141033,-0.4941523227141033,0.9983310268371663,0.002866062820906272
-0.4937763717927055,-0.4937763717927055,0.998387760407317,0.0028477327375393577
-0.4935700516408133,-0.4935700516408133,0.9993397979653906,0.0030011824852348573
-0.4933802990361073,-0.4933802990361073,0.9968567466088697,0.0034483094784975655
-0.49307669798070036,-0.49307669798070036,1.005038231282689,0.002855838754463662
-0.4926727902719222,-0.4926727902719222,0.9999779387847048,0.0027466183858429445
-0.49230092406605763,-0.49230092406605763,1.003252724602157,0.0031926524290537897
-0.4920066093077594,-0.4920066093077594,0.9990974317325996,0.0033211408399493767
-0.49168097665642563,-0.49168097665642563,1.0011074267680002,0.0027164195106751366
-0.4914110478508974,-0.4914110478508974,0.9961550674272545,0.003356672393646916
-0.49116823675312843,-0.49116823675312843,0.999459166830843,0.003478423918383624
-0.4909402125490942,-0.4909402125490942,1.003268471990827,0.0029962362481533887
-0.4906054020400461,-0.4906054020400461,1.0007234703836647,0.0026033610859587885
-0.49038474436160867,-0.49038474436160867,0.9982576889950969,0.003361058472052452
-0.4901117011168708,-0.4901117011168708,0.9990162234373962,0.0031392876590808625
-0.48991050832273686,-0.48991050832273686,0.9977223482075146,0.003128171047501154
-0.48972368418767476,-0.48972368418767476,0.9999147011000444,0.003354593098073897
-0.4894009875558595,-0.4894009875558595,0.9983976925690643,0.002936243128275816
-0.4889038318664916,-0.4889038318664916,0.9984471841366382,0.003048156499797613
-0.4886960545511556,-0.4886960545511556,0.9998368232711947,0.003069875452432826
-0.48846152024516415,-0.48846152024516415,0.9992373028686478,0.003182079560019862
-0.4881899061499553,-0.4881899061499553,1.0014801626878103,0.002928545262896597
-0.4878573323223009,-0.4878573323223009,0.9988218728909611,0.002986936417305095
-0.48740224471523563,-0.48740224471523563,1.0010560327260296,0.003154452172794327
-0.4870565141720135,-0.4870565141720135,1.0014806373982281,0.003251885018547801
-0.48671442126910736,-0.48671442126910736,0.9992169096562776,0.00294009629076626
-0.486377608287512,-0.486377608287512,1.0005793204922955,0.00312086293338649
-0.4861996078432185,-0.4861996078432185,0.9993044808411188,0.0035141087401383054
-0.48597715844775846,-0.48597715844775846,1.0002911670871977,0.0029973944220532235
-0.4856457225097074,-0.4856457225097074,1.00429572034623,0.002762898792989776
-0.4854653078532237,-0.4854653078532237,1.000541153382294,0.003085338191860747
-0.4852327919733398,-0.4852327919733398,1.0023091644533337,0.0033858825465772546
-0.48500355671426404,-0.48500355671426404,1.000812278372441,0.003094824872181213
-0.4848407678239937,-0.4848407678239937,0.9994392406234718,0.0033163872725451965
-0.4846075755770471,-0.4846075755770471,0.9999915457656143,0.0030232088664190436
-0.4841050776799875,-0.4841050776799875,1.0004678889260377,0.0030184236510559575
-0.4837767009594927,-0.4837767009594927,0.9982861114087566,0.0027189272087198902
-0.4836035680791156,-0.4836035680791156,1.0023486797852044,0.0032319819615904376
-0.48336295640358456,-0.48336295640358456,0.9986051006678631,0.0029881782996354226
-0.48305738133522025,-0.48305738133522025,0.9948694988355266,0.00285438367901165
-0.4826930480794772,-0.4826930480794772,1.0010741611971874,0.0030439798391938082
-0.48226260961689604,-0.48226260961689604,0.9951089611453371,0.002922577114537941
-0.48193625716239696,-0.48193625716239696,0.9976731413321304,0.003411202331029472
-0.4816215775536875,-0.4816215775536875,1.0041214480819463,0.0032859632288864
-0.4813081034079005,-0.4813081034079005,0.9976733708594592,0.0033346456301438
-0.4811395694071052,-0.4811395694071052,0.9991285480249132,0.0030371626547769626
-0.4807914573598282,-0.4807914573598282,0.9985048314290796,0.002922204321286748
-0.48055982370251515,-0.48055982370251515,1.0007128007088117,0.003022603033783998
-0.48030082015693554,-0.48030082015693554,0.999859545140495,0.0032772496480968903
-0.48008019715568934,-0.48008019715568934,0.9944753513766491,0.003313790138568016
-0.4799106715935523,-0.4799106715935523,0.999927628033783,0.003098719130461119
-0.47970210414732717,-0.47970210414732717,1.0016492541228057,0.0033138057546441184
-0.4792632310753106,-0.4792632310753106,1.0003552938337337,0.0028728570648196843
-0.47885727028301517,-0.47885727028301517,1.0003989141294862,0.0028800414313920122
-0.47868094016052964,-0.47868094016052964,1.001378356024,0.003008395917857588
-0.47845844499966006,-0.47845844499966006,0.9999325482906766,0.003185167352354498
-0.47814311876488774,-0.47814311876488774,1.0034499884334678,0.0029087460646669227
-0.47783105874896137,-0.47783105874896137,0.9986232015576795,0.0030555410893673435
-0.47737231941976005,-0.47737231941976005,0.9955383084872269,0.0029229682073744654
-0.477001468704907,-0.477001468704907,1.0008283265639224,0.003135752032400679
-0.47665848829792595,-0.47665848829792595,1.0034149051179184,0.0032861080646552714
-0.47634504248958365,-0.47634504248958365,1.000642809780338,0.0033336673776564385
-0.47617649899120806,-0.47617649899120806,0.9965122493333498,0.003034967478149691
-0.4758284068111607,-0.4758284068111607,1.0008137979981064,0.002922626082281881
-0.4755402128489322,-0.4755402128489322,1.0023166900642306,0.003307205940533019
-0.47533464083708166,-0.47533464083708166,1.0015020716439758,0.0034139278947531567
-0.4750805011854027,-0.4750805011854027,1.0024700273654994,0.003172934687319876
-0.474954733935715,-0.474954733935715,0.9999172762805083,0.0027896576947709405
-0.47479383714698997,-0.47479383714698997,0.9981135245648854,0.003516250895043578
-0.4744062314004623,-0.4744062314004623,1.0015711222740709,0.0029350773545006627
-0.4739309449132634,-0.4739309449132634,1.0011661433501295,0.002854326811957567
-0.47371790305717243,-0.47371790305717243,1.0017244824678533,0.0030089012112630258
-0.4734954265693204,-0.4734954265693204,1.0001864920847092,0.0031840833853681513
-0.4731800510626044,-0.4731800510626044,0.9987334959540977,0.0029060435682626362
-0.4728679381349593,-0.4728679381349593,0.9994091241683671,0.0030537415980901117
-0.47240924645964244,-0.47240924645964244,0.9984077188418367,0.0029246596494341445
-0.4720744174286665,-0.4720744174286665,1.002694644180432,0.003165916351740991
-0.47177494884631416,-0.47177494884631416,0.9971143441796384,0.003277717058882905
-0.47141814854207953,-0.47141814854207953,0.9975940631116821,0.0030690958129727325
-0.47126905900572635,-0.47126905900572635,1.0015164275124562,0.003258542375862989
-0.47097883523854306,-0.47097883523854306,0.9988651164459856,0.002926049806229814
-0.47068410081499223,-0.47068410081499223,0.9960032285365829,0.002732724846887017
-0.47037155251737206,-0.47037155251737206,0.9991956906187138,0.0034087216526247676
-0.47013485970726376,-0.47013485970726376,1.00255918173167,0.0033508615105971125
-0.46998450958658394,-0.46998450958658394,1.0013300327551395,0.003098329937412278
-0.46978253622878585,-0.46978253622878585,0.997220205439921,0.003045917242046882
-0.4693722334130598,-0.4693722334130598,0.9995647624148882,0.0030233644197301536
-0.4689742098853003,-0.4689742098853003,0.9999335475133095,0.003055283585945642
-0.4688363247107873,-0.4688363247107873,1.0011047424213193,0.003311135208425136
-0.4686094162442487,-0.4686094162442487,1.0007091701714936,0.00318228079952916
-0.46835182479512694,-0.46835182479512694,0.9985877123149752,0.0027332913785052277
-0.4680723509026393,-0.4680723509026393,1.0006607437276103,0.0029234955634312863
-0.4676192772153399,-0.4676192772153399,1.0029277476930611,0.0031477151148163263
-0.46720425013957084,-0.46720425013957084,0.999283585027199,0.003253620062189358
-0.46684872673513383,-0.46684872673513383,1.0011073555966545,0.003224245824081913
-0.46646570770649304,-0.46646570770649304,1.00119056809563,0.003029531566900704
-0.4663060149137891,-0.4663060149137891,1.0018110727205738,0.0032520657739342185
-0.4660204359892305,-0.4660204359892305,0.9998293857914391,0.0029899199398185075
-0.4657709712562337,-0.4657709712562337,1.0004461665150908,0.0026146260033760122
-0.46547296384678705,-0.46547296384678705,0.9988412950876949,0.0032542969437286914
-0.4651909898335134,-0.4651909898335134,1.0018531873881984,0.003314954039491752
-0.46502142858312256,-0.46502142858312256,1.0003201339557186,0.003094715134720387
-0.4648194479851327,-0.4648194479851327,1.0025586324052074,0.003044157522579263
-0.46448532211052224,-0.46448532211052224,1.002718785449459,0.0030985197182765577
-0.46406433487850335,-0.46406433487850335,1.000740042696037,0.0030461735817499066
-0.4638438517865097,-0.4638438517865097,1.0012973664932083,0.003296181504414243
-0.4636463902972764,-0.4636463902972764,1.00050760512147,0.003181734151380358
-0.46337451607587354,-0.46337451607587354,1.0015890069969828,0.0029224941288103086
-0.46304188984654504,-0.46304188984654504,0.9990667270208051,0.0029902210979648007
-0.46261068613848694,-0.46261068613848694,0.9967299709638218,0.002915454963944838
-0.46228253315696294,-0.46228253315696294,0.9988944522095586,0.003002934414294205
-0.46194515481247433,-0.46194515481247433,0.9983724097952047,0.0031857744848823553
-0.46159155266782365,-0.46159155266782365,0.9940934411176332,0.0033547675696795113
-0.46139725918415025,-0.46139725918415025,1.0024889456502848,0.0034657666575506943
-0.46117781812668,-0.46117781812668,0.9982895304293674,0.0026745513729102737
-0.4608745743872305,-0.4608745743872305,1.0020165090160638,0.0029217756192773912
-0.4605857064764223,-0.4605857064764223,1.0008365057182451,0.003115404309684211
-0.4603332250935182,-0.4603332250935182,1.0020725278292921,0.003133436524252106
-0.46013198278624257,-0.46013198278624257,0.9983375755311217,0.0031234078356515756
-0.45994509447177734,-0.45994509447177734,0.9956058466413115,0.0033419869415343357
-0.45966427066985033,-0.45966427066985033,0.9994393031227699,0.0029656738217191986
-0.4592650866710756,-0.4592650866710756,1.0021914610801193,0.003179343373326681
-0.4589498029388551,-0.4589498029388551,0.9986243508731147,0.00305193863013362
-0.45876969687697056,-0.45876969687697056,0.9982403158058766,0.003211654751815593
-0.4585478109463338,-0.4585478109463338,1.0003909870806933,0.0029864431691949992
-0.4582133595554069,-0.4582133595554069,0.9996708702259907,0.003081249880175982
-0.45787756559402626,-0.45787756559402626,1.0004847179564238,0.003045218162886887
-0.4574506947933969,-0.4574506947933969,1.003600891109765,0.002979938293694087
-0.4571493554941071,-0.4571493554941071,1.0021196750114072,0.003138039237771232
-0.45675328009569965,-0.45675328009569965,1.001509227654124,0.003256500543501914
-0.4564685754300172,-0.4564685754300172,1.0010227169502943,0.0033195661544974235
-0.45627771699867026,-0.45627771699867026,1.0016374881357675,0.002973687944874726
-0.4560348112545398,-0.4560348112545398,1.0004532099532069,0.0028594750061478433
-0.4557686323102644,-0.4557686323102644,0.9980670890815768,0.0030321729099642802
-0.4555219371178737,-0.4555219371178737,0.998368826836737,0.003205798824570556
-0.4552648515255896,-0.4552648515255896,1.00196529184626,0.003310379451533209
-0.4550952665496425,-0.4550952665496425,1.0003703997846558,0.0030895566341921097
-0.45492243276805766,-0.45492243276805766,0.9980903786299541,0.0030424852945410688
-0.4546301782308319,-0.4546301782308319,0.99975903835426,0.003031848197792865
-0.4541733132997251,-0.4541733132997251,1.0000300788964198,0.003139624372088575
-0.4539548173078174,-0.4539548173078174,0.9998245396047614,0.0030861183940208508
-0.4537574561637939,-0.4537574561637939,0.9993057380006005,0.003435485751967194
-0.45352315263214676,-0.45352315263214676,0.9997731434094659,0.0026772888594421137
-0.4532129486174881,-0.4532129486174881,0.9995170818788377,0.0031365175413951884
-0.45281888407564563,-0.45281888407564563,1.0015755213549569,0.003211736200053955
-0.45241859891357306,-0.45241859891357306,0.9996160284694474,0.002725077704987388
-0.4521071828645745,-0.4521071828645745,1.0003829484348683,0.0031788494626204867
-0.4517171296151446,-0.4517171296151446,1.0002354358294632,0.0033300065266509866
-0.4514711684599206,-0.4514711684599206,1.0012668125703548,0.0034617009100128956
-0.4512517221301778,-0.4512517221301778,1.0030596878299762,0.0026772233690205856
-0.45094846596825844,-0.45094846596825844,1.0000216802248318,0.0029255330977842084
-0.4506423908037959,-0.4506423908037959,0.9998697981781506,0.003193095085032881
-0.4503543632184119,-0.4503543632184119,1.0004307129981567,0.00327091145784926
-0.4501676069261066,-0.4501676069261066,1.0051875613348642,0.0028962625909129958
-0.449991860537466,-0.449991860537466,0.9999276718709609,0.0033260469833910717
-0.44978986910819,-0.44978986910819,0.9961135547687372,0.0032403081274261997
-0.44936373691493825,-0.44936373691493825,1.0013998477910668,0.0030592086439820984
-0.449023705888294,-0.449023705888294,1.0004855802093053,0.0030523875722306406
-0.4488516215308664,-0.4488516215308664,1.0015653193465277,0.0030230374819308127
-0.4486803345414728,-0.4486803345414728,1.000566020169791,0.0031800384859753386
-0.4483756838419367,-0.4483756838419367,0.9965238828881752,0.0030066072995154104
-0.44814500071388463,-0.44814500071388463,1.0010364212720007,0.0032718524060851824
-0.44761988084637777,-0.44761988084637777,0.9977728496662591,0.002988792151082975
-0.4472406490285266,-0.4472406490285266,1.001822922742932,0.003183923426907105
-0.4469103801074198,-0.4469103801074198,1.003765455234571,0.0032328638418652167
-0.44654245711121804,-0.44654245711121804,0.9969806938333037,0.003313262600059188
-0.44634391459590006,-0.44634391459590006,1.0009192812521066,0.002979693765076893
-0.4460501040086228,-0.4460501040086228,1.0029637602151018,0.0029278184856513976
-0.4457359804698626,-0.4457359804698626,0.997377259214568,0.0030378692615682093
-0.4454779601259361,-0.4454779601259361,0.9995861359084385,0.0031663699410333706
-0.44526655112679236,-0.44526655112679236,1.0006031313991737,0.0030242448666619065
-0.44510711434149924,-0.44510711434149924,1.0017629382723574,0.0033694554541754554
-0.44489017758310184,-0.44489017758310184,1.0017537263957443,0.0027325437935679054
-0.4445139327895049,-0.4445139327895049,0.9974913031809688,0.003259629129419979
-0.4440977507261323,-0.4440977507261323,0.9968512314553392,0.0029036725624171974
-0.4439176145622241,-0.4439176145622241,1.0010521409221047,0.003240268905258493
-0.4437601858773405,-0.4437601858773405,0.9981695027011543,0.003450625162846241
-0.4434781016580473,-0.4434781016580473,0.9946239062148947,0.0030079301228157582
-0.44324252650308155,-0.44324252650308155,0.9986562800459285,0.002980389083367947
-0.4428003333237484,-0.4428003333237484,0.9992133810013343,0.003216363319472148
-0.4423889200439362,-0.4423889200439362,1.0006817161130779,0.0032508306214873604
-0.4420334220513723,-0.4420334220513723,0.9977807521777315,0.0032320856877749112
-0.44161783077943256,-0.44161783077943256,0.9996718651788425,0.003277933844094276
-0.44146502338012394,-0.44146502338012394,0.9999284030874774,0.0030235457608431947
-0.4412006314604241,-0.4412006314604241,1.001560718528566,0.002925618244551017
-0.4409056201240219,-0.4409056201240219,0.9992139456987263,0.0027299059703823404
-0.44059302270106854,-0.44059302270106854,0.9992001104228816,0.00340666003033237
-0.4403357185985669,-0.4403357185985669,0.995665502638664,0.0030896093359474197
-0.44017328915722376,-0.44017328915722376,0.9968768881047648,0.003304723527926904
-0.439990320318293,-0.439990320318293,1.005558122045988,0.0027339279855101047
-0.43976591308298796,-0.43976591308298796,1.0006234415615882,0.0030042525427626124
-0.43934611670129015,-0.43934611670129015,0.9994847789726744,0.003093229417691711
-0.4390657160547562,-0.4390657160547562,0.997879237988039,0.0031007811340727585
-0.4388683561994185,-0.4388683561994185,1.0002352552590104,0.0034358239971916753
-0.43864500525046424,-0.43864500525046424,1.0041351310134752,0.0028369600086697306
-0.43836108168818555,-0.43836108168818555,1.001662196247604,0.0030826220540264605
-0.4380432160243345,-0.4380432160243345,0.998904679107542,0.003335262410354958
-0.43766402816704614,-0.43766402816704614,0.9991889105368067,0.0029900240901624404
-0.43729724247298235,-0.43729724247298235,0.9972635510597397,0.0031399139246277115
-0.4368856581575983,-0.4368856581575983,1.001915532927163,0.003345776137258754
-0.43656160415434897,-0.43656160415434897,1.0000861997324333,0.0034365992172933424
-0.436374054985572,-0.436374054985572,0.9984356523362414,0.002772267259506022
-0.43602194831689756,-0.43602194831689756,1.0001834663925855,0.0029224654955561534
-0.4356943478806897,-0.4356943478806897,1.003115514283579,0.0032442851296635164
-0.43541257465860783,-0.43541257465860783,0.9954887265173944,0.0033022724303148876
-0.4352738683183361,-0.4352738683183361,0.9988550269031485,0.0027729320163284977
-0.4351025696280885,-0.4351025696280885,1.0008222551222439,0.003330490867359869
-0.4348715010191199,-0.4348715010191199,1.0018320841099788,0.0029876172418513555
-0.4344745914422674,-0.4344745914422674,0.9992146905110653,0.003114859653733771
-0.4341345604657363,-0.4341345604657363,1.000514772457907,0.003072381758087046
-0.43395446614408684,-0.43395446614408684,1.0011288976130945,0.0032075213134521432
-0.4337326654124354,-0.4337326654124354,0.9999242211887728,0.0029837424195434973
-0.4334375178984601,-0.4334375178984601,1.0012854772794515,0.002953867715774723
-0.43316266461401937,-0.43316266461401937,0.9995574720404965,0.0033266629573331626
-0.43270093931841985,-0.43270093931841985,0.9970929875854075,0.002988319501785692
-0.4323342142301726,-0.4323342142301726,0.9980098036227731,0.0031368898106050045
-0.4319274111673167,-0.4319274111673167,1.0025046145460996,0.003505938254025487
-0.43163851490321575,-0.43163851490321575,0.9974583138622322,0.0035222519626086487
-0.43143026587265465,-0.43143026587265465,0.9983521629310598,0.002737192148601631
-0.43105888541469994,-0.43105888541469994,0.9987135703949424,0.002927000526096541
-0.4307312452328915,-0.4307312452328915,1.0018931801398,0.0032434807494800774
-0.43049921193958196,-0.43049921193958196,1.001976149658513,0.0032575347591256116
-0.43034496059576666,-0.43034496059576666,0.9957369308573739,0.002805843681160234
-0.4301696671595437,-0.4301696671595437,0.9997744872251577,0.003338813274266492
-0.42995814092846557,-0.42995814092846557,1.0020762783293833,0.0030230918827211174
-0.42969021426397375,-0.42969021426397375,0.9992557190651645,0.0030261581598674
