time,time,flux,flux_err
-0.49965529848244233,-0.49965529848244233,1.0000039389716555,3.8004650653604655e-05
-0.49909028824004054,-0.49909028824004054,0.9999969622741265,3.758242207120397e-05
-0.4983120077115018,-0.4983120077115018,0.9999741748837533,3.391865205610966e-05
-0.4980348036871874,-0.4980348036871874,0.9999759405665565,3.396256413574952e-05
-0.4978543887300475,-0.4978543887300475,1.0000829987907163,3.417467123950544e-05
-0.4975486023475241,-0.4975486023475241,1.0000946217213693,3.4159808412580655e-05
-0.49719681106944336,-0.49719681106944336,0.9999276840436362,3.439246842878918e-05
-0.4969147101721319,-0.4969147101721319,0.9999957076827581,3.410644127350373e-05
-0.4966929725735099,-0.4966929725735099,1.0000654870671437,3.436671972096752e-05
-0.4959600505797425,-0.4959600505797425,0.9999921072938844,3.427309676795541e-05
-0.495191339183657,-0.495191339183657,0.9999653021057038,3.463013543468312e-05
-0.49469797674100846,-0.49469797674100846,1.0000152703218914,3.39553995561332e-05
-0.49434406746950116,-0.49434406746950116,1.0000167924853334,3.413890383353383e-05
-0.4941747975892213,-0.4941747975892213,1.0000780564185026,3.4172458473723095e-05
-0.49399108502984745,-0.49399108502984745,1.0000250691481463,3.3938132150759695e-05
-0.49354348506749374,-0.49354348506749374,0.9999743088147444,3.438506903925328e-05
-0.4930876183920191,-0.4930876183920191,1.0001024899490347,3.462660418435987e-05
-0.49270678136090285,-0.49270678136090285,1.0001024318540055,3.4039717665501595e-05
-0.4920908730076917,-0.4920908730076917,1.0000892783024546,3.4188210541891e-05
-0.4912697942054365,-0.4912697942054365,0.9999916541062337,3.416124843518406e-05
-0.49104903828410895,-0.49104903828410895,0.9999262426577031,3.440897121353459e-05
-0.490749520186364,-0.490749520186364,0.9999782639873903,3.422725220829788e-05
-0.49037325113313274,-0.49037325113313274,1.0000224800407436,3.396453007653342e-05
-0.4902067491442722,-0.4902067491442722,0.9999682338041488,3.416722482597817e-05
-0.4900726686355483,-0.4900726686355483,0.9999913822908674,3.389342635622939e-05
-0.4897278259690211,-0.4897278259690211,1.000060017229859,3.3829852904059794e-05
-0.4891036112996517,-0.4891036112996517,1.0000215667567391,3.48472662452079e-05
-0.4886413028187235,-0.4886413028187235,1.0000499894522645,3.435283436650501e-05
-0.4880135118874023,-0.4880135118874023,1.0000139944572521,3.441788140806477e-05
-0.48739680119906553,-0.48739680119906553,0.9999827988895932,3.392095297433748e-05
-0.4871674596251978,-0.4871674596251978,0.9999499395922907,3.395547535005869e-05
-0.4869693536835257,-0.4869693536835257,1.0000281751027167,3.440383549661273e-05
-0.4866471457666194,-0.4866471457666194,1.0000281721260589,3.416075499396916e-05
-0.4862679376419692,-0.4862679376419692,1.0000012513822027,3.392145859169777e-05
-0.48602835971832975,-0.48602835971832975,1.0000238170888598,3.4103270896698616e-05
-0.4857111845543841,-0.4857111845543841,1.0000083545737928,3.444719271112317e-05
-0.484848401027557,-0.484848401027557,1.0000313760865587,3.466033750497168e-05
-0.4842490465758601,-0.4842490465758601,1.0001253049691516,3.4456256747430747e-05
-0.48378833367896734,-0.48378833367896734,0.9999636022938091,3.418032664871521e-05
-0.4834689751660335,-0.4834689751660335,1.0000734827721316,3.413601172521508e-05
-0.48331196051294684,-0.48331196051294684,0.9999936338243558,3.3946006216813295e-05
-0.4830696411103418,-0.4830696411103418,0.9999980066319367,3.3919814096869824e-05
-0.48267724344041196,-0.48267724344041196,0.9999871326363163,3.439876897682707e-05
-0.48225062413548586,-0.48225062413548586,1.0000145043680002,3.4626335640846154e-05
-0.4818900692400348,-0.4818900692400348,0.99997382490081,3.404866290082292e-05
-0.4814219699743262,-0.4814219699743262,0.9999654705104509,3.416824375196498e-05
-0.4805473127307778,-0.4805473127307778,1.0000175785458758,3.416462348148827e-05
-0.48021803395167806,-0.48021803395167806,0.9999873890326303,3.4409362450887204e-05
-0.47990685054828647,-0.47990685054828647,0.9999559413769665,3.4177807684545915e-05
-0.47945520400680836,-0.47945520400680836,0.9999870752069029,3.419600342953821e-05
-0.4793235207594989,-0.4793235207594989,0.999961821792813,3.39159697926964e-05
-0.47917407437125803,-0.47917407437125803,0.9998806623593456,3.4138643968942005e-05
-0.4786756166788109,-0.4786756166788109,1.000035950953046,3.411287708766278e-05
-0.47795815154750015,-0.47795815154750015,1.0000120882989225,3.460350435296688e-05
-0.4773333421791904,-0.4773333421791904,0.9999706215561398,3.4170878762443583e-05
-0.4765631375819794,-0.4765631375819794,0.999968024214964,3.391970178650855e-05
-0.4763286739966134,-0.4763286739966134,1.000005522606915,3.395691173591127e-05
-0.47616372518532446,-0.47616372518532446,1.0000350055661364,3.416048268705343e-05
-0.4758899297332391,-0.4758899297332391,0.999975309179607,3.4160403439412166e-05
-0.47552359499459274,-0.47552359499459274,1.000026004081523,3.4170452175816775e-05
-0.47522670621910945,-0.47522670621910945,0.9999243561472986,3.4105725418886215e-05
-0.4749774943004013,-0.4749774943004013,0.9999710939247487,3.436633169046465e-05
-0.47419753284557375,-0.47419753284557375,0.9999764539965087,3.4903590175825895e-05
-0.4734026127451216,-0.4734026127451216,0.999962221261202,3.444952159674715e-05
-0.47288420951081206,-0.47288420951081206,1.0000810252126757,3.4176434546438274e-05
-0.47260316114479795,-0.47260316114479795,0.9999241883676795,3.414016172996957e-05
-0.47245582007744813,-0.47245582007744813,0.999962065807696,3.3920859011903256e-05
-0.47226934366481144,-0.47226934366481144,1.000097591944836,3.3938545952558206e-05
-0.47189139776892264,-0.47189139776892264,0.999995693116877,3.4382789401129076e-05
-0.4715331560946652,-0.4715331560946652,0.9999246565643578,3.439607936232345e-05
-0.47112307850838986,-0.47112307850838986,0.9999808256028064,3.430846409072401e-05
-0.47078159180891815,-0.47078159180891815,1.0000166963040138,3.413933564691191e-05
-0.46983581031745414,-0.46983581031745414,0.9999465030629537,3.39452201008499e-05
-0.4694061722701008,-0.4694061722701008,0.9999456075452814,3.463308354412726e-05
-0.46898635245815967,-0.46898635245815967,0.9999771698260732,3.3954075680405784e-05
-0.4685858066251967,-0.4685858066251967,1.0000191249455772,3.4192642738156745e-05
-0.4684738197560364,-0.4684738197560364,0.9999976332759001,3.389767852549049e-05
-0.4682944594431319,-0.4682944594431319,0.999927842666003,3.414284436319011e-05
-0.46771392235896203,-0.46771392235896203,1.0000254894813583,3.417230799215596e-05
-0.4670255571283633,-0.4670255571283633,0.9999930866854465,3.483896407397339e-05
-0.46631402521161364,-0.46631402521161364,0.9999794913223017,3.3916237212211e-05
-0.46566601847298444,-0.46566601847298444,1.0000370813345125,3.3937432624300334e-05
-0.46547277425343053,-0.46547277425343053,0.9999609954210902,3.418204729665605e-05
-0.46530930809967685,-0.46530930809967685,1.0000128079620065,3.44086255344227e-05
-0.4649917117654695,-0.4649917117654695,1.0000023465482126,3.4161823875013175e-05
-0.4646469956118381,-0.4646469956118381,0.999953866883256,3.394263344158109e-05
-0.46439912442147036,-0.46439912442147036,0.999949638609972,3.4117580658167855e-05
-0.46413020299442,-0.46413020299442,0.9999666300813297,3.438186110972678e-05
-0.46338155607081716,-0.46338155607081716,0.9999837174119299,3.488775162266362e-05
-0.4625722759126802,-0.4625722759126802,1.0000097564021377,3.4446917509662886e-05
-0.4620425548448111,-0.4620425548448111,1.0000417599073272,3.4155728055132696e-05
-0.4617421914030274,-0.4617421914030274,0.999982542348004,3.415041740693373e-05
-0.46157857116340895,-0.46157857116340895,0.9999494877899956,3.3958827553245036e-05
-0.46126420980945115,-0.46126420980945115,0.9999629647201062,3.3911193210075415e-05
-0.4609835175026092,-0.4609835175026092,1.0000291239975287,3.4400199155814117e-05
-0.46047442142444195,-0.46047442142444195,1.0000371121589455,3.432450321073383e-05
-0.4601329558645375,-0.4601329558645375,1.0000420458167683,3.412434697460682e-05
-0.459424840304564,-0.459424840304564,1.0000154147421818,3.417025207000186e-05
-0.45867882882084815,-0.45867882882084815,1.000006679292609,3.462816586510056e-05
-0.45836289889994075,-0.45836289889994075,1.0000055519524498,3.3960907828870265e-05
-0.45786655499032347,-0.45786655499032347,1.000032782653117,3.417729321178015e-05
-0.4577149228891358,-0.4577149228891358,0.9999980130512712,3.392678112709973e-05
-0.4575923815573333,-0.4575923815573333,0.9999960290721404,3.391866428918474e-05
-0.4572879180537711,-0.4572879180537711,1.0000065812273722,3.414102857499281e-05
-0.4567564864133601,-0.4567564864133601,1.000045698054508,3.443761469104502e-05
-0.4561408011679305,-0.4561408011679305,0.999996304553127,3.459538369536129e-05
-0.45548508106876395,-0.45548508106876395,1.0000134524015505,3.416519870843847e-05
-0.45490015933610267,-0.45490015933610267,1.0000070388295585,3.391856990517089e-05
-0.4546667777831317,-0.4546667777831317,0.9999538435444958,3.418610414489077e-05
-0.4545312934926187,-0.4545312934926187,1.0000599484874293,3.44075059830171e-05
-0.45429767159948825,-0.45429767159948825,0.9999723787183704,3.415873649382877e-05
-0.4539236227356014,-0.4539236227356014,1.0000084406607128,3.416893570317483e-05
-0.453680911516858,-0.453680911516858,0.9999763076854242,3.4144727002577764e-05
-0.4534533150777861,-0.4534533150777861,0.9999637660008617,3.437404386826303e-05
-0.4530195281091437,-0.4530195281091437,1.0000934231673775,3.41925785768041e-05
-0.45218529099365695,-0.45218529099365695,1.000031432282241,3.4846254294387405e-05
-0.45162712228193413,-0.45162712228193413,1.0001152803922821,3.4204185406586805e-05
-0.45112445691556785,-0.45112445691556785,1.0000026091914933,3.438341598933624e-05
-0.4508865303323546,-0.4508865303323546,0.9999851983834418,3.39218654533256e-05
-0.45069407505434356,-0.45069407505434356,0.9999656526611063,3.395614658739704e-05
-0.4503639014095825,-0.4503639014095825,1.0000068238434863,3.436640680290374e-05
-0.45007395235661535,-0.45007395235661535,1.0000253919555493,3.417507949198921e-05
-0.4495759034696675,-0.4495759034696675,0.9999426617787057,3.433081265446619e-05
-0.44923602275084706,-0.44923602275084706,0.9999897914804352,3.411782178840851e-05
-0.44819542785844535,-0.44819542785844535,0.9999667610503307,3.440694326704857e-05
-0.44763500467815903,-0.44763500467815903,1.000011962171381,3.418678801552013e-05
-0.44708887172455436,-0.44708887172455436,0.9999726804669219,3.4178335887464825e-05
-0.4468894200188515,-0.4468894200188515,0.9999906993348955,3.391346222174802e-05
-0.4467627603036817,-0.4467627603036817,0.9999804264437657,3.39187952541201e-05
-0.4464635141521285,-0.4464635141521285,1.0000568004106658,3.414251239274142e-05
-0.44593838331056757,-0.44593838331056757,0.999938160015482,3.4462462221655654e-05
-0.4453282000598847,-0.4453282000598847,1.0000361730093037,3.459503894887315e-05
-0.4445536723396799,-0.4445536723396799,0.9999791479787191,3.416321286859223e-05
-0.44391434389472123,-0.44391434389472123,1.0000137825090392,3.4174995877207666e-05
-0.4437528860093153,-0.4437528860093153,1.0000233710470494,3.3964383864754635e-05
-0.44360326380701737,-0.44360326380701737,0.9999627348232837,3.4609263414554865e-05
-0.44323223500614406,-0.44323223500614406,0.999935719190268,3.417696736127345e-05
-0.4429270731692668,-0.4429270731692668,1.0000526968462706,3.392328063542438e-05
-0.4426968609870528,-0.4426968609870528,1.000093849162274,3.413746464640385e-05
-0.4422054023205419,-0.4422054023205419,1.0000204055664221,3.462451151582997e-05
-0.4412743097425846,-0.4412743097425846,0.9999350097318167,3.483152363292698e-05
-0.4407917707627348,-0.4407917707627348,1.000062248540471,3.421862366161482e-05
-0.4402917725783482,-0.4402917725783482,1.0000153049491243,3.438599868326183e-05
-0.44000811188161604,-0.44000811188161604,0.9999727635934603,3.394166672527183e-05
-0.4398180778254755,-0.4398180778254755,0.9999774025463518,3.393784357499936e-05
-0.4394885971494659,-0.4394885971494659,0.9999892783469168,3.4607505113630416e-05
-0.43924663107754897,-0.43924663107754897,1.0000235837185227,3.4176307284812754e-05
-0.43880873979214813,-0.43880873979214813,0.9999466058465492,3.4104849572867816e-05
-0.43855684871887207,-0.43855684871887207,0.999869457538284,3.438718938519608e-05
-0.4380967788536509,-0.4380967788536509,0.9999789916899449,3.417955830612796e-05
-0.4371507019895944,-0.4371507019895944,0.9999448939942284,3.463318693657646e-05
-0.4366789531079121,-0.4366789531079121,1.0000129891215919,3.396056904133751e-05
-0.4362088122237765,-0.4362088122237765,0.9999981730552964,3.417386937033878e-05
-0.43602537869519437,-0.43602537869519437,0.9999611835602549,3.391562818510777e-05
-0.4359253060691117,-0.4359253060691117,0.9999674024035075,3.414663866920565e-05
-0.4355230877590657,-0.4355230877590657,1.0000135936249166,3.377779345994188e-05
-0.4349882329828688,-0.4349882329828688,0.9999814024436144,3.484735593811652e-05
-0.4345028096351598,-0.4345028096351598,0.999998997260516,3.4352450518789306e-05
-0.43386601635211264,-0.43386601635211264,1.0000230811472854,3.416736343234352e-05
-0.43308664452561063,-0.43308664452561063,1.0000822142770118,3.417632581010346e-05
-0.4329122914976324,-0.4329122914976324,0.999988424753006,3.4185772168810614e-05
-0.43273184403733467,-0.43273184403733467,0.9999989344696827,3.46330625546396e-05
-0.43225495512524503,-0.43225495512524503,0.9999791473551631,3.394225926359173e-05
-0.4320137412345503,-0.4320137412345503,0.9999989812628787,3.4142971911645266e-05
-0.4317576434230432,-0.4317576434230432,0.9999725852475423,3.413487755746866e-05
-0.43096834921234406,-0.43096834921234406,1.000112301534981,3.48598596663111e-05
-0.43031206606683553,-0.43031206606683553,1.0000079428031117,3.463416141935974e-05
-0.4296436418851954,-0.4296436418851954,0.9999980405190785,3.418482160255248e-05
-0.42925212784466565,-0.42925212784466565,1.0000090219460942,3.3922133816018824e-05
-0.4290542930357333,-0.4290542930357333,0.9999636405192509,3.395768699750437e-05
-0.4288057364079577,-0.4288057364079577,1.0000212941559938,3.416083947107844e-05
-0.4285401564593485,-0.4285401564593485,1.0000340021766605,3.439879177227297e-05
-0.42821840423712276,-0.42821840423712276,1.0000334670612552,3.440063383608665e-05
-0.42781620232126444,-0.42781620232126444,0.9999948965115102,3.436280547275649e-05
-0.4275373993150424,-0.4275373993150424,0.9999669876648081,3.4141778547579653e-05
-0.4264616866872529,-0.4264616866872529,0.9999243601296757,3.505207177694485e-05
-0.42582031270430887,-0.42582031270430887,0.9999957984401078,3.395704094772424e-05
-0.4253800508355198,-0.4253800508355198,0.9999231567448691,3.417482661898069e-05
-0.4251961262074474,-0.4251961262074474,0.9999690477403578,3.391473215263283e-05
-0.4250588608549151,-0.4250588608549151,1.0000376866227194,3.415957265421628e-05
-0.42460639006094425,-0.42460639006094425,1.000024634021101,3.37981744837199e-05
-0.4241721574246185,-0.4241721574246185,1.0000584934857923,3.485022372389514e-05
-0.42368748583612614,-0.42368748583612614,1.0000191563288234,3.435664789954848e-05
-0.4230622522853082,-0.4230622522853082,1.0000212715951848,3.4186501031596936e-05
-0.4222692142902815,-0.4222692142902815,1.0000357059229223,3.416580330815595e-05
-0.4220994853276352,-0.4220994853276352,0.9999993376876712,3.3956573887129135e-05
-0.42198445867325063,-0.42198445867325063,1.0000175292611004,3.4626747525440545e-05
-0.4215258067037212,-0.4215258067037212,1.0000040223827384,3.416842325110166e-05
-0.4212617621633399,-0.4212617621633399,0.9999531325136803,3.39385250635797e-05
-0.42105774174633553,-0.42105774174633553,0.9999610258975004,3.4133685819681224e-05
-0.4205878458400548,-0.4205878458400548,1.0000372550075998,3.382372007034404e-05
-0.4198593809414888,-0.4198593809414888,1.000038842731205,3.4852494840889616e-05
-0.4194608367455658,-0.4194608367455658,0.9999984050021041,3.437684777855043e-05
-0.41881213405722517,-0.41881213405722517,1.0000457423625049,3.418679068693844e-05
-0.4184535840220633,-0.4184535840220633,0.9999635711060775,3.3927117556364934e-05
-0.41824437076065807,-0.41824437076065807,1.0000253924075442,3.396151502265346e-05
-0.4180359282006975,-0.4180359282006975,0.9999909442986148,3.4175195312805924e-05
-0.41776221537875247,-0.41776221537875247,0.9999994576839535,3.4384381600597816e-05
-0.4174587604677072,-0.4174587604677072,0.9999434993309588,3.41766034453774e-05
-0.4170645497048099,-0.4170645497048099,1.0000345309854466,3.434531663811313e-05
-0.41684973672308845,-0.41684973672308845,0.9999676488787838,3.415144279258853e-05
-0.41592213129260924,-0.41592213129260924,0.999996956030186,3.4895102234877475e-05
-0.4151940510215354,-0.4151940510215354,1.0000718595616842,3.441428593550604e-05
-0.4147059114147851,-0.4147059114147851,1.000073844614511,3.4177110971051265e-05
-0.4144280260668893,-0.4144280260668893,1.0000265357056652,3.391697471008864e-05
-0.4143106396368239,-0.4143106396368239,1.0000407729662764,3.4167310782962496e-05
-0.41408139300474434,-0.41408139300474434,1.0000267973204973,3.391837336816388e-05
-0.41358499763009604,-0.41358499763009604,0.9999933101488903,3.439364750925786e-05
-0.41300135550336564,-0.41300135550336564,1.000026502069181,3.459558151871695e-05
-0.4126154445664724,-0.4126154445664724,0.9999761481554577,3.440042342956753e-05
-0.4116069117844745,-0.4116069117844745,0.9999918242470074,3.3922537438682e-05
-0.41129142897771087,-0.41129142897771087,1.0000393968865595,3.395606713077109e-05
-0.4111945731070591,-0.4111945731070591,0.9999270725097332,3.4627077948725124e-05
-0.4108008142735343,-0.4108008142735343,1.0000950592340367,3.418326945862012e-05
-0.4104587425696081,-0.4104587425696081,1.0000020754366576,3.3942840473098244e-05
-0.4102993344444258,-0.4102993344444258,0.9999927444165696,3.410597188934322e-05
-0.41001499199846875,-0.41001499199846875,1.0000006347131225,3.415498949801251e-05
-0.4092998210937367,-0.4092998210937367,1.000030169815053,3.410504216191299e-05
-0.40877378517470786,-0.40877378517470786,1.0000786679402274,3.458553127917706e-05
-0.40826997343538096,-0.40826997343538096,1.0000107023331293,3.442955600841428e-05
-0.40766202866871026,-0.40766202866871026,0.9999967149648625,3.392530991720547e-05
-0.4074025341054949,-0.4074025341054949,1.0000216443800258,3.396159048172955e-05
-0.40720379812337343,-0.40720379812337343,1.0000417755400275,3.417587979798578e-05
-0.40689314244445995,-0.40689314244445995,1.0000277617568234,3.4157628965468173e-05
-0.4065738223835069,-0.4065738223835069,1.0000727085255599,3.440145074868501e-05
-0.40624210676760414,-0.40624210676760414,1.0000664151887846,3.410783692520044e-05
-0.4060332615568768,-0.4060332615568768,0.99992899902104,3.4375234754030934e-05
-0.4050986346883292,-0.4050986346883292,0.9999226791090082,3.480477802098108e-05
-0.4043624893958622,-0.4043624893958622,1.0000156167187026,3.418253361761314e-05
-0.403878551323578,-0.403878551323578,0.9999530709628777,3.4174721728892804e-05
-0.40359663191411527,-0.40359663191411527,0.9999560890609847,3.3913387645434475e-05
-0.40348273473646257,-0.40348273473646257,0.9999615986808761,3.416477861291053e-05
-0.40324969876601247,-0.40324969876601247,0.9999822701617982,3.3917550966787026e-05
-0.40284602956671733,-0.40284602956671733,1.0001320948793846,3.440023411594671e-05
-0.4022812592855189,-0.4022812592855189,1.0000371505923364,3.461354815614568e-05
-0.40194992359174647,-0.40194992359174647,0.9999690224846715,3.4159700970900204e-05
-0.4012574068896356,-0.4012574068896356,0.9999378134864593,3.4168249585358805e-05
-0.4005524194006284,-0.4005524194006284,1.0000070416932,3.3945657287355126e-05
-0.4004003066424048,-0.4004003066424048,0.9999255352673593,3.4413643233837705e-05
-0.40008212095344786,-0.40008212095344786,1.0000394914578545,3.440423621691002e-05
-0.39966435188616745,-0.39966435188616745,1.0000769578204474,3.3941935344169595e-05
-0.39951199404968063,-0.39951199404968063,1.0000440344516939,3.412678592805846e-05
-0.3993292676655983,-0.3993292676655983,1.0001214275853898,3.414282394891925e-05
-0.3988279119854269,-0.3988279119854269,1.0001133278229457,3.393416952868615e-05
