time,time,flux,flux_err
-0.4992983890291119,-0.4992983890291119,1.010909947213874,0.007336271223608077
-0.4980011896441283,-0.4980011896441283,0.9987389983770906,0.007348969972652525
-0.4957597687243833,-0.4957597687243833,1.00331061014633,0.007755907938526874
-0.4937092389651904,-0.4937092389651904,1.0015191778372279,0.007680798302495462
-0.4919444897204812,-0.4919444897204812,1.0015907263580333,0.006711036476852053
-0.4910410034855886,-0.4910410034855886,1.002267671296502,0.006719996119825815
-0.49003237356446333,-0.49003237356446333,0.9918837540644022,0.006705133631915938
-0.48762130907853135,-0.48762130907853135,0.9940003053382853,0.006720772373658483
-0.48635673741810026,-0.48635673741810026,0.9984850823184421,0.0072864083165590145
-0.4847753031499451,-0.4847753031499451,0.9983890639407672,0.006680711967143514
-0.48367471386591204,-0.48367471386591204,1.001879519824396,0.0066944106964908255
-0.4826795977402071,-0.4826795977402071,1.0019955649032526,0.0068151151981300576
-0.48005453199875775,-0.48005453199875775,1.0011379689097013,0.00675580036385573
-0.47891682517292794,-0.47891682517292794,0.9981172137563332,0.007154982131337818
-0.4774107393117447,-0.4774107393117447,0.9987317227031596,0.006696677401372288
-0.4764999658247689,-0.4764999658247689,0.9991631665503036,0.006686658342055842
-0.4751771413437382,-0.4751771413437382,1.0012732978113406,0.00668791361747891
-0.47218524187410366,-0.47218524187410366,0.9959134286264313,0.006787212564081843
-0.47103531078028027,-0.47103531078028027,0.9962070872836909,0.006995533832871088
-0.46949291095661466,-0.46949291095661466,0.9993901826862219,0.006690721790838017
-0.46823879318180844,-0.46823879318180844,1.0031244490046192,0.00669556158649087
-0.4657228049094556,-0.4657228049094556,0.9957211536517191,0.006733640257723231
-0.4640794460268808,-0.4640794460268808,0.997882121147763,0.007181313836819468
-0.46227069595697684,-0.46227069595697684,1.0018784198622315,0.006678657374493588
-0.4613891339286056,-0.4613891339286056,0.9954892173111952,0.006709674396062367
-0.4596870967907307,-0.4596870967907307,1.00167516071844,0.0067150575290994274
-0.45707848579331767,-0.45707848579331767,1.0057500155893677,0.006841704975664017
-0.4558572203735821,-0.4558572203735821,0.9982130879027661,0.007012805376442716
-0.45464708808649446,-0.45464708808649446,1.002995777743624,0.006697197447905964
-0.45343457689668865,-0.45343457689668865,0.9945965343727577,0.006697019456563898
-0.45116878489861845,-0.45116878489861845,1.0029324592709188,0.006709514100334009
-0.44942999813720236,-0.44942999813720236,0.9924916997821427,0.006997928285943922
-0.4477318145080062,-0.4477318145080062,0.9907502200588265,0.006708677751262886
-0.4466199944508844,-0.4466199944508844,0.9959713702100135,0.006718038636618798
-0.4456268309309962,-0.4456268309309962,0.9890992676106987,0.006948321842321021
-0.44299181547394256,-0.44299181547394256,1.0008214978509715,0.0067316578522962755
-0.44186065035391947,-0.44186065035391947,0.9927566388290081,0.007155614621729371
-0.4403625370687223,-0.4403625370687223,1.0000689967996481,0.006744127834592782
-0.4394542893016478,-0.4394542893016478,0.9955854983626067,0.0067352403419785
-0.4375396763382014,-0.4375396763382014,0.9903857836815169,0.006686709059000299
-0.4349182109086541,-0.4349182109086541,0.9979821936356388,0.006814442212350953
-0.4335786224648473,-0.4335786224648473,1.0000546065450782,0.0069561874837381285
-0.43223879178694913,-0.43223879178694913,0.999377027988869,0.0067283688176605645
-0.4309213147738774,-0.4309213147738774,0.9987777009996718,0.0066986785730214745
-0.42839319339836945,-0.42839319339836945,0.9866414940480764,0.006731409970057727
-0.4271809872894664,-0.4271809872894664,1.0015725231450694,0.0072304587666982886
-0.4258200076961657,-0.4258200076961657,0.9949868817079135,0.006715670829560459
-0.42460361798948726,-0.42460361798948726,0.9992155862167078,0.00670204404407917
-0.42343792624160415,-0.42343792624160415,0.9942840244864266,0.006821401645831862
-0.4208237214283145,-0.4208237214283145,1.0031933571554448,0.006777801787989311
-0.4196787262109865,-0.4196787262109865,1.0027063642565992,0.007156375935227777
-0.4181452566423104,-0.4181452566423104,1.0007862258304203,0.006694262706529393
-0.4171418184982031,-0.4171418184982031,1.0001891614412355,0.0067677829292477785
-0.4159319445840083,-0.4159319445840083,0.9953655398830776,0.0067244742817372085
-0.41295833727272113,-0.41295833727272113,0.9967655412608888,0.006775890316163685
-0.41179264956517725,-0.41179264956517725,0.9955232916041611,0.0069734430600080725
-0.4102449116166099,-0.4102449116166099,1.0009532197626392,0.006703442928590776
-0.409116057632491,-0.409116057632491,0.9991217275137492,0.006917055554435279
-0.40709092339748165,-0.40709092339748165,1.0017575105235896,0.006710047910290064
-0.4050739659593091,-0.4050739659593091,0.9921403967010163,0.006937732856573777
-0.40373782453534657,-0.40373782453534657,0.9973984106303522,0.006997130243420338
-0.402873691359855,-0.402873691359855,0.9998578421831832,0.0067063922291483325
-0.4015242961439071,-0.4015242961439071,0.9994546660423896,0.006698658517313561
-0.39921095181416605,-0.39921095181416605,0.9996769668786694,0.006711563747543304
-0.3974972403681022,-0.3974972403681022,0.994638643299386,0.007075479054770134
-0.3959457738754281,-0.3959457738754281,1.0006667678286,0.006713228140344678
-0.3949787666198972,-0.3949787666198972,0.9983266047377176,0.006708764953367597
-0.39396979338125676,-0.39396979338125676,1.0028484020429729,0.006696739228026996
-0.3918624785801512,-0.3918624785801512,0.9970681062808321,0.006710018440317073
-0.3902462200829177,-0.3902462200829177,1.0011529850506957,0.007272983929033991
-0.38877691655070523,-0.38877691655070523,1.0006907675185328,0.0067069733285791315
-0.38762760320314554,-0.38762760320314554,1.0017177990061907,0.006705298032403849
-0.3865879832570499,-0.3865879832570499,0.994280401764801,0.006817048888496607
-0.3843184611789184,-0.3843184611789184,0.9894400297238652,0.00672531655855012
-0.3827958415451576,-0.3827958415451576,0.9952519078266071,0.007108013769699805
-0.38155281173822003,-0.38155281173822003,0.9935442738837279,0.007218170641883341
-0.38067267957521833,-0.38067267957521833,1.0021544227119312,0.006680674664779203
-0.37933888760089757,-0.37933888760089757,0.9979720582568674,0.0066922227458399595
-0.3770425292343134,-0.3770425292343134,1.0014015026154854,0.006703606853242526
-0.3753162199522194,-0.3753162199522194,1.0014385603037081,0.007075132214822212
-0.37364517041351064,-0.37364517041351064,1.0026737546717015,0.006682071925351735
-0.37251094303501303,-0.37251094303501303,0.9970459191230695,0.006715766112713082
-0.37075152468896705,-0.37075152468896705,1.0077648295202093,0.00669575899938378
-0.36808402781098265,-0.36808402781098265,0.997668228358998,0.006923100867073947
-0.3666309911495773,-0.3666309911495773,1.0092752607136881,0.006982832948090314
-0.36560115713509733,-0.36560115713509733,1.0055530184833765,0.006711728272746763
-0.36424484350718556,-0.36424484350718556,0.9954898504284874,0.006713889650648425
-0.36155818491242825,-0.36155818491242825,0.9959335906681577,0.006714070328841465
-0.3602894019742962,-0.3602894019742962,1.0047134066605934,0.007114449453686669
-0.35860111152142055,-0.35860111152142055,1.00689736590074,0.006696896993591013
-0.3576408524953877,-0.3576408524953877,1.0031087797325573,0.006728454227093038
-0.3564090570398548,-0.3564090570398548,0.9998052555743261,0.006698695450779081
-0.3537316529815143,-0.3537316529815143,1.0046278652186118,0.0067561064786118355
-0.3525501247218926,-0.3525501247218926,1.0045297517241911,0.006976319454843694
-0.35099705045722657,-0.35099705045722657,0.9994907536190315,0.006707022890099622
-0.3498673092799436,-0.3498673092799436,1.001697839652318,0.006882038304846928
-0.3485045790250297,-0.3485045790250297,0.9960283623825539,0.006748086589998159
-0.34596790462965143,-0.34596790462965143,1.0000264555818206,0.006899755602420505
-0.34508526923309546,-0.34508526923309546,1.0015301319805332,0.0070150780627750795
-0.34370169393514516,-0.34370169393514516,0.9957878031177442,0.00672068593193194
-0.3425104289635783,-0.3425104289635783,1.0040823844907236,0.006723593212640976
-0.33997975072124975,-0.33997975072124975,0.9960326390613211,0.006708041938987786
-0.33825950274549543,-0.33825950274549543,1.004464786629058,0.007049888909822227
-0.3366020146968367,-0.3366020146968367,1.0015612340666933,0.006731581800629582
-0.3354566097485076,-0.3354566097485076,1.0077230405128397,0.006700574247931157
-0.3336985094116244,-0.3336985094116244,0.992163951211505,0.006737254231517273
-0.3312128978373948,-0.3312128978373948,1.0005768196865286,0.006956350763390756
-0.3302186048604199,-0.3302186048604199,1.0039118206144848,0.00701198848564172
-0.3287969697754306,-0.3287969697754306,1.002636746431217,0.006688085810211889
-0.3275238288595574,-0.3275238288595574,0.9970315046611109,0.006806250152813916
-0.32567717001365964,-0.32567717001365964,1.0005830868595065,0.0067529716359214535
-0.323679548187647,-0.323679548187647,1.002678293686388,0.0068845730152871775
-0.32251218247183716,-0.32251218247183716,1.0020799506387825,0.0070144503320039315
-0.32130495195524417,-0.32130495195524417,0.9870806830331725,0.006761842812246138
-0.32009141023809207,-0.32009141023809207,1.0044422152514954,0.006733497241384561
-0.31781185348081636,-0.31781185348081636,0.9933736146805782,0.00670539398477068
-0.31607874034525596,-0.31607874034525596,0.9993478889182293,0.007028309412137512
-0.31439277024983314,-0.31439277024983314,0.9959587395855596,0.006702284882509117
-0.31327085739103494,-0.31327085739103494,0.9993989621773931,0.006710994299461963
-0.3121218566848256,-0.3121218566848256,1.0035435051026507,0.006913184615006833
-0.3090712115466886,-0.3090712115466886,0.9997948886539755,0.006773993421143454
-0.3081453101040097,-0.3081453101040097,0.9914726367355321,0.007147703610305499
-0.3066580273385625,-0.3066580273385625,0.9928608157806409,0.006682645443666568
-0.3055594826626475,-0.3055594826626475,1.0012687621492427,0.006706145692974219
-0.30374982046487276,-0.30374982046487276,0.9982474704817221,0.006733313766436752
-0.3015582317886583,-0.3015582317886583,1.004143980960983,0.0068081588487886886
-0.30031737715180495,-0.30031737715180495,1.0025817962227497,0.006999959666897405
-0.2991034086320724,-0.2991034086320724,1.0028837437301168,0.00670822052886757
-0.29806100396890545,-0.29806100396890545,0.9985248320721579,0.00669430385647443
-0.2966331646639446,-0.2966331646639446,0.9983715610629714,0.0066941411905084664
-0.2943068984197453,-0.2943068984197453,0.9964971975447453,0.006761739317877933
-0.2932129012398946,-0.2932129012398946,0.9962362408659704,0.007233258803666301
-0.2917493269633269,-0.2917493269633269,1.0005340690111741,0.00669417815771222
-0.29061869342549473,-0.29061869342549473,0.9920980360557703,0.00681393700386092
-0.2892711977903673,-0.2892711977903673,1.0009957570516739,0.00671171427552444
-0.28673756128991956,-0.28673756128991956,0.9985515089254555,0.0069048791125942794
-0.2858422949837404,-0.2858422949837404,0.9968296471767625,0.007023978440889825
-0.2844498581107473,-0.2844498581107473,0.9988041998468727,0.006662770816801449
-0.2833736838729237,-0.2833736838729237,1.0010660430553902,0.006704323162666939
-0.28132529089853053,-0.28132529089853053,0.9959289088096724,0.0066976612917840975
-0.2792459337702894,-0.2792459337702894,0.988950477725514,0.007034054111287336
-0.27764826375787377,-0.27764826375787377,0.9958627714531278,0.006724535551560748
-0.2764678075625852,-0.2764678075625852,1.0073091466203699,0.006717364798112758
-0.2753176462880219,-0.2753176462880219,0.9941967347836886,0.006950140112690011
-0.2725731236714637,-0.2725731236714637,1.0082833778177764,0.006733129777750273
-0.2710894927411573,-0.2710894927411573,0.994301722398793,0.007171170021662227
-0.26961447439098263,-0.26961447439098263,1.0032282312467402,0.006686521514171659
-0.2685046756960219,-0.2685046756960219,0.9985674140847758,0.006726206594956622
-0.26644173442618924,-0.26644173442618924,0.9966660207461981,0.006705113294286076
-0.2643460134502675,-0.2643460134502675,1.010519953432576,0.0070485009860201415
-0.26289940787173693,-0.26289940787173693,1.0013388276861597,0.006785667299908678
-0.2618387343703944,-0.2618387343703944,0.9977675059463591,0.0067031041872613936
-0.260625313372293,-0.260625313372293,1.0038728288721468,0.006701602329168897
-0.2580028555916215,-0.2580028555916215,0.9964447013930643,0.006702998392126118
-0.2566602343737031,-0.2566602343737031,1.0001132235292247,0.007021803275692147
-0.2548254813737003,-0.2548254813737003,1.0001161762255055,0.0067042735363893255
-0.25378344024939,-0.25378344024939,0.9951655691039036,0.006699649844056873
-0.25281525562386375,-0.25281525562386375,0.9953575717058405,0.006919221390652981
-0.2501822032594646,-0.2501822032594646,1.0004713159758243,0.006737765567887287
-0.24927187808498275,-0.24927187808498275,1.001654611653465,0.007164170788967109
-0.247772168632946,-0.247772168632946,0.9998685178013446,0.006738405376504207
-0.24686341515553067,-0.24686341515553067,0.9954053772675456,0.006720020788273222
-0.2449506318422209,-0.2449506318422209,0.9959808576396341,0.006684577457041263
-0.24233155989350053,-0.24233155989350053,1.0003073008146317,0.00680460192542857
-0.2409877971324022,-0.2409877971324022,1.0097830756397017,0.006961447882703323
-0.2396490995270142,-0.2396490995270142,0.9939374921903539,0.006732056969292075
-0.2383308933902299,-0.2383308933902299,1.0050266569979383,0.006705128995932787
-0.23561215828085552,-0.23561215828085552,0.9951185654736451,0.0067917397325179445
-0.2344331450338359,-0.2344331450338359,1.0030749265801866,0.007189674423313157
-0.23293200713960688,-0.23293200713960688,1.0008349740731077,0.006697632203129472
-0.23201188706734682,-0.23201188706734682,1.0063509044034886,0.00670747772847424
-0.2308485645808105,-0.2308485645808105,0.9899001612964039,0.006811683543051017
-0.2282363239879487,-0.2282363239879487,0.9959892832225616,0.006768170909183807
-0.22708999475144082,-0.22708999475144082,1.002167113063091,0.007162872431143804
-0.2255548081411689,-0.2255548081411689,1.0034460433920944,0.006702097649904412
-0.22455174811257167,-0.22455174811257167,0.9969971359804392,0.006763648872940992
-0.22334194187133108,-0.22334194187133108,1.0038155287098751,0.006721845742452862
-0.22037165009387535,-0.22037165009387535,1.0086883476371398,0.006792951236186696
-0.21920308980334086,-0.21920308980334086,0.9965935668526784,0.006987188104933828
-0.21765438149886904,-0.21765438149886904,0.9974614290506973,0.006703429729457633
-0.2165253660910821,-0.2165253660910821,1.0063786938864323,0.006915332544739731
-0.2145024961930176,-0.2145024961930176,0.9997069092103367,0.006719500944797519
-0.2124867676458962,-0.2124867676458962,0.991799221315303,0.006938268490777687
-0.2110873618054029,-0.2110873618054029,0.9991397530178189,0.006969927909578545
-0.2100592815062555,-0.2100592815062555,1.0038798955567922,0.0067202321311156926
-0.20871161248505815,-0.20871161248505815,1.0095771696986766,0.0066907569199778595
-0.20636109072584077,-0.20636109072584077,1.001210765866385,0.0067442178960382074
-0.2049085504942923,-0.2049085504942923,1.0031549187261812,0.007064913080974208
-0.2033553716049937,-0.2033553716049937,0.9998307750359334,0.0067267179510400775
-0.20238941683783196,-0.20238941683783196,0.9922229848986964,0.00669665903536423
-0.20137970491778107,-0.20137970491778107,1.0067545751497162,0.006691394943197361
-0.19927497007665806,-0.19927497007665806,0.9993387043666633,0.006710347880236023
-0.19765843340792344,-0.19765843340792344,1.0076858831116047,0.007272721983783313
-0.19618552610045298,-0.19618552610045298,1.003931317227141,0.006715537608097224
-0.19496376392125966,-0.19496376392125966,0.9959232565490448,0.006708541831024173
-0.19379547646894935,-0.19379547646894935,1.0057388055056475,0.006822149417080233
-0.1911733814609761,-0.1911733814609761,1.0015911334954883,0.006768003076282887
-0.1900336962149595,-0.1900336962149595,1.0087687052753913,0.007150772521850328
-0.1885070958545839,-0.1885070958545839,0.9963156822638026,0.006686063518238037
-0.18735268586169695,-0.18735268586169695,0.9999823679253745,0.006712990544433218
-0.18569495997726335,-0.18569495997726335,0.9947141078390056,0.00669525429729103
-0.18310511270246935,-0.18310511270246935,1.0059279587732939,0.006799474839249227
-0.1817383168177912,-0.1817383168177912,0.9971140210340771,0.006977390043410396
-0.18040587345531095,-0.18040587345531095,1.0034617718512415,0.006690405801639286
-0.1793767411974841,-0.1793767411974841,1.0103344651011301,0.006964226148567361
-0.1774447115181829,-0.1774447115181829,0.9994505106060627,0.006694025293961421
-0.17536176707653794,-0.17536176707653794,0.9936194778625221,0.007202836630005196
-0.17368190302076983,-0.17368190302076983,0.991581325278559,0.006674526449912151
-0.17276653922890545,-0.17276653922890545,1.0018108183068424,0.0067341932646967015
-0.17141799658493256,-0.17141799658493256,0.994795711697523,0.006697951129213259
-0.16840014727640665,-0.16840014727640665,0.9995160943254907,0.006826071402641895
-0.16735669180561671,-0.16735669180561671,0.9834225973314281,0.006990205559535273
-0.16588166456494946,-0.16588166456494946,0.9980973478115738,0.006692973182767878
-0.1648208199374494,-0.1648208199374494,0.9975963301313566,0.00671849009457455
-0.16285706811395356,-0.16285706811395356,1.0058784004397165,0.006702307741390176
-0.16094451886820024,-0.16094451886820024,1.0002078701359651,0.0067609830067821095
-0.15953506652003852,-0.15953506652003852,1.0048955428591098,0.006957759892845958
-0.15821464453692896,-0.15821464453692896,0.9991056263566918,0.00670116597298685
-0.15712953597394516,-0.15712953597394516,0.9995179927789941,0.006874051441167433
-0.15526631004249794,-0.15526631004249794,1.001728105332417,0.006758833614366693
-0.15325728929092292,-0.15325728929092292,1.004947099819915,0.00688163212380308
-0.15213149130067904,-0.15213149130067904,1.0061475106429618,0.007018264813902044
-0.15103491214613313,-0.15103491214613313,0.9961449140745298,0.006726049246842274
-0.14954065458732657,-0.14954065458732657,0.9989172591618203,0.006705452826693296
-0.1468070743670978,-0.1468070743670978,1.0011302811837555,0.006725335689836508
-0.1455065834634297,-0.1455065834634297,1.0009823163815283,0.0070555689548232395
-0.14368169674708042,-0.14368169674708042,0.9960903877540466,0.006719095058696374
-0.14263010960858083,-0.14263010960858083,0.994643170194051,0.006705527371704961
-0.1404543540738814,-0.1404543540738814,1.001792571117236,0.006740878739265288
-0.13843270534780458,-0.13843270534780458,1.006172548824002,0.006956003915130503
-0.13728240028285654,-0.13728240028285654,1.0074875430668186,0.006995384249108465
-0.13618923442918457,-0.13618923442918457,1.001881254279219,0.006701505156483876
-0.1349337915358774,-0.1349337915358774,0.9996957970252571,0.006799723948630347
-0.13308888770116029,-0.13308888770116029,1.0050538778413842,0.006744545179567835
-0.1310924529301701,-0.1310924529301701,1.0031440499423656,0.0068718185116972835
-0.1299221856992517,-0.1299221856992517,0.9992784265931928,0.0070179785775262935
-0.12871430716113536,-0.12871430716113536,1.0035324076364807,0.006755300012420298
-0.127500988337124,-0.127500988337124,0.9995869825193455,0.006726663823892634
-0.12522448858362623,-0.12522448858362623,0.9995582780870281,0.006708412134284252
-0.12349012252889224,-0.12349012252889224,1.001660040620068,0.007035263702149376
-0.12180143868827145,-0.12180143868827145,1.0007042100237429,0.0067269354527033755
-0.12068176873144694,-0.12068176873144694,1.0004210855719367,0.00670759816383545
-0.11953123435814632,-0.11953123435814632,1.0014759905875577,0.006929744860472972
-0.11648429682609276,-0.11648429682609276,0.9968826294414701,0.006775771431184438
-0.11555648695284618,-0.11555648695284618,1.0067127824424547,0.007148839042419382
-0.11406675131001975,-0.11406675131001975,1.0053279693625377,0.006697853760861318
-0.11297046890394995,-0.11297046890394995,1.0044605980578052,0.006710193212656609
