time,time,flux,flux_err
-0.4997976682364727,-0.4997976682364727,1.000257829911053,0.0018420003330948127
-0.4989951228465846,-0.4989951228465846,1.000283761012011,0.001867154447741651
-0.49819274194548296,-0.49819274194548296,1.0009782123241784,0.0018182625860411771
-0.4973568753441214,-0.4973568753441214,0.9975452180803487,0.0016435040700861464
-0.4964825148403179,-0.4964825148403179,1.0005605184766353,0.001690389597537946
-0.49542275488638554,-0.49542275488638554,0.9983778214845167,0.0016696208867513877
-0.4947108356340323,-0.4947108356340323,0.9993309654241539,0.0017115530676418255
-0.49406097668252186,-0.49406097668252186,1.0009159455478027,0.0016648107061752594
-0.49330107019632125,-0.49330107019632125,0.9987182536834931,0.0016700671486086893
-0.4924549517352716,-0.4924549517352716,1.0002161635084759,0.0016439835581411612
-0.4917565715339151,-0.4917565715339151,0.9987255847162331,0.0016910809666591804
-0.49082751521782486,-0.49082751521782486,1.0018895384295377,0.0016899558143451403
-0.4897139279084513,-0.4897139279084513,0.9994877853202067,0.0017130975286290136
-0.4888174780920963,-0.4888174780920963,0.9988905673753858,0.001646536568003913
-0.4879497789603192,-0.4879497789603192,0.9996598440765162,0.001669747776384697
-0.4873648997978307,-0.4873648997978307,1.0008172424085506,0.0016452367949582839
-0.4867002683953615,-0.4867002683953615,0.9988285617275606,0.0016785280518230449
-0.48592934532352955,-0.48592934532352955,0.9995857800105779,0.001733258596828785
-0.4847301043366315,-0.4847301043366315,1.0015998560210075,0.0016472203356444146
-0.48402788669773145,-0.48402788669773145,0.9992836969137459,0.0016701431832205533
-0.4833006322514848,-0.4833006322514848,1.0009076428118775,0.0016674201715352142
-0.48258934038021833,-0.48258934038021833,0.9988299530595679,0.001667854252198228
-0.4818768027573242,-0.4818768027573242,0.9990800335495507,0.001712336828559212
-0.4804883359989617,-0.4804883359989617,0.9998346204823806,0.0016904509900166139
-0.47982742986059745,-0.47982742986059745,0.99972455117263,0.0016693391278856345
-0.478881496390386,-0.478881496390386,1.0010784636321783,0.0016682884004992407
-0.47821683843940266,-0.47821683843940266,1.001349439323582,0.0016683437034942204
-0.47754542629554636,-0.47754542629554636,1.000296659590099,0.0017114346986414955
-0.4764283864031313,-0.4764283864031313,0.9994469882284281,0.0016730541449600834
-0.475801549233438,-0.475801549233438,0.9990717465766004,0.0016908497486457497
-0.4751429916606867,-0.4751429916606867,1.0007965002657027,0.001670936586598551
-0.474353984829213,-0.474353984829213,0.9994989319719683,0.0016686620160122124
-0.47356742268166274,-0.47356742268166274,1.0005144090544367,0.0016883997377052282
-0.47251768994756277,-0.47251768994756277,0.9986103535597088,0.001690726256783077
-0.47184156255534615,-0.47184156255534615,0.9994814299550873,0.0017210957401033004
-0.47132694387400986,-0.47132694387400986,1.000005942627292,0.0016666301859124479
-0.47049147687503134,-0.47049147687503134,0.9989154232313064,0.0016461420599421742
-0.4697409787229844,-0.4697409787229844,1.0029916377658386,0.0016906540713546032
-0.46888066855754007,-0.46888066855754007,0.9992710181958662,0.0016919724813816285
-0.4678362875405583,-0.4678362875405583,1.0000530339425866,0.0016920188094344472
-0.4674266009722487,-0.4674266009722487,0.9996120196598165,0.0017334704313246626
-0.4668440583656775,-0.4668440583656775,1.0009279832209113,0.00164502944472068
-0.46599950280215124,-0.46599950280215124,1.0012296155914853,0.0016684746397699133
-0.4652977270743577,-0.4652977270743577,0.9992071208177136,0.0016659885486499187
-0.4642953521499294,-0.4642953521499294,1.0012109874950768,0.0016907698495271957
-0.4632748766322038,-0.4632748766322038,1.0006888435007066,0.0016949374806870198
-0.46258032781770453,-0.46258032781770453,1.001195034997229,0.0016689552445948
-0.46186940707266333,-0.46186940707266333,1.0003132250035915,0.0016667407295303982
-0.4611527785440558,-0.4611527785440558,0.9990985334611132,0.0016690343252766904
-0.46027665166475346,-0.46027665166475346,0.9993762289189541,0.0016923765005397203
-0.4593708245229209,-0.4593708245229209,0.9990091193490077,0.001712886359109479
-0.45860364030668277,-0.45860364030668277,1.0004416999374872,0.001691807815655627
-0.4579738699641894,-0.4579738699641894,0.9995099850878904,0.0016521161285712206
-0.45718231590726643,-0.45718231590726643,0.9994037139943487,0.001668392202466265
-0.45639199896831995,-0.45639199896831995,1.0007485588887453,0.001645727354916168
-0.45571964981209023,-0.45571964981209023,1.0007511144860382,0.0016915433795303123
-0.45466239685047183,-0.45466239685047183,0.998840587004126,0.0016700525627821896
-0.45394822051748634,-0.45394822051748634,0.999898647458464,0.001711222527523086
-0.45330609178490705,-0.45330609178490705,0.9986306048891805,0.0016653128858229547
-0.45254171893029704,-0.45254171893029704,0.9977903098919126,0.0016691990345916031
-0.45170062108663844,-0.45170062108663844,1.0007363091438601,0.0016460637931241559
-0.4508897106483346,-0.4508897106483346,1.000054123452717,0.0017156338584494353
-0.44991710945614616,-0.44991710945614616,0.9984188421063369,0.0016894477109464401
-0.4486954900407,-0.4486954900407,0.9969453647255717,0.0016916675536618694
-0.44783188657747813,-0.44783188657747813,1.0000649777895063,0.0016441912380350874
-0.44713695650716545,-0.44713695650716545,1.0007327273592164,0.0016702596131198777
-0.44644477672554783,-0.44644477672554783,1.0012898485150719,0.0016660725016659004
-0.4458330881578149,-0.4458330881578149,0.99922031335244,0.0016765720242102305
-0.44487783232616496,-0.44487783232616496,1.0020356967709965,0.0017330474438740067
-0.44386422084789956,-0.44386422084789956,1.0001216655955696,0.0016477878737004552
-0.44311329800548266,-0.44311329800548266,1.0001326622446984,0.0016684864090232645
-0.44239933213102633,-0.44239933213102633,0.9986442884661884,0.0016452125997120219
-0.4416986317897681,-0.4416986317897681,1.000016615010885,0.0016688680977361623
-0.44083811801247064,-0.44083811801247064,1.001244344417285,0.0017340312507848298
-0.4395717553619761,-0.4395717553619761,0.9993195115373561,0.001690622124597093
-0.43891426011105067,-0.43891426011105067,1.001591878449593,0.0016698485073993747
-0.43809227068850304,-0.43809227068850304,0.998587640711819,0.0016472711038201184
-0.4374610021157423,-0.4374610021157423,1.0008091887511423,0.001666724855696866
-0.4367810520969215,-0.4367810520969215,0.9996696666601329,0.0017118393748484935
-0.4357099300061236,-0.4357099300061236,1.0014507170810576,0.0017141248497800753
-0.4351488018539385,-0.4351488018539385,1.0005438000595315,0.0016917161737613124
-0.434465812878625,-0.434465812878625,1.0022951380754044,0.001646608429059862
-0.43359360042086337,-0.43359360042086337,0.9998085399455101,0.0016677608775175923
-0.4329575783500331,-0.4329575783500331,0.9990058121272423,0.001666773145297587
-0.4319554328190861,-0.4319554328190861,1.0023119398181262,0.0017129661844612232
-0.4310762848093873,-0.4310762848093873,0.9993895431135231,0.0016913743631773778
-0.430471604783088,-0.430471604783088,0.9987636657046914,0.0016464166432532922
-0.42951609177835054,-0.42951609177835054,0.9984229657029602,0.001669055274976849
-0.42880573341390116,-0.42880573341390116,1.0001933266399352,0.0016670624551450319
-0.42787435148493386,-0.42787435148493386,0.9983230329013983,0.0016894065245321682
-0.4269158448863891,-0.4269158448863891,0.9982066301330107,0.0017077445665053428
-0.42646164587058594,-0.42646164587058594,0.9998680392200375,0.0017128745631341605
-0.4257455903280061,-0.4257455903280061,1.0002249057958317,0.0016716795149249164
-0.4249984183101333,-0.4249984183101333,1.0014102409592023,0.0016455136446850874
-0.4241360946747591,-0.4241360946747591,0.9997449890602315,0.0016678569607192274
-0.4231904573782231,-0.4231904573782231,0.9987064142933303,0.0017121268496962823
-0.4223891966030351,-0.4223891966030351,1.0010321842635568,0.0016918753215328778
-0.42170949654246215,-0.42170949654246215,0.9992206762473979,0.001644607109158875
-0.4207621311841649,-0.4207621311841649,0.9996914107303303,0.001667389723843413
-0.42000178137386684,-0.42000178137386684,0.9984922879829565,0.0016681484369791538
-0.4192413899087114,-0.4192413899087114,0.9998497788189452,0.001711342362649152
-0.4182532102728146,-0.4182532102728146,1.00108894270869,0.0016693920650303292
-0.41752929508948,-0.41752929508948,1.0022538544415143,0.0016939443345031571
-0.4168516532095964,-0.4168516532095964,0.9989683391009418,0.0016441704905725452
-0.4159507663323893,-0.4159507663323893,0.9998121045227999,0.0016459917198520882
-0.41495682512177157,-0.41495682512177157,1.0015814286185332,0.0016937587305756792
-0.4139020826332853,-0.4139020826332853,1.0009869291468785,0.0016689691492851404
-0.4131856486637844,-0.4131856486637844,0.9986828167477301,0.0017124116826285
-0.4125512350758072,-0.4125512350758072,0.9981568736141305,0.0016627230249758418
-0.41178240353765433,-0.41178240353765433,1.0011301111330924,0.0016678079445619953
-0.41094634432083693,-0.41094634432083693,1.000245352029137,0.0016434521569622582
-0.41012448154360753,-0.41012448154360753,0.9993657274312022,0.0017148352801904607
-0.4091551176170469,-0.4091551176170469,1.0004016617125666,0.0016901286372786185
-0.4082452266025939,-0.4082452266025939,1.0005794655130111,0.0016665950261291278
-0.40742744239250894,-0.40742744239250894,1.000586253930143,0.0016681637457912316
-0.40657058781798694,-0.40657058781798694,0.9997977049048761,0.0016459010688679668
-0.4060108230391052,-0.4060108230391052,0.9987179922680728,0.0016680345334072516
-0.40531567801517665,-0.40531567801517665,0.9995992694941986,0.0016686285223226512
-0.4046556226312532,-0.4046556226312532,0.9995839024394051,0.0017174468920075584
-0.4033639158529695,-0.4033639158529695,0.9990831940973031,0.0016693204248426738
-0.40267207801516636,-0.40267207801516636,0.99972877525219,0.0016680773896018534
-0.40192166250344596,-0.40192166250344596,1.000408476716856,0.0016437955063889152
-0.40119579755555607,-0.40119579755555607,0.998935436173878,0.0016902495242783783
-0.4005916556954617,-0.4005916556954617,0.9987656699818785,0.0016863709492135742
-0.3995086630122387,-0.3995086630122387,0.9987692473649655,0.0017147374223748697
-0.39858312908618243,-0.39858312908618243,0.9996547593354087,0.0016660885923568854
-0.3978044733143179,-0.3978044733143179,1.0002465628848816,0.0016704821669195305
-0.39706781575805505,-0.39706781575805505,0.9998422970237723,0.0016459821298109134
-0.3964573987221229,-0.3964573987221229,0.997788491681059,0.001690073305910272
-0.39553234426130074,-0.39553234426130074,0.9993711882552132,0.001688832242338499
-0.3946148234026623,-0.3946148234026623,1.0008666303033773,0.0016899697800759378
-0.3939299896112061,-0.3939299896112061,0.9987211049804754,0.001667157765174133
-0.3928466816883883,-0.3928466816883883,0.9992394714499317,0.0016437153309528784
-0.39220119418896504,-0.39220119418896504,0.9994831111749658,0.0016680628493846398
-0.3911921241393429,-0.3911921241393429,0.9993129610757944,0.001711986884962994
-0.39031485755403994,-0.39031485755403994,0.999800092563347,0.0016914947383979881
-0.38972391131101175,-0.38972391131101175,1.0021026361442928,0.001670408382309541
-0.3891222845559241,-0.3891222845559241,0.9995103884754959,0.0016690369427991558
-0.38834076008351986,-0.38834076008351986,0.99918405256337,0.001667977568811777
-0.38753548175445757,-0.38753548175445757,1.0008209212163448,0.0016912338234171414
-0.38644174489163563,-0.38644174489163563,0.9992503499348049,0.0016922660550366512
-0.38589392239518927,-0.38589392239518927,1.0015993103588872,0.0017275816136429496
-0.38533616057538894,-0.38533616057538894,1.0004671596675778,0.0016465204594982425
-0.3844792982839863,-0.3844792982839863,0.9992215013149389,0.0016681967896787983
-0.38378226423228623,-0.38378226423228623,1.00083999563543,0.0016684664650871053
-0.3828549057710916,-0.3828549057710916,1.000071991066251,0.0017140943520632089
-0.38190468925313326,-0.38190468925313326,0.9990730543191468,0.0017335230772361925
-0.3813583638795535,-0.3813583638795535,1.0012559343410732,0.0016901660985357003
-0.3806232293907669,-0.3806232293907669,1.000723011584523,0.0016689950120537113
-0.37993155402800766,-0.37993155402800766,1.0004220163708888,0.0016675314062477725
-0.37924202156427783,-0.37924202156427783,1.0009624554201375,0.001668656116007261
-0.3784778238463332,-0.3784778238463332,1.00003679644309,0.001712380797653889
-0.3775069466937566,-0.3775069466937566,1.0008037865605304,0.0016918712292872573
-0.3769218547764467,-0.3769218547764467,1.0024770496069297,0.0016897114407685581
-0.3761631017550826,-0.3761631017550826,0.9987904607630902,0.0016477660870162524
-0.37539088678749977,-0.37539088678749977,1.0008343095879475,0.0016463328684210923
-0.3744002851730329,-0.3744002851730329,0.999956042482465,0.0016681485841488878
-0.3732842086654273,-0.3732842086654273,1.0027010704948787,0.001692126744656013
-0.3725732329621678,-0.3725732329621678,0.9975941013175922,0.001692301742987911
-0.3719529436682933,-0.3719529436682933,1.000348704243986,0.0016796936844985586
-0.37114858382992677,-0.37114858382992677,0.9996045179312392,0.0016455629574537469
-0.3703437072821544,-0.3703437072821544,0.9986165810860218,0.0016434837206000016
-0.3695786556956591,-0.3695786556956591,1.0007838760123184,0.0017138545503467232
-0.3685417583954404,-0.3685417583954404,0.9985387334011102,0.0016905868744242054
-0.36779212811525214,-0.36779212811525214,0.9991692442793052,0.0016691445722897037
-0.3669561906644958,-0.3669561906644958,1.0000662707663666,0.0016672147395700911
-0.3661146531376289,-0.3661146531376289,0.9990454264442757,0.0016447907579988548
-0.3655173164705047,-0.3655173164705047,1.0006548507130815,0.0016692825342084464
-0.3647927648387849,-0.3647927648387849,0.9991861802736445,0.0016889799663966074
-0.36418968507205135,-0.36418968507205135,0.9980781193080874,0.0016700577364315739
-0.3630915286426898,-0.3630915286426898,0.9993185252549205,0.001712892358863376
-0.36217943579686107,-0.36217943579686107,1.0001458573261797,0.0016444084439045839
-0.36126998548279515,-0.36126998548279515,0.9984257478542695,0.0016696023212290577
-0.3605619416426634,-0.3605619416426634,0.9993738948646497,0.0016657946256316604
-0.35996151493600337,-0.35996151493600337,1.000159856052358,0.0016824011072795505
-0.35904242220713056,-0.35904242220713056,1.0003748343579477,0.0017354476530773932
-0.35809265068091917,-0.35809265068091917,1.0005174409468134,0.0016688551549760313
-0.3574860581429675,-0.3574860581429675,1.0010336126315553,0.0016439498794421248
-0.3568201983784093,-0.3568201983784093,0.9992608635470838,0.0016458400914158497
-0.3561920660940814,-0.3561920660940814,1.0011129113262336,0.001666595653121182
-0.35554911756917135,-0.35554911756917135,1.0004258365994945,0.0016892665150250203
-0.3545751272395137,-0.3545751272395137,1.0009442184623996,0.0016904861294976567
-0.3537015871304902,-0.3537015871304902,1.0002857930700162,0.0016907075046546458
-0.35303688789281296,-0.35303688789281296,1.0005618376046614,0.0016686648265815166
-0.35208845938323063,-0.35208845938323063,0.998894756226796,0.0016460467984664427
-0.3514448647372774,-0.3514448647372774,1.0004967896333627,0.0016689105659000551
-0.3506810799241066,-0.3506810799241066,0.9993395492718589,0.0017152897200919492
-0.34966382009588415,-0.34966382009588415,0.999500015270112,0.0016910845234612045
-0.3490648352541029,-0.3490648352541029,1.000274723061129,0.0016683100029981596
-0.34836267479113303,-0.34836267479113303,0.9997526146919802,0.001670390159782871
-0.34758131669223075,-0.34758131669223075,0.9978553314113198,0.0016691716068893228
-0.34677590261999286,-0.34677590261999286,0.9981682417712552,0.001688185363776934
-0.34568027324567085,-0.34568027324567085,0.9994635396145121,0.0016932244533834114
-0.34512761172663886,-0.34512761172663886,0.9998632709307224,0.0017237501054227964
-0.3445822732261149,-0.3445822732261149,0.9991107999867193,0.001644875780961233
-0.34364535545028047,-0.34364535545028047,1.00183693809018,0.0016683985915325588
-0.34283499444718474,-0.34283499444718474,1.0010628649795836,0.001642653772578635
-0.3418642805860145,-0.3418642805860145,1.0012792988729196,0.0017241115270199645
-0.34114371254690923,-0.34114371254690923,1.0000838083638899,0.0017227330371752763
-0.3405961644893978,-0.3405961644893978,0.9980140602376419,0.0016905822314538985
-0.3398658991936827,-0.3398658991936827,1.000714196395533,0.001670934251938421
-0.33911882989050357,-0.33911882989050357,0.9978623378408468,0.0016436471655845004
-0.3382590668246849,-0.3382590668246849,0.9992560724213826,0.0016698703678299728
-0.33728365906572433,-0.33728365906572433,1.002216643875063,0.001714263960589818
-0.3365298821561737,-0.3365298821561737,0.9994106066610206,0.0016931072229449278
-0.33582122004881965,-0.33582122004881965,1.000298252646585,0.0016466738462902416
-0.3348919102994842,-0.3348919102994842,0.9999956398259808,0.001667944442851969
-0.33400463922152995,-0.33400463922152995,0.9993303611777741,0.0016207247567427106
-0.33296784479753117,-0.33296784479753117,0.9990866332314097,0.001713627445563659
-0.33225383589597185,-0.33225383589597185,1.0001562213617348,0.0016928817132331425
-0.3315457603894174,-0.3315457603894174,0.9978637973574322,0.0017012690098956711
-0.33087074141512857,-0.33087074141512857,1.0012963254783644,0.001666551048476125
-0.33016081406240116,-0.33016081406240116,0.9988485926972593,0.00164549839575901
-0.3292793962202268,-0.3292793962202268,1.0008087143404132,0.0016682890397887152
-0.3280964150282671,-0.3280964150282671,1.0024701231204654,0.0016943318608458931
-0.32732095896353713,-0.32732095896353713,0.9981838635847854,0.0017128724423552185
-0.32666490485135,-0.32666490485135,1.0027773117856469,0.0016693057295764269
-0.3259085762751056,-0.3259085762751056,0.9992523643500022,0.0016689339559294836
-0.3250592360680457,-0.3250592360680457,1.0007220016904363,0.0016447735996137057
-0.3244926803454291,-0.3244926803454291,1.001527319145923,0.0016663648770751638
-0.32357571337197444,-0.32357571337197444,0.9989132627338619,0.001693858719376809
-0.3225856099743396,-0.3225856099743396,1.000328765505039,0.0017124111729857016
-0.32155408676480873,-0.32155408676480873,1.0006943480965131,0.0016680657310235842
-0.320693195766944,-0.320693195766944,0.9995599589755292,0.0016701618355869138
-0.320130080760282,-0.320130080760282,1.0009382919272873,0.0016447924153839481
-0.31943132645683364,-0.31943132645683364,0.9994449972996934,0.0016670652948161282
-0.3187990526348585,-0.3187990526348585,0.9999733971631652,0.0017235373981178887
-0.31749217625765597,-0.31749217625765597,1.0013051997066964,0.001668285023371596
-0.3167946164539899,-0.3167946164539899,0.9992694778321278,0.0016681155017486036
-0.3160408952346188,-0.3160408952346188,0.9975632035401821,0.0016456508207644224
-0.31532194730825724,-0.31532194730825724,1.0016842581107877,0.0016902732693021589
-0.3146410191548057,-0.3146410191548057,1.0010243107844796,0.0016912816711872891
-0.31350110655912433,-0.31350110655912433,1.001962826966228,0.0016942412844630477
-0.3126929481062689,-0.3126929481062689,0.9995887195078751,0.0016662001749199705
-0.31187328794476343,-0.31187328794476343,0.9991850352177455,0.0016693526698505219
-0.3110665318978135,-0.3110665318978135,1.0001342577442354,0.0016663994034953843
-0.3104372203728417,-0.3104372203728417,0.9994421971792834,0.0016891309111401256
-0.30946992062818024,-0.30946992062818024,0.998736054137979,0.0016909662379322777
-0.3086484851926798,-0.3086484851926798,0.999489320865743,0.001690715753607739
-0.3080899722204776,-0.3080899722204776,1.000136601761096,0.0016687493687936952
-0.3072087460692273,-0.3072087460692273,0.9990597449100459,0.0016940678717693042
-0.3065348316231393,-0.3065348316231393,0.9998190399507738,0.001667484666318969
-0.3055881441119709,-0.3055881441119709,1.0006604099928693,0.001688749174043508
-0.3046303861992783,-0.3046303861992783,1.0016628135410528,0.001698608889845991
-0.30417072231794007,-0.30417072231794007,1.0000978771025522,0.0017132453008041504
