time,time,flux,flux_err
-0.49927796430160926,-0.49927796430160926,0.9997739754499925,0.00025048690899048137
-0.49828338059514865,-0.49828338059514865,0.9996824334871389,0.0002493338606428689
-0.4970881914652637,-0.4970881914652637,1.000358135211382,0.0002511567492619646
-0.49583329143861193,-0.49583329143861193,1.000230708146232,0.0002499598393697503
-0.4943402211094508,-0.4943402211094508,1.000132330291752,0.0002497227308547527
-0.49264766286487427,-0.49264766286487427,0.9996807195839658,0.00025075795767033756
-0.4914264844584523,-0.4914264844584523,1.0002153738762476,0.0002499034454192528
-0.49042755761429363,-0.49042755761429363,1.000124879907765,0.00024987709845899185
-0.4890963173064392,-0.4890963173064392,1.0001574122475008,0.00025139812936277316
-0.48776867290271186,-0.48776867290271186,0.9999402713009935,0.0002496252985485536
-0.4857927205107444,-0.4857927205107444,0.9996184653439094,0.00025071985553861163
-0.48468024507442353,-0.48468024507442353,0.9999444111046175,0.0002494457385292546
-0.4836712349865138,-0.4836712349865138,0.9998056582268638,0.00025026788348448775
-0.48222476979158274,-0.48222476979158274,0.9999344525429155,0.0002508485217604625
-0.4812926651075486,-0.4812926651075486,1.0004156659229304,0.00024987582596231004
-0.47947396161871436,-0.47947396161871436,1.0000478501906496,0.00025014229866985184
-0.4779121841195774,-0.4779121841195774,1.0000912345606736,0.0002501087028614179
-0.47674741697428547,-0.47674741697428547,0.9995211232268264,0.00024980722039668165
-0.4753060707516397,-0.4753060707516397,1.0003050152449258,0.00025180973299647366
-0.474161911097417,-0.474161911097417,0.9999840131985689,0.00024976331192323893
-0.4728532434900899,-0.4728532434900899,0.9998948411425903,0.00024918262553438734
-0.47120713944414094,-0.47120713944414094,1.0005499535440028,0.0002509163051196665
-0.4699550888237809,-0.4699550888237809,1.0001319664984645,0.0002499264935766508
-0.4688285317120062,-0.4688285317120062,0.9995998317162496,0.0002504188831890227
-0.46742483826260467,-0.46742483826260467,0.999687775571202,0.0002506180563659535
-0.4660922867998579,-0.4660922867998579,1.000385835036548,0.00024906295255022217
-0.4642464112036123,-0.4642464112036123,0.9996800666324059,0.0002507956655725304
-0.4629192589313334,-0.4629192589313334,1.0000101432806956,0.00025015996424495766
-0.4619855495626325,-0.4619855495626325,0.9998972935055732,0.00025049211105169394
-0.4605398791066818,-0.4605398791066818,1.0000829564409142,0.0002511812420123847
-0.4593850175735497,-0.4593850175735497,0.9999768548415231,0.0002489537245650803
-0.45727778680620756,-0.45727778680620756,1.0000357571024499,0.0002508135895794621
-0.4558189282766307,-0.4558189282766307,1.000168733094816,0.00025015868769513933
-0.45488519578320846,-0.45488519578320846,1.0000581232190506,0.00025053495447383185
-0.4534395382551793,-0.4534395382551793,0.9997246286239868,0.0002511506271397482
-0.45228471320820063,-0.45228471320820063,0.9998692583629033,0.0002489622537643879
-0.44989344096698003,-0.44989344096698003,1.000414971445887,0.00025082071530739086
-0.44883182610083167,-0.44883182610083167,1.00004021963881,0.00025004821625176324
-0.4480442264406065,-0.4480442264406065,1.0002786761830544,0.000250184553488301
-0.4465688703336127,-0.4465688703336127,1.000816507790081,0.000251331457283735
-0.4454340346298977,-0.4454340346298977,0.999939122317292,0.0002493481421192262
-0.4433139189843132,-0.4433139189843132,1.0002273665458232,0.00024994032110411165
-0.4416182633114204,-0.4416182633114204,1.000158611541351,0.0002501592864978326
-0.44093610648778847,-0.44093610648778847,0.999869931803061,0.0002504583047540223
-0.43980425779573123,-0.43980425779573123,1.000029282586845,0.0002518124917544653
-0.4385619057485656,-0.4385619057485656,1.0001447825611105,0.00024938283888770196
-0.4369968045275073,-0.4369968045275073,1.000210978397117,0.0002491482489428017
-0.43494304557516444,-0.43494304557516444,1.000074821682685,0.00025037194271201066
-0.4339923663098489,-0.4339923663098489,0.9999115915473669,0.00025089280463863324
-0.4325921046273379,-0.4325921046273379,0.9999216394902227,0.0002517180610163175
-0.4314029690714051,-0.4314029690714051,1.000179766157974,0.0002495035527060113
-0.42989651298162246,-0.42989651298162246,0.999639353503958,0.00024908978463985653
-0.4277523487575309,-0.4277523487575309,0.9995655943887893,0.0002510908873598187
-0.4267218092872554,-0.4267218092872554,1.000399797909741,0.00025058136403276
-0.42512746931238327,-0.42512746931238327,1.000131330103988,0.0002513771311213791
-0.4238149174942009,-0.4238149174942009,0.9997504785899494,0.00024945157608338334
-0.4223107173266271,-0.4223107173266271,0.9998522001581056,0.000249617962754849
-0.42017088166921895,-0.42017088166921895,0.9999595238986843,0.00025143976507656607
-0.41901659687364373,-0.41901659687364373,0.9997896863291882,0.0002514338863675363
-0.4174510767612446,-0.4174510767612446,1.0000765842413393,0.00024967155165294666
-0.4165187816668549,-0.4165187816668549,0.9997913532843586,0.0002499072661680406
-0.4151321229482619,-0.4151321229482619,1.0006033083351686,0.00024973085633003405
-0.41304244542352536,-0.41304244542352536,1.0003911536103565,0.0002509244790577401
-0.41166030274930565,-0.41166030274930565,0.9998446799172089,0.0002520168730724355
-0.41035074446003816,-0.41035074446003816,1.000014555657805,0.0002496830511483347
-0.40915962987328386,-0.40915962987328386,1.0003886436387668,0.00024944223235530264
-0.40761670411584416,-0.40761670411584416,1.000317090920445,0.0002504901503562798
-0.405185419798363,-0.405185419798363,1.0000873649838495,0.0002509372500764553
-0.4040098650830714,-0.4040098650830714,1.000402944773359,0.0002510757622987595
-0.4028013871499752,-0.4028013871499752,1.0000095323428788,0.00024979541606699106
-0.4015659804795632,-0.4015659804795632,1.000268862380861,0.0002500887141681756
-0.40007366896870733,-0.40007366896870733,0.9999908140154676,0.0002506583983465113
-0.3976122079563538,-0.3976122079563538,1.0008739765735115,0.0002507964773849414
-0.39649044849670645,-0.39649044849670645,1.00000519109135,0.0002508389103218543
-0.39541408475683965,-0.39541408475683965,1.0001022096974004,0.0002498308775214017
-0.39446565383577764,-0.39446565383577764,1.0005990951640338,0.0002501224407782952
-0.3928597299267949,-0.3928597299267949,0.9998062863496961,0.0002506567152106661
-0.3902743495714276,-0.3902743495714276,0.9999449412807394,0.000251491686927829
-0.38922999231381256,-0.38922999231381256,0.9999169138220043,0.0002500962707015369
-0.3881637946939918,-0.3881637946939918,1.0001317700132701,0.00024945030598441653
-0.38690018387574127,-0.38690018387574127,0.9998974772591431,0.0002506502562983484
-0.3855793004107454,-0.3855793004107454,0.9998177700617917,0.0002504287298136672
-0.38317399117449896,-0.38317399117449896,0.9993174175952036,0.0002514723749083952
-0.38207285055646023,-0.38207285055646023,1.0001184881671645,0.00025011264015001403
-0.38106348775672816,-0.38106348775672816,0.999895381433246,0.0002494897232374649
-0.37968507369078,-0.37968507369078,0.9999481114866319,0.0002506327761831724
-0.3783097496402206,-0.3783097496402206,0.9997767529829249,0.0002504411675566366
-0.3760521610712658,-0.3760521610712658,1.0000234753611559,0.00025214635275696347
-0.37478228971849603,-0.37478228971849603,0.9999226877146029,0.00024943869334730155
-0.3739476658234707,-0.3739476658234707,1.0002620349346363,0.0002495227207382395
-0.3725847518845512,-0.3725847518845512,0.9999879432171926,0.0002506302824708363
-0.3710507409810816,-0.3710507409810816,1.0000267580810647,0.00025068882971167447
-0.36882644057254765,-0.36882644057254765,0.9997729749609003,0.0002519176339739219
-0.3676819613974658,-0.3676819613974658,0.9997621916145333,0.00024945374164640993
-0.3667905727946163,-0.3667905727946163,1.000135772342539,0.0002494895790084755
-0.3654276269251113,-0.3654276269251113,0.9998762034646873,0.00025060148601619824
-0.36353351080115315,-0.36353351080115315,1.000086097647225,0.0002509674555772761
-0.3614631235378056,-0.3614631235378056,1.000351111378413,0.0002516176097406549
-0.3601701167979627,-0.3601701167979627,0.9998762839438295,0.00025004565972302015
-0.35958811662653717,-0.35958811662653717,0.9998288386702505,0.0002489159386443654
-0.35805884872806926,-0.35805884872806926,1.000046773835272,0.0002502361639264629
-0.3566073200484425,-0.3566073200484425,0.9995421845340443,0.00025098123549266785
-0.35462566821047403,-0.35462566821047403,1.000506068913644,0.00025195898095653734
-0.3531254888372587,-0.3531254888372587,0.9999543902200294,0.0002499911241186695
-0.3522641763800948,-0.3522641763800948,0.9996701395239436,0.00024896442190733964
-0.35086231687951114,-0.35086231687951114,1.0002727394541373,0.0002498315906625414
-0.34867117320914076,-0.34867117320914076,0.9998065486001911,0.0002516552777935568
-0.3469062635814225,-0.3469062635814225,0.9998763158626238,0.00025136430200666063
-0.34573159598685377,-0.34573159598685377,1.0003692777759812,0.00024950039315613384
-0.3445950894988982,-0.3445950894988982,0.9999052961211478,0.0002497976114041901
-0.3431832739560832,-0.3431832739560832,0.9998337554690936,0.0002496694382750985
-0.34116559142116787,-0.34116559142116787,1.000083503813937,0.0002513316433219529
-0.3398059023149472,-0.3398059023149472,0.9999786203797714,0.0002513896759503216
-0.33871501233629714,-0.33871501233629714,1.0001504703868105,0.0002503404754871486
-0.3377887409327741,-0.3377887409327741,0.9999993973763643,0.0002491606087772744
-0.3362066851678719,-0.3362066851678719,0.9999038206219655,0.0002503356730052688
-0.33423466066333274,-0.33423466066333274,1.0000271162140275,0.00025091273342733964
-0.33301954357007163,-0.33301954357007163,1.0001078990882477,0.00025123373209117806
-0.3315387298936002,-0.3315387298936002,0.999728220153368,0.0002500463002750637
-0.3306884350842211,-0.3306884350842211,1.0001699474489134,0.0002491926096918864
-0.3291063642067911,-0.3291063642067911,0.9998995177457989,0.0002503581522177654
-0.3267935035761639,-0.3267935035761639,0.9999651480536251,0.00025089191270176095
-0.3259192033065574,-0.3259192033065574,0.9997313454569288,0.00025121646350224897
-0.3245711739574745,-0.3245711739574745,1.0000816833502828,0.0002503785715749034
-0.3236413243172137,-0.3236413243172137,1.0000060139586169,0.0002491909155174688
-0.32231285475468213,-0.32231285475468213,1.0001611739907812,0.00025018659287556646
-0.3199857438376966,-0.3199857438376966,1.0002257306107984,0.0002516423766796726
-0.318872244558861,-0.318872244558861,0.999998998694027,0.00025083328371113353
-0.3176990262021263,-0.3176990262021263,0.999628750823855,0.0002503578316474056
-0.31660013633509154,-0.31660013633509154,1.000371676402811,0.0002495888543931646
-0.3153773079531675,-0.3153773079531675,1.0002020973851586,0.00024970191405049205
-0.3133025414740132,-0.3133025414740132,1.0003348342477065,0.00025134411683123655
-0.3119502502418072,-0.3119502502418072,1.0000259678732566,0.0002509866533358824
-0.3108025641482982,-0.3108025641482982,1.0003231823535936,0.00025061819311598276
-0.3097853866268906,-0.3097853866268906,0.9996146285436109,0.0002498810560706347
-0.3081889381849578,-0.3081889381849578,1.000130929758181,0.00024919162671382196
-0.3063466535101725,-0.3063466535101725,0.9997880331951358,0.0002515194535251073
-0.3048503878721931,-0.3048503878721931,0.9996836593241877,0.00025127721887852213
-0.30392232833614796,-0.30392232833614796,0.9999333049995031,0.00024996257102619985
-0.30294848702328636,-0.30294848702328636,1.0002575096943591,0.00024999895562699125
-0.3012766733701483,-0.3012766733701483,0.9999101324631177,0.00024908707292741833
-0.2992818692508081,-0.2992818692508081,1.0001965215802193,0.0002516643909862438
-0.2978944698340456,-0.2978944698340456,0.9998343364280216,0.0002514824521090867
-0.2969207275114968,-0.2969207275114968,0.9999989344218945,0.000250327583791277
-0.2958619020088008,-0.2958619020088008,1.0001922095945575,0.0002495463756482522
-0.29455787120950844,-0.29455787120950844,0.9996287513922812,0.00024953130121532617
-0.29233074878475235,-0.29233074878475235,0.9997465326563966,0.00025093649982709036
-0.29077524523272585,-0.29077524523272585,0.9999818319507454,0.00025176592804133745
-0.28982040675323334,-0.28982040675323334,0.9999177577308798,0.00025032155813478526
-0.28876159033206933,-0.28876159033206933,0.9999857933792871,0.0002495307013973529
-0.2870668577524157,-0.2870668577524157,0.9999287107701565,0.00024992515828278154
-0.2846428895612917,-0.2846428895612917,1.0003443098907832,0.0002515160258787678
-0.2831918988948473,-0.2831918988948473,1.0000939966238902,0.00025112349639647955
-0.2821414266389638,-0.2821414266389638,0.9999366719290128,0.0002503769064481574
-0.28092622228869,-0.28092622228869,0.9997798403110616,0.00024949326889664474
-0.2795121444701181,-0.2795121444701181,1.0010471691007192,0.00024998013041129804
-0.2767311290930138,-0.2767311290930138,0.9995551888818042,0.0002518607373822014
-0.27581704646449906,-0.27581704646449906,1.0000614339639593,0.0002504691662043919
-0.2745884002022649,-0.2745884002022649,0.9998370741540785,0.00025028403766509964
-0.2732039243887357,-0.2732039243887357,1.0004917472362638,0.0002485338199108224
-0.27126564428663186,-0.27126564428663186,0.9995401391858623,0.00025152848554032203
-0.2693176387439962,-0.2693176387439962,0.9997371788980474,0.000250957540006576
-0.2683403182062648,-0.2683403182062648,1.0000619022959687,0.0002512494540782983
-0.26717263432506116,-0.26717263432506116,0.9999660754623829,0.00024938196668430277
-0.2658655997429378,-0.2658655997429378,1.0012124604460486,0.0002491273375656623
-0.2636324889672778,-0.2636324889672778,1.0005613727458171,0.00025124220423895213
-0.2619059086787729,-0.2619059086787729,1.0000270460572103,0.0002517520300805249
-0.2608954791937322,-0.2608954791937322,0.9997485634686116,0.00025137860502132646
-0.2602781846360358,-0.2602781846360358,0.9999389065698395,0.0002491272921088715
-0.2589465097556058,-0.2589465097556058,1.0001521939496114,0.00024846693810836055
-0.2568758321734094,-0.2568758321734094,1.0011099111654747,0.00025132288643591415
-0.2545331813319535,-0.2545331813319535,0.9999535128282272,0.0002518874130783125
-0.25352185128590465,-0.25352185128590465,0.9999134109116593,0.00025059670157666174
-0.25271165299136555,-0.25271165299136555,1.0001579533544382,0.00024945198960265463
-0.2516058198169503,-0.2516058198169503,1.0001050910751705,0.0002490094827616685
-0.24961826647995622,-0.24961826647995622,0.9999752626562245,0.00025073535797594563
-0.24743280613643037,-0.24743280613643037,1.0002501449311274,0.00025191230618523913
-0.24642152695878394,-0.24642152695878394,1.0003649906887115,0.00025063117883896736
-0.2454762962764107,-0.2454762962764107,0.999980530878996,0.0002483247961816786
-0.24419930283388566,-0.24419930283388566,0.9999488159717819,0.0002495864453469806
-0.24233435544415444,-0.24233435544415444,0.9998305352250657,0.00025120929329317573
-0.24033243096941986,-0.24033243096941986,0.99979255888107,0.0002518420284070054
-0.23919996931604146,-0.23919996931604146,1.000451824073823,0.00024999912452712845
-0.23818732889544664,-0.23818732889544664,1.000320147173371,0.0002488639597300112
-0.23709897601047486,-0.23709897601047486,0.9999399188217895,0.0002495845493977858
-0.23500681473151416,-0.23500681473151416,0.9996091731487434,0.00025118153789592193
-0.23347430243079542,-0.23347430243079542,0.999913720131909,0.00025155205962976667
-0.23229292737541982,-0.23229292737541982,1.0001313132366039,0.0002506940417037174
-0.23113588699293358,-0.23113588699293358,0.999609088089921,0.0002485547943939442
-0.22969203959819423,-0.22969203959819423,0.9998044075100451,0.0002497122107909651
-0.227784883215827,-0.227784883215827,0.9999371409226457,0.00025076792701896175
-0.2265426064953317,-0.2265426064953317,1.0000332777955012,0.00025157595774954946
-0.22542313562680646,-0.22542313562680646,1.000026321825366,0.00025111299034098853
-0.2242885620549714,-0.2242885620549714,1.0001829310789943,0.0002480394532372144
-0.2228983225639695,-0.2228983225639695,0.9996563803230808,0.0002495355447277935
-0.22105197590217357,-0.22105197590217357,1.0000143074543213,0.0002508812240741704
-0.2193854562427532,-0.2193854562427532,0.9998951042287632,0.00025158439713697273
-0.21852945742252813,-0.21852945742252813,1.0000676673021838,0.00025129040139957475
-0.2174299671287372,-0.2174299671287372,0.9998988987790918,0.00024910677155799146
-0.2162445216436481,-0.2162445216436481,0.9997818322780574,0.00024907818929160915
-0.21446114488339846,-0.21446114488339846,0.9999853172378591,0.00025050421353116397
-0.21244527124586057,-0.21244527124586057,0.9996963291240452,0.00025161467207840535
-0.2116272434403072,-0.2116272434403072,0.999743052278937,0.00025118664541818843
-0.21075265314939315,-0.21075265314939315,0.9999279900238023,0.0002494267890591332
-0.20954346847142916,-0.20954346847142916,1.00026942539317,0.00024934221467766985
-0.20818043773451791,-0.20818043773451791,0.9999935539528364,0.00024960946224365397
-0.20576424489577222,-0.20576424489577222,0.9999597743085455,0.00025082348424020203
-0.20483055544855233,-0.20483055544855233,0.999906537302423,0.00025184545129929063
-0.20369839626710018,-0.20369839626710018,1.0000517734737382,0.0002499669251742452
-0.20279190312844547,-0.20279190312844547,0.9999128661994741,0.0002496143916242752
-0.20165177655121624,-0.20165177655121624,1.000303606277128,0.00024961322529644316
-0.19941982754680793,-0.19941982754680793,0.9999315420502107,0.00025021391280649516
-0.19792148470560278,-0.19792148470560278,1.000456546293416,0.0002519899085985479
-0.19702179443324894,-0.19702179443324894,0.9997843009322587,0.00025113143870887254
-0.19589958401593321,-0.19589958401593321,0.9998968274142339,0.0002486825866027856
-0.19479689957402116,-0.19479689957402116,1.0002744855139327,0.00024995268637312544
-0.19339414381774986,-0.19339414381774986,0.9993549120882615,0.0002496362100940971
-0.191075925668747,-0.191075925668747,1.000465288412384,0.0002513281925913762
-0.18992749400622416,-0.18992749400622416,1.0001317294891585,0.00025139260911854263
-0.1890287151096345,-0.1890287151096345,1.0007543434854065,0.00024918208221328997
-0.18790303138198397,-0.18790303138198397,1.000161445334171,0.0002498261393540333
-0.1867090524342075,-0.1867090524342075,1.0003139962778946,0.0002496127342782786
-0.18421666832809933,-0.18421666832809933,0.9997326405879223,0.0002514784394139543
-0.18308059504479388,-0.18308059504479388,1.0014636385324367,0.00025132214537646705
-0.18202310405690697,-0.18202310405690697,0.9999736755354609,0.0002492497808523691
-0.18088524743207018,-0.18088524743207018,0.9997414160892113,0.00024986781046776015
-0.17953774888883345,-0.17953774888883345,1.0005626312388542,0.00025012309352700655
-0.1774747980830398,-0.1774747980830398,0.9998898025610135,0.00025041352858089574
-0.1761979424891706,-0.1761979424891706,1.0004823598951067,0.00025160513372744574
-0.17509177723991343,-0.17509177723991343,0.9997484747333564,0.00024915306284629474
-0.17372811024015392,-0.17372811024015392,1.0001648421740588,0.0002498967836166735
-0.17266528128106984,-0.17266528128106984,1.0001811070417503,0.0002501854204264956
-0.17026879741770246,-0.17026879741770246,0.9998760648068874,0.00025084659061306636
-0.1691652620171226,-0.1691652620171226,1.000331577908447,0.00025109594499653275
-0.1681968236782268,-0.1681968236782268,1.000229116148638,0.00025001498611898276
-0.16681909327489847,-0.16681909327489847,0.9997703788580576,0.00024910288972490374
-0.16546783880985458,-0.16546783880985458,0.9998697753868353,0.0002503309793666975
-0.16353172936596821,-0.16353172936596821,0.9996221544654986,0.0002506200255319227
-0.162065389397776,-0.162065389397776,0.9998898105607514,0.00025128595049976534
-0.16113404968182293,-0.16113404968182293,0.9998494054834627,0.0002503157276948464
-0.1601223874149582,-0.1601223874149582,1.0001923824481533,0.00024941695255082774
-0.1587389240733046,-0.1587389240733046,1.0003072655762444,0.0002494706552135109
-0.15681200813951363,-0.15681200813951363,0.9996734454305394,0.0002509382748510959
