time,time,flux,flux_err
-0.4999470451480625,-0.4999470451480625,1.000171203755386,0.0001542241631439124
-0.499839337385823,-0.499839337385823,0.9998816623404488,0.00016097930495632138
-0.4997248994152847,-0.4997248994152847,0.9997888423200935,0.0001541966230683897
-0.4996269804240846,-0.4996269804240846,0.9998371090477173,0.0001461086062758672
-0.4995320098072096,-0.4995320098072096,1.000116413455737,0.00014526868062020797
-0.4994383456166524,-0.4994383456166524,1.0003061815750307,0.00014173426480910503
-0.4993463627257736,-0.4993463627257736,0.9999115108719364,0.00014219782651883777
-0.4992567397787795,-0.4992567397787795,1.000083265254443,0.00014602493682628568
-0.4991617668899355,-0.4991617668899355,1.0001201170112668,0.00014513232817186817
-0.4990681020107203,-0.4990681020107203,0.9999143215951959,0.00014164748300011701
-0.4989761211245323,-0.4989761211245323,0.9997318960382631,0.00014209804943596631
-0.4988864991378687,-0.4988864991378687,0.9999051332252721,0.00014591269203533902
-0.4987915239764472,-0.4987915239764472,1.0000044126404943,0.00014496248108587312
-0.49869785840965514,-0.49869785840965514,1.0001379142017188,0.0001415766516935173
-0.49860587952877927,-0.49860587952877927,0.9999102027271546,0.00014206035157401296
-0.4985162585011921,-0.4985162585011921,1.0003055325462313,0.00014587269747398177
-0.4984212810668204,-0.4984212810668204,0.9999791896428178,0.00014485875620253745
-0.4983276148136788,-0.4983276148136788,1.0000259836755532,0.00014152556255240615
-0.498235637938512,-0.498235637938512,1.0000374779450594,0.0001420059466161855
-0.4981460178689332,-0.4981460178689332,0.9998678943266398,0.0001458181458259161
-0.49805103816110297,-0.49805103816110297,0.999921277444759,0.00014477776794779768
-0.49795737122259354,-0.49795737122259354,1.0000307509833044,0.0001415365025256359
-0.497865396353631,-0.497865396353631,1.0000616509544353,0.00014200399403638695
-0.49777577724100863,-0.49777577724100863,0.9998394616265474,0.00014579455307824133
-0.497680795259285,-0.497680795259285,0.9999436704658512,0.00014475130219321572
-0.4975871276365226,-0.4975871276365226,1.0003227606019967,0.00014153843182709017
-0.4974951547743,-0.4974951547743,0.9998275290104098,0.0001419896081326456
-0.4974055366174632,-0.4974055366174632,1.000015491106576,0.00014582457696028225
-0.497310552361386,-0.497310552361386,0.9999533009779636,0.00014477759201677348
-0.49721688405535824,-0.49721688405535824,0.9999558491193247,0.00014150768270367796
-0.49712491320048,-0.49712491320048,1.0001970122493664,0.00014199918325798184
-0.49703529599829077,-0.49703529599829077,1.0001377237884703,0.00014582636446087678
-0.49694030946727674,-0.49694030946727674,0.9999945540275712,0.00014481194136306167
-0.49684664047930693,-0.49684664047930693,1.0000920212439064,0.00014154094922028845
-0.49675467163225945,-0.49675467163225945,0.999712375303918,0.0001420061414276876
-0.49666505538340966,-0.49666505538340966,0.9999438687604923,0.00014585259164277627
-0.4965700665773465,-0.4965700665773465,1.0000343620061507,0.00014488492823294503
-0.4964763969082675,-0.4964763969082675,1.000031139027135,0.00014160753159220111
-0.49638443006938965,-0.49638443006938965,1.0002038012160173,0.0001420776469202377
-0.4962948147729985,-0.4962948147729985,0.999986861675828,0.00014590674367202236
-0.4961998236912805,-0.4961998236912805,1.0000047922207138,0.00014494035724390325
-0.49610615334208247,-0.49610615334208247,0.9998531770256511,0.0001416206579033645
-0.4960141885123022,-0.4960141885123022,1.000049349429538,0.00014209704054859594
-0.49592457416694524,-0.49592457416694524,0.9999663653492934,0.00014593384485391851
-0.49582958080909945,-0.49582958080909945,1.0000892877070526,0.00014503090295405412
-0.49573590978124854,-0.49573590978124854,0.9997321185657906,0.00014169222544774615
-0.49564394696060426,-0.49564394696060426,1.0001697166413128,0.0001421621358962156
-0.49555433356539674,-0.49555433356539674,0.9999185292315855,0.0001459498401125443
-0.4954593379312254,-0.4954593379312254,1.0001561973749344,0.00014504332637246923
-0.49536566622510775,-0.49536566622510775,0.9999666069740283,0.00014170224724231539
-0.4952737054145153,-0.4952737054145153,0.9999644103333303,0.00014218388197962824
-0.4951840929682206,-0.4951840929682206,0.9999257122870582,0.00014599104260088123
-0.49508909505712495,-0.49508909505712495,1.000145285188261,0.00014503254708472517
-0.49499542267441576,-0.49499542267441576,0.9999928165183066,0.00014169931357877253
-0.4949034638738521,-0.4949034638738521,1.0000406112808808,0.00014219005431319738
-0.49481385237516234,-0.49481385237516234,0.9997214407787997,0.00014594651424887695
-0.49471885218707,-0.49471885218707,1.0002558340298169,0.00014500633243719186
-0.49462517912855225,-0.49462517912855225,0.9997801384621761,0.00014169820161098206
-0.49453322233896024,-0.49453322233896024,1.0000272436631228,0.00014212357045659054
-0.49444361178684704,-0.49444361178684704,0.9999155753440752,0.00014598276201738852
-0.4943456473274285,-0.4943456473274285,1.0000465490007575,0.00014501798934507589
-0.4942490116008777,-0.4942490116008777,1.000493012383449,0.00014174313379404046
-0.49416001881620525,-0.49416001881620525,0.9998570910054534,0.00014213840705445342
-0.4940704092094652,-0.4940704092094652,0.9998191749314849,0.00014596217462662997
-0.49397244247208116,-0.49397244247208116,1.0001284754198683,0.00014506876451823256
-0.4938756735701745,-0.4938756735701745,0.9999140772359167,0.00014216807061356472
-0.4937860647188931,-0.4937860647188931,0.9999615322854444,0.00014599357189195504
-0.4936951277251357,-0.4936951277251357,0.9998471940867285,0.00014176536312158602
-0.4936021996142038,-0.4936021996142038,1.0001299113392037,0.00014509168951921229
-0.4935054320507618,-0.4935054320507618,1.0002064719540211,0.00014221162839126003
-0.493415824142707,-0.493415824142707,1.0000353150327908,0.00014603483896943076
-0.4933248841972702,-0.4933248841972702,0.9997420593470103,0.0001417871573963881
-0.49323195676032583,-0.49323195676032583,0.9999002290273198,0.00014513590848676603
-0.4931351905369617,-0.4931351905369617,1.00021745606967,0.0001421908091788823
-0.4930455835708415,-0.4930455835708415,0.9998905838605932,0.00014606621892965753
-0.4929546406744844,-0.4929546406744844,0.9998473451497014,0.00014182469595532264
-0.49286171391053024,-0.49286171391053024,0.9999972410967015,0.00014508496818442212
-0.49276494902883317,-0.49276494902883317,1.0001429211489696,0.00014220251507883133
-0.4926753430034033,-0.4926753430034033,1.0000958256610915,0.00014598591758945993
-0.49258439715683694,-0.49258439715683694,0.9999786467743956,0.00014175337806972445
-0.49249147106474356,-0.49249147106474356,1.0000052459772493,0.00014502132476575957
-0.49239470752612996,-0.49239470752612996,1.0000386828646814,0.00014214838934326247
-0.49230510244046,-0.49230510244046,0.9998982356752686,0.0001459324314351189
-0.4922141536442915,-0.4922141536442915,1.00002450377264,0.00014172098204986557
-0.492121228222868,-0.492121228222868,0.9999004900068005,0.00014483870932469007
-0.4920244660291619,-0.4920244660291619,0.9999903268721255,0.0001420839083564062
-0.49193486188200025,-0.49193486188200025,1.0000560910722194,0.00014590290198758632
-0.49184391013679835,-0.49184391013679835,0.9999388420680464,0.00014167008323380314
-0.49175098538526285,-0.49175098538526285,1.0000781688097515,0.00014472082054097272
-0.4916542245377652,-0.4916542245377652,0.9999059879320205,0.00014197974772473345
-0.49156462132783324,-0.49156462132783324,1.0000183612533895,0.00014579177309755325
-0.4914736666344421,-0.4914736666344421,1.0001969865781255,0.00014159781662228046
-0.4913807425517295,-0.4913807425517295,1.0000698077885142,0.0001446386543708568
-0.49128398305200527,-0.49128398305200527,1.0000919291412633,0.00014198410122097312
-0.4911943807781853,-0.4911943807781853,0.999770934090016,0.0001457614404077764
-0.49110342313715166,-0.49110342313715166,0.9999183945703647,0.0001415616869851456
-0.49101049972218147,-0.49101049972218147,0.9997819845543381,0.0001445144285819531
-0.490913741571843,-0.490913741571843,0.9998585579745161,0.0001418829190967801
-0.49082414023292137,-0.49082414023292137,1.0001146006668058,0.00014576788521969766
-0.49073317964498847,-0.49073317964498847,1.000577822337042,0.00014156916510792093
-0.49064025689669,-0.49064025689669,1.0000812040295946,0.00014445231061244475
-0.490543500097418,-0.490543500097418,0.9998717084054759,0.00014188698369139738
-0.4904538996921513,-0.4904538996921513,0.999910731593301,0.00014571610658973996
-0.4903629361580116,-0.4903629361580116,0.9998425192657228,0.00014154479982060773
-0.49027001407521065,-0.49027001407521065,0.999958678702769,0.0001444334677844806
-0.49017325862872807,-0.49017325862872807,1.0000714869138367,0.00014190761352865066
-0.490083659155821,-0.490083659155821,0.9998400735722373,0.0001457287076824515
-0.4899926926761399,-0.4899926926761399,1.0001004772645257,0.0001415457294650011
-0.48989977125777384,-0.48989977125777384,0.9999912004078049,0.00014444901262505882
-0.4897981296135182,-0.4897981296135182,1.0001201137600948,0.00014574049196663174
-0.4896905740701477,-0.4896905740701477,1.0000520410381364,0.00014154892420588898
-0.48959765318248216,-0.48959765318248216,0.9997686919552532,0.0001444619375601497
-0.4895001600429726,-0.4895001600429726,1.0001368778397828,0.00014577999830278946
-0.48940918885217605,-0.48940918885217605,1.000020713141787,0.0001415633204118944
-0.4893172604302475,-0.4893172604302475,0.9998906005239565,0.00014195535956742838
-0.4892274103726216,-0.4892274103726216,0.9999296711860293,0.00014447822048320775
-0.48912991951782947,-0.48912991951782947,0.9999014911296202,0.0001457595621784519
-0.4890389453834015,-0.4890389453834015,0.9998726464007379,0.00014158835755637118
-0.4889470189801134,-0.4889470189801134,0.9999465082473262,0.00014191101820245651
-0.48885716756679576,-0.48885716756679576,1.000048605135845,0.0001444857877537067
-0.4887596789971809,-0.4887596789971809,1.000263138668619,0.00014576135530332152
-0.48866870191986217,-0.48866870191986217,0.999944957193706,0.0001415824679645982
-0.48857677753562784,-0.48857677753562784,0.999962473973526,0.00014192592542268463
-0.4884869247648652,-0.4884869247648652,1.0001298175228648,0.00014442963177191883
-0.48838943848096045,-0.48838943848096045,0.9999485023451443,0.00014577521458164125
-0.48829845846135134,-0.48829845846135134,1.0000637414759392,0.00014158307445486437
-0.4882065360966905,-0.4882065360966905,0.9998168595278545,0.00014190074528181137
-0.4881166819671307,-0.4881166819671307,1.0000549425440226,0.00014435883538014825
-0.4880191979691748,-0.4880191979691748,0.9999823355509184,0.0001457583133670669
-0.4879282150080407,-0.4879282150080407,0.9999591008181019,0.00014152140000669221
-0.48783629466350253,-0.48783629466350253,0.9999738243991481,0.00014187996545245447
-0.4877464391734453,-0.4877464391734453,1.00018011854279,0.00014430225153253388
-0.48764895746169507,-0.48764895746169507,0.9999754445220956,0.00014567467176122836
-0.4875567867629528,-0.4875567867629528,0.9999815980139541,0.00014150019926539403
-0.487463091243454,-0.487463091243454,0.999910461773226,0.00014185875363240016
-0.4873732343912739,-0.4873732343912739,1.0000437420180508,0.00014423999639539254
-0.4872757549663028,-0.4872757549663028,0.9998559583076145,0.00014564979128742195
-0.48718170806777367,-0.48718170806777367,1.000133560846844,0.0001418528392954244
-0.4870888881322152,-0.4870888881322152,1.0000606471986306,0.0001442161555936929
-0.486998163382194,-0.486998163382194,1.0000725743653454,0.0001414923592479456
-0.4869001828814824,-0.4869001828814824,0.9999062607437565,0.00014570570747937038
-0.4868055426652763,-0.4868055426652763,0.9998730651744261,0.00014183307503011733
-0.4867156833573286,-0.4867156833573286,1.0000891477130585,0.00014421677221126178
-0.4866182080493342,-0.4866182080493342,0.9997484334656292,0.00014564610762618214
-0.48652188233109117,-0.48652188233109117,0.999940779439229,0.00014153301677224923
-0.48642937726882385,-0.48642937726882385,1.0003831644699028,0.00014187792251809625
-0.4863395165942599,-0.4863395165942599,1.0000495667301674,0.00014426047014738611
-0.48624204357403294,-0.48624204357403294,0.999936424849237,0.00014573124238787932
-0.486143847315747,-0.486143847315747,0.9998258966398701,0.00014186305173009473
-0.4860462843668699,-0.4860462843668699,1.0000088626782595,0.0001443018144843328
-0.485945258786295,-0.485945258786295,1.0000903175224054,0.00014581575425902615
-0.48584232260780597,-0.48584232260780597,1.0000268756833979,0.0001419009663682071
-0.485748905352623,-0.485748905352623,1.000065631927525,0.00014439188777164475
-0.4856496587982789,-0.4856496587982789,0.9999247539897466,0.00014576806411944736
-0.4855556950370854,-0.4855556950370854,1.0001176354728867,0.00014163452517043377
-0.4854637876325363,-0.4854637876325363,0.999716130103654,0.0001419603846416636
-0.48537392339731866,-0.48537392339731866,1.000212050673069,0.00014450682090112282
-0.4852764563271311,-0.4852764563271311,1.0001206977971893,0.00014586145191039062
-0.4851824896298872,-0.4851824896298872,0.9997428199069187,0.000141681185982834
-0.4850935462411169,-0.4850935462411169,1.000126759831516,0.0001420162569593291
-0.48500368063362276,-0.48500368063362276,1.0001920211730069,0.00014456228870966413
-0.48490621585250865,-0.48490621585250865,0.9999204047664503,0.0001458618386132932
-0.4848122462202582,-0.4848122462202582,0.9995240801721226,0.0001417060049741264
-0.48472330485545817,-0.48472330485545817,1.0000277102327075,0.00014207630754562743
-0.4846334378740494,-0.4846334378740494,1.000281484609708,0.00014464819727212319
-0.48453597538231746,-0.48453597538231746,1.0000102839558953,0.0001459071187677298
-0.48444200281563565,-0.48444200281563565,0.9997805149869574,0.00014178316452088052
-0.4843530634755357,-0.4843530634755357,1.0000745100110646,0.00014204773859793492
-0.48426319511833393,-0.48426319511833393,0.9998876535367553,0.00014464571225877707
-0.4841657349166354,-0.4841657349166354,1.0000291093515286,0.00014595298654466787
-0.4840717594162502,-0.4840717594162502,0.9998993112459047,0.00014176530455746307
-0.4839828221010354,-0.4839828221010354,1.0000777616245267,0.00014205517927985475
-0.48389295236679003,-0.48389295236679003,1.000015747101776,0.0001446363737073085
-0.48379549445549513,-0.48379549445549513,1.0000437326390492,0.00014590868290677238
-0.48370151602211175,-0.48370151602211175,0.999785071770843,0.00014173823379007734
-0.4836125807322844,-0.4836125807322844,1.0000196990955854,0.00014208751755872873
-0.48352270961918153,-0.48352270961918153,1.0001530572606518,0.00014464527736016548
-0.483425253998562,-0.483425253998562,1.0000521152922537,0.00014592843129648296
-0.4833312726329407,-0.4833312726329407,1.0000325387263556,0.00014178852524246782
-0.4832423393692917,-0.4832423393692917,0.9998949244794891,0.00014205335152976323
-0.48315246687586855,-0.48315246687586855,0.9999667598631733,0.00014462143841849787
-0.48305501354626157,-0.48305501354626157,0.9998615236613941,0.0001459391221411771
-0.4829610292492458,-0.4829610292492458,1.0001133346991733,0.00014181639854272114
-0.4828720980118234,-0.4828720980118234,1.000106265295141,0.00014210445796036645
-0.4827822241361897,-0.4827822241361897,0.9998659791166926,0.00014462927879827807
-0.4826847730982905,-0.4826847730982905,1.0001437450051103,0.00014592133994957684
-0.4825907858706273,-0.4825907858706273,0.9997665762127379,0.00014178249126152177
-0.4825018566600793,-0.4825018566600793,0.9999904608528064,0.00014207036966677798
-0.4824119814007709,-0.4824119814007709,1.0001346042676615,0.0001446053522188677
-0.48231453265472835,-0.48231453265472835,1.0000847573022802,0.00014594056265183355
-0.4822205424973937,-0.4822205424973937,1.0000772244544263,0.00014176600657126516
-0.48213161531395554,-0.48213161531395554,1.0000599296161017,0.00014204312823470802
-0.4820399614744197,-0.4820399614744197,0.9998230799655815,0.00014454669299888772
-0.4819413302238861,-0.4819413302238861,1.0000751981287175,0.00014586999200178705
-0.48184727020782353,-0.48184727020782353,0.9999188268671417,0.00014199995975968245
-0.48175739245386173,-0.48175739245386173,0.999833836079359,0.00014447818248244327
-0.48165402385090383,-0.48165402385090383,1.0000459846963405,0.00014584464720610648
-0.48155765882843227,-0.48155765882843227,1.0000667516148725,0.00014171274970880196
-0.4814645885070085,-0.4814645885070085,1.0001515564676289,0.00014197372371189677
-0.48137233977156874,-0.48137233977156874,1.0001505353845004,0.00014438546642739277
-0.4812748974448663,-0.4812748974448663,0.9999956685014103,0.0001458392482835597
-0.48118083580695803,-0.48118083580695803,1.000066110220241,0.00014188121858321065
-0.4810909555529658,-0.4810909555529658,0.9998423253403519,0.00014432313851671667
-0.4809935150610549,-0.4809935150610549,0.9998957532918009,0.00014574886779418
-0.48087170984915206,-0.48087170984915206,1.0000789471197438,0.00014448211445979703
-0.48076248483194384,-0.48076248483194384,0.9999504323370598,0.0001457388084238961
-0.4806714443692034,-0.4806714443692034,1.0000760457819955,0.00014161410027486236
-0.48057956371381005,-0.48057956371381005,1.0000930523918834,0.00014184864118298263
-0.4804896812331577,-0.4804896812331577,0.9999524023807688,0.00014416528649893327
-0.4803922444114697,-0.4803922444114697,0.9997613046526481,0.00014570302365376797
-0.4803012010229935,-0.4803012010229935,1.0001569041387577,0.00014159797741361397
-0.4802093223971074,-0.4802093223971074,0.9998845118406493,0.00014183152217652953
-0.4801194385227173,-0.4801194385227173,0.9999195289545989,0.00014412813073412786
-0.48002200399539136,-0.48002200399539136,1.000171178392295,0.00014570892555442442
-0.4799309576819109,-0.4799309576819109,1.000071254407837,0.00014158600430995172
-0.4798390810861381,-0.4798390810861381,0.9998979650746781,0.0001417918996153308
-0.47974919581624886,-0.47974919581624886,0.9998348987912692,0.00014408602741267521
-0.4796517635839031,-0.4796517635839031,1.0001447826069156,0.0001456816439874879
-0.47956071434618186,-0.47956071434618186,1.0000952265200769,0.00014159711840331068
-0.47946883978087984,-0.47946883978087984,0.9998957966770267,0.0001417890771653277
-0.4793789531137609,-0.4793789531137609,1.0000156215588216,0.00014407327791936505
-0.4792815231767502,-0.4792815231767502,0.9999268967769886,0.00014569955983247308
-0.4791904710156139,-0.4791904710156139,1.0001474622540205,0.0001415785657738195
-0.47909859848114744,-0.47909859848114744,0.9998336118711739,0.00014179557760898105
-0.4790087104154971,-0.4790087104154971,1.0000016492565413,0.00014407833200000237
-0.47891128277409933,-0.47891128277409933,1.0001407970353722,0.00014567849289523648
-0.4788202276904091,-0.4788202276904091,0.9997716929801994,0.00014157295864272647
-0.478720063682087,-0.478720063682087,1.0000606414595234,0.00014179179435740705
-0.47860916652297475,-0.47860916652297475,0.9999879350092179,0.00014567010982397688
-0.4785181091017975,-0.4785181091017975,1.000051912573854,0.00014158620681480318
-0.47842209347143977,-0.47842209347143977,1.0000735168795511,0.00014177768640249628
-0.47831593617301105,-0.47831593617301105,1.0000891701622656,0.0001456770213296681
-0.4782189524827391,-0.4782189524827391,0.9998651182752777,0.00014154175404228317
-0.4781270852304214,-0.4781270852304214,1.0001773830909382,0.00014175414181450096
-0.4780286297580716,-0.4780286297580716,0.9999708536144064,0.00014569125314474067
-0.47793944971382024,-0.47793944971382024,0.9998471913480426,0.00014400321259556506
-0.47784870917121475,-0.47784870917121475,1.0000975848798865,0.00014157566444933872
-0.477752697327368,-0.477752697327368,1.000121735473569,0.00014173605854781362
-0.47763867901194884,-0.47763867901194884,0.9998037047722598,0.00013974894931015352
-0.47754062284303983,-0.47754062284303983,1.0001062066629618,0.00014174276804125127
-0.477451054419512,-0.477451054419512,1.00007046652788,0.00014565920007691334
-0.47735110203091435,-0.47735110203091435,1.0000475406985285,0.00014155531712282027
-0.4772611646229151,-0.4772611646229151,0.9998606052611837,0.00014388681369049085
