time,time,flux,flux_err
-0.49957898727443534,-0.49957898727443534,0.9997642247722924,0.0005498540437276036
-0.49870816639158877,-0.49870816639158877,0.9997691631613002,0.0005669488032585774
-0.49751589359220816,-0.49751589359220816,1.000238896029439,0.000549816041744336
-0.49617640650831163,-0.49617640650831163,1.000138413215526,0.0005831339621504897
-0.495106198254507,-0.495106198254507,1.0001378804475478,0.0005833717743856082
-0.49424216016050193,-0.49424216016050193,0.9995637647887164,0.0005995774821010309
-0.4937701460745302,-0.4937701460745302,0.9995738127285497,0.0005999440912134959
-0.49344668761768845,-0.49344668761768845,1.0000505193388993,0.000584192697137016
-0.4930128851920017,-0.4930128851920017,0.9996924730566494,0.0005838442625740571
-0.4925433424607036,-0.4925433424607036,1.0006965544535606,0.0005499125079483488
-0.4919814861495979,-0.4919814861495979,1.000086065793703,0.0005672278397188746
-0.49086377024068495,-0.49086377024068495,1.0000406044402925,0.0005683696117637196
-0.48943976887239843,-0.48943976887239843,0.9993558637583367,0.0005837013712493298
-0.4884748049851623,-0.4884748049851623,1.000038175311946,0.0005832234481202729
-0.48776534428325247,-0.48776534428325247,1.001102129436489,0.0005704985077642419
-0.4871815672813682,-0.4871815672813682,0.9996820113849718,0.0005997615229882864
-0.48669502861303043,-0.48669502861303043,1.0012272619328182,0.0006004146002670641
-0.4862920525702066,-0.4862920525702066,1.0001885219514668,0.0006004920247632938
-0.4856248022551881,-0.4856248022551881,1.0006277960928547,0.0005320587407046087
-0.4848683472402627,-0.4848683472402627,1.0000585732097784,0.0005684731285592874
-0.48371566937858007,-0.48371566937858007,1.000118138751408,0.0005498961753498484
-0.48237337355967613,-0.48237337355967613,0.9998094454373829,0.0005991291807413065
-0.4812921244069003,-0.4812921244069003,0.9995241430086231,0.0005664257574445756
-0.4804553161622607,-0.4804553161622607,0.9992092637995862,0.0005997323193227556
-0.4799885427186382,-0.4799885427186382,1.0000073210624945,0.0006000368912703693
-0.47967394731676904,-0.47967394731676904,0.9995874068294912,0.0006002915636963118
-0.47922941963915944,-0.47922941963915944,1.0003661060406657,0.0005836917173225281
-0.4787330649240175,-0.4787330649240175,1.0001663982340228,0.0005498940747251894
-0.4780169422738254,-0.4780169422738254,0.9998008310098966,0.0005837580826828918
-0.476444583486591,-0.476444583486591,1.0004142382011576,0.000566698937353527
-0.47520424419490154,-0.47520424419490154,0.9993693066363882,0.0005494568538887614
-0.4743973849996109,-0.4743973849996109,0.9996426082500284,0.0005833609818178201
-0.47364114178781164,-0.47364114178781164,0.9998720857832334,0.0006202295504386733
-0.47318586873443563,-0.47318586873443563,1.000006606650567,0.0005838583133236715
-0.4728035937136156,-0.4728035937136156,1.0004256751527152,0.0006001383635611133
-0.472463315128698,-0.472463315128698,0.9997863337511038,0.0005846618784829175
-0.47189283203333615,-0.47189283203333615,0.9997409011583602,0.0005499800096801482
-0.47106787705415626,-0.47106787705415626,1.0000301070169433,0.0005700747389604628
-0.4699156203685561,-0.4699156203685561,0.9998072935130524,0.0005501701346075979
-0.46862171563116134,-0.46862171563116134,1.0011327466262767,0.0007333767628008658
-0.46760206194448983,-0.46760206194448983,0.9993655180332587,0.0005831397517496796
-0.46679527925298314,-0.46679527925298314,0.9999325392661664,0.0005834564554992255
-0.46629261291964214,-0.46629261291964214,0.9995735313597593,0.0005998893715514457
-0.4659096005387255,-0.4659096005387255,0.9992746645103106,0.0006002865941796062
-0.465472056948056,-0.465472056948056,0.9995592853199803,0.0005837160289696804
-0.4650357747115777,-0.4650357747115777,0.9994934590293045,0.0005499802539368638
-0.464445081690792,-0.464445081690792,0.9999039108268827,0.0005668136805660269
-0.4629565284354612,-0.4629565284354612,1.0001583784074124,0.000567132229585813
-0.461554254074872,-0.461554254074872,0.9992157308414396,0.0005496915102554371
-0.460723549631075,-0.460723549631075,1.000156331222191,0.0005832172677853498
-0.45999304820870746,-0.45999304820870746,1.000114385085329,0.0006071896068747462
-0.45935532038565724,-0.45935532038565724,0.9996403309126922,0.0006001934083336897
-0.45893248237407536,-0.45893248237407536,0.9996519023167248,0.0006000056988240286
-0.45844466975540854,-0.45844466975540854,0.9996735801347008,0.000567132878699167
-0.45779637657688,-0.45779637657688,1.0002179226130055,0.000571925961871022
-0.456866403510503,-0.456866403510503,1.0003922080747647,0.0005669996669849116
-0.455836295116751,-0.455836295116751,0.9999041415318028,0.0005499323980802171
-0.4546740380828851,-0.4546740380828851,1.0011344789356722,0.0006924620723792712
-0.4537949103847495,-0.4537949103847495,1.0001544262975472,0.0005832356784608901
-0.4530010110058356,-0.4530010110058356,0.9998080335169858,0.0005837551008454644
-0.4526073611152242,-0.4526073611152242,0.9995556890191839,0.0005838610358833176
-0.4521918077734881,-0.4521918077734881,0.9992268627222087,0.000600308164469225
-0.4517793656879803,-0.4517793656879803,1.0002607839372286,0.0005998618714411841
-0.4512295684588025,-0.4512295684588025,0.9995339658472485,0.0005498842569596764
-0.4504291871839087,-0.4504291871839087,1.0007533537639737,0.0005670638561193546
-0.4488765896370751,-0.4488765896370751,0.9998799280343318,0.0005667223652897398
-0.4475629812353873,-0.4475629812353873,0.9996212794584303,0.0005492229542552712
-0.44664233859366503,-0.44664233859366503,1.0000724725976273,0.000594024824570474
-0.4460019083606312,-0.4460019083606312,0.9996162709279798,0.0006015508257401286
-0.44545086701837133,-0.44545086701837133,0.9996509635048294,0.0005839550213655195
-0.44510371901560575,-0.44510371901560575,1.0001468434638352,0.0006159829159951195
-0.4446106413146481,-0.4446106413146481,1.0002724072802005,0.0005669974000805324
-0.4440015135143767,-0.4440015135143767,1.0002140417508667,0.0005579880964525286
-0.44317466690117724,-0.44317466690117724,1.000349878471728,0.0006154115962188264
-0.4422291291892179,-0.4422291291892179,1.0009648647204614,0.0005326059807271549
-0.44109391568199496,-0.44109391568199496,1.0002302534872385,0.0005832647452036377
-0.44007727828138743,-0.44007727828138743,1.0004713494244988,0.0006794553156895106
-0.4393737182734185,-0.4393737182734185,0.99974774503557,0.0005669484019900502
-0.4388372237313888,-0.4388372237313888,0.9999292093686476,0.000599948837000233
-0.4384146335127298,-0.4384146335127298,0.999791280918956,0.0006001153393509345
-0.438000533428567,-0.438000533428567,1.000328559135958,0.0006000779768599525
-0.4374235539988149,-0.4374235539988149,1.0002020526316688,0.0005496584095042006
-0.43662787468201714,-0.43662787468201714,1.0001354282562311,0.0005669825053687472
-0.43506769011291907,-0.43506769011291907,1.0003871957691903,0.0005669243716285046
-0.43373977094743166,-0.43373977094743166,1.0002496981161269,0.0005495736305420964
-0.43293535848351894,-0.43293535848351894,1.000243667958222,0.0005834846111773042
-0.4320953465110506,-0.4320953465110506,1.000016608437345,0.0006009896429245295
-0.4315625424933387,-0.4315625424933387,1.0001007241479225,0.0005839661764269106
-0.43124360166839326,-0.43124360166839326,0.9990867583755753,0.0006159811803105874
-0.43074869680422123,-0.43074869680422123,1.0005962964416373,0.0005671759584183823
-0.4303265804090188,-0.4303265804090188,0.9998621617888148,0.0005496322258314917
-0.4295073501270963,-0.4295073501270963,0.9990417071166995,0.0006023692823457564
-0.42847816702415004,-0.42847816702415004,1.0003407544654415,0.000549766616687678
-0.42727976869500706,-0.42727976869500706,1.0006561417136897,0.000583270152108833
-0.4262782503472408,-0.4262782503472408,1.0002986927807338,0.0006601436811904795
-0.42563620914297645,-0.42563620914297645,0.9999943735187264,0.0005906497447900009
-0.42512844277953266,-0.42512844277953266,0.9996893098354402,0.0005995430277698778
-0.42473471888079073,-0.42473471888079073,0.9998262192797434,0.0006000055799825515
-0.4243834554843488,-0.4243834554843488,0.9990535031493906,0.0005839138509948532
-0.4238760312786326,-0.4238760312786326,0.9994776866285824,0.0005671271503695491
-0.4231948763495893,-0.4231948763495893,0.9998936074966525,0.000549855806946235
-0.42227400925476105,-0.42227400925476105,1.000312612206481,0.0005670949776165827
-0.421215919739916,-0.421215919739916,1.000202598447168,0.0005668549654223671
-0.419806134555256,-0.419806134555256,1.0009798495970106,0.0005666253796856055
-0.41904428303969327,-0.41904428303969327,1.0004368078138626,0.0005667707514520839
-0.418313616195519,-0.418313616195519,1.0012670916709163,0.0006018381038384549
-0.41787435327860295,-0.41787435327860295,0.9998848377212951,0.0006001018738531426
-0.4174743870476959,-0.4174743870476959,1.0004085474797357,0.0006159905744419068
-0.4169561640926986,-0.4169561640926986,0.9992002567533615,0.0005670397383621451
-0.4165185054342146,-0.4165185054342146,1.00085050730705,0.0005496099220549421
-0.4155384730052901,-0.4155384730052901,1.0003055859353838,0.0005959438531523055
-0.41412281988741595,-0.41412281988741595,1.0000042121599875,0.0005836751851387585
-0.4127171446089051,-0.4127171446089051,1.0000607932018608,0.0006279563240626991
-0.41209586863260483,-0.41209586863260483,0.9993912425267194,0.0005704577640288225
-0.4115232452051714,-0.4115232452051714,0.9996979130079184,0.000600347293985211
-0.41109171127609445,-0.41109171127609445,1.0005860218954434,0.0006002591140837918
-0.41071626738703343,-0.41071626738703343,1.000691022969032,0.0006003133623067008
-0.41022767589893194,-0.41022767589893194,0.9996184488510449,0.000583806296911721
-0.40948758908052696,-0.40948758908052696,0.9996675616667116,0.0005498398695607685
-0.4084774434348219,-0.4084774434348219,1.0000202353750052,0.0005672258538569434
-0.40741205783269835,-0.40741205783269835,0.9995327603671752,0.000566960644541829
-0.4059896624807152,-0.4059896624807152,1.0003832944291202,0.0005666552993861194
-0.4051453448963002,-0.4051453448963002,1.000763252680922,0.0005833426722466759
-0.4043805183726363,-0.4043805183726363,1.0003627160678663,0.0006001450082121424
-0.403919480156037,-0.403919480156037,0.9999876491980236,0.0005999908981063005
-0.40354259146697585,-0.40354259146697585,0.9999035484062502,0.0005997678167702742
-0.40308216002158587,-0.40308216002158587,0.9994699124118108,0.0005671432000709457
-0.40255169290467163,-0.40255169290467163,1.0013807505750658,0.0005501943021937409
-0.40148729372158415,-0.40148729372158415,0.999581195163713,0.0005904339561361042
-0.39999295400775736,-0.39999295400775736,0.9997951884080326,0.000583430308051108
-0.3986883576697437,-0.3986883576697437,0.9997291187824822,0.0005834171617842166
-0.3979814574995544,-0.3979814574995544,1.000672515158972,0.0005850462896284036
-0.3974514279223513,-0.3974514279223513,1.000249492566216,0.0005836176077236546
-0.39710187934542773,-0.39710187934542773,0.9998307892294124,0.0006158779861092717
-0.3966510636440944,-0.3966510636440944,1.0000090216872422,0.0006001107743297071
-0.39600321866601007,-0.39600321866601007,0.999764964887764,0.0005324313743689012
-0.3950309895866667,-0.3950309895866667,1.000318886312289,0.0005835456182529573
-0.39399565342610005,-0.39399565342610005,1.0000705453866032,0.000532244390098783
-0.39273993398819584,-0.39273993398819584,1.0001058382721146,0.0005830842329704201
-0.3916634717170382,-0.3916634717170382,1.0002708239438602,0.0005832266956121548
-0.3907946555962553,-0.3907946555962553,0.9999183830783991,0.0005839346838157835
-0.3903113844819018,-0.3903113844819018,1.001229034651191,0.0006156769477850183
-0.38995609427511224,-0.38995609427511224,0.9999703849857227,0.0006002729258338934
-0.38945611548406306,-0.38945611548406306,1.0008812069346122,0.0005838792461554738
-0.3890042116414406,-0.3890042116414406,1.0004146401835357,0.0005499984695738426
-0.388161781373492,-0.388161781373492,0.9993528305712204,0.0005869427901955962
-0.3868123215273954,-0.3868123215273954,0.9999155436096091,0.0005668609046823156
-0.3855959660097142,-0.3855959660097142,0.9996338808866009,0.0005494761774962706
-0.3847621367764077,-0.3847621367764077,0.9999776168866745,0.0005833991789767601
-0.38403327948763033,-0.38403327948763033,1.0001315428605113,0.0006019759435724886
-0.3835597816912923,-0.3835597816912923,1.000684025209217,0.0005838526332034314
-0.3831612963389489,-0.3831612963389489,0.9996718918597907,0.0006161581102456732
-0.3826443393074442,-0.3826443393074442,0.9996698784536345,0.0005674012244846198
-0.38188391461735594,-0.38188391461735594,0.999839287333199,0.0005331023208259664
-0.3809811975675984,-0.3809811975675984,0.9991718402943988,0.0005836140279530733
-0.3798049993492896,-0.3798049993492896,1.0002778628342068,0.0005668207350019797
-0.3783573448949028,-0.3783573448949028,0.9998803236462919,0.0005667544759288259
-0.3775358396524098,-0.3775358396524098,0.999539322331301,0.0005831710020823964
-0.37681537133030363,-0.37681537133030363,1.0002286027525265,0.000599983265795292
-0.37635762419231467,-0.37635762419231467,1.0005365626619471,0.0006162317816529851
-0.3760830043873284,-0.3760830043873284,0.9991974459074315,0.000583710801101287
-0.37557967167522294,-0.37557967167522294,1.0002226079208503,0.0005670635737014906
-0.3750953968934482,-0.3750953968934482,1.000495119731393,0.0005495673970165132
-0.37398333303572145,-0.37398333303572145,0.9994534672600087,0.0005670439801013373
-0.37244663490710084,-0.37244663490710084,0.9993133513060755,0.0005832331084983354
-0.3713798022348783,-0.3713798022348783,0.9999994216772604,0.0005668225507409444
-0.37065867350465853,-0.37065867350465853,0.9995954336412817,0.0005871088813267968
-0.36994408948812635,-0.36994408948812635,1.000227142926851,0.0005998479421286897
-0.3694573741275235,-0.3694573741275235,0.999527685398208,0.0006001000258664123
-0.36905723222589587,-0.36905723222589587,1.0001135992757586,0.0006001281088221221
-0.36833631165645786,-0.36833631165645786,1.0002828048241015,0.0005319882012149819
-0.36744991154118906,-0.36744991154118906,0.9991950094191508,0.000586140500142674
-0.3662062812989461,-0.3662062812989461,1.0006547775875327,0.0005500965321233426
-0.36507762107794406,-0.36507762107794406,1.0013216397237454,0.0007445955079478821
-0.36416167885763573,-0.36416167885763573,1.0000790840165967,0.0005831000864944602
-0.36334771431284024,-0.36334771431284024,1.0003557343681873,0.0005838351623659811
-0.3628390274650883,-0.3628390274650883,1.0002685558595181,0.0005997897970655276
-0.3624544479607721,-0.3624544479607721,1.0002062700461594,0.0006004790775114066
-0.36201847837510287,-0.36201847837510287,1.0003794669765553,0.0005835454139302861
-0.36159671531058846,-0.36159671531058846,0.9999141663581559,0.0005498512233492807
-0.3609987666772213,-0.3609987666772213,1.0006050383795733,0.0005673671204271594
-0.3595124786486849,-0.3595124786486849,0.9997894234987352,0.0005671030888208012
-0.3583053866168484,-0.3583053866168484,0.9998174292357028,0.0005666676645976398
-0.3574198198417434,-0.3574198198417434,0.9996412259540399,0.0005832607876538087
-0.3566916764830239,-0.3566916764830239,1.000835332075043,0.0005895187318554879
-0.3561597358944709,-0.3561597358944709,1.0002529259281363,0.0006020053609379709
-0.35569361312809633,-0.35569361312809633,0.9997708864618575,0.0005841249697146651
-0.3553694144706242,-0.3553694144706242,0.9994534141219871,0.0006002375353760793
-0.35487478941795414,-0.35487478941795414,1.0001271649634595,0.0005671298577418526
-0.3542199242088827,-0.3542199242088827,0.999463795620866,0.0005534868947006708
-0.3531134317279793,-0.3531134317279793,0.9999035765130856,0.0005670520710495806
-0.35200986759446096,-0.35200986759446096,0.9999691957740284,0.0005837059628059156
-0.3507123153671273,-0.3507123153671273,1.0005570738622405,0.0007088515555636792
-0.3500754573673476,-0.3500754573673476,0.9998830872921852,0.0005666074279027005
-0.3493356793318526,-0.3493356793318526,0.9998962735851393,0.0005999770553512614
-0.34889386890426977,-0.34889386890426977,0.9999708394675542,0.0006004945689917902
-0.34853447579662317,-0.34853447579662317,1.0009689140281737,0.0006002653965276922
-0.3480701793625485,-0.3480701793625485,0.9996573103511122,0.0005671854484418343
-0.3475395934568951,-0.3475395934568951,0.9999261470895787,0.0005319536275832216
-0.3464306254551047,-0.3464306254551047,0.9993139656167346,0.0005668999067288886
-0.3451746768958401,-0.3451746768958401,0.9997183176258739,0.000583418010069253
-0.3440680503452313,-0.3440680503452313,0.9999659689706835,0.0005319293825153726
-0.3434245818774798,-0.3434245818774798,0.9998426513266054,0.0005993809052100357
-0.34275572756741896,-0.34275572756741896,0.9994892425944981,0.0006086067189380704
-0.34211958196538034,-0.34211958196538034,1.0001163133168558,0.0006004905259257649
-0.3416986650569015,-0.3416986650569015,0.999585433728949,0.0006000843399657488
-0.3412853363901377,-0.3412853363901377,1.0002859126383918,0.0005671263660573992
-0.34069348512421127,-0.34069348512421127,1.0000650653182492,0.0005672203261582966
-0.3398519794573076,-0.3398519794573076,0.9996898399724868,0.0005729905270633449
-0.33879049079987456,-0.33879049079987456,0.9999458416857108,0.0005322377538869817
-0.337657436952577,-0.337657436952577,1.000040034650095,0.0005831835428726409
-0.3366323160196771,-0.3366323160196771,1.0002839448227336,0.0006933722503381925
-0.3360024005160085,-0.3360024005160085,0.9998592907639331,0.0005895642606321315
-0.33546868672710844,-0.33546868672710844,1.0000503722671208,0.0005839158627886222
-0.33505446334311273,-0.33505446334311273,1.0001466217579322,0.0006161103363458632
-0.3346291051260778,-0.3346291051260778,1.000521104851379,0.0006003876551257429
-0.33411852238787104,-0.33411852238787104,1.0003992656577054,0.0005496372969074714
-0.33338445031258745,-0.33338445031258745,1.000123059189706,0.0005498433736644422
-0.3319415143254446,-0.3319415143254446,1.0000358029415175,0.0005668386787443223
-0.33056297372531845,-0.33056297372531845,0.999465630439388,0.0005666154077545524
-0.3296313628175994,-0.3296313628175994,1.0001057835316818,0.0005834254875579926
-0.32886948898958507,-0.32886948898958507,1.0004004827678934,0.0005846178893017634
-0.32833930363995023,-0.32833930363995023,0.9999883573936795,0.0005999583107139684
-0.327922711064457,-0.327922711064457,1.000151031277047,0.0005999752029566205
-0.3274877592615667,-0.3274877592615667,0.9997321557217387,0.0005670020777865498
-0.32708152184204664,-0.32708152184204664,1.0000179194184013,0.0005669677793275204
-0.326431636082998,-0.326431636082998,1.0001601581156219,0.000577308647794471
-0.3253806705586612,-0.3253806705586612,0.9998824447024388,0.0005783795776748695
-0.324409590238065,-0.324409590238065,0.9995945597908114,0.0005834453791548051
-0.32308990399178583,-0.32308990399178583,1.0003699127633094,0.0006556928371706691
-0.32247146661975423,-0.32247146661975423,1.000546266359057,0.0005762973355388557
-0.3218573090576683,-0.3218573090576683,1.000200920983127,0.0005996122523394127
-0.32141090354271,-0.32141090354271,0.9998762021537404,0.0006001491608620955
-0.32106793412094703,-0.32106793412094703,1.000522428837052,0.0005838870718957932
-0.3206641427328577,-0.3206641427328577,0.9993284387101656,0.0005999287160650288
-0.32004892869881585,-0.32004892869881585,1.0002717576661468,0.0005321243361726776
-0.31913616833480773,-0.31913616833480773,0.9993552745819578,0.0005837207162476463
-0.3180069458525395,-0.3180069458525395,1.000174874023683,0.0005497168996262616
-0.3167450425491552,-0.3167450425491552,0.9996455222865034,0.0005667922579540382
-0.3158276589500019,-0.3158276589500019,1.000247625854809,0.0005833116431694428
-0.3149779802071862,-0.3149779802071862,1.0000460753457938,0.00058500550909499
-0.31442967675684486,-0.31442967675684486,0.999673857162367,0.0005999691686394282
-0.31401281383732565,-0.31401281383732565,1.0003362514671923,0.0006162535185710446
-0.31350754787854385,-0.31350754787854385,0.999608395960449,0.0005671739746775349
-0.3130785239627585,-0.3130785239627585,0.9993539024303046,0.0005499522236990383
