time,time,flux,flux_err
-0.4995139120692329,-0.4995139120692329,1.0000528040670396,9.005791336709936e-05
-0.49867752708887564,-0.49867752708887564,0.999970886814887,8.954222628610107e-05
-0.49827291818946834,-0.49827291818946834,1.0000719261048894,9.013483611607758e-05
-0.49731611846655144,-0.49731611846655144,0.9999639025112417,8.990934139659704e-05
-0.49665559475542975,-0.49665559475542975,0.9998097702079569,9.014237469911067e-05
-0.4960656770199421,-0.4960656770199421,0.9998878973567585,9.028239440377478e-05
-0.4950784814514918,-0.4950784814514918,1.0000374298899841,9.00924695046052e-05
-0.49448328655780643,-0.49448328655780643,0.9999936719364839,8.956060962879944e-05
-0.49384188825279124,-0.49384188825279124,1.0000114007412482,9.058000992516357e-05
-0.49284009557086395,-0.49284009557086395,0.9998911932775142,9.061251207083228e-05
-0.4924089965359599,-0.4924089965359599,0.9998997566870269,8.956281162363253e-05
-0.49140392036642877,-0.49140392036642877,0.9999971932531686,8.995190506496642e-05
-0.4906489314176724,-0.4906489314176724,1.000075865007513,8.951224325107955e-05
-0.48994583636231254,-0.48994583636231254,0.9999600715053433,8.952673813820446e-05
-0.4889597053705074,-0.4889597053705074,0.9999365396226629,9.007675827157145e-05
-0.4884230438859959,-0.4884230438859959,0.9999376489836266,8.955074731131227e-05
-0.48774024597732935,-0.48774024597732935,1.0001026776719042,9.00897373286872e-05
-0.48672960402982424,-0.48672960402982424,0.9999850405357453,9.458969189376483e-05
-0.4862854856386548,-0.4862854856386548,0.9999805601195881,8.957394124793122e-05
-0.48531207094274575,-0.48531207094274575,0.9998749674191204,9.002809042043545e-05
-0.4846410430065589,-0.4846410430065589,1.000054559726086,8.904746777597724e-05
-0.48397815170683317,-0.48397815170683317,0.9999970989374181,9.000851697186225e-05
-0.4829008436463482,-0.4829008436463482,1.000033080487735,9.065469339206675e-05
-0.4823426443435892,-0.4823426443435892,0.9999813671795936,8.900975989324495e-05
-0.4820171271225263,-0.4820171271225263,1.0000902353367616,9.068729703695492e-05
-0.4812410949532932,-0.4812410949532932,1.000103347578321,9.009289774173489e-05
-0.4804224035593506,-0.4804224035593506,0.9999214919924796,9.004100067210277e-05
-0.4798058254447824,-0.4798058254447824,1.000018133253055,9.010684051056818e-05
-0.47868058127351104,-0.47868058127351104,0.9999081948754285,8.951021678196204e-05
-0.4780747630036785,-0.4780747630036785,1.0000445031273337,9.005316782622677e-05
-0.4770386334952491,-0.4770386334952491,0.9999634020142754,9.00232484456618e-05
-0.4762689096824033,-0.4762689096824033,1.0000451624438322,8.955778952257074e-05
-0.4759521206171485,-0.4759521206171485,1.0000342969455462,9.065605902545729e-05
-0.4748218417436874,-0.4748218417436874,1.00007144238876,9.001459038774154e-05
-0.4740271816132008,-0.4740271816132008,1.0000719572707233,9.107462957308085e-05
-0.4729280971805565,-0.4729280971805565,1.000072231322171,9.060788155596239e-05
-0.47217457376464156,-0.47217457376464156,0.9999334372665837,8.896677532693718e-05
-0.4717029146137065,-0.4717029146137065,1.0000330983452232,8.969917857194825e-05
-0.4708052446279908,-0.4708052446279908,1.000018617543708,9.063127397970049e-05
-0.4700861300399993,-0.4700861300399993,0.9999529044540166,8.952738844147843e-05
-0.46944908689984005,-0.46944908689984005,0.9999163388070589,9.10752430711304e-05
-0.4685079710783612,-0.4685079710783612,1.0001736360486553,8.945728986299058e-05
-0.4679159045481356,-0.4679159045481356,1.0001005482894758,9.022774719828105e-05
-0.4670011027206783,-0.4670011027206783,0.9997534810082179,9.006686007924682e-05
-0.4661315429264505,-0.4661315429264505,1.000061513658556,8.958363497452764e-05
-0.4655005064749275,-0.4655005064749275,0.9999242058978378,9.062904418811667e-05
-0.4644519669629517,-0.4644519669629517,0.999876769001907,9.003469695700635e-05
-0.46389231798311814,-0.46389231798311814,1.0000531184877313,8.956181137376131e-05
-0.4628969838966441,-0.4628969838966441,1.0000129892924932,8.999370121384372e-05
-0.46227566301240586,-0.46227566301240586,1.0001073739189619,8.901717475779593e-05
-0.46157691959961084,-0.46157691959961084,1.0000132982432723,8.998927750591776e-05
-0.46086989482646457,-0.46086989482646457,1.0000513832955265,9.00642179888047e-05
-0.46003476900004897,-0.46003476900004897,0.9999916804002094,8.846802779691503e-05
-0.45959919903980334,-0.45959919903980334,0.99992554610063,9.066771103643316e-05
-0.4585688052342448,-0.4585688052342448,0.9999104910605462,9.338630926890124e-05
-0.4578878901491407,-0.4578878901491407,0.9998604130125843,8.958149107117458e-05
-0.4572863764995418,-0.4572863764995418,0.9999768194709354,9.005488616648256e-05
-0.45629321220840213,-0.45629321220840213,1.0000339235292217,8.959965386430658e-05
-0.45552040043839953,-0.45552040043839953,0.9999107426721505,8.947282790128412e-05
-0.4543313527159626,-0.4543313527159626,0.9999663673095757,9.009195842810298e-05
-0.4538003059278708,-0.4538003059278708,1.0002484981054234,8.955620107008271e-05
-0.45312633481953524,-0.45312633481953524,0.9998769930237238,9.066624562031033e-05
-0.4520515136187896,-0.4520515136187896,0.9999612976498915,9.006267189919244e-05
-0.4515189572077361,-0.4515189572077361,0.9998902021386424,8.955427663989388e-05
-0.4503475512770819,-0.4503475512770819,1.0000672040288576,9.06799578654307e-05
-0.4497993573757412,-0.4497993573757412,0.9999910054766913,8.899303342644643e-05
-0.44901390552768133,-0.44901390552768133,0.999987035213706,9.05310805105267e-05
-0.4478424874621851,-0.4478424874621851,1.0001002349452048,8.955322761258246e-05
-0.44744503380934475,-0.44744503380934475,1.0001053499117143,9.067359349333072e-05
-0.44630837470467666,-0.44630837470467666,1.0000985336526422,9.000118689418792e-05
-0.44551150770203096,-0.44551150770203096,1.000111339254147,9.073930387885026e-05
-0.4444192402093904,-0.4444192402093904,0.9999633862304265,9.061783087819763e-05
-0.443652507346269,-0.443652507346269,1.0000908879483592,8.898542818854063e-05
-0.4430467875645263,-0.4430467875645263,0.9999543237422455,9.038841658219962e-05
-0.442103846315149,-0.442103846315149,1.000029045140389,9.061570498721953e-05
-0.44153403195741703,-0.44153403195741703,1.0000420283192597,8.956418945066643e-05
-0.4406910066783894,-0.4406910066783894,1.0001069006919274,9.052703780256708e-05
-0.4399264000123367,-0.4399264000123367,0.999994528050095,9.011198464432637e-05
-0.4392835390666733,-0.4392835390666733,1.000035274575639,9.012295984478246e-05
-0.4382525727058237,-0.4382525727058237,0.999981757157774,9.006223355864117e-05
-0.437510191777983,-0.437510191777983,1.000002408023406,8.905537719828634e-05
-0.43682312160308356,-0.43682312160308356,0.9997597878604736,9.059025186689928e-05
-0.43573571991510107,-0.43573571991510107,0.9999342067254624,9.007019556094919e-05
-0.4352520602602453,-0.4352520602602453,0.9998748838549364,8.959435128013594e-05
-0.4343689080036711,-0.4343689080036711,1.000179404872167,8.998427235444418e-05
-0.4337501512694871,-0.4337501512694871,1.000050642142519,8.900993958278883e-05
-0.4330630716693122,-0.4330630716693122,1.0000271002848478,9.008269976955019e-05
-0.4323589463805547,-0.4323589463805547,1.000061671292943,8.99967405478022e-05
-0.4315095932535769,-0.4315095932535769,1.000081188306499,8.84753324538762e-05
-0.4310957134315686,-0.4310957134315686,0.9999587198919173,9.066847066962724e-05
-0.4301841935994162,-0.4301841935994162,1.0000363564589876,9.258388756138747e-05
-0.42947537971413113,-0.42947537971413113,0.9999195167417886,9.007096875247912e-05
-0.42888313836083397,-0.42888313836083397,0.9999203219486807,9.005371879273867e-05
-0.4278179058121168,-0.4278179058121168,0.999916232997181,8.965862865057104e-05
-0.4272952938605158,-0.4272952938605158,1.000101927943199,8.900026037517413e-05
-0.42635547661120654,-0.42635547661120654,1.0000496589612184,9.056955395733457e-05
-0.4253637400797743,-0.4253637400797743,0.9999710318704359,8.900887729343428e-05
-0.42503115403524133,-0.42503115403524133,1.0000796029517993,9.065575388116267e-05
-0.423906106549839,-0.423906106549839,1.0000270556870696,8.999540844822351e-05
-0.42319708713766885,-0.42319708713766885,0.9999254599674741,8.960942397726633e-05
-0.42229082521953387,-0.42229082521953387,0.9999953456990853,9.0084277381605e-05
-0.4213709477648081,-0.4213709477648081,0.9999392797954083,8.902163917154081e-05
-0.42081704288575567,-0.42081704288575567,0.9999781304006309,9.002085994345406e-05
-0.4197359710924502,-0.4197359710924502,0.9999611024992057,9.064112915455099e-05
-0.4191409129569365,-0.4191409129569365,1.000016861471254,8.956862689553435e-05
-0.41843956239245017,-0.41843956239245017,0.9998957681962398,9.006333758144395e-05
-0.41743573230342007,-0.41743573230342007,1.000085652210524,9.007140715209619e-05
-0.4166968586912844,-0.4166968586912844,1.0001043774275196,9.043002504469296e-05
-0.4157444110627694,-0.4157444110627694,0.9998962320299414,9.008188056523876e-05
-0.4151305306768336,-0.4151305306768336,1.000209371752072,8.89931376343059e-05
-0.4146921626328549,-0.4146921626328549,1.0001226505144216,9.064081079361867e-05
-0.4137883737734228,-0.4137883737734228,0.9997304176234257,9.063658196144649e-05
-0.4130648895465129,-0.4130648895465129,0.9999077695984306,9.009926150595646e-05
-0.41243631253091734,-0.41243631253091734,1.0001213573561751,9.05252201155065e-05
-0.4115164509457827,-0.4115164509457827,0.9999604677640823,8.944351979147312e-05
-0.410891745997651,-0.410891745997651,0.9997199239517143,9.026608149166168e-05
-0.4099818564900488,-0.4099818564900488,0.9999734397118585,9.009215976659647e-05
-0.4091000711800007,-0.4091000711800007,0.9999835909846274,8.956707192373108e-05
-0.40848831344337666,-0.40848831344337666,0.9999865433140748,9.063021308739508e-05
-0.40748394266556714,-0.40748394266556714,0.9999845412534029,9.578609412203309e-05
-0.4069185674256005,-0.4069185674256005,0.9998959587774028,9.011034694302356e-05
-0.4061327961499046,-0.4061327961499046,1.0001703943947449,8.996905980229658e-05
-0.4053528905787971,-0.4053528905787971,0.9999825934354742,8.90321740926854e-05
-0.40477949388005074,-0.40477949388005074,1.0000960166852588,8.956118876411506e-05
-0.404183324015321,-0.404183324015321,0.9999154512689424,8.945219727190723e-05
-0.403290637669852,-0.403290637669852,0.9999604464143532,9.029025886261913e-05
-0.4028840264159953,-0.4028840264159953,1.0001112620463917,8.955795478782358e-05
-0.40223161973044624,-0.40223161973044624,1.000197694251859,9.063477809906803e-05
-0.4013694368724828,-0.4013694368724828,1.0001783851638906,9.18532152313004e-05
-0.4008652932898258,-0.4008652932898258,0.9999600930256086,9.012382858280667e-05
-0.40028120795614086,-0.40028120795614086,1.0001149726031078,9.009119157335697e-05
-0.39937065006160993,-0.39937065006160993,0.999917201077776,9.023525236152196e-05
-0.3987750578904524,-0.3987750578904524,1.0000263620968626,8.955518238342803e-05
-0.3980168496447732,-0.3980168496447732,1.0000248611685614,8.998112282321077e-05
-0.3970345987778273,-0.3970345987778273,0.9998718733045688,8.95775790012877e-05
-0.3967268241452985,-0.3967268241452985,1.0000207701464503,9.008765580170316e-05
-0.39586934148610453,-0.39586934148610453,0.999909136158837,9.006866111222565e-05
-0.39502772448613543,-0.39502772448613543,0.9999574011147399,9.005670696828612e-05
-0.3944078158165212,-0.3944078158165212,1.0000552994911192,9.143183823261402e-05
-0.3932563572343497,-0.3932563572343497,0.9998907866159525,9.00504645700769e-05
-0.3926524384121876,-0.3926524384121876,0.9999277978150601,8.95376859348218e-05
-0.3919763007499569,-0.3919763007499569,0.99992285141003,9.011168132686138e-05
-0.3908228799540666,-0.3908228799540666,0.9999999789475609,9.008960848974519e-05
-0.3904968338429171,-0.3904968338429171,1.0001720835189325,8.959092292854099e-05
-0.38950194521894443,-0.38950194521894443,1.0001146619593269,9.045400205083778e-05
-0.3888475612227921,-0.3888475612227921,0.9999596533642544,8.961591433938795e-05
-0.38826627543967335,-0.38826627543967335,0.9999798568525161,9.082834143807553e-05
-0.38733457471971633,-0.38733457471971633,0.999948350114801,9.007157426376667e-05
-0.38660864375924575,-0.38660864375924575,0.9999634279515389,8.897989830094763e-05
-0.3860654321957554,-0.3860654321957554,1.000034824344723,9.062041967739198e-05
-0.3850904698454542,-0.3850904698454542,0.9999568260531755,9.060150050478206e-05
-0.3845083773157967,-0.3845083773157967,1.0000861436742632,9.010773528010371e-05
-0.38371630867768547,-0.38371630867768547,1.0000989779395384,8.993520292311986e-05
-0.38289329386389,-0.38289329386389,1.0002946731474605,8.970734236056599e-05
-0.38226179281045913,-0.38226179281045913,1.0000453916148606,9.012089494560198e-05
-0.38144552300436774,-0.38144552300436774,0.999863412544641,9.000579698460882e-05
-0.38061840908849265,-0.38061840908849265,1.0000385815906403,8.84519949784736e-05
-0.3801587287300208,-0.3801587287300208,0.999930108901934,9.067438659476346e-05
-0.37914298997056906,-0.37914298997056906,1.0000430626386267,9.469269490780652e-05
-0.3784572237818793,-0.3784572237818793,1.0000805052916912,8.957584017030169e-05
-0.3778569361231348,-0.3778569361231348,1.0000937680962385,9.005722138190189e-05
-0.3769149942359945,-0.3769149942359945,1.000009244433818,8.954439646790065e-05
-0.37629823924435185,-0.37629823924435185,1.000143562006339,8.957139527820082e-05
-0.3754303981215344,-0.3754303981215344,0.9999693791550923,9.054641268115933e-05
-0.37452319461372097,-0.37452319461372097,1.0000505341957546,8.903756172969445e-05
-0.3742976536574133,-0.3742976536574133,1.0000788729039796,9.018731015022112e-05
-0.37353577864341786,-0.37353577864341786,1.0000127685322182,9.061430738066157e-05
-0.3726204196304025,-0.3726204196304025,0.9999722686228072,9.00790562381974e-05
-0.3720911241027352,-0.3720911241027352,1.0000426050338083,8.955513730172192e-05
-0.3708623268350493,-0.3708623268350493,0.9999398281290237,9.004446872617065e-05
-0.37025860342473604,-0.37025860342473604,1.0000137806410838,8.955046135459168e-05
-0.3694064420793438,-0.3694064420793438,0.9999400468778639,9.05366729562964e-05
-0.3685216514102649,-0.3685216514102649,0.9999029535069932,8.956867237864492e-05
-0.36819117183549677,-0.36819117183549677,0.9999447777600056,9.013306273125956e-05
-0.3670521122541686,-0.3670521122541686,1.0002772867770005,9.00357687809739e-05
-0.36623201209586115,-0.36623201209586115,0.9999235225356579,9.011003950030087e-05
-0.3654927323143056,-0.3654927323143056,0.9999202580681645,9.149853947550726e-05
-0.3644439262934611,-0.3644439262934611,1.0001407754340845,8.90244077616372e-05
-0.36395792705006896,-0.36395792705006896,0.9999682910337404,9.006953119486795e-05
-0.36330554368614687,-0.36330554368614687,0.9999733655131504,8.969324986674596e-05
-0.36228851591586136,-0.36228851591586136,0.9999524768366459,9.05962651103051e-05
-0.3619059223929071,-0.3619059223929071,1.0000507276604258,9.016362798761076e-05
-0.36085933564027073,-0.36085933564027073,1.0001179647302227,8.988347091898143e-05
-0.3601990458810178,-0.3601990458810178,1.0000483599325014,9.016866786126139e-05
-0.3594817077420885,-0.3594817077420885,0.9999799472729727,9.009232926577696e-05
-0.35846179167274383,-0.35846179167274383,1.000127846218421,8.957296095511992e-05
-0.35792871533340076,-0.35792871533340076,0.999965300396276,9.011505032280883e-05
-0.3568895336597052,-0.3568895336597052,1.000016323064379,9.00392177531357e-05
-0.3560504171502544,-0.3560504171502544,1.000098942272056,9.007936039675374e-05
-0.3554552249894186,-0.3554552249894186,1.0001074178017657,9.00500365748869e-05
-0.3545409528815071,-0.3545409528815071,1.0000385798598617,8.900450239972325e-05
-0.3538974111645075,-0.3538974111645075,1.0000307057064566,9.006451086068684e-05
-0.3532699283518014,-0.3532699283518014,0.999955002909136,8.946052256261806e-05
-0.3523328545925324,-0.3523328545925324,1.0001064893256166,8.954044364079649e-05
-0.35191027539403874,-0.35191027539403874,0.9997928988790384,8.955712505629646e-05
-0.35106198446810594,-0.35106198446810594,0.9999913110397675,9.008457403562868e-05
-0.3501217027544044,-0.3501217027544044,1.000099281192839,9.352224660213799e-05
-0.34969810808543117,-0.34969810808543117,1.0002065091932695,8.96174464061505e-05
-0.3486585881786596,-0.3486585881786596,1.0001097760118374,9.008061345595553e-05
-0.34791088999409114,-0.34791088999409114,1.0000361015448136,8.953591609059388e-05
-0.34692373612633676,-0.34692373612633676,1.0000642515477431,9.057664476093622e-05
-0.3459392761535128,-0.3459392761535128,1.000054289200048,8.903591405488811e-05
-0.3455978521466022,-0.3455978521466022,1.0000689984576252,9.06589104756296e-05
-0.3444769286310475,-0.3444769286310475,0.9999715528293143,9.000835200684874e-05
-0.3437697604058485,-0.3437697604058485,0.9998827366664347,8.959645893526993e-05
-0.3428600471030222,-0.3428600471030222,0.9998345321838992,9.007448427625888e-05
-0.34195073850642077,-0.34195073850642077,0.9998991681223867,8.90181948487315e-05
-0.3412505204243644,-0.3412505204243644,1.0000378060108284,9.052140440529112e-05
-0.34009883171092953,-0.34009883171092953,0.9998157894409412,9.007490750442377e-05
-0.33967743251196225,-0.33967743251196225,0.9999823855644177,9.014491161168863e-05
-0.33854005316170516,-0.33854005316170516,1.0000340052077987,9.00140615513189e-05
-0.33771770183520855,-0.33771770183520855,0.9999669583995898,9.013012844895675e-05
-0.33672297324083045,-0.33672297324083045,0.9999988751359166,9.121611353338643e-05
-0.335806389406207,-0.335806389406207,0.9999687770041141,8.948236493452511e-05
-0.3352720522445452,-0.3352720522445452,1.0000539234986423,8.982600222496041e-05
-0.33435325817918055,-0.33435325817918055,1.0001619053064352,9.065415316735807e-05
-0.3336314570871764,-0.3336314570871764,0.9999930079921608,9.009065496939232e-05
-0.33299966101985773,-0.33299966101985773,0.9998986501772433,9.051730426446992e-05
-0.33209379075051404,-0.33209379075051404,1.0001377861352008,8.945711778188901e-05
-0.33146069282665847,-0.33146069282665847,0.9999456360880021,9.0240530632566e-05
-0.3305480541668658,-0.3305480541668658,1.0000866569382159,9.008867637407624e-05
-0.3296730692964047,-0.3296730692964047,0.9999975895333246,8.957612523374846e-05
-0.32905059923505176,-0.32905059923505176,0.9999819512032427,9.064385020071043e-05
-0.327997832823894,-0.327997832823894,0.9999613600065154,9.005097312536205e-05
-0.3274331288121175,-0.3274331288121175,1.000139301702895,8.956771847641324e-05
-0.3265853198885452,-0.3265853198885452,0.9999721340108471,8.993324723895811e-05
-0.32593816662410974,-0.32593816662410974,1.0000086775219652,8.904362245134865e-05
-0.32524041569195106,-0.32524041569195106,0.9998344673786917,9.009421549575538e-05
-0.32461893485233306,-0.32461893485233306,0.9999370797952232,8.945429160936125e-05
-0.32363429684337464,-0.32363429684337464,0.9999609529342066,8.9023914626275e-05
-0.3233382796839578,-0.3233382796839578,1.0000144410402376,9.009024843210274e-05
-0.32239594941129324,-0.32239594941129324,0.9999097044234185,9.009573564133468e-05
-0.32161238870758097,-0.32161238870758097,1.0000275194446673,9.320785441720011e-05
-0.32117856175318593,-0.32117856175318593,1.0001072171546488,8.956626333933931e-05
-0.3199411532332306,-0.3199411532332306,1.0000854625430224,9.012521192619969e-05
-0.3193531533906935,-0.3193531533906935,0.9999624068226021,8.899486388717689e-05
-0.31841229603232934,-0.31841229603232934,1.0001709984748977,9.058238840106163e-05
-0.31742128866608255,-0.31742128866608255,0.9999790125882007,8.901044189257286e-05
-0.3170878184202593,-0.3170878184202593,1.0001374077122211,9.065609070813306e-05
-0.31596318364536274,-0.31596318364536274,0.9999551916379922,9.000141629329418e-05
-0.31525434909199246,-0.31525434909199246,0.9999074162228428,8.961272929746162e-05
-0.31434774191948234,-0.31434774191948234,1.0000191107118357,9.00936114182561e-05
-0.31342892194443267,-0.31342892194443267,0.9999943099633825,8.90275739114387e-05
-0.3128742650304048,-0.3128742650304048,1.0002056533849686,9.002308786583004e-05
-0.3117922913748771,-0.3117922913748771,0.9999759030652561,9.063905759394415e-05
