time,time,flux,flux_err
-0.49941116223417337,-0.49941116223417337,0.9999334222439955,0.00012735766410204731
-0.4983795551219373,-0.4983795551219373,0.9999960504685831,0.00012765019116549656
-0.49746340565397984,-0.49746340565397984,1.000057557011956,0.00012769424244739075
-0.4965781001956202,-0.4965781001956202,1.0001152629087067,0.0001308314735452857
-0.4954678865346068,-0.4954678865346068,1.0000827025405947,0.00012762668982554696
-0.493164731907018,-0.493164731907018,1.0000113935746093,0.00012782121645442193
-0.49147618428614803,-0.49147618428614803,1.0001084329696113,0.00012766726581144716
-0.48990306223204244,-0.48990306223204244,1.0000707551033934,0.00012753624689199218
-0.48885941215266937,-0.48885941215266937,1.0000082795772252,0.00012773958537898867
-0.48767713771594573,-0.48767713771594573,1.0001691174615992,0.00012766292015690557
-0.48685194148129085,-0.48685194148129085,1.000216682886588,0.00012754738716086667
-0.48583636474286324,-0.48583636474286324,0.9999493029239126,0.00012772610388360603
-0.4849546242206998,-0.4849546242206998,1.0000331484784684,0.00012777736750835706
-0.48257903274934505,-0.48257903274934505,1.0001719822481492,0.0001277895791378806
-0.4808664717907959,-0.4808664717907959,0.9999581661132885,0.0001276999931531931
-0.4796270956008811,-0.4796270956008811,1.0002631691616986,0.00012770255002525683
-0.4785782923652732,-0.4785782923652732,0.9999379809255929,0.00012749117900116649
-0.47742791175624005,-0.47742791175624005,1.0001519808599346,0.0001278140495406047
-0.47630856173855135,-0.47630856173855135,1.0000720686897355,0.00012783165411326802
-0.47496569422946777,-0.47496569422946777,1.0000264707677429,0.00012748025847921133
-0.4732222697915859,-0.4732222697915859,1.0001090461474758,0.00012758318194363698
-0.4718054828517779,-0.4718054828517779,1.0000769642538978,0.0001278201877405977
-0.4698644198171678,-0.4698644198171678,0.9999667220176139,0.0001278099039676123
-0.46876047440309776,-0.46876047440309776,0.9998455221597735,0.0001274591024948049
-0.46754625730027327,-0.46754625730027327,0.9997509723456132,0.00012734623621145127
-0.46638856235440473,-0.46638856235440473,1.0001388029234441,0.00012789356063411353
-0.46539761547683156,-0.46539761547683156,1.000056025884972,0.00012769996542838158
-0.4642020782899635,-0.4642020782899635,1.0002370690878872,0.0001276511510027665
-0.4629755743961141,-0.4629755743961141,0.9998416735876479,0.00012753518255540928
-0.46170338447773246,-0.46170338447773246,1.0001380771839021,0.00012759772424137146
-0.46116350662341576,-0.46116350662341576,0.9998796951312358,0.0001277487009136462
-0.45982673976541266,-0.45982673976541266,1.0000126741580402,0.00012760477977538767
-0.4584431427938398,-0.4584431427938398,0.9998845823863546,0.00012745120144553218
-0.4572648385219509,-0.4572648385219509,1.000072838019048,0.00012745813358225493
-0.45586909174453466,-0.45586909174453466,0.9999574247345236,0.00012772674612117671
-0.4548609921126626,-0.4548609921126626,0.9999863148882838,0.00012765949872261254
-0.4537060932365421,-0.4537060932365421,0.9999785508114245,0.00012757492332590394
-0.45247291776249765,-0.45247291776249765,1.0001116665584078,0.00012735200964828056
-0.4512021211645333,-0.4512021211645333,0.9999509038386719,0.00012775249293509912
-0.4503533703420544,-0.4503533703420544,1.0001276675248263,0.00012732928936898296
-0.4481681434401253,-0.4481681434401253,0.9999506365120876,0.00012762124869420812
-0.4472507279308047,-0.4472507279308047,0.9999820759057586,0.0001274053728038607
-0.4457611207231821,-0.4457611207231821,0.9999312070481713,0.0001276737060363549
-0.44442417562677294,-0.44442417562677294,1.0001183342682651,0.00012763105390120464
-0.4436161698307842,-0.4436161698307842,1.0001010329062439,0.0001275994379359851
-0.44230413856639644,-0.44230413856639644,0.9999026605603216,0.0001274776679144246
-0.44086280721458027,-0.44086280721458027,1.000016059012522,0.0001274554422227069
-0.439106554020691,-0.439106554020691,1.0002133954833305,0.00012768941985711685
-0.4371622339436726,-0.4371622339436726,1.000223598214103,0.00012740638948276577
-0.4360676280601183,-0.4360676280601183,1.0001551779615026,0.00012768604084499049
-0.43452912714783454,-0.43452912714783454,1.000211120351469,0.000127551923906091
-0.43317524597514423,-0.43317524597514423,0.999929309690532,0.00012801784053311345
-0.432008398589096,-0.432008398589096,1.0000258533207336,0.00012767873590462987
-0.4301687758270418,-0.4301687758270418,1.0002583502310245,0.00012743270337083675
-0.4275489843559626,-0.4275489843559626,1.0000200070776784,0.00012757693859639685
-0.42634976064946384,-0.42634976064946384,1.000048100250034,0.00012741776050406825
-0.42549948521482295,-0.42549948521482295,0.999979225944692,0.0001278216012354295
-0.42420694362663197,-0.42420694362663197,1.0000630852179757,0.00012762697309400152
-0.4222342366447265,-0.4222342366447265,1.0000328568155195,0.00012760000167923912
-0.4200513177296671,-0.4200513177296671,0.9998052557984497,0.00012750424883299665
-0.4192598341978737,-0.4192598341978737,0.9999383300489164,0.00012755884174912708
-0.4182354592529009,-0.4182354592529009,1.0000174836524907,0.00012766789998395252
-0.41621673848712815,-0.41621673848712815,1.0000307241842923,0.00012746377311973245
-0.4149885480364901,-0.4149885480364901,1.0001024972164958,0.0001273118395332251
-0.4133883459500794,-0.4133883459500794,1.000237796780178,0.00012778574886987637
-0.41134813129392567,-0.41134813129392567,0.9999772354813444,0.0001302911196916057
-0.40938169846413075,-0.40938169846413075,1.0001362472238104,0.0001276407145499065
-0.4080164131672063,-0.4080164131672063,1.000108372957461,0.0001276784566782943
-0.40664956306718525,-0.40664956306718525,0.9999647055339965,0.00012743464867318139
-0.40527942215267104,-0.40527942215267104,1.0001429066738705,0.0001275188248479234
-0.40407562975087785,-0.40407562975087785,1.0000226138289638,0.0001274681919100451
-0.40279878114015444,-0.40279878114015444,0.9998668108071913,0.00012793433070867142
-0.40136764028502514,-0.40136764028502514,1.0000964230528824,0.00013388944882708066
-0.39956082133285237,-0.39956082133285237,1.0001382581890295,0.00012758793646767887
-0.3980406593065709,-0.3980406593065709,1.0001623408988276,0.00012751140901027218
-0.39633496360766,-0.39633496360766,0.9999944636006228,0.00012755045668005606
-0.3947171637890278,-0.3947171637890278,1.0000337839515834,0.00012747693453060387
-0.3930965067142097,-0.3930965067142097,0.9999966437962872,0.00012769852897367377
-0.39218256853564526,-0.39218256853564526,0.9997725514070138,0.00012778449258510127
-0.3913037898222683,-0.3913037898222683,1.0002878200149616,0.00013022166672184426
-0.39049947620515013,-0.39049947620515013,0.9999053512562132,0.00012763878344925335
-0.3885783635523694,-0.3885783635523694,1.000180375936253,0.00012778497488803158
-0.3871558015496703,-0.3871558015496703,0.9999650117640726,0.00012786089932907216
-0.3851745239000593,-0.3851745239000593,0.9998139243540164,0.00012718803506325281
-0.38399527059009414,-0.38399527059009414,1.0000694443905267,0.00012769004528007395
-0.38216339066566435,-0.38216339066566435,1.0001739913747414,0.00012768964116699794
-0.3809590169650619,-0.3809590169650619,1.0000837430510559,0.00013040558958656517
-0.37986721124470935,-0.37986721124470935,0.9999121842380008,0.0001277724828348658
-0.3779652124059794,-0.3779652124059794,0.9998765136995814,0.00012756922022933714
-0.3765665098770114,-0.3765665098770114,0.9999376981046995,0.0001275664368015695
-0.3740975654218346,-0.3740975654218346,0.999991725243501,0.00012757443701521133
-0.3729040395883203,-0.3729040395883203,0.9999669185061727,0.000127418960082364
-0.37170483591398806,-0.37170483591398806,0.9999756682136596,0.00012773033574411263
-0.3707474636437837,-0.3707474636437837,1.0000248064952406,0.00012780334163812335
-0.37009386813879247,-0.37009386813879247,1.0001876501121205,0.00013305305179417125
-0.36844557256918054,-0.36844557256918054,0.9999694669746596,0.00012756834043104996
-0.3666444358525041,-0.3666444358525041,1.0000789611665701,0.0001277470380497149
-0.36441610909896555,-0.36441610909896555,1.0000373197991599,0.00012774938797928105
-0.3633769529231358,-0.3633769529231358,1.0000294260659046,0.0001276071155715278
-0.3623384775055456,-0.3623384775055456,1.0002086356237787,0.00012776084386432457
-0.36136593637638725,-0.36136593637638725,0.999990468648005,0.00012764868459758395
-0.3605688647701754,-0.3605688647701754,0.9999919997915974,0.0001275841059146992
-0.3594792208852596,-0.3594792208852596,1.0000035649065553,0.00012785288310795018
-0.35813484538157353,-0.35813484538157353,0.9999481716849494,0.00012770999977726455
-0.3562769466574537,-0.3562769466574537,0.9999309812444883,0.00012767310212794615
-0.35479326550412227,-0.35479326550412227,0.9999117765749347,0.00012757975172302758
-0.35345963284125903,-0.35345963284125903,1.000084326755307,0.00012753437011766512
-0.352510968693241,-0.352510968693241,0.9998910128056628,0.000127489067656145
-0.3512492211280914,-0.3512492211280914,0.9997067715373309,0.00012763858383964128
-0.350158827193809,-0.350158827193809,1.0000753434535525,0.00012761670968416866
-0.34914152212877525,-0.34914152212877525,1.0001999792780158,0.00012769719843582576
-0.3478241752964095,-0.3478241752964095,1.0002084070458275,0.00012753406366030194
-0.34593455436624937,-0.34593455436624937,0.9999903152436517,0.00012772180841165762
-0.3450790897448314,-0.3450790897448314,1.000065555360498,0.000127648320942633
-0.34306452367673046,-0.34306452367673046,1.0001554361486353,0.00012775425235756168
-0.342263763990195,-0.342263763990195,0.9999051349328214,0.00012757794597245301
-0.3407465598407725,-0.3407465598407725,1.0001391974510516,0.0001276021419526541
-0.3393668930417334,-0.3393668930417334,0.9998665434983056,0.00012778634334013485
-0.3381647432135651,-0.3381647432135651,0.9998940856673133,0.00012748276905128966
-0.3372412652148341,-0.3372412652148341,0.999946939334286,0.00012745127421547302
-0.3356871577205311,-0.3356871577205311,0.999875135539855,0.00012764325130289845
-0.33485146866369175,-0.33485146866369175,1.0000295656147078,0.0001277576906298476
-0.33361869371510694,-0.33361869371510694,1.000060986105027,0.0001279551952715669
-0.33213249418549823,-0.33213249418549823,1.0001289085680263,0.00012747160136350667
-0.3309539130124904,-0.3309539130124904,0.9998967457188768,0.00012745769994922297
-0.3295649978063011,-0.3295649978063011,1.0002201183191937,0.00012772452536375251
-0.32883593201986516,-0.32883593201986516,1.0001274154410362,0.00012777085375061134
-0.3278577666686033,-0.3278577666686033,0.9998236906939223,0.0001277697410603773
-0.32685580212055354,-0.32685580212055354,0.999898488640153,0.00012737568010860728
-0.32559925859750366,-0.32559925859750366,1.0001187336514363,0.00012744236314022247
-0.32448699645319723,-0.32448699645319723,0.9998408550088979,0.00012766309057349502
-0.32317420425388266,-0.32317420425388266,0.9998335542381087,0.00012765626883298078
-0.3216473334512557,-0.3216473334512557,1.000178566098784,0.00012747605358557384
-0.3206994344924169,-0.3206994344924169,1.0000941913951813,0.0001275200126561494
-0.3191514723323053,-0.3191514723323053,0.9999001916821355,0.00012765659146494546
-0.3179521792837477,-0.3179521792837477,1.0000044932924086,0.00012749018496918842
-0.3170654380992346,-0.3170654380992346,1.000112996123737,0.00012768206680717793
-0.3158065121649997,-0.3158065121649997,1.000303859696504,0.00012756226015718275
-0.31448738464241616,-0.31448738464241616,0.9998886718485072,0.00012759294692961924
-0.3118126958768698,-0.3118126958768698,1.0001451115186473,0.0001275300930022623
-0.31052303663891506,-0.31052303663891506,0.999952828981144,0.0001274128061308464
-0.30948780846665613,-0.30948780846665613,0.9999410336631918,0.000127659033455743
-0.30781633973747374,-0.30781633973747374,0.9997830055697581,0.00012775444748572897
-0.3064026888103399,-0.3064026888103399,0.9999895260153254,0.00012767340633208654
-0.3048304100506357,-0.3048304100506357,0.999927377382795,0.0001275622775792089
-0.30370936381877983,-0.30370936381877983,0.9998344986816837,0.0001275437337187473
-0.3015774974352098,-0.3015774974352098,1.0001292681998488,0.0001275374177427462
-0.30031377112609337,-0.30031377112609337,1.0000283944749762,0.00012760450758832615
-0.29947891722404163,-0.29947891722404163,1.0001365580934851,0.00012749899310024544
-0.29832348836935124,-0.29832348836935124,1.0001401201447713,0.0001276198189802755
-0.296870953427424,-0.296870953427424,1.0000535776455008,0.00012804028863150257
-0.29493207931591314,-0.29493207931591314,1.0001590036745032,0.0001272870445848649
-0.29328838047149475,-0.29328838047149475,1.0001415052894316,0.00012764409461458258
-0.29214382488498813,-0.29214382488498813,0.9999098082419143,0.00012769490312432904
-0.2902844538235513,-0.2902844538235513,1.0000443832363535,0.0001274155501838235
-0.2891125150315929,-0.2891125150315929,1.0002125301337574,0.00012740224030638762
-0.2880280525227136,-0.2880280525227136,0.9998662086748183,0.00012771353377119123
-0.28651119442438355,-0.28651119442438355,1.0001060306241387,0.00013149586758562143
-0.28385401296036433,-0.28385401296036433,1.0003440226832385,0.00012744333629985052
-0.28217232007082205,-0.28217232007082205,0.999946397230603,0.00012765502317125334
-0.280375597015518,-0.280375597015518,1.0000506423643447,0.0001272580893276641
-0.2790680601858185,-0.2790680601858185,0.9999236828817109,0.0001277475713094507
-0.2778271002956899,-0.2778271002956899,1.0000200082441406,0.00012744348199268516
-0.2764865849690977,-0.2764865849690977,1.0002668637839913,0.00012795258439737595
-0.27505679705936925,-0.27505679705936925,0.9996304775468279,0.00013236384700048413
-0.27345605779919424,-0.27345605779919424,0.9996999488807028,0.0001274061191381353
-0.271923078285181,-0.271923078285181,0.9999555292900144,0.00012756653237391136
-0.2704476963139314,-0.2704476963139314,0.9997066855687553,0.0001275912275972488
-0.26844520759623264,-0.26844520759623264,1.0000155927035177,0.00012750233689928715
-0.26678578708379064,-0.26678578708379064,0.9999101515732385,0.00012768109019962716
-0.26574420148317585,-0.26574420148317585,1.000088500056825,0.00012797326151149212
-0.2648792076441168,-0.2648792076441168,0.9999979950365144,0.00013043931461075717
-0.2639776134965359,-0.2639776134965359,1.0000489738596423,0.00012745947655262653
-0.2623066745698452,-0.2623066745698452,1.0000419058136916,0.00012774365314812848
-0.26091758839975226,-0.26091758839975226,1.0000301392669935,0.00012770895969156214
-0.2585554856232193,-0.2585554856232193,0.9999353339959871,0.00012724085029577886
-0.25716877900777035,-0.25716877900777035,0.9997938880330948,0.00012753775586778947
-0.25560738168423996,-0.25560738168423996,0.9997733272435513,0.0001278374834909441
-0.25444676404003985,-0.25444676404003985,1.0001118821431194,0.00013048581333289307
-0.25339530611236116,-0.25339530611236116,0.9997449938088117,0.00012751450466794633
-0.25155646670100396,-0.25155646670100396,0.9998562907415411,0.00012755583152618803
-0.250602905559208,-0.250602905559208,1.0000976094561276,0.00012773173775709024
-0.24824960527475923,-0.24824960527475923,1.0000919935322614,0.00012774481193495322
-0.24724924266774906,-0.24724924266774906,1.0000870012626017,0.0001274624535092304
-0.24598096098343375,-0.24598096098343375,1.0000702559305779,0.00012759533728767315
-0.24514479771823972,-0.24514479771823972,1.0001269593174464,0.00012792782802114607
-0.2443382161851332,-0.2443382161851332,1.0000900878506374,0.00012772448082314222
-0.24339022544590988,-0.24339022544590988,0.9999603001118359,0.00012785496002455356
-0.24096857143522357,-0.24096857143522357,0.9999711050857938,0.00012766387887130245
-0.23897231061928323,-0.23897231061928323,1.0000034632597663,0.00012770828382686954
-0.23717348481804948,-0.23717348481804948,0.9999324341372645,0.00012764145769699695
-0.23620376098842827,-0.23620376098842827,0.9997995140768777,0.00012758647591090314
-0.23498037736135302,-0.23498037736135302,0.9999432347721718,0.00012772510674127123
-0.23382104958436684,-0.23382104958436684,1.0000360218715918,0.00012775539360487177
-0.23273322436216404,-0.23273322436216404,1.0002194182926132,0.00012774066652402864
-0.23092921453280724,-0.23092921453280724,1.0001320525255648,0.00012762878417271268
-0.22895557971060043,-0.22895557971060043,0.9999837749668183,0.0001276730423955738
-0.2274332113796845,-0.2274332113796845,1.0000609351164438,0.00012775137415588862
-0.22625896399331397,-0.22625896399331397,1.0002348578688427,0.00012746930289639753
-0.2251505072112195,-0.2251505072112195,0.9999684154065329,0.000127565184942653
-0.22397413526341553,-0.22397413526341553,1.0001065345058548,0.00012783131606022166
-0.22256722006131896,-0.22256722006131896,0.9999159875817144,0.0001277016590553346
-0.22119902004124015,-0.22119902004124015,1.0000948943041812,0.00012738566240158154
-0.21961681957618567,-0.21961681957618567,1.000132148007669,0.0001278572909996593
-0.21891015957517085,-0.21891015957517085,0.9998959353969425,0.00013012165374974065
-0.2170657270718948,-0.2170657270718948,1.0000500339105352,0.00012771768347461594
-0.21607455173580092,-0.21607455173580092,1.0001260092201423,0.00012757956002460967
-0.2151058609953907,-0.2151058609953907,1.000097551566838,0.0001275089207660174
-0.2136123058582598,-0.2136123058582598,1.0001300177461896,0.00012779273733644765
-0.21234972164602367,-0.21234972164602367,1.0000669468951995,0.00012758281673444814
-0.21122594869448222,-0.21122594869448222,0.9999907619212092,0.00012765705258471557
-0.21001119309730712,-0.21001119309730712,1.0001826818747173,0.00012744946377462186
-0.20889798164498644,-0.20889798164498644,1.0001335800370892,0.00012782955625995695
-0.208050560560514,-0.208050560560514,0.9999935954401262,0.00012754512592621315
-0.2062697637011297,-0.2062697637011297,0.9998794249614514,0.00012771644629117933
-0.2055120695986261,-0.2055120695986261,1.0000718207741837,0.00012739818025205395
-0.2042973307921784,-0.2042973307921784,1.0001438349526022,0.00012749699513985035
-0.2029920269822469,-0.2029920269822469,1.0001408857358502,0.00012770187162543608
-0.2022254963841988,-0.2022254963841988,1.0001630798124868,0.00012772486955581734
-0.2010853472944291,-0.2010853472944291,1.0003234151645644,0.00012767588795776371
-0.19998441440111492,-0.19998441440111492,0.9998211695087539,0.00012726756012321135
-0.1984338528032822,-0.1984338528032822,1.0000260772860945,0.00012760153645400557
-0.1971950838327757,-0.1971950838327757,0.999946532732368,0.0001274910974094424
-0.19554636826578645,-0.19554636826578645,0.9999272579747138,0.00012761297102544772
-0.19475726824675804,-0.19475726824675804,0.9999725484644939,0.00012739974249455815
-0.19324456530157477,-0.19324456530157477,1.000164799565308,0.00012782883549613337
-0.19197221906215417,-0.19197221906215417,0.9999175004152219,0.00012770044803803816
-0.19099654636083868,-0.19099654636083868,0.9998871598309502,0.00012757413060933583
-0.18968298786494414,-0.18968298786494414,1.0004803180529995,0.00012750376782010264
-0.1885980944505718,-0.1885980944505718,1.0000690511921841,0.0001276038026385451
-0.18668973497478875,-0.18668973497478875,0.9999773142828147,0.0001277688846711838
-0.1845408455999859,-0.1845408455999859,1.000062946581549,0.0001273954358709714
-0.18355091405901475,-0.18355091405901475,0.9999350911972684,0.00012771879789573361
-0.18222412304166938,-0.18222412304166938,1.0000631106049407,0.0001276641322100113
-0.18053463039177586,-0.18053463039177586,1.000042068995345,0.00012768265176375614
-0.17889835387686617,-0.17889835387686617,0.9999863347027548,0.0001273955377291842
-0.1772898373543285,-0.1772898373543285,1.000189839246667,0.00012761353442382575
-0.17485303717912756,-0.17485303717912756,1.0000929620161283,0.00012759443303894574
-0.17359030513107426,-0.17359030513107426,0.999959959999653,0.00012746503557993
-0.1728522710080142,-0.1728522710080142,1.000329595344304,0.00012766234230588962
-0.17186944499699167,-0.17186944499699167,0.9999019826163191,0.0001276645942265754
-0.17040075924960546,-0.17040075924960546,0.9999420110346303,0.00012829867606481356
