time,time,flux,flux_err
-0.49989866526811966,-0.49989866526811966,0.9999992517724823,0.00012772022201215237
-0.49974781166238247,-0.49974781166238247,1.0000726345787758,0.00012457252499859092
-0.4996455344902643,-0.4996455344902643,1.0000267128199636,0.00012106710670340274
-0.49954886870764315,-0.49954886870764315,1.0001057192222507,0.00011906910638822624
-0.4993803666300664,-0.4993803666300664,1.0000038981948074,0.00012542095484033048
-0.4992536011930497,-0.4992536011930497,0.99994305501262,0.0001241923515341587
-0.4991527291778766,-0.4991527291778766,1.0002008650441738,0.00012337447466536522
-0.4990685926495644,-0.4990685926495644,1.0000954243270104,0.00011642684288028248
-0.4989548331905098,-0.4989548331905098,0.9999579651050816,0.0001207757308279211
-0.49885338038293414,-0.49885338038293414,0.9998109594810309,0.00011772979308922107
-0.49871148998645365,-0.49871148998645365,1.0000608929583836,0.00012655717336767966
-0.498637345124007,-0.498637345124007,1.0000247345579691,0.000125759385351761
-0.4985137767856941,-0.4985137767856941,1.000073467387124,0.0001151639883915344
-0.49840780027298026,-0.49840780027298026,1.000099297264979,0.00011739259220004051
-0.49827224108666995,-0.49827224108666995,0.9999261912568619,0.00013351416698573405
-0.49815308151446513,-0.49815308151446513,0.9999797499982577,0.00012149059146958706
-0.49808104011026444,-0.49808104011026444,1.0001319112769707,0.00011843050536713683
-0.497949893824989,-0.497949893824989,1.0002150291650624,0.00011906616222837527
-0.4978084676753497,-0.4978084676753497,1.0001491910228857,0.00012338783018119042
-0.4977082302204508,-0.4977082302204508,0.9998580350040625,0.00012546504338824385
-0.49757743602749543,-0.49757743602749543,0.9998599739018736,0.00011736274830838576
-0.49747227804691646,-0.49747227804691646,1.0001065559117557,0.00011688991541320868
-0.4973077811584517,-0.4973077811584517,1.0001586845874542,0.0001226473663260037
-0.49717858405347215,-0.49717858405347215,0.9999405288032139,0.0001209352479807104
-0.4970778456867265,-0.4970778456867265,1.000356633190159,0.00012032077789596607
-0.497007877084252,-0.497007877084252,1.0002051858498309,0.0001232341352587756
-0.4968548530188855,-0.4968548530188855,0.999882456415731,0.00011810602160360422
-0.4966688470172812,-0.4966688470172812,1.0000423387076176,0.00013222770305130953
-0.4965734590383363,-0.4965734590383363,1.0000981068477757,0.00012185324032062957
-0.49648157787596575,-0.49648157787596575,0.9999901446746284,0.00011588277562468374
-0.4963783308936399,-0.4963783308936399,0.9997893696973852,0.00012523915079080074
-0.4962291590651148,-0.4962291590651148,0.9998527295366391,0.00012429458508504703
-0.4961149517992453,-0.4961149517992453,1.0000768651974195,0.00012739959614887396
-0.495978890106926,-0.495978890106926,1.0000385409437418,0.00011740628667363518
-0.4959179497651348,-0.4959179497651348,0.9998661954650618,0.00012662646617542402
-0.4958068249936332,-0.4958068249936332,0.9999102068957428,0.00012426824182694578
-0.49571644452080366,-0.49571644452080366,1.000160135300885,0.00011865550292483162
-0.49557832912905725,-0.49557832912905725,0.9998377546471667,0.00013400084293428688
-0.49545113960484743,-0.49545113960484743,1.000002309072231,0.00011789578176534161
-0.4953275100677274,-0.4953275100677274,0.9999762684216342,0.00012496794747874192
-0.49522002734738635,-0.49522002734738635,1.000068007622951,0.00011942671552077789
-0.49514320210946605,-0.49514320210946605,0.9999983014734738,0.0001146570147541405
-0.4950554092341918,-0.4950554092341918,0.9999598614696728,0.0001255824650070969
-0.4949388790926605,-0.4949388790926605,0.999992286729886,0.00012729484928823874
-0.4947938118275488,-0.4947938118275488,0.9998921485355711,0.00012113697121655061
-0.49464649189540066,-0.49464649189540066,1.0000009938612755,0.00012024702372053274
-0.49457512403459986,-0.49457512403459986,1.000185246884013,0.00012230606470101614
-0.49449871617907776,-0.49449871617907776,1.0001175033476595,0.0001277899384354535
-0.4944344578725577,-0.4944344578725577,0.999936162842735,0.00011613056784537852
-0.49435869751468997,-0.49435869751468997,1.0000851816271674,0.00012312943122550353
-0.49415599539279353,-0.49415599539279353,1.0000402540093476,0.00011763044807169514
-0.4940191646455787,-0.4940191646455787,0.9999804943921037,0.00012067392041407723
-0.49391929403718676,-0.49391929403718676,1.0000590851710744,0.0001230109109638905
-0.4938287353019405,-0.4938287353019405,0.9998845753944096,0.0001243545206354296
-0.49374105052193046,-0.49374105052193046,1.0000238956561482,0.0001148897729681458
-0.4935660618633847,-0.4935660618633847,1.0000125033794267,0.00011432993576441204
-0.4934280257082719,-0.4934280257082719,0.9998041023382834,0.00012310309286311092
-0.4933252104914573,-0.4933252104914573,1.000210491544426,0.00013169446586739375
-0.49313227773091056,-0.49313227773091056,1.0002298599084043,0.000119034367866529
-0.49296660052787045,-0.49296660052787045,0.999950318955257,0.0001163024187462439
-0.49284319818398215,-0.49284319818398215,1.000052273241447,0.00012109079755192592
-0.49273413513365083,-0.49273413513365083,0.9998930466583362,0.0001236071946805137
-0.49255176592632777,-0.49255176592632777,1.0000450802629608,0.00012105816040856808
-0.49238444949805854,-0.49238444949805854,1.0000432909041201,0.00012219255128721493
-0.4922132335821516,-0.4922132335821516,0.9999212130421352,0.0001255062368405539
-0.4920920849712275,-0.4920920849712275,0.9998658308104693,0.00011794791079693814
-0.4919249623460928,-0.4919249623460928,1.0001318950104519,0.00012129239551335964
-0.49171602596325104,-0.49171602596325104,1.0000174885024182,0.00012364244679050258
-0.4914992768986849,-0.4914992768986849,1.000016687364676,0.00011634662146036331
-0.4913748618520913,-0.4913748618520913,1.0000908401896287,0.00012416246887332757
-0.49120557893111255,-0.49120557893111255,1.0000201160167683,0.00012367466201296677
-0.49096579816832675,-0.49096579816832675,0.9999555236178992,0.00011595619814338809
-0.4908415387988498,-0.4908415387988498,0.9999670143155186,0.00012652843506306372
-0.49064869126232225,-0.49064869126232225,0.9998503487812792,0.00012178097152260323
-0.4904050754274067,-0.4904050754274067,1.000047332369855,0.00011776503360268867
-0.49025094051394263,-0.49025094051394263,0.9998136358212101,0.00012570028198474411
-0.4901211215321382,-0.4901211215321382,1.0000413094969878,0.00011587855676602986
-0.4898570991877932,-0.4898570991877932,1.0001246911032697,0.00011541154612395987
-0.48973115499393316,-0.48973115499393316,1.0000118713924278,0.00012234353195428142
-0.489556059359893,-0.489556059359893,1.000061718479887,0.00011560264746772417
-0.4893531115063524,-0.4893531115063524,0.9999118531161526,0.00011942694932440925
-0.48922227290386217,-0.48922227290386217,0.9999320332248764,0.00012203169717088288
-0.4890231051474984,-0.4890231051474984,0.9999190952139123,0.00011408777499718858
-0.4888886936532799,-0.4888886936532799,1.000012127728878,0.00011717346410334882
-0.48875097105556053,-0.48875097105556053,1.0000450835873675,0.00012752369064755726
-0.4886140010494273,-0.4886140010494273,1.0000916515867224,0.00012165880128072525
-0.4885126026943908,-0.4885126026943908,1.0002350209541615,0.00011522830952436736
-0.4883722260543436,-0.4883722260543436,0.9999154788088458,0.00011374980462465481
-0.48822570213014843,-0.48822570213014843,1.000084128373941,0.00012268034472405313
-0.48812634669666294,-0.48812634669666294,0.9999040791660899,0.00012771121454582956
-0.4879566945208353,-0.4879566945208353,0.9999634316659216,0.00011598927823623314
-0.4878683999158966,-0.4878683999158966,0.9999677435708902,0.0001142000729362514
-0.4877580524698715,-0.4877580524698715,1.000090679871795,0.00012251848331689834
-0.4876243127466296,-0.4876243127466296,1.0000203208434262,0.00012283508379001107
-0.4874805512226885,-0.4874805512226885,0.9998520066379122,0.00012149325906635832
-0.4873525313618302,-0.4873525313618302,0.9999190880028477,0.00011348629238737209
-0.4872492122478434,-0.4872492122478434,1.0001688119710153,0.0001236856279671656
-0.4871796037587046,-0.4871796037587046,0.999950226188747,0.00011536826468780021
-0.48707722514591295,-0.48707722514591295,0.9998351890892658,0.00011988256288738666
-0.4869198847038206,-0.4869198847038206,1.0000985650338283,0.00011589480290886847
-0.4867607396263338,-0.4867607396263338,1.0000727464623684,0.00012883295681462932
-0.486650654598634,-0.486650654598634,1.0000086935374477,0.00011569404046283848
-0.4865700030568405,-0.4865700030568405,1.000108045983795,0.00012382104899245243
-0.4864692449569702,-0.4864692449569702,0.9999557312261645,0.00011180984376045781
-0.48633230857012677,-0.48633230857012677,0.9999257922379698,0.0001162416924254931
-0.4861728893105465,-0.4861728893105465,0.9999249794157763,0.00012580196624547245
-0.48611845138584614,-0.48611845138584614,1.0001089834931154,0.00011670982139352169
-0.48598386904704965,-0.48598386904704965,0.9999180886311387,0.00012548582331189638
-0.48586276044588883,-0.48586276044588883,0.9998876770418411,0.00011517993639781187
-0.48577547376116853,-0.48577547376116853,1.0000227058375397,0.00012328676312655068
-0.4856099164360785,-0.4856099164360785,0.9999194970272463,0.00011472305934244378
-0.48551943547354315,-0.48551943547354315,1.000001974694112,0.00011939318489021436
-0.4853850616360432,-0.4853850616360432,0.9999486276109415,0.00011898712688950427
-0.4852484048438782,-0.4852484048438782,0.9999899550802711,0.00011434684074817183
-0.48510231188411124,-0.48510231188411124,1.0002074625039625,0.00013006282342389942
-0.48497379324471696,-0.48497379324471696,1.0000703065003158,0.0001144738495337978
-0.4848285883788776,-0.4848285883788776,1.0000045405214462,0.0001168618642559051
-0.4847148416694836,-0.4847148416694836,1.0001171038057113,0.0001239424335235778
-0.48457505796977784,-0.48457505796977784,0.999936390277313,0.00011560336393444071
-0.4844666060795134,-0.4844666060795134,1.000214277631083,0.00012364251381293963
-0.484348318065895,-0.484348318065895,0.999967736802119,0.0001184459831754857
-0.4842515842829016,-0.4842515842829016,1.0001100493074007,0.00011413595112137894
-0.484153506016446,-0.484153506016446,1.0000413092251619,0.00012688218314034196
-0.4840268064843258,-0.4840268064843258,1.0002217761761634,0.0001162386953416968
-0.4839090619359922,-0.4839090619359922,1.0000278734477317,0.00013183720777331656
-0.48375153233573653,-0.48375153233573653,1.000308621289924,0.00011425624914669394
-0.48364281953181487,-0.48364281953181487,1.0000357088974785,0.000116705425319487
-0.48354457621026087,-0.48354457621026087,1.0000743366834772,0.00011628469769961213
-0.4834069138240011,-0.4834069138240011,0.9999558885943347,0.00012341477242034296
-0.4833324150349654,-0.4833324150349654,0.9999985485036147,0.00012501365561224843
-0.48316961578675544,-0.48316961578675544,1.0000779301970761,0.00012113303809070696
-0.48307038162165555,-0.48307038162165555,0.9999427294943162,0.00012331216244532863
-0.48299300495709757,-0.48299300495709757,0.9999320556012516,0.00011700023401250154
-0.48286116114759353,-0.48286116114759353,1.000013297500568,0.00012394042076978046
-0.4827549112327688,-0.4827549112327688,1.000048342345183,0.00012055798614974466
-0.4826217036221351,-0.4826217036221351,0.9999558178335086,0.00012753471068073602
-0.4825255841766193,-0.4825255841766193,1.000121107465803,0.000117843487980407
-0.48245665918220765,-0.48245665918220765,1.0000501380594606,0.00011445649994699025
-0.4823290034750244,-0.4823290034750244,0.999948525388298,0.0001236397036361308
-0.48221060106516234,-0.48221060106516234,0.99992574633918,0.0001205640111883467
-0.4821011029664078,-0.4821011029664078,0.9997684285641861,0.00012350391607744514
-0.48197255929990207,-0.48197255929990207,0.9999146955300585,0.0001134544731074743
-0.48189805699003047,-0.48189805699003047,0.9999871329963173,0.00011949523171712919
-0.4817827947837941,-0.4817827947837941,0.9999767208714425,0.0001255620896600312
-0.48165161898577935,-0.48165161898577935,0.9999896151466722,0.0001241582667596714
-0.4815440430618764,-0.4815440430618764,1.0000429783628404,0.00011433014516393851
-0.481381623371999,-0.481381623371999,1.0000451831761321,0.00012454952169941647
-0.4812892226182157,-0.4812892226182157,0.9999904504778765,0.00011350980817934364
-0.48121800584704033,-0.48121800584704033,1.0000094278945337,0.00011938342089030333
-0.4810990976460744,-0.4810990976460744,1.0000332894622912,0.00012191394330042917
-0.48103690612551875,-0.48103690612551875,0.9998614980778283,0.00012484971361661167
-0.480872343962983,-0.480872343962983,1.0000294737922515,0.00011938163772246381
-0.4807522447226802,-0.4807522447226802,0.9998340568773049,0.0001143573480501
-0.4806317947382922,-0.4806317947382922,0.9997094982009308,0.00012392109564892103
-0.48055685583749436,-0.48055685583749436,0.9998623519445202,0.00012555255882010734
-0.4804580649011768,-0.4804580649011768,1.0002376987307189,0.00011483605142117631
-0.4803353106850409,-0.4803353106850409,1.0000497848703642,0.00012069083581359684
-0.48019627199610115,-0.48019627199610115,0.9999484223843057,0.00012174775550151489
-0.48006553543091285,-0.48006553543091285,1.0002319026319217,0.00011533162964903946
-0.47996651007342733,-0.47996651007342733,1.000029973325082,0.00012151748549996699
-0.47983832009631444,-0.47983832009631444,1.0000323648448517,0.00011477068572557905
-0.47976433849617023,-0.47976433849617023,0.9999033866722871,0.0001208995988095168
-0.4796906059891626,-0.4796906059891626,0.9999528642488352,0.00012414098996458997
-0.4795973434062034,-0.4795973434062034,1.0000500038653797,0.00011613919989349793
-0.4794569048361154,-0.4794569048361154,1.0001468575360954,0.00011714624413531726
-0.4793384545882873,-0.4793384545882873,0.9999416596430836,0.00012310703934476807
-0.4792609141411958,-0.4792609141411958,1.0000686922353084,0.00012163427884464187
-0.4791841854043014,-0.4791841854043014,1.000178068003632,0.00012287925799607253
-0.47907627629247146,-0.47907627629247146,0.9998340788544822,0.00011317855581699972
-0.47899877641830246,-0.47899877641830246,0.9998709082398032,0.00011749868386198975
-0.47889160757258653,-0.47889160757258653,1.0000645159213302,0.00013204356793923187
-0.4787468063746928,-0.4787468063746928,1.0000829715903194,0.00011455293866690727
-0.47864686000248186,-0.47864686000248186,1.0002355405723504,0.0001233210406033247
-0.4785734888355364,-0.4785734888355364,1.00000760878777,0.00011532906168573837
-0.47845418447832344,-0.47845418447832344,1.000054861610709,0.0001163667822571557
-0.47829190245101927,-0.47829190245101927,1.0000987467007292,0.0001249429642421138
-0.4781787171748874,-0.4781787171748874,1.0000670542990844,0.00011806299121527488
-0.47803819478431253,-0.47803819478431253,1.0001098621836004,0.00011346336007595115
-0.47793187704955925,-0.47793187704955925,0.9999901308489967,0.00011943292449874362
-0.4778013360257319,-0.4778013360257319,0.9999469093862434,0.00012417790868686848
-0.4776695986794948,-0.4776695986794948,1.0001124094868765,0.00011334139748051558
-0.47761998880960166,-0.47761998880960166,1.000078625756865,0.00011621129233699244
-0.47752933918163765,-0.47752933918163765,1.0001155118815315,0.00011882403083201304
-0.4774065842335403,-0.4774065842335403,1.0000289451102582,0.00012504318033662872
-0.47726731031871167,-0.47726731031871167,0.9998523262759592,0.00012577423471879008
-0.4771306856928277,-0.4771306856928277,1.0000646813040668,0.00011598816601620739
-0.4770010837288282,-0.4770010837288282,1.0002594691990117,0.00012401106676111518
-0.4768662035166926,-0.4768662035166926,0.9998316452325613,0.00012149568111628699
-0.4766647791097057,-0.4766647791097057,1.0001206879878777,0.00012207029608214623
-0.47656749488160133,-0.47656749488160133,1.0000726734888958,0.000116402326115353
-0.4764211246430932,-0.4764211246430932,1.0000260879709924,0.00011749184977415392
-0.4762954528698174,-0.4762954528698174,0.9999521881820582,0.00011800197435100394
-0.47619197820604314,-0.47619197820604314,0.9999391894034595,0.0001298811413208412
-0.47601482016252705,-0.47601482016252705,0.9999480678698351,0.00012319465519860956
-0.4759580181009369,-0.4759580181009369,0.9999920109457481,0.00011644883873556595
-0.4758559602116293,-0.4758559602116293,1.0000899712017348,0.000116966646574742
-0.475735840381094,-0.475735840381094,0.9999153133872187,0.00013010071227163286
-0.47558490915398577,-0.47558490915398577,0.9999983363384409,0.00011828893326038574
-0.4754716930401628,-0.4754716930401628,0.9999075525692351,0.0001170830318212833
-0.47534533168582127,-0.47534533168582127,0.9998693308550146,0.00011580502679652013
-0.47521653564690497,-0.47521653564690497,0.9997517886395727,0.00012329840088230742
-0.4751055495777109,-0.4751055495777109,0.9998634556360276,0.00012380917605546142
-0.4749617868197674,-0.4749617868197674,1.0000174048536536,0.0001185303553453631
-0.4748100132033869,-0.4748100132033869,1.0000121681732994,0.00011556674421028769
-0.47467992209349175,-0.47467992209349175,0.999919553494383,0.0001251977213535289
-0.4745649552314717,-0.4745649552314717,0.9998633293273113,0.00012424196579675025
-0.47447769868958856,-0.47447769868958856,1.0001005031750965,0.00011461068248955298
-0.47433275170915296,-0.47433275170915296,1.0001146589694148,0.00011569885254463145
-0.47423836826346816,-0.47423836826346816,1.0000077317591634,0.00012005051152352668
-0.4741525032724894,-0.4741525032724894,0.9999852649637091,0.00012119205817797149
-0.47402789883271906,-0.47402789883271906,0.9999895480776143,0.00011668610823434209
-0.4738318738644011,-0.4738318738644011,1.0001331646766762,0.00012207692630749012
-0.47370367689291015,-0.47370367689291015,0.9999369052620548,0.00012206670221712346
-0.4736164968860976,-0.4736164968860976,0.9999202944404967,0.0001254779611104628
-0.47354975440975977,-0.47354975440975977,1.0000035433158072,0.00011535565123089824
-0.47342852739529917,-0.47342852739529917,0.9999552892527672,0.00012265697554515197
-0.47330117737365074,-0.47330117737365074,1.0001449942370704,0.00012559912053122378
-0.47313531624386085,-0.47313531624386085,0.9998343876225849,0.00012848993209735936
-0.4730298182315892,-0.4730298182315892,0.9999682781543552,0.00011488277696475146
-0.4729053578637831,-0.4729053578637831,0.9999500449042358,0.00011747369606553062
-0.47281991654890587,-0.47281991654890587,1.0000133190638403,0.00012061366529218281
-0.4726656922517577,-0.4726656922517577,1.0000389102403409,0.00012554374532580304
-0.47259004992520204,-0.47259004992520204,0.9998633686395355,0.00011572720396055207
-0.4724864726020314,-0.4724864726020314,1.000127523907162,0.00011831528240190067
-0.4723555640593986,-0.4723555640593986,1.0000353593075366,0.00011693557507784409
-0.47225124088072334,-0.47225124088072334,1.0000684778056805,0.00013191135934535923
-0.4720644995206385,-0.4720644995206385,1.0000786104519972,0.0001147901853461887
-0.4719985839132278,-0.4719985839132278,1.0002471687275505,0.00011842976418346027
-0.4718414151975594,-0.4718414151975594,0.9999933182703906,0.00012699957314677132
-0.4717465140456625,-0.4717465140456625,1.0000434137749148,0.0001251282257835987
-0.47163155369416926,-0.47163155369416926,1.000123159553247,0.00012360591430662384
-0.47153467134412497,-0.47153467134412497,0.9999139310617433,0.0001244623670009082
-0.4714160944211471,-0.4714160944211471,0.9998827402543716,0.00011768509693440088
-0.4712133521476062,-0.4712133521476062,0.9999834839719286,0.00012756932976946546
-0.47109041473522667,-0.47109041473522667,0.9998389022171807,0.00012619378784645399
-0.4709999992599478,-0.4709999992599478,1.0001612773092305,0.00011819773235553371
-0.4709312821556523,-0.4709312821556523,1.0000007977787537,0.00011545383769763972
-0.4707946049704333,-0.4707946049704333,1.0000836597040705,0.00011615370393138897
-0.4706416801738669,-0.4706416801738669,1.0001065413442618,0.0001278256392007225
-0.4705060833293828,-0.4705060833293828,0.9999432020956164,0.00012243506984398154
-0.4704257332574343,-0.4704257332574343,1.0000497870891807,0.0001187877833998498
-0.4703297731386556,-0.4703297731386556,1.000089774602487,0.00012744109263605521
