time,time,flux,flux_err
-0.49963547026951954,-0.49963547026951954,0.9983643902649684,0.0017430920381838583
-0.4984191673526463,-0.4984191673526463,0.9999034791613154,0.0016641666625824944
-0.4978511004228494,-0.4978511004228494,1.0010196595128624,0.001528298439381725
-0.4974132285084731,-0.4974132285084731,1.0000096139726444,0.001387451161274963
-0.49686148705222877,-0.49686148705222877,0.9998232100072377,0.0013412670780486317
-0.49588881603704066,-0.49588881603704066,1.0011236525241494,0.0015954865415617081
-0.49475410446611934,-0.49475410446611934,1.0005014239438632,0.0016171338322076355
-0.4936606057177414,-0.4936606057177414,0.9992402329912509,0.0015610399802518811
-0.4928855452497373,-0.4928855452497373,0.999394923184394,0.0017058085902797344
-0.4918905744096264,-0.4918905744096264,1.000171724968341,0.0014997033880656946
-0.4911196803921484,-0.4911196803921484,0.9996949995623486,0.0016261016172204577
-0.49066581412625965,-0.49066581412625965,0.998910419849401,0.0012624981549314265
-0.49031133335811317,-0.49031133335811317,0.9977818605624147,0.0013530724492386344
-0.48997026407305383,-0.48997026407305383,1.0011745604012618,0.0013432819141701371
-0.48945772812876387,-0.48945772812876387,0.9990290318676056,0.001451334184944616
-0.4885329483135138,-0.4885329483135138,0.9994049385732527,0.0015201985129455363
-0.4872650946985232,-0.4872650946985232,1.0002871293580413,0.001692676823072495
-0.4859322794349282,-0.4859322794349282,1.0008876412613943,0.001625603894339948
-0.48476293982676,-0.48476293982676,1.0001679734521967,0.001636015797994594
-0.4840358942921739,-0.4840358942921739,0.9986168477806594,0.0015753134850097126
-0.48340526266547384,-0.48340526266547384,0.9995589277471961,0.0013423704372859254
-0.4830895666396827,-0.4830895666396827,0.9977630626238531,0.0013438121581866287
-0.48275828947662375,-0.48275828947662375,0.9993162306260961,0.001273525805812047
-0.4822641391889192,-0.4822641391889192,1.0002815401957144,0.0014014082442838892
-0.48138996794150446,-0.48138996794150446,0.9991457353330937,0.0015691689116121977
-0.48002673492446774,-0.48002673492446774,1.001054572320021,0.0015886259233163775
-0.47887740977894283,-0.47887740977894283,1.0018203356361668,0.0015660956619939974
-0.47779546891106295,-0.47779546891106295,0.999890177587821,0.0015801904295559156
-0.4767386430903571,-0.4767386430903571,0.9991564293435523,0.001561730057669538
-0.47600829185248583,-0.47600829185248583,0.9986662469221276,0.0014205016942955863
-0.4757117940520402,-0.4757117940520402,0.9990651085439778,0.0012702580656803264
-0.4752536247615353,-0.4752536247615353,1.0003644583251186,0.0012621901849487536
-0.4746794001883245,-0.4746794001883245,1.0011307593814291,0.0014360177541307049
-0.4733325675522792,-0.4733325675522792,0.9994685607447142,0.0016161424384402326
-0.47210254492238163,-0.47210254492238163,0.9986326707630063,0.0016362724015976573
-0.471179955000116,-0.471179955000116,1.0003303710021592,0.0015406536738367866
-0.47018074201769194,-0.47018074201769194,1.0010660606975827,0.001562797120332098
-0.46919058912462785,-0.46919058912462785,1.001103277549849,0.0015607412034943492
-0.4687598066055216,-0.4687598066055216,0.9992366456847648,0.001342292218418277
-0.4684072433490655,-0.4684072433490655,1.0009319941411627,0.0013527559705544874
-0.46806641197326826,-0.46806641197326826,0.9993198888261701,0.0013443035804345045
-0.4675567190453876,-0.4675567190453876,0.9979543136459241,0.0014480610916040389
-0.4669564837153303,-0.4669564837153303,1.0012509135223966,0.0015142114885272786
-0.4659361522892141,-0.4659361522892141,1.00054143221263,0.0015120218547410294
-0.46487869271950333,-0.46487869271950333,0.9987718997661201,0.0017345908313081558
-0.4635892986392719,-0.4635892986392719,0.9994284815384693,0.0015735169741497184
-0.46248417582391993,-0.46248417582391993,1.000589170002272,0.001580790828585102
-0.4618629217118723,-0.4618629217118723,0.999002161894553,0.0014914880552341658
-0.4613193622164545,-0.4613193622164545,1.0006643525711467,0.0013435265815616628
-0.46109358592366334,-0.46109358592366334,0.9997498072396652,0.0013477580160168574
-0.4607208339628414,-0.4607208339628414,1.0010504321021307,0.0012787707249688422
-0.4602372203138657,-0.4602372203138657,1.0013734320887142,0.001472573512739809
-0.45920474097219993,-0.45920474097219993,0.9996245380482016,0.0015115766191783502
-0.45803555376041916,-0.45803555376041916,0.9993281813133768,0.0015744786553780793
-0.4570492147002369,-0.4570492147002369,1.0000729945629507,0.0015593689524577427
-0.45602489627781323,-0.45602489627781323,0.999378611985304,0.0016431777980442691
-0.4552966716946685,-0.4552966716946685,0.9990503423434796,0.0015662529622477582
-0.4543112317871419,-0.4543112317871419,1.0017999745830755,0.0015019265425398598
-0.4539854356335127,-0.4539854356335127,1.001394862882897,0.0012619873690121316
-0.4536787573626498,-0.4536787573626498,0.9988520918985426,0.0014331900611470843
-0.4532597775425529,-0.4532597775425529,0.9997417586638806,0.001342567539341529
-0.4525542269679136,-0.4525542269679136,1.0007643957890566,0.0013827541589365856
-0.4514061745954677,-0.4514061745954677,1.0006466040397197,0.0016065122200581827
-0.4501815704497858,-0.4501815704497858,0.9990437458307673,0.0016359674313714487
-0.449266056016495,-0.449266056016495,0.999691098345241,0.0015385435755367327
-0.44825384853611466,-0.44825384853611466,1.0009816889097611,0.0015639099313662775
-0.44726240739400963,-0.44726240739400963,1.0014062534904142,0.001561377882935563
-0.4468529903911985,-0.4468529903911985,1.0010377666535946,0.0013414937457701555
-0.4465055188935366,-0.4465055188935366,1.0007127519917816,0.0012727733191511517
-0.4461168371941312,-0.4461168371941312,1.000436163589992,0.0013453874825757697
-0.4455377765960293,-0.4455377765960293,1.0009547118313495,0.0014459592789454498
-0.4446858590919874,-0.4446858590919874,0.9984705419460169,0.0015791339235749085
-0.4431589026164147,-0.4431589026164147,0.9988347140821215,0.0017291211080276217
-0.44216992813016986,-0.44216992813016986,1.0008318382395642,0.0015031188743135355
-0.4411400791665073,-0.4411400791665073,0.9992514145397203,0.0016370371433729702
-0.44018421615619446,-0.44018421615619446,1.0010566417444675,0.0015741352716058556
-0.4395861093595158,-0.4395861093595158,0.9992129013480395,0.001342768825063359
-0.43928164864046265,-0.43928164864046265,0.9997196589689523,0.001344226958218599
-0.43897461847373054,-0.43897461847373054,0.9997614117004435,0.0012726302869853386
-0.4384709617195767,-0.4384709617195767,0.9989521938138003,0.001395457305560695
-0.43768310428131374,-0.43768310428131374,1.0004884991445535,0.001512239525661354
-0.4364813808366307,-0.4364813808366307,1.0027349511055654,0.0015771118578101731
-0.43512693096272415,-0.43512693096272415,0.9997612106511944,0.0016245019261323045
-0.43389059116889256,-0.43389059116889256,0.9999225539527696,0.001581584996560478
-0.4330640499218134,-0.4330640499218134,0.9982603388936511,0.0016277835799913768
-0.4322642454921152,-0.4322642454921152,0.9996987893111943,0.0014174629831734686
-0.43196089769917306,-0.43196089769917306,1.0004212565968076,0.0012657549532003405
-0.43162131544959265,-0.43162131544959265,0.9984316991179311,0.001424221480747017
-0.4310393327832571,-0.4310393327832571,0.9993144396507663,0.001434169252735291
-0.4303230022531352,-0.4303230022531352,1.0004701664895268,0.0015424298166004553
-0.4294371022770065,-0.4294371022770065,1.0009007793673401,0.001529057172086657
-0.4284564624569612,-0.4284564624569612,1.0015950204611752,0.0015774288174822987
-0.4275117770477664,-0.4275117770477664,1.0003199871634902,0.001538205879484813
-0.42653204274538437,-0.42653204274538437,0.9997967385066874,0.001563635299324231
-0.4254917765589198,-0.4254917765589198,0.9989085584614861,0.0016281231656740992
-0.42503397904220036,-0.42503397904220036,0.9996625502515901,0.001340928546243838
-0.4246896417578682,-0.4246896417578682,0.9996305252612885,0.0012730286400509294
-0.42428721761971244,-0.42428721761971244,1.000485424337245,0.001344527310986883
-0.4237430868190131,-0.4237430868190131,1.0000413462501854,0.0013686466135271413
-0.42276182118075667,-0.42276182118075667,1.0002010765634066,0.001575320410758893
-0.42123152185085927,-0.42123152185085927,1.0007001917327432,0.001723551037650032
-0.42025970546819735,-0.42025970546819735,1.0017519843248996,0.0015006557060555249
-0.41926801175723083,-0.41926801175723083,1.0008965607035383,0.001560769378848892
-0.4185660594404908,-0.4185660594404908,0.9988049423490114,0.0015805842993970056
-0.4178231979880366,-0.4178231979880366,0.9999718701743607,0.0013422444873369352
-0.41741724513558437,-0.41741724513558437,0.9997713822062557,0.001345554094150546
-0.4171471684414428,-0.4171471684414428,0.9994801217944301,0.0013504531129907868
-0.41669471589120805,-0.41669471589120805,0.9974651166842934,0.001390780943017204
-0.4158659481588984,-0.4158659481588984,1.0009991937537834,0.0014978460854092057
-0.41456144911644516,-0.41456144911644516,0.9998818186283703,0.0015262658351382825
-0.41346662593568906,-0.41346662593568906,0.9993832803940412,0.0016243655275920304
-0.41218605328904234,-0.41218605328904234,0.9998879585118262,0.001646755748406443
-0.411129392273142,-0.411129392273142,0.9991502886381702,0.0016268054161079314
-0.4103515356036951,-0.4103515356036951,1.0005936868717282,0.0014174175255537557
-0.41006880998174894,-0.41006880998174894,0.9993083822582669,0.001264955199369684
-0.40971793595235795,-0.40971793595235795,0.9997945642507752,0.001420519119999922
-0.409134451164573,-0.409134451164573,1.0011466026929956,0.0014332884047624497
-0.4082802030505263,-0.4082802030505263,0.9995315009920331,0.0015925590184511641
-0.4073841765828547,-0.4073841765828547,0.99662656329747,0.0014643912255518487
-0.4066052787413355,-0.4066052787413355,1.000038544553805,0.0015773048160918016
-0.40576381424179997,-0.40576381424179997,0.9983849763559487,0.0015605637753401934
-0.4048582608578727,-0.4048582608578727,1.0012090493466477,0.001607039392883074
-0.4039390818899847,-0.4039390818899847,0.999837629177919,0.0014928498582233696
-0.4033017134992406,-0.4033017134992406,0.9997337645174464,0.0015588985349396546
-0.4029189716296969,-0.4029189716296969,1.0006679730703396,0.0012627540536600647
-0.40262586911558174,-0.40262586911558174,0.9982713905407687,0.0012756824632908675
-0.40221702083654237,-0.40221702083654237,1.0006392135857223,0.0013438252871681507
-0.40151883864746196,-0.40151883864746196,1.001494236686632,0.0015150423812104593
-0.4003315306486911,-0.4003315306486911,0.9986972501951655,0.0015182645903774076
-0.3994497533814865,-0.3994497533814865,0.9978941522572322,0.0017315354850576971
-0.39873896840581435,-0.39873896840581435,0.9991267650562297,0.001690150270000906
-0.3977172091559623,-0.3977172091559623,0.9997308112669149,0.0015645772666433824
-0.39680467018624765,-0.39680467018624765,1.000185568036362,0.0015791087674668
-0.3960231668461347,-0.3960231668461347,0.9997219930145371,0.0014194406826887958
-0.39556624866090717,-0.39556624866090717,0.9993432522653427,0.0012666970795586247
-0.39538646619184875,-0.39538646619184875,1.0008069167660136,0.0014271083742513925
-0.3950293872738257,-0.3950293872738257,1.0008872085438687,0.0012793442826721847
-0.39462393264984713,-0.39462393264984713,0.9988441907306764,0.0013877003607719628
-0.3937274723997689,-0.3937274723997689,0.9986378333493805,0.0015446246679613486
-0.39241657901584404,-0.39241657901584404,0.9996894249405728,0.001539620925180494
-0.3912697989158914,-0.3912697989158914,0.9992059463213152,0.00162552072736751
-0.3900123860075837,-0.3900123860075837,0.9979408654711946,0.0016455663391302627
-0.38900933974509827,-0.38900933974509827,0.9983213937801189,0.0015606749915276128
-0.38836270237807186,-0.38836270237807186,0.998872595840471,0.0014179138186997905
-0.38813458051445193,-0.38813458051445193,0.9996812925748791,0.0012708472600982995
-0.3877256196254166,-0.3877256196254166,0.9992942493059538,0.0014126432753545652
-0.38705711409129434,-0.38705711409129434,0.9996545147924397,0.0014333100942531016
-0.3861692863283679,-0.3861692863283679,1.0015645212302018,0.0016035904754195072
-0.38517283394903645,-0.38517283394903645,1.0000227142805866,0.0015234809567281655
-0.38425231437722684,-0.38425231437722684,0.9992923972404949,0.0015593656003095578
-0.3833086852231645,-0.3833086852231645,1.000264964234568,0.0016061981635991218
-0.3824034143908648,-0.3824034143908648,0.9995986767160714,0.0015591299142382145
-0.38150476609298495,-0.38150476609298495,0.9985313196070397,0.00149323074255555
-0.38108174736844375,-0.38108174736844375,1.0014500283790047,0.0013440208075879588
-0.3808042807257152,-0.3808042807257152,0.9985805970514292,0.0012751683293670212
-0.3803975129470928,-0.3803975129470928,0.9990525441706829,0.0013438118436672425
-0.37980795767798553,-0.37980795767798553,0.9991726679337724,0.0014396047561906202
-0.3785969685137388,-0.3785969685137388,1.000272512394347,0.0015704228369935395
-0.3775201507640304,-0.3775201507640304,1.0000694384331315,0.0017265138299347193
-0.3768388096970739,-0.3768388096970739,1.0022264338731919,0.001681935652213977
-0.37616549829253926,-0.37616549829253926,1.0020500314609122,0.001561270218366441
-0.3752911477873567,-0.3752911477873567,0.9994418332123542,0.0015036171455644412
-0.3746762016133289,-0.3746762016133289,0.9991832634919241,0.0015099895528386986
-0.3740071124047972,-0.3740071124047972,1.0005063390882765,0.0013430727209078172
-0.3736265708444989,-0.3736265708444989,0.9985322493100461,0.001271482431073644
-0.3734207737928955,-0.3734207737928955,0.9989308331640252,0.00142741919049726
-0.37299363147758413,-0.37299363147758413,0.9986773374574606,0.0013842413768344038
-0.37245793961483287,-0.37245793961483287,1.0007776594760558,0.0014171783814879576
-0.371275175944902,-0.371275175944902,0.9983494034524345,0.0015562687635344093
-0.3701679419464199,-0.3701679419464199,1.0008870605938367,0.0014997286520343853
-0.36925393116544003,-0.36925393116544003,1.0002549811987467,0.0015683408312226654
-0.3682737430528505,-0.3682737430528505,1.000787428094638,0.0016510242909668457
-0.36727109869098057,-0.36727109869098057,1.0006935036472533,0.001560159154887985
-0.36648800060065695,-0.36648800060065695,0.9991283157690811,0.001418387337399351
-0.36623978031420845,-0.36623978031420845,0.997944304548491,0.0012701213533124552
-0.3658280477437074,-0.3658280477437074,0.99919406524696,0.001412669217057203
-0.3651516491998336,-0.3651516491998336,0.9991096894533961,0.0014343410753762233
-0.3642484855357907,-0.3642484855357907,0.9983450099370469,0.0015930773701077886
-0.36318018829770154,-0.36318018829770154,0.9991546562975403,0.0015800127950516122
-0.36202206181478686,-0.36202206181478686,1.000204915816828,0.0015297556774005324
-0.3609745997338905,-0.3609745997338905,1.0011040581941577,0.001565592980874602
-0.3598803708096966,-0.3598803708096966,0.9992484653889143,0.0015649846942213208
-0.35932906892412575,-0.35932906892412575,0.9989438160697164,0.001416455785021875
-0.35900510741776087,-0.35900510741776087,1.0010442229206968,0.0012734449304678357
-0.35857249986729584,-0.35857249986729584,0.9992919698299797,0.0013428306799005713
-0.3580630734664737,-0.3580630734664737,1.0003032703361794,0.001363002635708283
-0.35721815436991167,-0.35721815436991167,0.9987642752154562,0.0014815736973476524
-0.3559723601705628,-0.3559723601705628,0.9989388694576379,0.0017409973300155103
-0.35504324734938564,-0.35504324734938564,0.9987602077155984,0.0017326409156979646
-0.3542542625058559,-0.3542542625058559,0.9994254383594694,0.0015569837346797156
-0.3533677277053357,-0.3533677277053357,1.0007366633935368,0.001501448481472155
-0.35261494569131174,-0.35261494569131174,1.0022766410369492,0.001572928934228402
-0.35198834555922076,-0.35198834555922076,0.9989586145650504,0.001263390532346098
-0.3516431093928986,-0.3516431093928986,0.9988812892137011,0.0013544355931994646
-0.35130135758809045,-0.35130135758809045,0.9991230781857506,0.001341704717683178
-0.35078079578233884,-0.35078079578233884,0.9994145219895527,0.0014566439438100929
-0.34991204020770966,-0.34991204020770966,1.000459307034704,0.001482083800463513
-0.34879667251516366,-0.34879667251516366,1.0000727208511597,0.0015657288013618893
-0.347287935129134,-0.347287935129134,0.9989234886596577,0.0016374063546619444
-0.34617675759509436,-0.34617675759509436,0.9982709645610252,0.0015021564190627295
-0.34538622185064016,-0.34538622185064016,1.0009414201281162,0.0015593168788559629
-0.3446454890872701,-0.3446454890872701,1.000838667654071,0.0014188399595938816
-0.3443931334099034,-0.3443931334099034,1.000144211687209,0.0012643381446785043
-0.34400800193834585,-0.34400800193834585,0.997736111312282,0.0014168656357176341
-0.34342009576939747,-0.34342009576939747,0.9977495023552384,0.0014326306987534683
-0.34240987050288824,-0.34240987050288824,0.998240740460362,0.0016176112777976023
-0.3413203422154766,-0.3413203422154766,0.9994361170570676,0.0015903323093793358
-0.34033419747429433,-0.34033419747429433,0.9995678638888655,0.0015575548302299578
-0.3390485532348976,-0.3390485532348976,0.9980058883827725,0.001566093141327065
-0.3379525902462774,-0.3379525902462774,1.000150483406862,0.001493655476964857
-0.3374275273876265,-0.3374275273876265,1.0011684656834139,0.0015053386406226757
-0.3371104064353858,-0.3371104064353858,0.9994713313074035,0.0012728098307978185
-0.3366694526834181,-0.3366694526834181,1.0009661868764028,0.0013426535272072983
-0.33616807685320965,-0.33616807685320965,1.0004056184667418,0.0013623861132434642
-0.33506591899058547,-0.33506591899058547,0.9990057090518274,0.0015653381377858304
-0.33384205032343744,-0.33384205032343744,0.9987506249111728,0.0017152829405160316
-0.332976536937349,-0.332976536937349,1.0022921817515864,0.0016645031258795465
-0.33214662613754625,-0.33214662613754625,0.9977957044609187,0.0016214599133744564
-0.3311713101997157,-0.3311713101997157,1.0003338422119992,0.001504388143699218
-0.33047587373002896,-0.33047587373002896,0.9991880261209397,0.001557436737499082
-0.3299698818998877,-0.3299698818998877,0.998464698365321,0.0012669429087482167
-0.3296064927126281,-0.3296064927126281,0.9989180020612013,0.001427625593480725
-0.3291983747694758,-0.3291983747694758,1.001339773806451,0.0013813246163230828
-0.328650902028312,-0.328650902028312,1.001786110023251,0.0014172628360847937
-0.3274433274520561,-0.3274433274520561,0.9995609388971382,0.0015441081123645035
-0.326388361195859,-0.326388361195859,0.9997368521678223,0.0016570931584877382
-0.32536890834744553,-0.32536890834744553,1.000431898663231,0.0016350105891442253
-0.3242514248457155,-0.3242514248457155,1.0007984460081452,0.001501436983282889
-0.32345990234898636,-0.32345990234898636,1.000313644372198,0.0015598688140364182
-0.32273178255272794,-0.32273178255272794,1.0004633698046566,0.0013438021977527693
-0.3224985848122742,-0.3224985848122742,1.000888011269055,0.0013449146168215513
-0.3221956518566003,-0.3221956518566003,1.0007405368230078,0.0013676821637507656
-0.3217926304409048,-0.3217926304409048,0.9978615624819607,0.0014040619657280772
-0.32114689710579114,-0.32114689710579114,0.998494927941856,0.0015680588192409823
-0.3199652463372331,-0.3199652463372331,0.9999902499587717,0.0015795448802907927
-0.3189874134637648,-0.3189874134637648,1.00106511580369,0.0016254323545317
-0.317921340164321,-0.317921340164321,1.0003642324911541,0.0015839655609899636
-0.3168957630652585,-0.3168957630652585,0.9994834289744248,0.0015619097697138894
-0.3159037060904666,-0.3159037060904666,0.9986232116378341,0.0014353178279073087
-0.3154807723723934,-0.3154807723723934,1.0013395324853747,0.001495648588912719
-0.31515166591707383,-0.31515166591707383,1.0002422262611916,0.0012667823081654514
-0.31467857735842697,-0.31467857735842697,0.9979425869344984,0.0013444420255294609
-0.31410438879102004,-0.31410438879102004,0.9999172287318979,0.0014362010122522385
-0.3130367234669393,-0.3130367234669393,0.9983990279217678,0.001585388358153515
-0.311918245513516,-0.311918245513516,0.9989688866746013,0.001709981321803179
