time,time,flux,flux_err
-0.4984435015012423,-0.4984435015012423,1.0000381238577756,8.148575215560249e-05
-0.49607110341942945,-0.49607110341942945,0.9999488547163172,8.16139199094605e-05
-0.4943423927088588,-0.4943423927088588,1.0000411562062914,8.223648970022003e-05
-0.49311245565186257,-0.49311245565186257,0.9999475963056315,7.416736516056534e-05
-0.4913151938213559,-0.4913151938213559,0.9999972094922919,7.429001398352822e-05
-0.48923358705797,-0.48923358705797,0.9999851537246002,7.468278353902347e-05
-0.48742276341872637,-0.48742276341872637,1.0000183316790765,7.415927754337861e-05
-0.48612065366542084,-0.48612065366542084,0.999966107869224,7.420346421513073e-05
-0.4850983643096697,-0.4850983643096697,1.0000160686821915,7.475875406397911e-05
-0.48375105402301416,-0.48375105402301416,0.9999106416559529,7.579466084223373e-05
-0.4819978590981918,-0.4819978590981918,1.0000042902310153,7.43554011870237e-05
-0.4795941398704599,-0.4795941398704599,1.0000518588247267,7.44707302643529e-05
-0.47769953546085164,-0.47769953546085164,1.0000685035588437,7.49950077323089e-05
-0.4767413237670553,-0.4767413237670553,0.9999037606445409,7.41647131752497e-05
-0.47595608827250546,-0.47595608827250546,1.000082886438648,7.422830499305072e-05
-0.47485777534675433,-0.47485777534675433,0.9999792799249458,7.527777022093886e-05
-0.4732675574974564,-0.4732675574974564,0.9999877019199481,7.425235079860904e-05
-0.4712547007082321,-0.4712547007082321,1.0000990126648857,7.444085636915159e-05
-0.4697409871223499,-0.4697409871223499,0.9999406592260278,7.420955749966852e-05
-0.46839897315367124,-0.46839897315367124,1.0000159369020263,7.466106161945743e-05
-0.46723188017494977,-0.46723188017494977,0.9999689691022079,7.55130481914017e-05
-0.465868660252454,-0.465868660252454,0.9998705293421322,7.415298334449507e-05
-0.46386481116132927,-0.46386481116132927,0.9999469893273216,7.444989269756416e-05
-0.4614334501922713,-0.4614334501922713,0.9999858074169209,7.471330162111865e-05
-0.46010079607731313,-0.46010079607731313,1.0000154463527011,7.416287724765108e-05
-0.4590313900276669,-0.4590313900276669,0.9999559351897173,7.420203300648434e-05
-0.4578844127507182,-0.4578844127507182,0.9999931319683123,7.487901318454932e-05
-0.455947599488718,-0.455947599488718,1.0000217665635172,7.418542695401256e-05
-0.45359561897494133,-0.45359561897494133,0.9999889371921571,7.445001420400423e-05
-0.45171313953978826,-0.45171313953978826,0.9999464071930424,7.52402066166922e-05
-0.4504561966903566,-0.4504561966903566,1.0001356485329516,7.435931046872523e-05
-0.44958487533585867,-0.44958487533585867,0.9999095845600822,7.416307619351524e-05
-0.44830081937689104,-0.44830081937689104,1.0000434355415084,7.534734293175242e-05
-0.4466850887300097,-0.4466850887300097,1.0001400333511248,7.42417168681513e-05
-0.44475867240325895,-0.44475867240325895,1.0000001328763448,7.450453370957266e-05
-0.44337028476875273,-0.44337028476875273,0.9999144810339281,7.414970773365732e-05
-0.4419244698343391,-0.4419244698343391,1.000058392994418,7.467166567146338e-05
-0.44048586984936267,-0.44048586984936267,0.999952766362647,7.576354256454532e-05
-0.43873379991418915,-0.43873379991418915,0.9999320967341057,7.43442996245299e-05
-0.4364286589661788,-0.4364286589661788,0.9999596858519219,7.442812851818202e-05
-0.43407524474532694,-0.43407524474532694,0.9998373308807738,7.473189441744026e-05
-0.4330416919561685,-0.4330416919561685,1.0000538470210016,7.412703878024142e-05
-0.43177387925898075,-0.43177387925898075,1.0002378189800345,7.508569984769528e-05
-0.43004142656573097,-0.43004142656573097,1.000227162644831,7.422327954614696e-05
-0.4276621838849678,-0.4276621838849678,0.9999925889985152,7.440789590018978e-05
-0.4254183292789094,-0.4254183292789094,1.0000993215653358,7.452287600749669e-05
-0.42404226949001894,-0.42404226949001894,0.9999967581854957,7.505069581408754e-05
-0.42331727499113186,-0.42331727499113186,1.000111212081303,7.441497819093152e-05
-0.4221404016643646,-0.4221404016643646,0.9999866174133197,7.412832522867997e-05
-0.4208432152910973,-0.4208432152910973,1.0000254058670175,7.546236661247737e-05
-0.41881111260008763,-0.41881111260008763,1.0000220661403727,7.465139565292628e-05
-0.41700288627907867,-0.41700288627907867,1.0001499242681957,7.416440356701663e-05
-0.41570835181701116,-0.41570835181701116,1.0000429363038366,7.419700798431557e-05
-0.4146901373649598,-0.4146901373649598,1.0000028178049765,7.469916357587349e-05
-0.4129711692519777,-0.4129711692519777,1.0000753943627614,7.419462801595559e-05
-0.410491440910846,-0.410491440910846,0.999963440284939,7.435918227871693e-05
-0.40834126822956024,-0.40834126822956024,0.9999392228551802,7.493645266762005e-05
-0.4067276716588822,-0.4067276716588822,0.9998800268981668,7.431947299263405e-05
-0.40565583243660513,-0.40565583243660513,0.9999744754271939,7.422971351116069e-05
-0.40425982943270355,-0.40425982943270355,1.0000543422171968,7.508354357498853e-05
-0.40216671856032915,-0.40216671856032915,0.9999910194124354,7.449205715840457e-05
-0.4001304245823121,-0.4001304245823121,0.999774498616779,7.417458520995692e-05
-0.3982135920588917,-0.3982135920588917,1.0001089951544677,7.453684633892698e-05
-0.3969230722213979,-0.3969230722213979,1.0000149059433532,7.524352518538572e-05
-0.39580160342884485,-0.39580160342884485,1.0000809903319978,7.416797994773294e-05
-0.39417203384800814,-0.39417203384800814,1.0000218901467985,7.563521410953214e-05
-0.39247367022762775,-0.39247367022762775,0.9999645205040283,7.426027697865828e-05
-0.3903045132909028,-0.3903045132909028,1.0001046436631698,7.457463769951717e-05
-0.3891045841097366,-0.3891045841097366,1.000052640028804,7.423390818801608e-05
-0.387995551165659,-0.387995551165659,0.9999712311179998,7.474617290383436e-05
-0.38668004849387216,-0.38668004849387216,1.0000069596343724,7.572728253167785e-05
-0.3851288580466644,-0.3851288580466644,0.9999743824329392,7.437359557252748e-05
-0.3827270105452044,-0.3827270105452044,0.9998073025346574,7.417660225565968e-05
-0.3806524003855884,-0.3806524003855884,1.0001115429838614,7.527338920654969e-05
-0.3794303212038358,-0.3794303212038358,1.0001476256442594,7.417244760627727e-05
-0.37845630725641966,-0.37845630725641966,0.9999334942092155,7.421827528829322e-05
-0.37731237182888433,-0.37731237182888433,1.0000607253678135,7.530160734101593e-05
-0.37587965061466094,-0.37587965061466094,1.0002093480889147,7.422661953729311e-05
-0.3739443146107078,-0.3739443146107078,0.9999723487053226,7.443591524851904e-05
-0.37242995819833596,-0.37242995819833596,1.0000257335501344,7.421003700731917e-05
-0.37082376209218637,-0.37082376209218637,1.0000482360636407,7.598742952861175e-05
-0.3697239351749886,-0.3697239351749886,0.9999800559747756,7.417763306934512e-05
-0.368553687921667,-0.368553687921667,1.0000403922926284,7.416330128877781e-05
-0.36695214093488177,-0.36695214093488177,1.000047481321277,7.434253211181555e-05
-0.36460530259646473,-0.36460530259646473,0.9999472308060424,7.46807513345822e-05
-0.3629930143200909,-0.3629930143200909,1.000101200945509,7.416305842339514e-05
-0.3619127110563568,-0.3619127110563568,1.0000260669968315,7.42225117419601e-05
-0.3607422900458914,-0.3607422900458914,0.9999630160092897,7.486924562812284e-05
-0.35863711863567005,-0.35863711863567005,1.0000295298128052,7.417941250550437e-05
-0.35657733023763283,-0.35657733023763283,1.0000746813568622,7.442140050008997e-05
-0.3549825316054921,-0.3549825316054921,0.999905788838819,7.460225067955628e-05
-0.3535176207711629,-0.3535176207711629,0.9998856939914347,7.491042279882842e-05
-0.35269328856593346,-0.35269328856593346,1.0001315489547529,7.439755859878634e-05
-0.35147733720223184,-0.35147733720223184,1.0000621891052721,7.422460800565343e-05
-0.35007989746009116,-0.35007989746009116,0.999929381207101,7.527769655938343e-05
-0.34826270016783384,-0.34826270016783384,1.0001877279578735,7.457552840740637e-05
-0.34658316809727696,-0.34658316809727696,1.0000377544501045,7.41526780324798e-05
-0.3451138903845276,-0.3451138903845276,0.9999274551072201,7.416258584214248e-05
-0.3438601664667658,-0.3438601664667658,0.9999354521793113,7.619043833383749e-05
-0.3421831843115797,-0.3421831843115797,1.000022927429515,7.417989595779756e-05
-0.34006602016888793,-0.34006602016888793,1.0000383868346845,7.436580936430855e-05
-0.33757583483020426,-0.33757583483020426,1.000106008080925,7.48350483648271e-05
-0.33608165123514483,-0.33608165123514483,1.0000362691168991,7.429615153205335e-05
-0.3350151783153706,-0.3350151783153706,0.9999910604899365,7.421988572349933e-05
-0.3334444683321635,-0.3334444683321635,0.9999697385703584,7.498789258968065e-05
-0.33134187420801026,-0.33134187420801026,0.9999000583286974,7.443963354216065e-05
-0.3289452804187022,-0.3289452804187022,0.9998406031667786,7.418892568556168e-05
-0.3272223062849662,-0.3272223062849662,1.0000159785223406,7.537825161656657e-05
-0.32625009237599445,-0.32625009237599445,0.9999159906138662,7.436806053381517e-05
-0.32538232111910476,-0.32538232111910476,0.9999763264508751,7.416986534151948e-05
-0.32409523213354985,-0.32409523213354985,0.9998323318866607,7.541758568110678e-05
-0.32248506918767816,-0.32248506918767816,1.0000387336253107,7.42468556650323e-05
-0.3201522987525095,-0.3201522987525095,1.000020294121869,7.453959347856773e-05
-0.3190066237009887,-0.3190066237009887,0.9999682464674471,7.417007323873676e-05
-0.31772622744538237,-0.31772622744538237,0.9998848472913602,7.472561373607388e-05
-0.31642484674666777,-0.31642484674666777,0.9999358459132137,7.417349781536418e-05
-0.31427101976878474,-0.31427101976878474,1.0000644431837733,7.43524354598323e-05
-0.311865064221638,-0.311865064221638,1.0000190593311684,7.442708997369662e-05
-0.3098705866956152,-0.3098705866956152,0.9999450661174887,7.482744968641746e-05
-0.30883484167788994,-0.30883484167788994,1.0000720171735749,7.413803883675487e-05
-0.3075688424818509,-0.3075688424818509,1.0002543569820115,7.518333261541824e-05
-0.30584108363254925,-0.30584108363254925,1.0000518240282652,7.422089665410045e-05
-0.3035202838378609,-0.3035202838378609,1.000061580821323,7.441532831155375e-05
-0.30160668354074005,-0.30160668354074005,1.000047867640341,7.456190333910256e-05
-0.3000620210375928,-0.3000620210375928,0.999963544265578,7.52104560908707e-05
-0.29898775951733114,-0.29898775951733114,0.9999420122427635,7.417233973726066e-05
-0.29750664903622237,-0.29750664903622237,1.0000440432224067,7.56205093747574e-05
-0.29594250253067,-0.29594250253067,1.0001127440826756,7.427121534817176e-05
-0.29372691265016326,-0.29372691265016326,1.0001045093400813,7.456804051177957e-05
-0.29233667304361005,-0.29233667304361005,1.0000481663496281,7.415858332274672e-05
-0.2910554500776925,-0.2910554500776925,0.9999730201178382,7.482934659254869e-05
-0.2900048793599126,-0.2900048793599126,1.0000481664515226,7.570400292734929e-05
-0.28858185123681324,-0.28858185123681324,0.9999751380517269,7.416517410121472e-05
-0.28629417486663444,-0.28629417486663444,1.0000335807235792,7.438028959328588e-05
-0.28413355860757294,-0.28413355860757294,0.9999161620862754,7.507982084987613e-05
-0.2825245219828503,-0.2825245219828503,1.000078948410032,7.434847335896582e-05
-0.28154636884864886,-0.28154636884864886,1.0000938752371493,7.412616991775383e-05
-0.2803194450265437,-0.2803194450265437,0.9999224555897964,7.525972350013912e-05
-0.2786445514931984,-0.2786445514931984,1.000113316904985,7.425162959207531e-05
-0.27663393058755903,-0.27663393058755903,1.0000233072283908,7.444450349105937e-05
-0.2751189316193631,-0.2751189316193631,1.0000203316961134,7.421033271474909e-05
-0.2735132152061851,-0.2735132152061851,0.9999901741735606,7.595356705220734e-05
-0.2724127783571021,-0.2724127783571021,1.0000275591422114,7.41731150255143e-05
-0.27087970306456555,-0.27087970306456555,0.9999435546053359,7.430518098910085e-05
-0.2688280662543548,-0.2688280662543548,1.0000712032842805,7.430012551231186e-05
-0.26636702796022294,-0.26636702796022294,1.0000951988834728,7.458945988740366e-05
-0.2653177250504086,-0.2653177250504086,1.0000532936170459,7.413651827944391e-05
-0.2641589900296822,-0.2641589900296822,1.0001087322401303,7.492617114215858e-05
-0.2629811666731257,-0.2629811666731257,1.0001017113170303,7.416015603223667e-05
-0.26092465232213724,-0.26092465232213724,1.0000712773211418,7.441123389161119e-05
-0.2585251657605113,-0.2585251657605113,0.9999679561024841,7.417382275787398e-05
-0.25675255948735864,-0.25675255948735864,1.0001155727749087,7.523340483024602e-05
-0.2557180409297871,-0.2557180409297871,0.9999897461816314,7.436289429643213e-05
-0.2548427399051434,-0.2548427399051434,0.9999282389635338,7.41591412758596e-05
-0.25367985245684394,-0.25367985245684394,1.0000743691910674,7.534311448734212e-05
-0.25238649330422047,-0.25238649330422047,0.9999713331772517,7.433203166895989e-05
-0.250566155758861,-0.250566155758861,1.000179918066714,7.45082645870285e-05
-0.2490176705097838,-0.2490176705097838,1.0000852130926041,7.414635348582076e-05
-0.24753833350841886,-0.24753833350841886,1.0001214055031975,7.46642216344791e-05
-0.2464180831608246,-0.2464180831608246,0.9999794262610342,7.582929858954149e-05
-0.24487226292185368,-0.24487226292185368,1.0002038491616805,7.418181840016352e-05
-0.24318720508308617,-0.24318720508308617,0.9999767912733187,7.434362301599204e-05
-0.24069784835519387,-0.24069784835519387,1.0001638891470748,7.486103194749105e-05
-0.23899867039435777,-0.23899867039435777,1.0001143400475978,7.429642431528504e-05
-0.2379318882500229,-0.2379318882500229,1.0000840608203554,7.422826148870667e-05
-0.2365354637193377,-0.2365354637193377,0.9998939800190216,7.495496465283713e-05
-0.23443371918692718,-0.23443371918692718,1.0000780869529993,7.447090085111981e-05
-0.23208580025093398,-0.23208580025093398,1.0000408233950586,7.419390050117386e-05
-0.2301958470416139,-0.2301958470416139,0.9999892779032569,7.534663898472981e-05
-0.22908879533060827,-0.22908879533060827,1.0000482225530622,7.438646130779156e-05
-0.22828959942853544,-0.22828959942853544,1.000128387293063,7.415754502200709e-05
-0.22703776419148197,-0.22703776419148197,1.000110181194469,7.540938565296892e-05
-0.22551845104899257,-0.22551845104899257,1.0000359652433077,7.425414985329591e-05
-0.223311888473836,-0.223311888473836,0.9999724475873988,7.453871530974283e-05
-0.22191968554252525,-0.22191968554252525,0.9999491691971751,7.415238217822151e-05
-0.22064166804921115,-0.22064166804921115,1.0001046334902037,7.47534007830792e-05
-0.2194596472843841,-0.2194596472843841,0.9999665269161279,7.41438486772079e-05
-0.21759183305766783,-0.21759183305766783,1.0000636532839144,7.416484050559998e-05
-0.2154303930597962,-0.2154303930597962,1.0000262089527907,7.438889388563898e-05
-0.21335694599110866,-0.21335694599110866,0.9999584151783439,7.4885635450767e-05
-0.21187856576871128,-0.21187856576871128,1.0001651241759373,7.430648050063562e-05
-0.21080755622679134,-0.21080755622679134,1.0000397632080198,7.423505118068215e-05
-0.20924170818761922,-0.20924170818761922,0.9999353895452249,7.508060993226242e-05
-0.20713789557194104,-0.20713789557194104,1.0000311598029956,7.44677203770051e-05
-0.2050742101171636,-0.2050742101171636,1.0001467951346659,7.42297880157396e-05
-0.20329938131108066,-0.20329938131108066,1.0000059516791215,7.552940858879047e-05
-0.20212240457476582,-0.20212240457476582,1.000067487709133,7.415563361210358e-05
-0.20082865647273138,-0.20082865647273138,0.999949690646487,7.415872347809409e-05
-0.19933129896016907,-0.19933129896016907,1.0001199050357092,7.561441616858779e-05
-0.19730017088513704,-0.19730017088513704,1.0000633883259868,7.467151653612906e-05
-0.1954900540637027,-0.1954900540637027,0.9999646823200061,7.416081396021044e-05
-0.19419000223278998,-0.19419000223278998,1.0000525712612087,7.420150688789655e-05
-0.1931688285614655,-0.1931688285614655,1.00017467026426,7.473874078601684e-05
-0.19181765142129734,-0.19181765142129734,0.9998083195973759,7.573131277572303e-05
-0.19006677778161246,-0.19006677778161246,0.9999556975803762,7.434080519006445e-05
-0.18766185686108655,-0.18766185686108655,1.0000837134275957,7.445036473466919e-05
-0.18566601895508938,-0.18566601895508938,0.9999552835397905,7.496555474781938e-05
-0.18462813234800707,-0.18462813234800707,1.000093596333676,7.41508957167004e-05
-0.18359604814177147,-0.18359604814177147,0.9999729227424752,7.525185010277388e-05
-0.1819821255405259,-0.1819821255405259,0.99995097579798,7.42314037262451e-05
-0.1801512341546186,-0.1801512341546186,0.9999596732248455,7.443640780875298e-05
-0.1785097164553008,-0.1785097164553008,0.9999235910558728,7.417831409427268e-05
-0.17669673345517367,-0.17669673345517367,1.0000791300466148,7.46935944258125e-05
-0.175547492242913,-0.175547492242913,1.000046519518295,7.543295824006728e-05
-0.17428847444825807,-0.17428847444825807,1.0001212581551289,7.417318544470131e-05
-0.1723293805407593,-0.1723293805407593,1.0001383846040377,7.434463562246451e-05
-0.16998383348982316,-0.16998383348982316,0.9999723757382639,7.468045826495109e-05
-0.1683358093323477,-0.1683358093323477,1.0000692238633975,7.414594063451478e-05
-0.16710110661952057,-0.16710110661952057,0.9999983398297608,7.42393130070387e-05
-0.16601526276499498,-0.16601526276499498,0.9999983468808692,7.483732281495077e-05
-0.1642685547740257,-0.1642685547740257,0.9999085930231937,7.416699551470188e-05
-0.16209701243933522,-0.16209701243933522,1.0001247253284407,7.44148579051927e-05
-0.16008673007963808,-0.16008673007963808,1.0001154320298482,7.445924661079144e-05
-0.15867365285012056,-0.15867365285012056,0.9999831579097977,7.512322265808428e-05
-0.1579183798203303,-0.1579183798203303,1.000025116532295,7.416852238403032e-05
-0.15685669080048684,-0.15685669080048684,0.9999019490298584,7.421327144283918e-05
-0.1554582165023021,-0.1554582165023021,0.9999831454871572,7.526822523550265e-05
-0.15364067886039265,-0.15364067886039265,1.0000759929971181,7.45568087736214e-05
-0.15196141823689685,-0.15196141823689685,0.9999337983582931,7.415727306862468e-05
-0.15049411148793296,-0.15049411148793296,1.0000157348479104,7.416849542138999e-05
-0.14930818600259954,-0.14930818600259954,0.9999546966482544,7.624029293706581e-05
-0.1479289515860728,-0.1479289515860728,1.000101744954222,7.41749515142722e-05
-0.1459829635641654,-0.1459829635641654,1.0002897533061414,7.436263220450727e-05
-0.14338712085227598,-0.14338712085227598,0.9999689451336102,7.485126933474143e-05
-0.14168792696727905,-0.14168792696727905,0.9999976792200445,7.429579825110552e-05
-0.14062157183070667,-0.14062157183070667,0.9999400388099982,7.42286167918975e-05
-0.13922511049895547,-0.13922511049895547,0.9999940133819152,7.494322114232741e-05
-0.13712264406713076,-0.13712264406713076,1.000045844423172,7.446837646120395e-05
-0.13499792047223308,-0.13499792047223308,0.9999491711968196,7.416997622224971e-05
-0.13318524794085534,-0.13318524794085534,1.000015791598646,7.44746540222356e-05
-0.13191828318304033,-0.13191828318304033,1.0000436976098244,7.503345971535726e-05
-0.13118217118972098,-0.13118217118972098,0.9999330430096187,7.439873202971647e-05
-0.12995998779952062,-0.12995998779952062,0.9999782198491726,7.422384249448794e-05
-0.12856667843225295,-0.12856667843225295,1.0001589960550132,7.532533471875037e-05
-0.1264586735764169,-0.1264586735764169,1.000024054720836,7.461521720499927e-05
-0.12481291493168101,-0.12481291493168101,0.9999210616457914,7.413009490782521e-05
-0.12333133044230635,-0.12333133044230635,1.0000380720059434,7.473717892374397e-05
-0.1221491184507613,-0.1221491184507613,1.0000969666372017,7.41503041264151e-05
-0.1202813117466576,-0.1202813117466576,0.9999662219642935,7.416344184515473e-05
-0.11811887661242508,-0.11811887661242508,0.9999961944573637,7.438457266240538e-05
-0.11592768101254478,-0.11592768101254478,1.0000217006064525,7.489772066463815e-05
-0.11456779258733149,-0.11456779258733149,0.9999856468068682,7.43066498310676e-05
-0.1134972841857234,-0.1134972841857234,1.000055777125561,7.42313564017806e-05
-0.11193089824882918,-0.11193089824882918,1.0000822980345825,7.507841236069685e-05
