time,time,flux,flux_err
-0.49995948143805435,-0.49995948143805435,0.9999502800521687,0.00013074089893327722
-0.49989065667493077,-0.49989065667493077,0.9999127306000859,0.00013389871735117355
-0.4997342115493666,-0.4997342115493666,1.0001574088709304,0.0001145333496279216
-0.4995261282048887,-0.4995261282048887,1.0000686243680517,0.00011423596376815668
-0.49933111779391764,-0.49933111779391764,0.9999400679142465,0.00012198389658567566
-0.49919643181347056,-0.49919643181347056,0.9999546666985328,0.00011506604518458344
-0.49908847810220325,-0.49908847810220325,1.000062179609539,0.00011399013119715673
-0.4989368939939595,-0.4989368939939595,0.9999458018806772,0.0001164395237467816
-0.49880188410679693,-0.49880188410679693,1.000029723663517,0.00011541113889930454
-0.49861995006285725,-0.49861995006285725,1.0000293781755631,0.00012113556495086799
-0.4985188364124042,-0.4985188364124042,0.9999310182242098,0.00011796806180541463
-0.49844548302426117,-0.49844548302426117,0.9999608969682253,0.0001192746781277782
-0.4983070957379823,-0.4983070957379823,0.999964796570338,0.00011439985234709502
-0.498156377550913,-0.498156377550913,1.0000813588676283,0.00011180140990073798
-0.4979771874975995,-0.4979771874975995,0.9999227843852267,0.00012061644554090187
-0.4978077467014373,-0.4978077467014373,1.000030712906268,0.00011695771061929266
-0.4976936586703232,-0.4976936586703232,1.000066179283512,0.00011847447076518834
-0.49758190751308573,-0.49758190751308573,0.9998221195654257,0.00011558095113184465
-0.4975081887554552,-0.4975081887554552,1.0000453313037754,0.00011863175477350412
-0.49732080736357603,-0.49732080736357603,0.9999847787955073,0.00011357876684861944
-0.49717608110368017,-0.49717608110368017,0.9999900205818613,0.00011515570490134937
-0.4970482629731123,-0.4970482629731123,1.0000182888238105,0.00012339472743349913
-0.49695910025184276,-0.49695910025184276,1.0000303281561471,0.00011140712338648752
-0.4969024503530818,-0.4969024503530818,0.9998813048666145,0.00012764594414593888
-0.4968262296242756,-0.4968262296242756,1.000091597686693,0.00011414284352531917
-0.4967100906018459,-0.4967100906018459,0.9999567133902904,0.00011572236521398963
-0.4965156299105729,-0.4965156299105729,0.9997549724918452,0.00011276054460277367
-0.4963730199684505,-0.4963730199684505,0.999873310657186,0.00012685605039437298
-0.49625819867651444,-0.49625819867651444,0.9999319274131109,0.00011595552451055757
-0.49609591464541153,-0.49609591464541153,1.0001514660006543,0.00011502751859894464
-0.4959279625240015,-0.4959279625240015,0.9999075290128948,0.00011500302265518381
-0.4957203823432792,-0.4957203823432792,1.0001030378797726,0.00011611913950789106
-0.4955531109932053,-0.4955531109932053,0.9999834799705685,0.00012566287679882746
-0.49547205669150574,-0.49547205669150574,0.9998995121299439,0.00011796997790948852
-0.49535323486707056,-0.49535323486707056,0.9999730898885073,0.000114295427783988
-0.4951800417424238,-0.4951800417424238,0.9998277850039899,0.00011204937805927057
-0.49511744496412574,-0.49511744496412574,1.0000138349895276,0.00011380657662251451
-0.49497338676519576,-0.49497338676519576,1.0002103505383408,0.00012362840377491772
-0.49480854039356925,-0.49480854039356925,1.0002473982059867,0.00012045816085377993
-0.49470072871554294,-0.49470072871554294,1.0001261408393662,0.00011772277678490492
-0.49460163782496236,-0.49460163782496236,0.9999151058417735,0.00012359277763953253
-0.4944351525329694,-0.4944351525329694,1.000026959055588,0.0001116709097746308
-0.49430812135178714,-0.49430812135178714,0.9999366749642284,0.00011533467819331682
-0.49425076385523425,-0.49425076385523425,1.000039159848636,0.00012465037326364655
-0.49415896361606426,-0.49415896361606426,0.9998836605994074,0.00011622017470292682
-0.49400484012730883,-0.49400484012730883,0.9999373093996932,0.00012338905620428234
-0.493887819624797,-0.493887819624797,0.999956628169193,0.00012816100774682123
-0.49370362272966306,-0.49370362272966306,0.9999009921218258,0.00011437637957240015
-0.4935747394367354,-0.4935747394367354,1.0000536042070116,0.00011450687745733846
-0.49340688684314954,-0.49340688684314954,1.0001508570596902,0.00012579453220037164
-0.4933296364659327,-0.4933296364659327,1.0000280017867094,0.00011567921414122831
-0.49320672992253095,-0.49320672992253095,1.0001631589737927,0.00011325448372637818
-0.4931082025155774,-0.4931082025155774,1.0002139371089025,0.00011334955618464264
-0.4929671113008226,-0.4929671113008226,0.9999134543414889,0.00011353207564191014
-0.4928114674738026,-0.4928114674738026,0.999984207246644,0.0001130719014785241
-0.49260896338164456,-0.49260896338164456,1.0001973392116204,0.0001241529027339032
-0.492501151876786,-0.492501151876786,1.0000144321043622,0.00012584007751370867
-0.4924552660289919,-0.4924552660289919,1.0000377974198593,0.00011376344457297812
-0.4923108324350324,-0.4923108324350324,1.000197367233866,0.00011319991983929279
-0.4921590883073804,-0.4921590883073804,1.000006464336092,0.00011272424081466164
-0.49208155404630816,-0.49208155404630816,0.9999922809939275,0.00011415441971896957
-0.49197595249206644,-0.49197595249206644,1.000024080150681,0.00012153580747030883
-0.491834510476474,-0.491834510476474,0.9999351079805727,0.00011674179283464653
-0.49173868267025683,-0.49173868267025683,0.9999202105554492,0.00011685481471988046
-0.4916321168100694,-0.4916321168100694,1.0000400708808928,0.00012380549989098166
-0.49155264270521004,-0.49155264270521004,1.0001314663989689,0.00011436938257837175
-0.49140713254746515,-0.49140713254746515,0.9998999805588504,0.00012315196102556439
-0.4913144866230141,-0.4913144866230141,0.9998668354569314,0.0001189189138110945
-0.49122754670825086,-0.49122754670825086,1.0000040252983806,0.00012027766436905074
-0.49101511531262076,-0.49101511531262076,0.9998062827852978,0.0001199599191694895
-0.49085668325569715,-0.49085668325569715,1.0000936465971488,0.00012772024851531667
-0.4907116536742251,-0.4907116536742251,1.0000045113882865,0.00011533071206669102
-0.49050152591080404,-0.49050152591080404,1.000071314426901,0.00011381014370181006
-0.4904010946127528,-0.4904010946127528,1.0000605041386819,0.00012832178524049058
-0.49033870914718136,-0.49033870914718136,1.0000930748997845,0.00011158400575646901
-0.4902473354639369,-0.4902473354639369,1.0000723102405285,0.00012356060286929888
-0.49007341826800255,-0.49007341826800255,1.000187721094609,0.00011295168864517311
-0.4898756702481478,-0.4898756702481478,0.9999242626086542,0.00011392652975556776
-0.48968139246862846,-0.48968139246862846,0.9999412570141004,0.0001243740959567464
-0.48955525336496064,-0.48955525336496064,0.9999946124347294,0.00012769676524209593
-0.489473581303173,-0.489473581303173,0.9997812730042981,0.00011959472394792085
-0.4893792785667756,-0.4893792785667756,0.99983257524469,0.00011471890019159608
-0.4892207954384503,-0.4892207954384503,1.0000214633768048,0.00011645890367993721
-0.48909884319873526,-0.48909884319873526,1.0001463271058324,0.00011394213133500437
-0.4889398705585336,-0.4889398705585336,1.0001808137483592,0.00011589442589318371
-0.4888364369115152,-0.4888364369115152,0.9999808296031818,0.00012357510994267178
-0.48871172791332357,-0.48871172791332357,1.000084358059506,0.0001216103005370444
-0.4886071597094997,-0.4886071597094997,1.0000338622548715,0.00011336910996225899
-0.48853982348009595,-0.48853982348009595,1.0000863687350883,0.00011536711889278563
-0.4884533754266158,-0.4884533754266158,1.00006092130111,0.00011474774195350183
-0.48840953956969313,-0.48840953956969313,0.999963506156669,0.00011937924551572802
-0.48834073530888417,-0.48834073530888417,1.0001071330595237,0.00011432033859956705
-0.4882405990407278,-0.4882405990407278,0.9999994628545708,0.00012276170962902404
-0.4880501932755578,-0.4880501932755578,1.000067397132158,0.00012099725962747953
-0.4879060557788762,-0.4879060557788762,1.0002109331038211,0.00011434889973329326
-0.48780359619195224,-0.48780359619195224,0.9999559388590716,0.0001223436961275986
-0.4876529313492938,-0.4876529313492938,0.9998075097394279,0.0001123885976890952
-0.48747527825762516,-0.48747527825762516,0.9999392197101518,0.00012124603731153948
-0.48740164968403404,-0.48740164968403404,1.0000161765842135,0.00011504280264723385
-0.4872686167895154,-0.4872686167895154,1.0000599391238438,0.00011950520465215135
-0.48711683980873205,-0.48711683980873205,0.9999981778199138,0.00012107052072039962
-0.4870326102456602,-0.4870326102456602,1.0002399288216033,0.00011028324708858673
-0.48686245655844684,-0.48686245655844684,1.000004199094264,0.00011747081239361746
-0.4867221115469874,-0.4867221115469874,1.0000735177707747,0.00013268033529855347
-0.4866411927425361,-0.4866411927425361,1.0000782352349176,0.00011809762409087604
-0.48647963713374337,-0.48647963713374337,0.9998679634326095,0.00012826142979287876
-0.4863811383896973,-0.4863811383896973,1.0000051561407008,0.00011347689753748842
-0.4862473732100625,-0.4862473732100625,1.0001457102853732,0.00011321960515693597
-0.48605694436919294,-0.48605694436919294,0.9999187849889681,0.0001159681983430468
-0.48597413819006763,-0.48597413819006763,0.9998154960637452,0.00011438994087135455
-0.4858811742677062,-0.4858811742677062,0.9999012176535016,0.00012102510044014471
-0.4858043513704615,-0.4858043513704615,0.9999522564909304,0.00011697316192914858
-0.48567186680884333,-0.48567186680884333,0.9999490645283698,0.00011869724507204578
-0.4855601274284709,-0.4855601274284709,1.0001222733208577,0.00011767857802485806
-0.4854631114081712,-0.4854631114081712,0.9998927260655515,0.00011586400781013939
-0.4852902145015833,-0.4852902145015833,0.9999060031149092,0.0001224657881202954
-0.4851235426722269,-0.4851235426722269,0.9999751697094034,0.00011430104636245832
-0.48501711502758554,-0.48501711502758554,0.9999205487229439,0.00012191417415428293
-0.4848852225535666,-0.4848852225535666,1.0000536298922105,0.00012440646419474387
-0.4846921063872287,-0.4846921063872287,0.9998143146143958,0.00011437067870949376
-0.4845417497388553,-0.4845417497388553,0.999995844105538,0.00011505486506341515
-0.48441581192746525,-0.48441581192746525,1.000138710658266,0.00011944309753173215
-0.4842654609048623,-0.4842654609048623,0.9999572692877974,0.00012033998109535204
-0.48413218487839915,-0.48413218487839915,0.999860527200827,0.00011156630439978345
-0.4840556662551535,-0.4840556662551535,0.9998462663275894,0.00012028078379736044
-0.4839576234138804,-0.4839576234138804,0.9999889129125045,0.00011630664329778178
-0.48379314125486417,-0.48379314125486417,1.0000114514192286,0.00011382884600249678
-0.4836224534759822,-0.4836224534759822,0.9998249158168591,0.00011544594062733265
-0.4834832281740091,-0.4834832281740091,0.9999234236992448,0.0001256317038646326
-0.4833889038527559,-0.4833889038527559,0.9999211166404238,0.00011433890243546479
-0.48325916466565105,-0.48325916466565105,1.0000401857164152,0.00011457980116134697
-0.4831704197997169,-0.4831704197997169,0.9999088127239624,0.00011591985911456647
-0.4830450902001758,-0.4830450902001758,0.9999641965339443,0.00011795274761814439
-0.4829328556064866,-0.4829328556064866,0.9999379633702776,0.0001137929771202653
-0.48283255881542575,-0.48283255881542575,0.9997916350536034,0.00012124886007700375
-0.4826482682110509,-0.4826482682110509,1.0000321090163389,0.00011554540304588468
-0.4825765590234369,-0.4825765590234369,1.0000302888381936,0.00011745615835935866
-0.4824383877101354,-0.4824383877101354,0.9998773570955605,0.00011036570589227422
-0.4822650195688766,-0.4822650195688766,1.0001435116459785,0.00011558744689735693
-0.48217596375689026,-0.48217596375689026,0.9999407220808051,0.00012112557499547126
-0.48205554590094835,-0.48205554590094835,1.0001697446940598,0.00012136044019005365
-0.48196248690073845,-0.48196248690073845,1.0000630793613867,0.0001215596289219998
-0.481815471862501,-0.481815471862501,1.0000767272372042,0.00012011355971685042
-0.48167509566701483,-0.48167509566701483,1.0000680574635996,0.00011272952346255507
-0.4816173228326079,-0.4816173228326079,0.9998904746066515,0.00011365698243564954
-0.48148534467982246,-0.48148534467982246,0.999998958760923,0.0001209379304178336
-0.48134911127781377,-0.48134911127781377,0.9999252461465401,0.00011555062912945544
-0.4811852710940002,-0.4811852710940002,0.9999684361127417,0.00012966210185999687
-0.48103717536723706,-0.48103717536723706,0.9999581975581844,0.00011353239544504747
-0.48080813255146493,-0.48080813255146493,1.0000830958452087,0.00011633865846371531
-0.48060200667532627,-0.48060200667532627,0.9998723872778136,0.0001276290182344949
-0.4804907935540541,-0.4804907935540541,1.0001610037038464,0.00012347229288671758
-0.48041717892774616,-0.48041717892774616,1.0000326886874729,0.0001208229057872165
-0.4803153528366238,-0.4803153528366238,0.9998570087118349,0.00011722976850006004
-0.4802413687488297,-0.4802413687488297,1.0000615607674874,0.00011369013878347877
-0.48011548845679497,-0.48011548845679497,1.0001473697579726,0.00011507212097413528
-0.4800224843922479,-0.4800224843922479,0.9998848346818902,0.00011378749686447354
-0.4799327805994835,-0.4799327805994835,0.9998481266102021,0.00012100220858508642
-0.4797153842919215,-0.4797153842919215,1.0000826625352803,0.00011659820489893645
-0.47961902470924545,-0.47961902470924545,1.0001431769349076,0.00011443805640502505
-0.4794298874316155,-0.4794298874316155,1.0000731810034775,0.00011225006842279295
-0.4793374469911214,-0.4793374469911214,1.0000770788270712,0.00011477267914576819
-0.4791852412010485,-0.4791852412010485,1.0000471209678623,0.0001185135352321786
-0.4790429029344523,-0.4790429029344523,0.9999001552790304,0.00011931573820257477
-0.47900033141268067,-0.47900033141268067,0.9999137336107001,0.00011752100110013718
-0.4788819854715257,-0.4788819854715257,1.0001508105044856,0.00011526043845734175
-0.4787652842445823,-0.4787652842445823,1.0000828090138072,0.00011306777485078127
-0.47865886678846437,-0.47865886678846437,1.0000343202018183,0.00011029025299760822
-0.4785833008994814,-0.4785833008994814,1.0001303399240484,0.00011532919401463534
-0.4784121260054235,-0.4784121260054235,0.9999105267689806,0.00011973869385723359
-0.4782353387519834,-0.4782353387519834,0.9999651753635359,0.00012306098638896828
-0.47807187513681126,-0.47807187513681126,1.0001209458721725,0.00011650191056473127
-0.47798822492986803,-0.47798822492986803,1.0000262974648568,0.00012047320616057522
-0.4778272718540393,-0.4778272718540393,1.0001079128370987,0.00011352363979914798
-0.4776664487668313,-0.4776664487668313,0.9999877350981577,0.00011315860839251931
-0.47755547757187744,-0.47755547757187744,1.0000065908920097,0.00012108863335666565
-0.47746206988522316,-0.47746206988522316,0.9999115951744033,0.00012081633213576357
-0.47740274882817174,-0.47740274882817174,0.9999862735948349,0.0001213367208264038
-0.4772411377431126,-0.4772411377431126,1.0000561771995098,0.00011472274602728235
-0.4771019724379585,-0.4771019724379585,0.9999199728732506,0.00011663753622961239
-0.4769571014410758,-0.4769571014410758,1.000112539817022,0.00012224156793197685
-0.4768401248693408,-0.4768401248693408,1.0000137677476995,0.00012174402433134917
-0.4766829710737511,-0.4766829710737511,1.0000996511142586,0.00011455603376314506
-0.4765880494291196,-0.4765880494291196,1.0000430041070372,0.00011265233699101927
-0.4764711884839926,-0.4764711884839926,1.000307302881509,0.00011795123256918339
-0.47629381591323183,-0.47629381591323183,1.0001346753265272,0.0001125811861563627
-0.47615449938894017,-0.47615449938894017,0.999960385999772,0.00011773249208723003
-0.47604145157602035,-0.47604145157602035,0.999955384545717,0.00012642315749744333
-0.4759648933955759,-0.4759648933955759,1.0000221235187547,0.00011127265600329051
-0.47585861990446576,-0.47585861990446576,1.0000482530938744,0.0001153575072911262
-0.47558501289313426,-0.47558501289313426,1.0002038003738214,0.00012011334507588815
-0.4754354183896794,-0.4754354183896794,1.0000928065154704,0.00011675561542959638
-0.47533592019753995,-0.47533592019753995,0.999987756780993,0.00011488460917100023
-0.475195586164773,-0.475195586164773,0.9998474190656917,0.00012049137659057415
-0.47509936030619426,-0.47509936030619426,0.9999843709815004,0.00011638008130157307
-0.47500793137733127,-0.47500793137733127,0.9999395101776665,0.00011608155830932865
-0.47481482199291347,-0.47481482199291347,1.0000626570009055,0.00011268260159212884
-0.47474180373174024,-0.47474180373174024,0.9999669476258669,0.00011326230318344732
-0.47466401207857417,-0.47466401207857417,1.0000069595614343,0.00011685827522265964
-0.4745547349797562,-0.4745547349797562,1.0003015200488072,0.00012271624114001676
-0.47443794034115855,-0.47443794034115855,1.0002254804600512,0.00012475294252058626
-0.4743684851542639,-0.4743684851542639,1.0000346309066876,0.00011831701108486539
-0.47423672931618055,-0.47423672931618055,1.0001696012898482,0.00011254373083021583
-0.47403150821919554,-0.47403150821919554,0.9997636053318268,0.0001147149898894058
-0.47386746183547074,-0.47386746183547074,1.000118982789985,0.0001274297456692059
-0.47378417557629293,-0.47378417557629293,0.9999576899338984,0.00011337530149049917
-0.47365439946879634,-0.47365439946879634,1.0000359040841311,0.00011543901965625025
-0.4735338807986409,-0.4735338807986409,0.9999592151887805,0.00011843522443837266
-0.47335461142574786,-0.47335461142574786,0.9999357467734246,0.0001132912503647229
-0.4731220779882278,-0.4731220779882278,0.9999535151750297,0.0001202931014058995
-0.47302324210540975,-0.47302324210540975,1.0000186579050843,0.00012577160184937592
-0.47292744700243927,-0.47292744700243927,1.0000599194512743,0.00011335700559410205
-0.47272403578899685,-0.47272403578899685,0.9999738142093093,0.00011181732745326599
-0.47261746147996747,-0.47261746147996747,0.9998843001004261,0.00011769449484673466
-0.47253411053607125,-0.47253411053607125,1.0001082135270396,0.00011828534735730729
-0.4724195360991871,-0.4724195360991871,1.000194019688304,0.00012553044649265857
-0.4723100977309514,-0.4723100977309514,0.9999664974873774,0.00011157456440740998
-0.472223932518682,-0.472223932518682,1.000226506199088,0.0001229093022830659
-0.472103602734569,-0.472103602734569,1.0000600403949043,0.00011865157701005544
-0.4719442648536642,-0.4719442648536642,0.9999127470110715,0.00011634666233629974
-0.4718414597322408,-0.4718414597322408,0.9999996354705818,0.000116184051965475
-0.47175629255070817,-0.47175629255070817,1.0001257302320312,0.0001230671751817528
-0.47161469014681645,-0.47161469014681645,0.9999105090730452,0.0001212260764401238
-0.47146266115450997,-0.47146266115450997,1.0000039619799255,0.00012215413999945102
-0.4713584312274179,-0.4713584312274179,0.9999931172749579,0.00011935567594058502
-0.47125045029533796,-0.47125045029533796,1.000086711699347,0.00011501634578675601
-0.4710919628596457,-0.4710919628596457,0.9998991938803765,0.00011519327829113885
-0.47091414674941917,-0.47091414674941917,1.0000651295667395,0.00012172855292160924
-0.4708680651849136,-0.4708680651849136,0.9999882432755328,0.00012100262619235496
-0.470790094894619,-0.470790094894619,1.0000373464227263,0.00011422367357307314
-0.4706128393474501,-0.4706128393474501,1.000142709518592,0.00011539159494991993
-0.4704557555509382,-0.4704557555509382,1.000035998138714,0.00011309120046567095
-0.47028897728014274,-0.47028897728014274,1.0000197102063133,0.00011492556244788516
-0.47010719480749685,-0.47010719480749685,1.000038877082877,0.0001218007230650694
-0.4700077256944496,-0.4700077256944496,1.0000328903143398,0.00012809620318955233
-0.4699428687796171,-0.4699428687796171,0.9998198200205947,0.00011134485520733805
-0.46979677393173913,-0.46979677393173913,0.999912600582739,0.00011317326047886364
-0.4696693884732667,-0.4696693884732667,0.9998680315423435,0.00011468862710866724
-0.4695970723623759,-0.4695970723623759,0.9999399356822114,0.00011285011375099265
-0.4694809285952942,-0.4694809285952942,1.0000034338571298,0.00011638719695289029
-0.4693855040059134,-0.4693855040059134,0.9998516215718223,0.00012255209016805773
-0.4692674784513656,-0.4692674784513656,0.9997875408546679,0.0001162589419876307
