time,time,flux,flux_err
-0.49991727199327823,-0.49991727199327823,0.9999508414804028,0.00037525759862833255
-0.4997244150163169,-0.4997244150163169,0.9998833841138005,0.0004398856236852456
-0.49959588508378755,-0.49959588508378755,1.0000815877560076,0.0004199030827600943
-0.4994253865279461,-0.4994253865279461,1.0001288365438628,0.0003610160016386804
-0.49925766407541233,-0.49925766407541233,1.0002544788331758,0.0003854765980817301
-0.49908954778147746,-0.49908954778147746,0.9997982029192058,0.0003728605015232055
-0.49888960746029626,-0.49888960746029626,1.000502207445568,0.0003621338014921466
-0.49869883297214984,-0.49869883297214984,1.0000283939378303,0.00036929174444768443
-0.4984481795414467,-0.4984481795414467,0.9996742222152477,0.00034479802012752573
-0.49825920392395345,-0.49825920392395345,0.99992570407376,0.0003156539756616644
-0.498136027991859,-0.498136027991859,0.9998576522687849,0.00038210171897193974
-0.4980417604441755,-0.4980417604441755,1.0000378181859393,0.00035005276416554654
-0.497887799522141,-0.497887799522141,1.0000589784101672,0.0002955566680995022
-0.49775706022628585,-0.49775706022628585,1.0003020203996094,0.00031273989841594686
-0.49755002713063734,-0.49755002713063734,0.9997547570014301,0.00030461458719334563
-0.4974217607101309,-0.4974217607101309,0.9999129667092893,0.00027012355064488694
-0.4973354651738191,-0.4973354651738191,0.9995101904161432,0.0003433759489137191
-0.49721820271224715,-0.49721820271224715,0.9998283174068536,0.00036173284944976826
-0.49710406813610464,-0.49710406813610464,1.000238215879198,0.0003148390928311169
-0.4970360096092918,-0.4970360096092918,1.0004280138184498,0.000252514992948654
-0.4968710407054459,-0.4968710407054459,1.0002137379615843,0.00030795782585432436
-0.49671820151415885,-0.49671820151415885,1.000255187240656,0.00025652949998209525
-0.4966295878039091,-0.4966295878039091,1.0003293796250647,0.0003180799531984102
-0.496391203301755,-0.496391203301755,0.9999606612758033,0.0003004573970053651
-0.49620401543943443,-0.49620401543943443,0.9996328156359814,0.000330168881783666
-0.49604393308909495,-0.49604393308909495,1.0002552397353297,0.00033492019060010384
-0.4959032477752771,-0.4959032477752771,1.0002095934910264,0.000350211010637946
-0.4956914902140852,-0.4956914902140852,0.9998778292752906,0.00030678194070546557
-0.49556868228755774,-0.49556868228755774,1.000120297100435,0.0002975097536889423
-0.495357063710253,-0.495357063710253,0.9998321515168558,0.00035436097169463666
-0.4952279978453589,-0.4952279978453589,1.0001637140802981,0.0002944262009724746
-0.4951306913033477,-0.4951306913033477,0.9998013130372042,0.00035312263777723276
-0.4949081533770368,-0.4949081533770368,0.9999073974640634,0.0003201192340787588
-0.49483332696108845,-0.49483332696108845,0.9999934333425209,0.0002840093433903675
-0.49476349019969346,-0.49476349019969346,1.0002829866334915,0.00036712913609259396
-0.4945219513210759,-0.4945219513210759,1.0002611808036703,0.00034630832751480627
-0.4944122020591749,-0.4944122020591749,1.0001797362605274,0.00029168378278991274
-0.4943026531305804,-0.4943026531305804,1.0001001372398124,0.0003674537073062239
-0.49420831420648026,-0.49420831420648026,1.0000480073743805,0.00030797560945907245
-0.4940668641065713,-0.4940668641065713,1.0002416824101723,0.0002958640946600904
-0.49391846972939674,-0.49391846972939674,0.9998276420152404,0.00046329088816428923
-0.49380398638531914,-0.49380398638531914,1.0002377745222386,0.00036300397572943045
-0.49372237483185016,-0.49372237483185016,1.0000878261278447,0.00032678341924968817
-0.49355068295626553,-0.49355068295626553,0.999972439111396,0.00036910583785831923
-0.4933801767743716,-0.4933801767743716,1.0000994136021557,0.0002889376833501381
-0.49314565804743327,-0.49314565804743327,1.0000413755027326,0.0002979869100074513
-0.4931013346576947,-0.4931013346576947,1.0000226327722657,0.00034209593123614966
-0.49291380435970494,-0.49291380435970494,0.9998549316259477,0.00026411838676945385
-0.49278191274788696,-0.49278191274788696,0.9995498355459527,0.00031066890158090493
-0.4925992292090086,-0.4925992292090086,0.9996724832632683,0.0003246345436624358
-0.49246852838768973,-0.49246852838768973,1.0000223080857435,0.0002784143649998714
-0.4923144180145755,-0.4923144180145755,1.0001681292283489,0.00035796147304155846
-0.4921732545182749,-0.4921732545182749,1.000115743361105,0.0003373459184968897
-0.49195549589858273,-0.49195549589858273,1.000118778482423,0.0003553424975829588
-0.49181690446930587,-0.49181690446930587,0.9997530553710419,0.00032278301270520385
-0.49160939901557865,-0.49160939901557865,0.9998538258031292,0.00034057391726605217
-0.4915516475251934,-0.4915516475251934,1.0000413201992397,0.00035887602231135464
-0.4914176318772661,-0.4914176318772661,1.000042401829128,0.0003685748090288656
-0.491258697246667,-0.491258697246667,1.0003325604310327,0.0003463433124126048
-0.4912170994684857,-0.4912170994684857,1.0000028811673904,0.00038058666653887865
-0.49107604122255,-0.49107604122255,1.0003808298100458,0.0002917230008934235
-0.49096715846608274,-0.49096715846608274,0.9994971079413417,0.00031284040726067597
-0.4908987674942182,-0.4908987674942182,1.000142485836544,0.0002866250802949089
-0.4907516108447453,-0.4907516108447453,0.9998903394695489,0.00036682604424161114
-0.4905887705470377,-0.4905887705470377,0.9998595445728256,0.00033890203514742737
-0.490512501054036,-0.490512501054036,0.999481862537032,0.0003674002688893777
-0.49044027140844265,-0.49044027140844265,1.0003389237654032,0.00033003030190561117
-0.49025670733608423,-0.49025670733608423,0.999982167234562,0.00029097061543100785
-0.49006721780169754,-0.49006721780169754,1.0001104801236866,0.00034272491398572226
-0.48988539392157693,-0.48988539392157693,0.9996943209052935,0.00034555983145912654
-0.4897861234821903,-0.4897861234821903,1.0000815632212454,0.0003581511521159737
-0.48966896334968624,-0.48966896334968624,1.000083146994771,0.00035464046702903625
-0.4895086677330255,-0.4895086677330255,1.0002836711964314,0.0003593162712074289
-0.489354665789142,-0.489354665789142,0.9998486568160725,0.0003126459869562625
-0.48924740373768144,-0.48924740373768144,1.0001487456624296,0.00031751390770101543
-0.4891046523385739,-0.4891046523385739,0.9996883698171679,0.0003427850356135014
-0.4889720304607181,-0.4889720304607181,1.000094528882542,0.0002978416732757496
-0.4888925866995123,-0.4888925866995123,0.999877845169479,0.00027250478689816356
-0.488729343432351,-0.488729343432351,1.000031084290819,0.000273773806645351
-0.488626917538204,-0.488626917538204,0.9995403365003195,0.0002923011255976336
-0.4884893498390738,-0.4884893498390738,0.9997942614001211,0.0002842056723378173
-0.48839211917074865,-0.48839211917074865,1.0000038087163052,0.0003448846984478417
-0.48829102051531664,-0.48829102051531664,0.9999522868522046,0.0003431315385823006
-0.4881533108811709,-0.4881533108811709,1.0003598249150678,0.0002691731820390352
-0.48799043111284846,-0.48799043111284846,1.0000422919764484,0.00035019612458012307
-0.48780981418822195,-0.48780981418822195,0.9997966954491029,0.00027729415931727533
-0.48763516370527216,-0.48763516370527216,0.9998394260726711,0.0003450175168854434
-0.4874587043887004,-0.4874587043887004,0.9997091149668463,0.00028954474983525067
-0.48722367071532063,-0.48722367071532063,0.999641379950664,0.00035695998306934154
-0.4870862434174342,-0.4870862434174342,1.0000222877733935,0.0003567891404393359
-0.4868888876728306,-0.4868888876728306,0.9998724782312431,0.0002907150572189346
-0.4867782116314629,-0.4867782116314629,1.0003363477129221,0.0003544339693837996
-0.4866169576969696,-0.4866169576969696,0.9999767499181103,0.00030430279904308447
-0.48643079445682813,-0.48643079445682813,0.9999709135822308,0.00036267240268718343
-0.4863441335648531,-0.4863441335648531,1.0002310975143773,0.00038720662720605404
-0.48626969736506,-0.48626969736506,0.9999464217379972,0.0003620458586203598
-0.4861192061107431,-0.4861192061107431,1.0002287677552517,0.0002749048208621357
-0.4859836380834167,-0.4859836380834167,1.000073503711696,0.0003637278654849187
-0.4858223138595349,-0.4858223138595349,0.9998409891355717,0.00030316030103367793
-0.48569131468611887,-0.48569131468611887,0.9994420563020208,0.00034440164793396314
-0.48549885087340955,-0.48549885087340955,1.0003437634719745,0.0003889657032173886
-0.48534615876924364,-0.48534615876924364,0.9997427743959595,0.000355994087484723
-0.4852656333081541,-0.4852656333081541,0.9997955903267902,0.00031712463443828653
-0.48511514056663146,-0.48511514056663146,0.9997269455931601,0.0003441948541074598
-0.48499036345165225,-0.48499036345165225,0.9998035695812387,0.00036129430020046167
-0.48486151401521055,-0.48486151401521055,1.0002704934372937,0.0003693925761874066
-0.48471829137415623,-0.48471829137415623,0.9997650915573357,0.00034877056546619436
-0.48461090904384035,-0.48461090904384035,1.0001303288138046,0.000300353192347253
-0.48446560847442016,-0.48446560847442016,0.999768894788917,0.00027453795560666015
-0.48434664303422326,-0.48434664303422326,1.0001325862928632,0.0003946760285094291
-0.48422488298965616,-0.48422488298965616,1.0001948166431927,0.0003264028881558211
-0.48411376520161864,-0.48411376520161864,1.0001786343965153,0.00032760785100448915
-0.4839048480607744,-0.4839048480607744,1.0003067641775152,0.0003492757682874716
-0.4837598014179093,-0.4837598014179093,0.9998966795262039,0.0003163285989648927
-0.4836234499307466,-0.4836234499307466,1.000000912736802,0.00034681327625184493
-0.4834746246713621,-0.4834746246713621,1.0000376360013892,0.000278232066522199
-0.483385571250983,-0.483385571250983,1.0003307566522852,0.0003490071755988009
-0.483186205560196,-0.483186205560196,0.9997679645525575,0.00031091209483678653
-0.4830469233143958,-0.4830469233143958,1.000060702029574,0.0003634269092436661
-0.483006906270748,-0.483006906270748,1.0001391494026448,0.00037326787362060526
-0.48294187530555066,-0.48294187530555066,0.9997766244638253,0.0003230251523056276
-0.48285019980394284,-0.48285019980394284,0.9997192652353245,0.00039146729709293326
-0.4826684954816301,-0.4826684954816301,1.0001037459759687,0.00031532243989669827
-0.48248845430571236,-0.48248845430571236,0.9996064802363163,0.0003348924656914465
-0.4823035914589127,-0.4823035914589127,1.0000734938680833,0.0003421741317806588
-0.48217074103013147,-0.48217074103013147,1.0002871183459747,0.00039862758898126657
-0.4820580146850261,-0.4820580146850261,0.99997888939994,0.00031852159084273416
-0.4818768948520301,-0.4818768948520301,0.9999191036895347,0.000400379220577714
-0.48170382363023234,-0.48170382363023234,1.0000076212395552,0.00031351973377812805
-0.4815518260671524,-0.4815518260671524,0.9994898804187212,0.0003666509050055079
-0.48141240670884144,-0.48141240670884144,1.0001486996972422,0.00039433447895470585
-0.4811423146296875,-0.4811423146296875,0.9999925753551423,0.0003169090926683751
-0.48090634119434983,-0.48090634119434983,1.0001509632355403,0.0003668538386895434
-0.4807475681955111,-0.4807475681955111,0.9997372619843039,0.0003235128739834356
-0.4806482763466192,-0.4806482763466192,1.000209776155918,0.00040737939964717037
-0.48050800475975847,-0.48050800475975847,1.0002695955929748,0.00030880596035963513
-0.48043255164520815,-0.48043255164520815,0.999921433128474,0.0003183590957570641
-0.4803239689892507,-0.4803239689892507,0.9996004222950982,0.00028713276451828467
-0.48010199712298346,-0.48010199712298346,0.9997026706448165,0.00030528489166828826
-0.4799934019123612,-0.4799934019123612,1.000397256466155,0.0002701020140779385
-0.47989270695325104,-0.47989270695325104,0.9998419466201645,0.00034313350412122347
-0.47975675310226507,-0.47975675310226507,1.0004866216017336,0.00041473646385538587
-0.47966070666734595,-0.47966070666734595,0.9999035697148699,0.0003043477761196691
-0.4795878373093728,-0.4795878373093728,0.9999588561595738,0.00026954704052710015
-0.47943273720156865,-0.47943273720156865,0.9999631562301031,0.0002994747117665129
-0.47928282101565856,-0.47928282101565856,0.999935998967033,0.00028796363764207734
-0.47916666508535855,-0.47916666508535855,0.9998982942294365,0.000292270255232848
-0.4789641087467317,-0.4789641087467317,1.0001338016777246,0.00035631634614350906
-0.4787693052421673,-0.4787693052421673,1.0000721579690652,0.0003817427551372799
-0.47863014956819827,-0.47863014956819827,1.0003188392722522,0.00032157648822938694
-0.4784550710755866,-0.4784550710755866,0.9999280067913515,0.0003081261846121044
-0.4782105684367707,-0.4782105684367707,1.0002316787463421,0.00029118896464521414
-0.4780291152019345,-0.4780291152019345,1.0000617352562746,0.00034954737836237216
-0.4778385337740474,-0.4778385337740474,1.0002138265266485,0.00029206994542187804
-0.47773865070703325,-0.47773865070703325,0.9998958202734824,0.0003628802022867572
-0.4775527917649015,-0.4775527917649015,1.0000631563104152,0.00031816006968135265
-0.47742768260432056,-0.47742768260432056,1.0001635580432855,0.00029652769986384124
-0.47736000025834074,-0.47736000025834074,0.9996663002033243,0.0002873431200987373
-0.47718643145417444,-0.47718643145417444,0.9999832633951524,0.0004000510139878984
-0.4770184022600006,-0.4770184022600006,0.9999742668783901,0.0002831821324513669
-0.4769212038503611,-0.4769212038503611,1.0003179834175615,0.0002938910983251475
-0.4768429891730193,-0.4768429891730193,0.9998818291268113,0.0003635299697320898
-0.47675671746910664,-0.47675671746910664,0.9998977268307321,0.0002964628827532148
-0.4766249404732662,-0.4766249404732662,1.0002841732187824,0.0002877676506322035
-0.47648089200592947,-0.47648089200592947,0.9998557570112603,0.0004180434732385366
-0.4763655445727636,-0.4763655445727636,1.0000695575954996,0.0003728428523983308
-0.47625915362805243,-0.47625915362805243,1.0005856111406775,0.00030434754587578273
-0.4760853487379791,-0.4760853487379791,1.0001890637919382,0.00031404522809752366
-0.4759138131514192,-0.4759138131514192,0.9997151786580944,0.00027246304781574477
-0.47572030648298097,-0.47572030648298097,0.9998989320233779,0.00030501896445584575
-0.47567233839799883,-0.47567233839799883,1.0003216355855866,0.00038574183079956683
-0.47549362916033716,-0.47549362916033716,1.0000310830689714,0.00027345666224043176
-0.4753711836841831,-0.4753711836841831,1.0004846700028391,0.00033215769589559584
-0.4752310084237251,-0.4752310084237251,0.9999474102978348,0.0003703475278926666
-0.4750763388714404,-0.4750763388714404,1.0002565591327108,0.0002781905630002012
-0.47492330185341414,-0.47492330185341414,0.999883412205706,0.0003561799110984621
-0.4748031726485351,-0.4748031726485351,1.000024884285749,0.0003403254468336493
-0.47456805248002637,-0.47456805248002637,1.0000795053387619,0.000375707495714742
-0.47446227506516153,-0.47446227506516153,0.9999705094013771,0.00029803571759668746
-0.47423466071049913,-0.47423466071049913,1.0003607117755273,0.00029937467298476864
-0.4741299966779479,-0.4741299966779479,0.9997562898154182,0.00036931213879803806
-0.47400726257183123,-0.47400726257183123,1.0001178544219314,0.00033171721587208554
-0.4738291368994396,-0.4738291368994396,0.9999377507614706,0.0004056184951373722
-0.47378213038973627,-0.47378213038973627,0.9998824911728725,0.000365528300319468
-0.4736577395160566,-0.4736577395160566,0.9997328951965706,0.0002823902427772036
-0.4735636925754079,-0.4735636925754079,0.9999010879560053,0.000308007392070002
-0.4734724510250089,-0.4734724510250089,1.0001725738033855,0.0003017769532443708
-0.4733500015012396,-0.4733500015012396,1.0000278541545424,0.0003476835241275516
-0.47315772550864493,-0.47315772550864493,1.000272399215395,0.0003714626796556225
-0.47307384730665947,-0.47307384730665947,1.0000471315711077,0.00035367500484400683
-0.47300470699265135,-0.47300470699265135,1.0001530868496609,0.000329818575955327
-0.4727837459402508,-0.4727837459402508,1.0002382617116106,0.00031675808543765206
-0.4725952513945231,-0.4725952513945231,0.9995757093563261,0.0003288371666878199
-0.47242335075206937,-0.47242335075206937,0.9999728881820673,0.0003488835993601773
-0.47233680514182197,-0.47233680514182197,0.9997055402329982,0.00039979344091575265
-0.4722035119593784,-0.4722035119593784,1.000420133261499,0.00036986976704107567
-0.4720609047464677,-0.4720609047464677,0.9997695994994172,0.0003137330244488909
-0.47190557363792324,-0.47190557363792324,1.0003179954853316,0.0003125763949694173
-0.4717830547990161,-0.4717830547990161,0.9999132457368326,0.0002897193531158081
-0.4716161748379818,-0.4716161748379818,0.9999341995834052,0.00035065778900166607
-0.47149150124023437,-0.47149150124023437,0.9997488847727976,0.00027683528336281093
-0.4713157724843768,-0.4713157724843768,1.0000192826698462,0.0002727805023098171
-0.4711966490132909,-0.4711966490132909,0.9999230935662187,0.00029226918389861373
-0.4710593425726984,-0.4710593425726984,0.9997217937106155,0.00025319469278244446
-0.47094520121027017,-0.47094520121027017,1.00050380383886,0.000292909715411158
-0.47080029723510963,-0.47080029723510963,0.9995327338150874,0.0002764946410729663
-0.4707219154042832,-0.4707219154042832,1.0003450236865794,0.00026976031065034206
-0.47055778893991373,-0.47055778893991373,1.000176065850048,0.00030148479753909464
-0.4703932356678706,-0.4703932356678706,0.9998618898359186,0.00033282876260260115
-0.47024754988742645,-0.47024754988742645,0.9992739891658309,0.00038883599417478267
-0.470103278325405,-0.470103278325405,1.0000457282677726,0.00032090439474418276
-0.4698717776496778,-0.4698717776496778,1.0002306538565666,0.00027301866339143074
-0.46976171377900755,-0.46976171377900755,1.000103982505812,0.00035310223002096034
-0.4695629186731821,-0.4695629186731821,0.9995708221043179,0.00035356612861578115
-0.4693709166429471,-0.4693709166429471,0.9996340673680075,0.00036507405333352516
-0.46918199587089476,-0.46918199587089476,0.9997390058890568,0.0003042215022625838
-0.4689901310950518,-0.4689901310950518,0.9996867077902001,0.00030861822869690303
-0.46889831369553575,-0.46889831369553575,1.0002383962316628,0.00039363707218643474
-0.4687982715840917,-0.4687982715840917,0.9999619852371261,0.00036189094954168765
-0.46860905771318356,-0.46860905771318356,1.0002928794553767,0.00034216589037764673
-0.468465095499414,-0.468465095499414,1.0006144340605283,0.00026289491164620585
-0.4683563820304698,-0.4683563820304698,0.999515311473046,0.0003405790058800465
-0.4682409979730437,-0.4682409979730437,1.00021020391463,0.00032659121043315754
-0.4680691977038805,-0.4680691977038805,0.9996949772514245,0.00041755827893085704
-0.4679338525114872,-0.4679338525114872,0.9998422978837344,0.00031025858847590787
-0.4678648090994102,-0.4678648090994102,1.000613771855159,0.00036270653874712614
-0.46771423631798825,-0.46771423631798825,1.0003106059868934,0.0003426444637660069
-0.4675369978518574,-0.4675369978518574,0.9998443154750138,0.0003095297597343567
-0.4673716758130467,-0.4673716758130467,1.0004016787797387,0.00036926526932882034
-0.46725471758181814,-0.46725471758181814,0.9998118125518058,0.00034232455174380757
-0.46716309418261515,-0.46716309418261515,1.0000926880677272,0.0003091084384683277
-0.4670040461307508,-0.4670040461307508,0.9994447128838496,0.00032628808643864025
-0.4668796141610073,-0.4668796141610073,0.9999391597414826,0.0003611774887434237
-0.4667461134013138,-0.4667461134013138,1.0001509185913304,0.00030599383289180973
-0.46656146943205384,-0.46656146943205384,1.000209539553614,0.00035486297670380985
-0.4664176486803626,-0.4664176486803626,1.0002518443913342,0.000347316518024301
-0.46628822951970506,-0.46628822951970506,1.0003118533345687,0.0003329566093839313
-0.4661219077301212,-0.4661219077301212,0.999773388588814,0.000322493004594821
-0.466043728486693,-0.466043728486693,0.9998888055886997,0.0002992209788094993
-0.4659980872973392,-0.4659980872973392,0.9999379169184806,0.0002892488165426439
-0.465867550503026,-0.465867550503026,0.9999939615076018,0.00034302393617903596
-0.46568485366224194,-0.46568485366224194,0.9998648561060419,0.0002895682427746378
-0.4656032450242492,-0.4656032450242492,0.9995861265535237,0.00030200570452886563
