time,time,flux,flux_err
-0.49966956436401233,-0.49966956436401233,0.9999866199150993,5.5481186497744825e-05
-0.49864775345413365,-0.49864775345413365,1.0000145954453161,5.483589507515955e-05
-0.4978715484139684,-0.4978715484139684,1.0000021190700408,5.4471117288063465e-05
-0.49654345945455136,-0.49654345945455136,1.0000578757621077,5.486185699393789e-05
-0.4960491112949967,-0.4960491112949967,1.0000346264587168,5.469644878348954e-05
-0.4957477389209089,-0.4957477389209089,1.0000892888259163,5.4890946241371795e-05
-0.49484720211694366,-0.49484720211694366,0.9999607791087367,5.54291117107516e-05
-0.49412944553259874,-0.49412944553259874,0.9999559310093566,5.4583620244935974e-05
-0.4932048330119869,-0.4932048330119869,1.0000078258834422,5.6970754687052175e-05
-0.4920035278461,-0.4920035278461,1.0000435964919538,5.4860321613081415e-05
-0.49159545030561275,-0.49159545030561275,0.9998487724032218,5.470279701046626e-05
-0.49122064530383797,-0.49122064530383797,0.9999738101941436,5.5016931893390684e-05
-0.49008871266705684,-0.49008871266705684,1.000044612715136,5.4843166103214994e-05
-0.4891428704075224,-0.4891428704075224,1.0000141749053806,5.446214188590776e-05
-0.487800805347797,-0.487800805347797,0.9999503488039532,5.497204036371791e-05
-0.48727196366817227,-0.48727196366817227,1.0001796093575033,5.4588904167893497e-05
-0.4870169458401506,-0.4870169458401506,0.9999215009515998,5.4882544428975325e-05
-0.48606651155350844,-0.48606651155350844,1.0000614418111287,5.521863595671357e-05
-0.48511150914418977,-0.48511150914418977,1.0000440993449249,5.45581724449761e-05
-0.4837708264349203,-0.4837708264349203,1.0001003512412452,5.490431427324274e-05
-0.4830242358060787,-0.4830242358060787,1.0000323339412294,5.471726879047908e-05
-0.48273560045854536,-0.48273560045854536,1.0000504699586252,5.461095467277315e-05
-0.4821770145412302,-0.4821770145412302,1.0000038292525035,5.5197703056343625e-05
-0.4811659083861741,-0.4811659083861741,1.000039961021433,5.469902059296711e-05
-0.47983474069551446,-0.47983474069551446,1.000130746051076,5.479371177140736e-05
-0.4788828216471302,-0.4788828216471302,1.0000617313118445,5.4894005258495455e-05
-0.4784406495986332,-0.4784406495986332,0.9999830093454362,5.472405120655637e-05
-0.4778257697405934,-0.4778257697405934,1.0000454442245583,5.507873264219192e-05
-0.4767785031202948,-0.4767785031202948,1.000033231080473,5.470291884757235e-05
-0.47562068920742606,-0.47562068920742606,0.9999839948861202,5.588769484492623e-05
-0.4746713437511062,-0.4746713437511062,0.9999599301695301,5.498794360501138e-05
-0.4741068668627122,-0.4741068668627122,1.0000737380738018,5.485526896588558e-05
-0.4734580485841434,-0.4734580485841434,0.9999921577614138,5.50592126270324e-05
-0.47239126509884954,-0.47239126509884954,0.9999992713026709,5.469725229322813e-05
-0.4712143439828651,-0.4712143439828651,0.9999607709412073,5.545000577618211e-05
-0.47012551156585686,-0.47012551156585686,0.9999763985634009,5.510914618036079e-05
-0.469648026683717,-0.469648026683717,0.9999649579022497,5.460452572816848e-05
-0.46900883829875967,-0.46900883829875967,1.0000073602602413,5.503160881269475e-05
-0.4678607142363035,-0.4678607142363035,0.9999840393581414,5.5234482297503814e-05
-0.4666051171909203,-0.4666051171909203,1.000160446814834,5.48385825792677e-05
-0.46550256735572476,-0.46550256735572476,1.0000456740278687,5.495349646434171e-05
-0.4650574522078387,-0.4650574522078387,1.0000231173017011,5.462935353496716e-05
-0.46424387261577066,-0.46424387261577066,1.0000171589519837,5.5143770660867686e-05
-0.46295828198853994,-0.46295828198853994,1.0000363077520131,5.494729261937223e-05
-0.4616277741537488,-0.4616277741537488,1.0000114441557386,5.4970088189314125e-05
-0.4610566221555928,-0.4610566221555928,1.0000740965293222,5.480928116702036e-05
-0.4606758734320465,-0.4606758734320465,0.9998729733244632,5.462431778655275e-05
-0.4598797912185546,-0.4598797912185546,1.0000360605790133,5.514260246460381e-05
-0.45873242562520317,-0.45873242562520317,0.9999649083336397,5.495216755874323e-05
-0.45751872477703726,-0.45751872477703726,1.0000882194531069,5.483531986476033e-05
-0.45669064283792976,-0.45669064283792976,1.0000172270489673,5.491245031275728e-05
-0.4562315073955688,-0.4562315073955688,1.0001688876618062,5.4745232348452014e-05
-0.45551586326400867,-0.45551586326400867,0.9999806716225583,5.5133796477784336e-05
-0.4543439452427265,-0.4543439452427265,1.0000329433846828,5.487706575593849e-05
-0.4531424872177013,-0.4531424872177013,0.9998986784064702,5.483174576037315e-05
-0.45231652654110804,-0.45231652654110804,0.9999619028575479,5.4896199258790665e-05
-0.4518632057988725,-0.4518632057988725,0.9998921635040272,5.4741849244093244e-05
-0.4513527689879993,-0.4513527689879993,0.9999645977464047,5.500980570297188e-05
-0.45017026948044075,-0.45017026948044075,0.9999880954999452,5.483416645741952e-05
-0.44867203470348616,-0.44867203470348616,1.0000141751282334,5.483303213042595e-05
-0.4478335982763383,-0.4478335982763383,0.999882410548345,5.488178422596091e-05
-0.44739407309461965,-0.44739407309461965,0.9999260872016702,5.462962981905794e-05
-0.446788477901282,-0.446788477901282,0.9999898491332321,5.512844857320895e-05
-0.4456113019165059,-0.4456113019165059,0.9999848442303501,5.4703564399078676e-05
-0.4442053959348414,-0.4442053959348414,0.9999540374527764,5.483118233562262e-05
-0.44336140950617847,-0.44336140950617847,1.0000185980870904,5.476972508671608e-05
-0.44293066631289546,-0.44293066631289546,1.0000141899380848,5.474357789999884e-05
-0.4421358683328435,-0.4421358683328435,0.9999726441483741,5.49886659050832e-05
-0.44077035235168294,-0.44077035235168294,1.0000588769841212,5.471766310760789e-05
-0.4395281304219679,-0.4395281304219679,1.0000122403722833,5.4869787310615356e-05
-0.4388739598762186,-0.4388739598762186,1.000082187278991,5.460158545416971e-05
-0.4384772657751455,-0.4384772657751455,0.9999860417804916,5.489463721429724e-05
-0.43718010179436534,-0.43718010179436534,1.0000451272195003,5.472276371803631e-05
-0.4357427652226761,-0.4357427652226761,0.9999377809792624,5.4833770594944905e-05
-0.4347181671655562,-0.4347181671655562,1.0000246204135554,5.486634413346372e-05
-0.43430661915699603,-0.43430661915699603,1.0000445813866334,5.4718573880936716e-05
-0.43377282463916345,-0.43377282463916345,0.9999780612949012,5.4897429000733056e-05
-0.432509154669242,-0.432509154669242,1.0000366322895369,5.4721415900591215e-05
-0.43135992171737597,-0.43135992171737597,1.0000055815556952,5.483185293760368e-05
-0.4303167235651927,-0.4303167235651927,1.0000638465463882,5.48624295869327e-05
-0.4299006142435246,-0.4299006142435246,1.0000942920079345,5.46942330221447e-05
-0.42940241120450084,-0.42940241120450084,0.9998849006582999,5.4896803948278925e-05
-0.4281123552180361,-0.4281123552180361,1.0000068387721095,5.4687014896837006e-05
-0.42676793669743346,-0.42676793669743346,0.9999740128492526,5.496667721500562e-05
-0.4258071386517258,-0.4258071386517258,0.9999421209758805,5.4722327867044273e-05
-0.42545494249498006,-0.42545494249498006,1.0000755442695402,5.472456363331839e-05
-0.4249526048959524,-0.4249526048959524,1.0000139983167897,5.500623268844977e-05
-0.4238071558436786,-0.4238071558436786,0.999958262862156,5.477467952631265e-05
-0.4229059168836102,-0.4229059168836102,0.9999885981948197,5.486339287187474e-05
-0.42170027453394143,-0.42170027453394143,1.0000296974843343,5.4838604679264084e-05
-0.4211766895372421,-0.4211766895372421,1.0000915985103185,5.4580280622984725e-05
-0.4208753662613162,-0.4208753662613162,1.0000094049564456,5.4892619227983995e-05
-0.41998342706283437,-0.41998342706283437,1.0000367787378972,5.5241881486965454e-05
-0.41906067102900124,-0.41906067102900124,1.000035874109831,5.458818399461969e-05
-0.4176894107651606,-0.4176894107651606,0.9999922036125009,5.4976599192099804e-05
-0.4169460638928285,-0.4169460638928285,1.0000798991243953,5.471999996615848e-05
-0.41662155738595175,-0.41662155738595175,1.0000584054214083,5.4609118925830486e-05
-0.41615907619561765,-0.41615907619561765,1.0000357057525648,5.548458755878034e-05
-0.41513500085711713,-0.41513500085711713,1.0000039261902056,5.484197252328887e-05
-0.4141806958512461,-0.4141806958512461,0.9998679665005887,5.446790093497829e-05
-0.41284570677016746,-0.41284570677016746,0.9999579136517278,5.486047075602285e-05
-0.41235017038998195,-0.41235017038998195,1.0000494212672013,5.4697158166624724e-05
-0.4120506054016005,-0.4120506054016005,1.0001964850172915,5.4893262146813044e-05
-0.4111497877893271,-0.4111497877893271,0.9999980691202826,5.542265610011878e-05
-0.4104299635131611,-0.4104299635131611,1.0000138682547561,5.458437886391534e-05
-0.4092064447693701,-0.4092064447693701,0.9999515372386224,5.465978528459073e-05
-0.40819003262658954,-0.40819003262658954,1.0000015089659238,5.471738784557104e-05
-0.40785123197856593,-0.40785123197856593,0.9999786749528539,5.472701661780255e-05
-0.4073338442809472,-0.4073338442809472,1.0000683236030865,5.513527355740489e-05
-0.4062422293660347,-0.4062422293660347,1.0000080304552503,5.4700044909954324e-05
-0.40514509885251754,-0.40514509885251754,0.9999482292270082,5.4604527573412367e-05
-0.40393180255050537,-0.40393180255050537,0.9999707959541165,5.485915784502216e-05
-0.4035100174973195,-0.4035100174973195,0.9999700210469701,5.470291934240465e-05
-0.4031788226515346,-0.4031788226515346,1.0001524474293677,5.4892393218652804e-05
-0.40217886973332495,-0.40217886973332495,1.000056379999595,5.50778136659246e-05
-0.401119556777121,-0.401119556777121,1.000020897593054,5.44862604134151e-05
-0.3998955248534912,-0.3998955248534912,0.9999498498884425,5.497539404375097e-05
-0.3992556685458112,-0.3992556685458112,0.9999828871821806,5.4717364319458016e-05
-0.3990035033682943,-0.3990035033682943,0.9999868087151276,5.474254319659781e-05
-0.39825748814837425,-0.39825748814837425,0.9999799064323641,5.5194058740845616e-05
-0.3972469815977092,-0.3972469815977092,1.0000727460918264,5.683098287761073e-05
-0.39613639163580955,-0.39613639163580955,0.9999078924451238,5.47907008638196e-05
-0.3951526795855898,-0.3951526795855898,0.9999844056802971,5.49983682297649e-05
-0.39468753592445865,-0.39468753592445865,0.9997860446694545,5.460192937396919e-05
-0.39389728415189895,-0.39389728415189895,0.9999461352115965,5.5183854163814606e-05
-0.3928471973449632,-0.3928471973449632,1.000102080141326,5.573066795831106e-05
-0.3917563019254885,-0.3917563019254885,1.0000223777705672,5.4817737418022614e-05
-0.3907989207669743,-0.3907989207669743,0.9999276484624641,5.512313710132417e-05
-0.3903347199062409,-0.3903347199062409,0.9999302014206328,5.4606530688591025e-05
-0.3895372294529807,-0.3895372294529807,0.9999664169835418,5.516051884429721e-05
-0.38844743520603514,-0.38844743520603514,0.9999469462967088,5.529902422742417e-05
-0.38728562624528423,-0.38728562624528423,0.9999953359602506,5.4823198324976986e-05
-0.38631472307533843,-0.38631472307533843,0.999926857932188,5.510937241634507e-05
-0.38586223784586765,-0.38586223784586765,0.9998920130955593,5.460129540321636e-05
-0.38511654533140244,-0.38511654533140244,0.9999945710753047,5.502972109970838e-05
-0.38388657410396265,-0.38388657410396265,1.0000667580140146,5.522250151174071e-05
-0.3826217478148465,-0.3826217478148465,0.9999610462886951,5.4835279344387844e-05
-0.3817435686964018,-0.3817435686964018,0.9999495792182811,5.4843566031891324e-05
-0.3813589806501113,-0.3813589806501113,0.9999977052941107,5.462817096225777e-05
-0.3805468597973231,-0.3805468597973231,0.9999415261116258,5.514573356366287e-05
-0.37942194882270996,-0.37942194882270996,0.9999847034528899,5.5068335345385035e-05
-0.3781971189571777,-0.3781971189571777,1.000016197828522,5.483236290468634e-05
-0.377428880516527,-0.377428880516527,1.0000253411078632,5.492688541637947e-05
-0.37709239765245,-0.37709239765245,0.9999239024203923,5.4621364131811744e-05
-0.37638578444748416,-0.37638578444748416,1.0000392755748118,5.502001836421335e-05
-0.37523421294026776,-0.37523421294026776,0.9999159719724628,5.4942640547332884e-05
-0.37405246824855565,-0.37405246824855565,1.0000871922832888,5.4973970093945756e-05
-0.37313627594703574,-0.37313627594703574,0.9999306629049022,5.488730153958451e-05
-0.3726305612915894,-0.3726305612915894,0.9999767332305254,5.4743864167837455e-05
-0.37202065499368475,-0.37202065499368475,1.0000380919174519,5.5015716496999604e-05
-0.3708529058669228,-0.3708529058669228,0.9997845075942371,5.483083561190371e-05
-0.36967509566093215,-0.36967509566093215,0.9999881956125224,5.500696016298419e-05
-0.3687562978127971,-0.3687562978127971,1.0000612005814187,5.487708730294399e-05
-0.3682525320262357,-0.3682525320262357,1.0000376898015833,5.473858482269029e-05
-0.3677731220712303,-0.3677731220712303,0.9999946513848468,5.4898246190863684e-05
-0.36676347797038034,-0.36676347797038034,1.0000340960329848,5.483124601983922e-05
-0.3652536094348761,-0.3652536094348761,0.9999837101674214,5.483494873037926e-05
-0.3642448424339818,-0.3642448424339818,1.0000339198016148,5.488305350893725e-05
-0.3637844930846768,-0.3637844930846768,0.9999974736784416,5.474437011442983e-05
-0.3632909100713732,-0.3632909100713732,1.000018535967524,5.5006389060332875e-05
-0.36210893772149577,-0.36210893772149577,0.9998956719480127,5.4709883920099144e-05
-0.3608104160062794,-0.3608104160062794,1.0001077744508575,5.483736685397873e-05
-0.3597638996267051,-0.3597638996267051,0.9999682108213813,5.487418056579286e-05
-0.35930940473845113,-0.35930940473845113,0.9999439566148688,5.4627349523677685e-05
-0.35872807648411253,-0.35872807648411253,1.0000411811139083,5.512739348592889e-05
-0.35730970329386763,-0.35730970329386763,1.0000355261212668,5.457919178886957e-05
-0.3560181591870787,-0.3560181591870787,0.9999141374628581,5.48509776513405e-05
-0.3552857654343825,-0.3552857654343825,0.9999685403226891,5.475441236253149e-05
-0.35485182024349343,-0.35485182024349343,0.9999126834243391,5.474503595438044e-05
-0.3538394731403969,-0.3538394731403969,1.0000146568199622,5.485063303778617e-05
-0.35232860396936305,-0.35232860396936305,1.0000289555563522,5.471609961617902e-05
-0.3511310412854073,-0.3511310412854073,0.9999369314544883,5.500003354939489e-05
-0.3506999856355833,-0.3506999856355833,1.0000819733951272,5.458297921979697e-05
-0.3502792482067889,-0.3502792482067889,0.9999988372661834,5.489561822549735e-05
-0.34899656980851435,-0.34899656980851435,1.0000631693632416,5.483825855881097e-05
-0.34794288174744,-0.34794288174744,1.0000340117138156,5.4858982871059865e-05
-0.3467566086335864,-0.3467566086335864,0.999949908275868,5.484038849147663e-05
-0.3462631636495644,-0.3462631636495644,0.9999535958538605,5.457184286418797e-05
-0.34591201926159554,-0.34591201926159554,0.9999656049520503,5.489749047553727e-05
-0.3446027275356755,-0.3446027275356755,1.0000019999233702,5.4802493191923195e-05
-0.3433650643375586,-0.3433650643375586,0.9999371676571093,5.4856389136006083e-05
-0.34224566850680277,-0.34224566850680277,0.9999771150162715,5.4861892006731915e-05
-0.34181377361310294,-0.34181377361310294,1.000046771722796,5.469999740166144e-05
-0.3414511268500064,-0.3414511268500064,0.999973775407984,5.4888791175376956e-05
-0.34020899706156343,-0.34020899706156343,0.9999998848106209,5.4772806645267275e-05
-0.33920761272238453,-0.33920761272238453,0.9999511431642075,5.486521701472838e-05
-0.3380021875724196,-0.3380021875724196,0.9999191621904018,5.48350762971579e-05
-0.33747729159367734,-0.33747729159367734,1.0000648313192162,5.4577848629920706e-05
-0.33717813755356474,-0.33717813755356474,1.0000609943314662,5.489458251408425e-05
-0.33628509457630573,-0.33628509457630573,0.9999512646848068,5.5235358985849465e-05
-0.33536113984519034,-0.33536113984519034,0.9999548852916966,5.458626468362158e-05
-0.3339235704006569,-0.3339235704006569,1.0000861890285342,5.511726835199364e-05
-0.3331521694046387,-0.3331521694046387,1.000081289855975,5.457747422105821e-05
-0.33288472663261925,-0.33288472663261925,0.9998921849645941,5.475077014554877e-05
-0.3322756217967253,-0.3322756217967253,0.9999520651106572,5.54692416384231e-05
-0.33125120283220894,-0.33125120283220894,0.9999909014273592,5.4837132533196146e-05
-0.33030734688800295,-0.33030734688800295,0.999851061077653,5.4473979548253266e-05
-0.32914795655669876,-0.32914795655669876,0.9999787597058092,5.486247547230096e-05
-0.3286512307138764,-0.3286512307138764,0.9998584401649214,5.4694152293028505e-05
-0.3283534736772708,-0.3283534736772708,0.9999666010076119,5.488530906584592e-05
-0.32745237446870307,-0.32745237446870307,1.0000135421775265,5.541987930626329e-05
-0.32673048317737996,-0.32673048317737996,1.0000531426597608,5.45831283468885e-05
-0.32550795326387744,-0.32550795326387744,1.0000063856150088,5.46692883701392e-05
-0.324491885988391,-0.324491885988391,0.9999731662963658,5.471483352041991e-05
-0.3241526469020755,-0.3241526469020755,0.9999766797241044,5.4724796251331756e-05
-0.32363677908069804,-0.32363677908069804,0.9999243403464593,5.512663399421465e-05
-0.32254324625318986,-0.32254324625318986,1.0000118529680244,5.469779021733872e-05
-0.321446445750189,-0.321446445750189,0.9999968129345262,5.4603426669403475e-05
-0.32039958909590494,-0.32039958909590494,1.0000744596446474,5.497120025487646e-05
-0.31987357358593727,-0.31987357358593727,0.9999306254637631,5.4722754920039115e-05
-0.3196226416170248,-0.3196226416170248,0.9998742878584886,5.474420952144011e-05
-0.3186723652535875,-0.3186723652535875,1.000036110000291,5.5213075583898164e-05
-0.31771171603686527,-0.31771171603686527,0.9999003772487324,5.4558129069503764e-05
-0.31637583206174896,-0.31637583206174896,1.0000725172822562,5.491086857540763e-05
-0.3156277918948035,-0.3156277918948035,1.0001788372899771,5.472437121310311e-05
-0.3153375257665175,-0.3153375257665175,0.9999310435577602,5.460882488185087e-05
-0.3147838210068585,-0.3147838210068585,1.000081870402605,5.51959775603209e-05
-0.31376799626305,-0.31376799626305,0.9999655757566493,5.46995001729379e-05
-0.31261051820620195,-0.31261051820620195,1.0000984630898275,5.6769563332817234e-05
-0.31164598291943546,-0.31164598291943546,1.0000064532761397,5.4990153303976e-05
-0.31104387994419086,-0.31104387994419086,1.0000266319904834,5.472088256191396e-05
-0.3104311405106273,-0.3104311405106273,0.9999921091810133,5.507268688297197e-05
-0.30938061872075195,-0.30938061872075195,0.9999994859055157,5.4701751106555564e-05
-0.308222726573149,-0.308222726573149,1.0001082648046082,5.5799634451893114e-05
-0.30727643030841134,-0.30727643030841134,0.999919304803333,5.499270014115733e-05
-0.3067094919613737,-0.3067094919613737,0.9998968666461471,5.4838932256436564e-05
-0.30606344068291946,-0.30606344068291946,0.999840426844717,5.5048721703784854e-05
-0.3049934084257984,-0.3049934084257984,1.0001178808793345,5.4698543420235857e-05
-0.30381585209906914,-0.30381585209906914,0.9999527772925838,5.540040742849075e-05
-0.3027303621791361,-0.3027303621791361,1.0000027761235926,5.510778367453633e-05
-0.3022504636173835,-0.3022504636173835,1.000094213020425,5.4608449500450794e-05
-0.3016143900131283,-0.3016143900131283,1.000004405500621,5.50294007754007e-05
-0.30046244707336883,-0.30046244707336883,0.9999620608210028,5.52114774215036e-05
-0.29920867477630964,-0.29920867477630964,0.9999995792581439,5.484022458623806e-05
-0.29810858561395437,-0.29810858561395437,0.9999574234814815,5.497723887907319e-05
-0.2977790482553246,-0.2977790482553246,0.9998875949149572,5.4601952098264745e-05
-0.29705396757635755,-0.29705396757635755,1.0000454483551118,5.5023821818705405e-05
-0.2959251064712589,-0.2959251064712589,0.9999934634659595,5.5059165195798585e-05
-0.2947342734019912,-0.2947342734019912,0.999945414343447,5.483351918431915e-05
-0.29385000621914514,-0.29385000621914514,0.9999858684533086,5.506671707333455e-05
-0.2934365864741267,-0.2934365864741267,1.000097736796286,5.4479931680177145e-05
-0.2928813243343029,-0.2928813243343029,0.9999944208593078,5.502261182916159e-05
-0.29181930189879496,-0.29181930189879496,0.9999171113863635,5.483473216300372e-05
