time,time,flux,flux_err
-0.49963367851887597,-0.49963367851887597,1.0000087252781105,0.00010771554980570303
-0.49901484141203883,-0.49901484141203883,1.0000820493966678,0.000107422417447882
-0.4981201130984118,-0.4981201130984118,0.9998435250924432,9.883736639621959e-05
-0.49748904222506096,-0.49748904222506096,1.0000129384494645,9.729226044824671e-05
-0.49696162777836433,-0.49696162777836433,1.0000432014211795,9.662590790568088e-05
-0.49628359471971634,-0.49628359471971634,0.9999092704006761,9.95451786389098e-05
-0.4955799104238395,-0.4955799104238395,0.9999735148948595,9.770430038871539e-05
-0.495030592722469,-0.495030592722469,1.000079734627237,9.71845341576631e-05
-0.4944472496630624,-0.4944472496630624,0.9999318701882629,9.984835922366814e-05
-0.4938152694667224,-0.4938152694667224,0.9999981475234436,9.870496752150304e-05
-0.49315318204753567,-0.49315318204753567,0.9998814724010658,9.975270456397691e-05
-0.4928469492791919,-0.4928469492791919,0.9998583581234316,9.642804940690277e-05
-0.49220964060223193,-0.49220964060223193,0.9999742064652437,9.848727697402569e-05
-0.4911287415830884,-0.4911287415830884,1.0001797773435988,9.788324099532779e-05
-0.49072961761266926,-0.49072961761266926,1.0000588536635693,9.812904863803157e-05
-0.4900624887115555,-0.4900624887115555,1.000207239149356,9.748248354748562e-05
-0.48932769100938456,-0.48932769100938456,1.0000914600110802,9.859453267194091e-05
-0.48873507004173006,-0.48873507004173006,1.0000776511088543,9.826324544174819e-05
-0.4885015412932262,-0.4885015412932262,1.0000770767866156,9.712358653333004e-05
-0.4881169824424433,-0.4881169824424433,0.9999947085960569,9.640646851044993e-05
-0.48766082906804514,-0.48766082906804514,1.0001450375591603,9.670120137158039e-05
-0.48703400744416286,-0.48703400744416286,0.9999005121566158,9.743971282754192e-05
-0.4862247886281693,-0.4862247886281693,1.0000204662611816,9.637289766826889e-05
-0.4854713694890961,-0.4854713694890961,1.0000709186529948,9.740540416994468e-05
-0.4848239490034757,-0.4848239490034757,0.9999181879991912,9.860193333617931e-05
-0.4840967920114053,-0.4840967920114053,1.0000558703798945,9.562333933627554e-05
-0.4836772660637507,-0.4836772660637507,1.0000035437706138,9.630619912130627e-05
-0.4830996382981539,-0.4830996382981539,1.000159201672178,9.96683838795054e-05
-0.48223254990880376,-0.48223254990880376,1.0000058544085135,9.696626946744125e-05
-0.4815032242826419,-0.4815032242826419,0.9999872132994343,0.00010134052338796813
-0.4803391228982946,-0.4803391228982946,1.000123239950093,9.862973529956864e-05
-0.47959759617806413,-0.47959759617806413,1.0000472451833702,9.849730408082588e-05
-0.4789260120160179,-0.4789260120160179,1.00013241160346,9.72496799083043e-05
-0.4782584088970907,-0.4782584088970907,1.0001097510387156,9.947749668490585e-05
-0.4774287596606882,-0.4774287596606882,0.9999323754537903,9.82101389682453e-05
-0.47675961077038664,-0.47675961077038664,0.9999252239110593,0.00010052117890681288
-0.47606834883918053,-0.47606834883918053,0.9998794459439134,9.921430985066974e-05
-0.4750697309704265,-0.4750697309704265,1.0001537972492696,9.80726181074145e-05
-0.4742764405847993,-0.4742764405847993,0.9999327889754938,9.814297023331289e-05
-0.47381071258860175,-0.47381071258860175,1.0002126196599346,9.825225560411422e-05
-0.4732028670841828,-0.4732028670841828,0.9999351109816361,9.659577325853345e-05
-0.4727044037223095,-0.4727044037223095,0.9999483425312559,9.735558096661423e-05
-0.47214811771700627,-0.47214811771700627,1.0001785866375341,9.925812273603241e-05
-0.47168336594768334,-0.47168336594768334,0.9999981327443717,0.00010029441553876018
-0.47137770452245603,-0.47137770452245603,1.0000127925966116,9.74493946697935e-05
-0.47046105430345053,-0.47046105430345053,1.0000352823909864,9.917634524399198e-05
-0.4697230499703437,-0.4697230499703437,1.0000307230693153,9.888229249072518e-05
-0.4693374652531929,-0.4693374652531929,1.0001867682151488,9.9910489827609e-05
-0.4687770355405519,-0.4687770355405519,1.0001480851196058,0.00010033305047103516
-0.46771983941143846,-0.46771983941143846,1.000113420703332,9.890568028639468e-05
-0.46715859838586765,-0.46715859838586765,1.0001021802078423,9.897486997978566e-05
-0.4665085248590913,-0.4665085248590913,1.0000368303808513,9.660792796844282e-05
-0.4654769618849969,-0.4654769618849969,1.0001800779397274,0.00010052494783687302
-0.4649449242773699,-0.4649449242773699,1.0001056124831103,9.810223347019534e-05
-0.46461117900907994,-0.46461117900907994,1.0000863266361777,9.74817177297198e-05
-0.4636621464014752,-0.4636621464014752,1.0001960030850545,9.930389804812883e-05
-0.4630410979851149,-0.4630410979851149,1.000083767510755,9.893918585732733e-05
-0.4625701509532519,-0.4625701509532519,0.9998991752317554,9.816897172386262e-05
-0.46145017917151565,-0.46145017917151565,0.9999764565188143,0.00010187670473472832
-0.4608277144492604,-0.4608277144492604,1.0000866819931522,9.852408459828149e-05
-0.4604265253903577,-0.4604265253903577,1.0000628383258066,9.951032549371408e-05
-0.45983267499541397,-0.45983267499541397,0.9999364762773937,9.981179113618184e-05
-0.45860154444526413,-0.45860154444526413,0.9998626775602514,9.642047985441466e-05
-0.4581724333605962,-0.4581724333605962,0.9997564038547899,9.894752681968063e-05
-0.45773657688405367,-0.45773657688405367,1.0001086514615916,9.835766709364803e-05
-0.4568614957039244,-0.4568614957039244,1.0000813628971832,9.789779941782224e-05
-0.4564236432692269,-0.4564236432692269,0.9999283049376743,9.963461195459185e-05
-0.45592801078164485,-0.45592801078164485,1.0000129939487887,9.941293500186706e-05
-0.45533634396851996,-0.45533634396851996,0.9999763728353059,0.00010047277147833516
-0.4543722503876779,-0.4543722503876779,0.9999544381233477,9.998610586584036e-05
-0.45396193154156206,-0.45396193154156206,0.9999454728178577,9.651878924122074e-05
-0.4533892597944941,-0.4533892597944941,1.000007373891012,9.90889602899535e-05
-0.45276951880950944,-0.45276951880950944,1.0000936737110757,9.958331616180631e-05
-0.45201416202180555,-0.45201416202180555,1.0000156544581056,9.894282749154426e-05
-0.4516248259722488,-0.4516248259722488,1.0000388229461816,9.755105800420971e-05
-0.4512378327373881,-0.4512378327373881,1.0000618397643206,9.788973716504655e-05
-0.450622346252203,-0.450622346252203,1.0000145814258938,9.736887585761359e-05
-0.4500455846398836,-0.4500455846398836,1.0000247368084918,9.865273772960645e-05
-0.44948208127752876,-0.44948208127752876,1.0000537136104584,9.888707346294461e-05
-0.44894957234791943,-0.44894957234791943,0.9999316921120306,9.726751856160315e-05
-0.4484525651874719,-0.4484525651874719,0.9998768725175662,9.987167582596354e-05
-0.4477839320956264,-0.4477839320956264,1.0000980231272687,9.797307310153304e-05
-0.44710025053063873,-0.44710025053063873,1.0000291026202521,9.762549000424787e-05
-0.44664207023160996,-0.44664207023160996,0.9998869465383932,9.738201681520817e-05
-0.4457329746626783,-0.4457329746626783,1.0001678280152988,9.851649489415638e-05
-0.44500871273921805,-0.44500871273921805,0.9999413413853784,9.682624130998554e-05
-0.44465093819017054,-0.44465093819017054,0.9999358971835584,9.80670093874532e-05
-0.4441895374795422,-0.4441895374795422,1.0001221544928671,9.67045066493322e-05
-0.44329485126072543,-0.44329485126072543,0.9997374999688147,9.760881580279284e-05
-0.4427623494731961,-0.4427623494731961,1.0000531683560172,9.815372134086701e-05
-0.4423262941505527,-0.4423262941505527,1.0000056590201267,9.623651361929318e-05
-0.44171062715467996,-0.44171062715467996,1.0000729841123923,9.762724628706739e-05
-0.4410286136524519,-0.4410286136524519,0.9999452589349589,9.745244249389338e-05
-0.4404031135025434,-0.4404031135025434,1.000183130762745,9.792175756172003e-05
-0.43962114622700027,-0.43962114622700027,0.9999916213925492,9.733371585432845e-05
-0.4390566740650684,-0.4390566740650684,1.0000101864830997,9.769433290184153e-05
-0.43837021467625165,-0.43837021467625165,1.0000496737987181,9.760295222530495e-05
-0.4378345258999616,-0.4378345258999616,1.0001337257448355,9.642571304479835e-05
-0.4372376958257519,-0.4372376958257519,0.9999712473536405,9.854230293047249e-05
-0.4364837409259053,-0.4364837409259053,1.0000007143844942,9.803083426000404e-05
-0.43589673742244484,-0.43589673742244484,1.0000562503683181,9.957497598246092e-05
-0.435347014569561,-0.435347014569561,0.9999494552700948,9.823104076523705e-05
-0.43458217824227174,-0.43458217824227174,0.9999293664876061,9.74000103092655e-05
-0.43391277742921375,-0.43391277742921375,0.9999626701691053,9.682004060938865e-05
-0.4334275082190288,-0.4334275082190288,1.0000047537711505,9.933868789389899e-05
-0.4325208845664747,-0.4325208845664747,1.0000109036801645,9.971577568777339e-05
-0.4317116759688361,-0.4317116759688361,1.0000301146220667,9.837232705178308e-05
-0.43119129926199096,-0.43119129926199096,0.999932240221959,0.00010109898575487452
-0.43045806141453796,-0.43045806141453796,1.0001707916359717,9.806326889490676e-05
-0.4297279850783525,-0.4297279850783525,1.000064550625206,9.657257493953093e-05
-0.42894119570555633,-0.42894119570555633,1.0000453591105476,9.982362555876803e-05
-0.42812379279057494,-0.42812379279057494,0.9999472776176408,9.808753296667458e-05
-0.42765533671481537,-0.42765533671481537,1.0001952399443959,9.78266916193495e-05
-0.42694932520971635,-0.42694932520971635,0.9999232915915736,9.65385449448334e-05
-0.4265053255308885,-0.4265053255308885,0.9999508814107998,9.995256336659466e-05
-0.4259394342021551,-0.4259394342021551,1.0000798507376971,9.825877348027384e-05
-0.42560521101986526,-0.42560521101986526,1.0000497222866778,9.722994265346505e-05
-0.4248120238422416,-0.4248120238422416,0.9998649638495364,9.773462335120199e-05
-0.42411996188457124,-0.42411996188457124,1.0000819893993735,9.974774837274618e-05
-0.42354850289411844,-0.42354850289411844,1.0000164845862365,9.904755857301517e-05
-0.42297354551556055,-0.42297354551556055,1.0000423962416263,9.74944685368491e-05
-0.4218797668116167,-0.4218797668116167,1.0000640963265215,9.894396961709459e-05
-0.42139648939482865,-0.42139648939482865,0.9999556257073895,9.885484555507916e-05
-0.4209163254592568,-0.4209163254592568,1.000046402016158,9.837643502316053e-05
-0.41997705534740815,-0.41997705534740815,0.9999019972969816,9.898196007389242e-05
-0.41906349961063827,-0.41906349961063827,1.0001015756001843,9.965651236519326e-05
-0.41872294536733534,-0.41872294536733534,1.0000386078865315,9.644623229074024e-05
-0.41747912188002373,-0.41747912188002373,1.0003306967788537,0.00010014385581944222
-0.4166966494813096,-0.4166966494813096,0.9999658844105636,9.965812845792718e-05
-0.41580832690233366,-0.41580832690233366,0.9999320007326981,9.98705523225741e-05
-0.41470916143152864,-0.41470916143152864,0.9999575899108697,9.778320655268046e-05
-0.414385283557931,-0.414385283557931,0.9999530864786923,9.822866262614935e-05
-0.41309526448021644,-0.41309526448021644,1.000074397946473,0.00010010151362275607
-0.412326644040877,-0.412326644040877,0.9999022918510316,9.775031596041018e-05
-0.41168236832309046,-0.41168236832309046,1.0000792202670497,9.945650306423762e-05
-0.41056348675629123,-0.41056348675629123,1.0001579459005137,9.878639567170914e-05
-0.41019542667781933,-0.41019542667781933,0.9999398054792626,9.806885430804627e-05
-0.4097419474477647,-0.4097419474477647,0.9999628564043064,9.73002971031695e-05
-0.4092558388772886,-0.4092558388772886,1.0000501287685124,9.971478120111199e-05
-0.40826981714344585,-0.40826981714344585,1.0000092124775442,9.77374793793614e-05
-0.40788434975256677,-0.40788434975256677,0.9999686363064834,9.994624054109668e-05
-0.40728570288338234,-0.40728570288338234,1.000019566675821,9.855809556830418e-05
-0.4067905836738646,-0.4067905836738646,1.0000789253402027,9.758746975350543e-05
-0.40581501288106664,-0.40581501288106664,1.0001243577066827,9.88550859385489e-05
-0.40537719579297116,-0.40537719579297116,1.0001166696200094,9.639481314620534e-05
-0.404756727538188,-0.404756727538188,1.000054136655305,9.96370049327277e-05
-0.4040880820248276,-0.4040880820248276,1.0000371665130374,9.867647970846828e-05
-0.4035296179557918,-0.4035296179557918,1.000065191359651,9.891294934954278e-05
-0.40321500453283077,-0.40321500453283077,0.999917810816638,9.626670407377915e-05
-0.4025950309005566,-0.4025950309005566,1.000139688520178,9.937525737047067e-05
-0.4018246975290822,-0.4018246975290822,1.0002144588537965,9.797514629986356e-05
-0.4011406209610868,-0.4011406209610868,1.0000982973741956,9.76272059817513e-05
-0.40062931991997175,-0.40062931991997175,1.000139838950346,9.721236903761252e-05
-0.39993327066185885,-0.39993327066185885,1.0000072012020877,9.86399226957507e-05
-0.3990142822585767,-0.3990142822585767,1.0002175962370259,9.774027280530699e-05
-0.39862703102699015,-0.39862703102699015,1.0000512044792091,9.889906250021104e-05
-0.3980986117356224,-0.3980986117356224,0.9998674987077258,9.952890535663637e-05
-0.39721790309704375,-0.39721790309704375,1.0001132128905694,9.774819452277048e-05
-0.3965905740566086,-0.3965905740566086,1.0001518293853877,9.89255642990257e-05
-0.39610568435455207,-0.39610568435455207,0.9998100821990926,9.556956575759604e-05
-0.3957103949651355,-0.3957103949651355,1.0000509606947063,9.963669794886311e-05
-0.3950728510477347,-0.3950728510477347,1.0001516309235525,9.745829349379447e-05
-0.394346032422618,-0.394346032422618,0.9999897340587106,9.70707746846939e-05
-0.3936635991936782,-0.3936635991936782,1.0000417206877459,9.822493042195377e-05
-0.3929017219954403,-0.3929017219954403,1.0001884309386395,9.778458245354957e-05
-0.3921592296595918,-0.3921592296595918,1.0001772051282134,9.962093381192935e-05
-0.39142565029615073,-0.39142565029615073,0.9999582131825313,9.736034792691616e-05
-0.39039618442766366,-0.39039618442766366,1.0000200388677896,9.811392125421365e-05
-0.38968496076995507,-0.38968496076995507,1.000048597009468,9.976419080191587e-05
-0.3890145541081438,-0.3890145541081438,0.9999813736995566,9.959827533977789e-05
-0.3879934231081279,-0.3879934231081279,0.9999924551112572,9.858402772617901e-05
-0.38716462025477083,-0.38716462025477083,1.0000084879394948,9.946139919831865e-05
-0.38648873137426565,-0.38648873137426565,0.9999563720757093,0.00010103249680795707
-0.3858426353370305,-0.3858426353370305,1.0000068272616491,9.849066260925348e-05
-0.3850886817468563,-0.3850886817468563,0.9999088111446603,9.906846251456127e-05
-0.3843068016663892,-0.3843068016663892,0.9998578239535594,9.913256278577021e-05
-0.3835770590609172,-0.3835770590609172,1.0001914051033498,9.549961447942633e-05
-0.382887226800085,-0.382887226800085,1.000128197748607,9.980265233923819e-05
-0.3820712784130592,-0.3820712784130592,1.000043604134326,9.818975107790307e-05
-0.3817020863556536,-0.3817020863556536,1.0001703910243391,9.782079480246601e-05
-0.3809911289921729,-0.3809911289921729,1.0000177282282845,9.771124964387411e-05
-0.3803072657290613,-0.3803072657290613,1.0001697842474382,9.984717347756794e-05
-0.37983622925239613,-0.37983622925239613,1.000133914017839,9.903590087745697e-05
-0.3793904178601224,-0.3793904178601224,1.0000486814954133,9.833782040446137e-05
-0.3783553524786839,-0.3783553524786839,0.9999783148633306,9.815700009430087e-05
-0.37775529820646625,-0.37775529820646625,0.9999091969763739,9.897433595980822e-05
-0.3773590255790623,-0.3773590255790623,1.0000495787436416,9.916030131777349e-05
-0.37645548188011163,-0.37645548188011163,0.999896839983316,9.71840967118213e-05
-0.37567990315146743,-0.37567990315146743,0.9999169778671178,9.889085658875907e-05
-0.375218303091242,-0.375218303091242,1.0002390661364804,9.811966068608917e-05
-0.3747662182606291,-0.3747662182606291,1.000064863991229,9.760674997882889e-05
-0.3738116354041267,-0.3738116354041267,1.000016726440555,9.982851540521874e-05
-0.3732359732472105,-0.3732359732472105,0.9999237097258764,9.79050291475552e-05
-0.37285448496986645,-0.37285448496986645,1.0000406917816596,9.815005899795421e-05
-0.3718050318857422,-0.3718050318857422,0.9999994709736683,0.00010026351279336108
-0.3709708154434338,-0.3709708154434338,1.0000418668537736,9.871823122579848e-05
-0.3705244990705978,-0.3705244990705978,0.9999462228185056,9.743117434907508e-05
-0.36938612075464333,-0.36938612075464333,0.9999736867256586,0.00010000614993073683
-0.368753000619472,-0.368753000619472,1.0000101439069216,9.777364682401045e-05
-0.3684227107383776,-0.3684227107383776,1.0000798108873294,9.81874758113947e-05
-0.3671299742010888,-0.3671299742010888,0.9999491921139831,0.00010007209565754733
-0.3663710071647074,-0.3663710071647074,1.0000407635493072,9.774765041512012e-05
-0.365713831273024,-0.365713831273024,1.000062970598767,9.946848765905935e-05
-0.3646111160458531,-0.3646111160458531,0.9999271632161874,9.876749938533458e-05
-0.36424126716156024,-0.36424126716156024,1.000135276757785,9.809621781710404e-05
-0.3636677260074066,-0.3636677260074066,1.0001173686026952,9.918004756182246e-05
-0.3632027017767541,-0.3632027017767541,0.9999748516465798,9.784030834204765e-05
-0.3623566746420693,-0.3623566746420693,1.0000473465786932,9.772152907690513e-05
-0.3619336271629436,-0.3619336271629436,1.0000817796967407,9.723086420066279e-05
-0.36135996639495715,-0.36135996639495715,0.9999523183439116,9.873906694357536e-05
-0.3605216088180896,-0.3605216088180896,1.0000707108808757,9.949466429702077e-05
-0.35973288091481664,-0.35973288091481664,0.9998705493645502,9.880720130451564e-05
-0.3592015938571421,-0.3592015938571421,1.0000045125364614,9.957004114836848e-05
-0.35851454024086704,-0.35851454024086704,1.0000589034983236,9.765968340734046e-05
-0.3578535016567912,-0.3578535016567912,0.9999438672167085,9.881906383458821e-05
-0.35739982377854174,-0.35739982377854174,1.000097267076766,9.757559731920832e-05
-0.35678296530386433,-0.35678296530386433,1.0001036260639746,9.927314005703143e-05
-0.3560394997475669,-0.3560394997475669,1.000062953977129,9.750850541493091e-05
-0.3553748342208564,-0.3553748342208564,0.9998994771795923,9.680435096985485e-05
-0.35493369171454103,-0.35493369171454103,0.9999325700253202,9.840675283502543e-05
-0.3543226354755461,-0.3543226354755461,1.0000714464103766,9.847487256849696e-05
-0.353433383119409,-0.353433383119409,1.0000586432895513,9.788860803670323e-05
-0.352794507224462,-0.352794507224462,0.9999030031444243,9.990021176578654e-05
-0.35221133355225903,-0.35221133355225903,0.9999803306888302,9.74498772609094e-05
-0.3512017977715004,-0.3512017977715004,1.0000162402274622,9.654117699149764e-05
-0.3506102880608523,-0.3506102880608523,0.9999628127763354,9.847630055985169e-05
-0.35017469903687015,-0.35017469903687015,1.0000466050179762,9.728821227560297e-05
-0.3497431428462733,-0.3497431428462733,1.0002521899732826,9.845286070696597e-05
-0.34903413690044544,-0.34903413690044544,0.9998780375200145,9.856942371766291e-05
-0.3484170902724145,-0.3484170902724145,0.999909540965682,9.67225775165917e-05
-0.34773418777331244,-0.34773418777331244,1.0000714204728989,9.726368674283214e-05
-0.34739141109457705,-0.34739141109457705,0.9998813003506328,9.752636069328687e-05
-0.3466895578458207,-0.3466895578458207,0.9999758835674344,9.694837405405503e-05
-0.34619530669297094,-0.34619530669297094,0.9999252969638845,9.959558120081078e-05
-0.3456272238312522,-0.3456272238312522,0.9998887928116253,9.909356339318262e-05
-0.3448572354158387,-0.3448572354158387,1.0001510475771553,0.00010141112836087481
-0.34405862451239955,-0.34405862451239955,1.0001852802847213,9.94442183755762e-05
-0.34304577485017945,-0.34304577485017945,1.0001479007338605,9.814855754753814e-05
-0.34199383335653694,-0.34199383335653694,0.9998636654100462,0.000100363733931275
-0.341053997236304,-0.341053997236304,1.0000139723514982,0.00010028742330575599
-0.34047919663426,-0.34047919663426,0.9998972638201099,0.00010103137492011855
-0.33987041101790966,-0.33987041101790966,1.0000622308488545,9.7459764591302e-05
-0.3390192703576759,-0.3390192703576759,0.9999561462275766,9.897636957176029e-05
-0.33816863771644423,-0.33816863771644423,1.0001175929083845,9.915727418637835e-05
