time,time,flux,flux_err
-0.4998967312106591,-0.4998967312106591,0.99993346890491,6.069857759959212e-05
-0.499748079621592,-0.499748079621592,1.0001044409993698,6.123686176766468e-05
-0.4996577404223596,-0.4996577404223596,0.9999437794895191,6.040076810293395e-05
-0.4995010177299264,-0.4995010177299264,0.9999587601670615,6.123815386633323e-05
-0.4992886052830727,-0.4992886052830727,1.000046864238811,5.5458277992615225e-05
-0.49910311044513944,-0.49910311044513944,0.9999764574919927,5.515635653780087e-05
-0.4989542768424144,-0.4989542768424144,0.9999976851549647,5.541333739134782e-05
-0.49886375223723006,-0.49886375223723006,1.0001005826726586,5.5302226148682666e-05
-0.49873972694331314,-0.49873972694331314,1.0000717930118785,5.543155599888858e-05
-0.4985784622462234,-0.4985784622462234,1.0000042313258017,5.4935347579130884e-05
-0.49844642287207536,-0.49844642287207536,1.0000188213690075,5.5480203418738706e-05
-0.49836276187706974,-0.49836276187706974,0.9999372094007912,5.5283705130576317e-05
-0.4982640335525502,-0.4982640335525502,0.9999196973521306,5.518177045938669e-05
-0.4981004870394827,-0.4981004870394827,0.9999953586358954,5.5950294286445776e-05
-0.498026392646716,-0.498026392646716,1.0000638082593252,5.5289655540770496e-05
-0.4979534858604893,-0.4979534858604893,1.0000425860012125,5.602720329076436e-05
-0.49788826955336846,-0.49788826955336846,0.9999462644801266,5.5676563235485954e-05
-0.4977579369602608,-0.4977579369602608,0.9999536637094906,5.53534914976085e-05
-0.4975816925172694,-0.4975816925172694,1.000075400355707,5.5154998065962295e-05
-0.49750179769471287,-0.49750179769471287,0.9999382674203915,5.5220925213470755e-05
-0.4974276409120648,-0.4974276409120648,0.9999779766745712,5.611330904969028e-05
-0.4973744537259336,-0.4973744537259336,1.0000360731080045,5.556060077915037e-05
-0.4972323025096557,-0.4972323025096557,1.0000491402580924,5.54856504762575e-05
-0.49711269939143676,-0.49711269939143676,1.00007732759501,5.6076987867805214e-05
-0.49705155682459007,-0.49705155682459007,1.0001136045053458,5.612288331334842e-05
-0.49698015083849895,-0.49698015083849895,0.99994254009011,5.587172835038044e-05
-0.4969155577025958,-0.4969155577025958,1.0000527546904714,5.5333865570540326e-05
-0.49676572453172413,-0.49676572453172413,0.9999940878263702,5.576409305083765e-05
-0.49664428199903343,-0.49664428199903343,0.9999670069730312,5.545192677971533e-05
-0.4965604991521104,-0.4965604991521104,1.0000263986465785,5.523959962679482e-05
-0.4964350161986658,-0.4964350161986658,1.0000006092248677,5.546783207680663e-05
-0.496295469024335,-0.496295469024335,0.9999654005489331,5.586478365551515e-05
-0.4961984095265507,-0.4961984095265507,0.9999631985493288,5.547298193974415e-05
-0.4960506932227872,-0.4960506932227872,1.0001027345084565,5.552712494920682e-05
-0.495888137750444,-0.495888137750444,1.0000236492528767,5.5679734487824524e-05
-0.49577674431347984,-0.49577674431347984,0.9999834258508079,5.606411392912059e-05
-0.4956325685561751,-0.4956325685561751,1.000042753562705,5.5846862004010096e-05
-0.49552903856383634,-0.49552903856383634,1.0000887509420946,5.541208006702566e-05
-0.49538587270362766,-0.49538587270362766,0.9999817265617486,5.584181979892819e-05
-0.49531093091936784,-0.49531093091936784,0.9999637816918279,5.513590616804952e-05
-0.4952427391996025,-0.4952427391996025,1.0001455378971538,5.498097484621855e-05
-0.49518436315993314,-0.49518436315993314,1.0001072785551455,5.514350233659484e-05
-0.4950143606067286,-0.4950143606067286,1.0000385831566718,5.497841703614734e-05
-0.4949225054791896,-0.4949225054791896,0.9999760861497407,5.582180259943363e-05
-0.49482318224036137,-0.49482318224036137,0.9999877537471467,5.6026103150802755e-05
-0.4947338317913818,-0.4947338317913818,0.9999687477636583,5.5345458531175424e-05
-0.49451411587360783,-0.49451411587360783,1.0000231290922295,5.517720153180239e-05
-0.49433378718240417,-0.49433378718240417,0.9999986433829978,5.506710487923813e-05
-0.4941463064053096,-0.4941463064053096,0.9999922258986988,5.584641286174569e-05
-0.49406479072058573,-0.49406479072058573,1.0000464499983523,5.531458041613892e-05
-0.494008787079656,-0.494008787079656,1.00002151576423,5.581487298549522e-05
-0.49388532123994083,-0.49388532123994083,1.0002628542916157,5.57543174500932e-05
-0.49373307482310336,-0.49373307482310336,1.0000546127414078,5.545149216597641e-05
-0.49364868997363376,-0.49364868997363376,1.0000116271555686,5.539382269904829e-05
-0.4935477622188046,-0.4935477622188046,0.9999728209967914,5.5204168163584995e-05
-0.4934554068124271,-0.4934554068124271,1.0000357484028524,5.5812174676663494e-05
-0.49337762631912485,-0.49337762631912485,0.9999934599719185,5.533484911309973e-05
-0.49318300119193736,-0.49318300119193736,0.9999221716346407,5.584311659578427e-05
-0.4929997381215799,-0.4929997381215799,0.9999620817138147,5.5723514586463936e-05
-0.4929289495557896,-0.4929289495557896,1.0001127320957572,5.54668351809308e-05
-0.49280586825916545,-0.49280586825916545,1.0000500859084391,5.560666805624975e-05
-0.49270365037955344,-0.49270365037955344,1.0000385685674504,5.515938511465903e-05
-0.4925776125208358,-0.4925776125208358,1.0000011849292179,5.584586400336499e-05
-0.49237635389727075,-0.49237635389727075,1.0000531655970062,5.583377913163027e-05
-0.4922950720792869,-0.4922950720792869,0.9999234525342576,5.511663964188187e-05
-0.4922144103504252,-0.4922144103504252,1.0000410301497609,5.515378651831962e-05
-0.4920292775670532,-0.4920292775670532,1.0000127614355065,5.5140415748131015e-05
-0.49196174803364556,-0.49196174803364556,1.0000440068499228,5.530304566885711e-05
-0.4918574240669841,-0.4918574240669841,0.9999872039418516,5.502664521203159e-05
-0.49176742690615355,-0.49176742690615355,1.0000601274788636,5.458894422508618e-05
-0.49156337446765974,-0.49156337446765974,1.0000185268120543,5.482355178493527e-05
-0.4913849708173075,-0.4913849708173075,1.0001009493488513,5.54043131358596e-05
-0.491303666625754,-0.491303666625754,1.0000291526990048,5.559511288807463e-05
-0.4911438332448597,-0.4911438332448597,1.000033973234645,5.5923745153432325e-05
-0.49104262791515796,-0.49104262791515796,1.0001569545044533,5.617458820281165e-05
-0.49099659507046456,-0.49099659507046456,1.0000339135856595,5.6163761351481484e-05
-0.4909366822539596,-0.4909366822539596,1.0000297503998465,5.5263717579345176e-05
-0.4908820162381744,-0.4908820162381744,1.0000266427914137,5.525207422984852e-05
-0.49078329035110074,-0.49078329035110074,1.0001018967516297,5.69341575172049e-05
-0.4906830850013648,-0.4906830850013648,1.0000125877977415,5.5824926084006315e-05
-0.4905947370818467,-0.4905947370818467,0.9999190095126138,5.524396231281786e-05
-0.490517502228613,-0.490517502228613,0.9999229356179911,5.6885210283924796e-05
-0.4903711927196127,-0.4903711927196127,1.0000548810722036,5.609581656423454e-05
-0.4902623303452856,-0.4902623303452856,1.000025951231535,5.571172803753992e-05
-0.49011835765268186,-0.49011835765268186,1.0000800664033864,5.571382612375314e-05
-0.49001136127772044,-0.49001136127772044,0.9999865316227374,5.552021100315493e-05
-0.489936994483287,-0.489936994483287,1.0000887883443343,5.555656698691411e-05
-0.4897471530464827,-0.4897471530464827,1.0000319712483958,5.5810466478071695e-05
-0.48958003634179476,-0.48958003634179476,0.9999313211812755,5.554206931236098e-05
-0.4894869094103342,-0.4894869094103342,1.000026511233791,5.587061264731824e-05
-0.4893608744474477,-0.4893608744474477,1.000068136473267,5.585683873543189e-05
-0.48923642855515936,-0.48923642855515936,0.9999729264333791,5.481032869193493e-05
-0.48917796037421796,-0.48917796037421796,0.999961801523729,5.55750999881681e-05
-0.4890835481608519,-0.4890835481608519,0.9999612342146543,5.5717775063987866e-05
-0.48898081322695364,-0.48898081322695364,1.0000878730961404,5.487571279463956e-05
-0.488892756011046,-0.488892756011046,1.0000076104600293,5.564619768190928e-05
-0.48875109552027424,-0.48875109552027424,1.0000429534244584,5.5471193436390845e-05
-0.4885779297328554,-0.4885779297328554,0.9999655255348395,5.558829412100409e-05
-0.4884530780793284,-0.4884530780793284,1.0000431581941525,5.485860678426064e-05
-0.48838926391181303,-0.48838926391181303,1.0000430907802433,5.5041623829043175e-05
-0.4881761274475139,-0.4881761274475139,0.9999455127656247,5.5257691459946974e-05
-0.4880168561343453,-0.4880168561343453,0.9999894725273238,5.468285569283457e-05
-0.48796998110774437,-0.48796998110774437,1.000136878690165,5.525816741241697e-05
-0.48790515587170374,-0.48790515587170374,1.0000382861614265,5.542447014503326e-05
-0.4878272347137681,-0.4878272347137681,1.0000801976461613,5.4930533217089356e-05
-0.48771946942433714,-0.48771946942433714,0.9999291421818167,5.540816030480722e-05
-0.4876446286638384,-0.4876446286638384,1.0000954665304054,5.535009470469623e-05
-0.48759125775977735,-0.48759125775977735,1.0001186963984747,5.572045737915387e-05
-0.4875639972437057,-0.4875639972437057,1.0000097443561355,5.67425189736195e-05
-0.4875065335378167,-0.4875065335378167,0.9999956751909036,5.526241949774375e-05
-0.48736022300872717,-0.48736022300872717,1.0000349684328393,5.55444572101175e-05
-0.48724186172185,-0.48724186172185,1.0000300741310384,5.5202461797640707e-05
-0.4871437384368619,-0.4871437384368619,0.9999299943053753,5.59161950757821e-05
-0.4869800794884213,-0.4869800794884213,0.9999976645331422,5.640729264285127e-05
-0.48681363614596196,-0.48681363614596196,1.0000408128711178,5.558011124523467e-05
-0.48668256712844593,-0.48668256712844593,0.9999657279217435,5.549022436279825e-05
-0.4865737782150973,-0.4865737782150973,0.9998703038278194,5.615775723747607e-05
-0.48648479554103685,-0.48648479554103685,1.0000409075998733,5.5455144784961333e-05
-0.4863985589443473,-0.4863985589443473,0.9999251370456292,5.5928292504578715e-05
-0.4862549238387146,-0.4862549238387146,0.9999030912626926,5.537896106184874e-05
-0.4860889536139439,-0.4860889536139439,1.0000005394873426,5.541015769876155e-05
-0.4859604818935622,-0.4859604818935622,1.0000009353502233,5.551095408061449e-05
-0.4858850030694157,-0.4858850030694157,1.000030785979616,5.5547932636028046e-05
-0.48576025355869207,-0.48576025355869207,0.9998873601562698,5.521038291352444e-05
-0.48561793800326997,-0.48561793800326997,1.0000725078197912,5.564892480604455e-05
-0.48552340579190056,-0.48552340579190056,0.9999304208747446,5.450326734613718e-05
-0.4853643456750433,-0.4853643456750433,0.9999750906013155,5.4828890060429653e-05
-0.4851609977995395,-0.4851609977995395,0.9999896195983548,5.5628606939337076e-05
-0.4850313498842297,-0.4850313498842297,1.0000121464550098,5.562142043877867e-05
-0.484937839624763,-0.484937839624763,0.9999531266131795,5.599942236410437e-05
-0.4847830315324245,-0.4847830315324245,1.000081072556534,5.5507250019070235e-05
-0.48470893146441085,-0.48470893146441085,1.0000039802243896,5.5789881066112216e-05
-0.4846470175456489,-0.4846470175456489,1.000006259428273,5.609853492051632e-05
-0.4845407881774008,-0.4845407881774008,1.000100153871245,5.598161484962081e-05
-0.484381409517664,-0.484381409517664,0.9999915317763453,5.542026485663385e-05
-0.4842751497242716,-0.4842751497242716,1.0000217807593152,5.5810848754764777e-05
-0.48415735898015555,-0.48415735898015555,1.0000774125131164,5.643918724845526e-05
-0.48399160505941835,-0.48399160505941835,1.0001037281987823,5.525726118417385e-05
-0.4838501271413406,-0.4838501271413406,1.0000341492711438,5.601494906479024e-05
-0.483702875560266,-0.483702875560266,0.9999691703438334,5.58278992159801e-05
-0.48360466924350476,-0.48360466924350476,1.0000079302345146,5.575504820677132e-05
-0.48345326385024234,-0.48345326385024234,0.9999709593579871,5.5849036735272607e-05
-0.48335635667463067,-0.48335635667463067,1.0000366832851726,5.5804435596256375e-05
-0.48327728087460853,-0.48327728087460853,1.0000100916749308,5.52892808748196e-05
-0.483212731104868,-0.483212731104868,0.9999726373367712,5.531030858777328e-05
-0.4831606611740426,-0.4831606611740426,0.9999870627694977,5.489599017014584e-05
-0.4830492307140958,-0.4830492307140958,1.0000202129009146,5.524964306535476e-05
-0.482917066157097,-0.482917066157097,1.0000392342025852,5.551785421551383e-05
-0.4828137742544641,-0.4828137742544641,0.9999702104118295,5.49128926011619e-05
-0.48273585261631524,-0.48273585261631524,0.9999734445728599,5.5196277614528674e-05
-0.4826430967106717,-0.4826430967106717,1.0000200871816431,5.5753924228982666e-05
-0.4824665836364147,-0.4824665836364147,1.0000204048981238,5.551668907436585e-05
-0.48232190745766274,-0.48232190745766274,0.9999781510337404,5.4918777285241405e-05
-0.4822324918859522,-0.4822324918859522,1.0001245177327214,5.49033427306931e-05
-0.4821715179481544,-0.4821715179481544,0.9999711035552933,5.5669971549551406e-05
-0.48202439610031433,-0.48202439610031433,1.0000449454819513,5.5526408194145406e-05
-0.4818643707825686,-0.4818643707825686,1.0000413382802622,5.5155828419410764e-05
-0.48177372511854627,-0.48177372511854627,1.0000238673542001,5.4875575493980255e-05
-0.48162814672687093,-0.48162814672687093,1.0000661014927983,5.518113168847623e-05
-0.4815450107198558,-0.4815450107198558,0.9999996851754407,5.569116480268521e-05
-0.4814746915290016,-0.4814746915290016,1.0000422284330788,5.503570261624931e-05
-0.4813951744872611,-0.4813951744872611,0.9999587372631638,5.5143358035088024e-05
-0.48127240969333795,-0.48127240969333795,1.000030762662361,5.6207529838875986e-05
-0.48115542657178595,-0.48115542657178595,1.0000069836793268,5.5854541190380146e-05
-0.48102715127606643,-0.48102715127606643,1.000028655271001,5.5488940842801434e-05
-0.48087732999265426,-0.48087732999265426,0.9999422695736561,5.513402980569543e-05
-0.48068118282244543,-0.48068118282244543,0.9999864113770686,5.606664786605057e-05
-0.4805917028832482,-0.4805917028832482,0.9999770483370604,5.525100251182989e-05
-0.48046345389302586,-0.48046345389302586,1.0000623346122093,5.5236729382085434e-05
-0.480331077662413,-0.480331077662413,0.9999996218001387,5.562503527930031e-05
-0.4802291610409156,-0.4802291610409156,0.9998734784911975,5.615548842273821e-05
-0.48007862192898754,-0.48007862192898754,1.0000590679412862,5.598462493642492e-05
-0.4799437910231063,-0.4799437910231063,0.9999394343358021,5.510634502140896e-05
-0.4798241117619909,-0.4798241117619909,1.00005975434387,5.5307187543611396e-05
-0.4797544908360578,-0.4797544908360578,0.99993254096457,5.568885514959369e-05
-0.47961363842041466,-0.47961363842041466,0.9999628910247045,5.579886886128287e-05
-0.4794240918781725,-0.4794240918781725,1.0000185893222793,5.461304609454821e-05
-0.4792649778042687,-0.4792649778042687,0.999981238438578,5.55035118048478e-05
-0.47905432539701,-0.47905432539701,1.000062211766865,5.515178757351773e-05
-0.478952756075887,-0.478952756075887,1.0000373144751047,5.519231719986051e-05
-0.47880912436667133,-0.47880912436667133,1.0000315769158274,5.5095339882023784e-05
-0.47870695961028104,-0.47870695961028104,0.9999489000730748,5.4629457776203624e-05
-0.4786227963530109,-0.4786227963530109,1.000008999592529,5.5514498185666816e-05
-0.47854804473608964,-0.47854804473608964,1.0000288166378581,5.556967066527804e-05
-0.47840070716338234,-0.47840070716338234,0.9999380624581453,5.4830866664315165e-05
-0.47828759701224044,-0.47828759701224044,0.9999734950748485,5.5722334686449236e-05
-0.4782211579629802,-0.4782211579629802,0.9999797664192229,5.6400247230498296e-05
-0.47813562847150026,-0.47813562847150026,0.9999334306510859,5.5289814776576556e-05
-0.47801742387382545,-0.47801742387382545,1.0000611129111536,5.536291469813336e-05
-0.47788746227597584,-0.47788746227597584,1.0000359681655249,5.534229818131789e-05
-0.4777560940943658,-0.4777560940943658,1.000067983768142,5.6427739415432034e-05
-0.4776707653523772,-0.4776707653523772,0.9999882468198544,5.515248697595293e-05
-0.4775056636179215,-0.4775056636179215,1.0000373973861418,5.577907667405653e-05
-0.47739081550535045,-0.47739081550535045,1.0000192313011858,5.546962677048589e-05
-0.47732247422391083,-0.47732247422391083,1.000066928661979,5.606183338980297e-05
-0.4772594452282647,-0.4772594452282647,1.0000798934570418,5.558657400863778e-05
-0.47717389809986344,-0.47717389809986344,1.0000115811350443,5.623432886385985e-05
-0.47708718242793113,-0.47708718242793113,1.0000613012012334,5.5543279381240995e-05
-0.47694558934745146,-0.47694558934745146,1.0000338886902151,5.578412926936692e-05
-0.4768490147427656,-0.4768490147427656,0.9999458068727318,5.595988959891048e-05
-0.47679053671017757,-0.47679053671017757,1.0000414531436006,5.466659159453401e-05
-0.47668536438868614,-0.47668536438868614,0.9999826173419841,5.638434484052809e-05
-0.4765789425757248,-0.4765789425757248,0.9999990165482633,5.585712869641329e-05
-0.4764881325652823,-0.4764881325652823,1.0000171686166641,5.474899715793918e-05
-0.4763684805002413,-0.4763684805002413,0.9999551203436683,5.547965928048243e-05
-0.4762570414910442,-0.4762570414910442,0.9999234312930859,5.591982934120165e-05
-0.4761707218858646,-0.4761707218858646,1.0000508645528878,5.57645493328631e-05
-0.4760481397170224,-0.4760481397170224,0.9999164843434784,5.5523802689127504e-05
-0.475907499717141,-0.475907499717141,1.0000322617544315,5.546644901486827e-05
-0.4758152287773555,-0.4758152287773555,1.0000981886321008,5.585508173289878e-05
-0.475691760519112,-0.475691760519112,1.0000728651455437,5.5466840045624954e-05
-0.47548939742991936,-0.47548939742991936,1.0000498440523276,5.4950252449591146e-05
-0.475444314815104,-0.475444314815104,0.9999785102789623,5.5333074839608706e-05
-0.47533986808848566,-0.47533986808848566,0.9999844525765857,5.5431474546596116e-05
-0.47523604886082466,-0.47523604886082466,0.9999952099640002,5.4838682705513506e-05
-0.4751200448386953,-0.4751200448386953,0.999911999411054,5.570943192325154e-05
-0.4750368173641618,-0.4750368173641618,0.999991898779026,5.586753451146039e-05
-0.4748862699038,-0.4748862699038,0.999993021770756,5.584293454373028e-05
-0.474772507562011,-0.474772507562011,0.9999773653568995,5.518628061960167e-05
-0.4746541992921266,-0.4746541992921266,0.9999669068240383,5.5305187705572616e-05
-0.47441470056946855,-0.47441470056946855,1.0000598067671684,5.551413325448973e-05
-0.47430703582358547,-0.47430703582358547,1.0000506756801977,5.586597437671574e-05
-0.4742772018391406,-0.4742772018391406,1.000023481437453,5.571787081051599e-05
-0.47414457573613616,-0.47414457573613616,0.9999629264598788,5.5734844717574404e-05
-0.4739439690034487,-0.4739439690034487,1.0000720111232368,5.5959646187671e-05
-0.47380421418492913,-0.47380421418492913,1.0000764592093192,5.556510133925909e-05
-0.4737628920513089,-0.4737628920513089,0.9999484004062402,5.527385702912168e-05
-0.47368267739802833,-0.47368267739802833,0.9999894491458168,5.578255158328598e-05
-0.4736077088746242,-0.4736077088746242,0.9999540520266363,5.5139576377987244e-05
-0.47349121798324634,-0.47349121798324634,0.9999291112649529,5.505323039856494e-05
-0.4733037945319666,-0.4733037945319666,1.0000280340813155,5.602305812721063e-05
-0.47318910497415345,-0.47318910497415345,0.9999862905467923,5.480997423898611e-05
-0.47307189892744644,-0.47307189892744644,1.0000815084493977,5.518494741762061e-05
-0.4729252705306862,-0.4729252705306862,0.9998266221141499,5.496059915132764e-05
-0.4728040376372519,-0.4728040376372519,1.000147927496604,5.58184481231256e-05
-0.47261625068640567,-0.47261625068640567,0.9999694853663087,5.544475891767891e-05
-0.47249392567027826,-0.47249392567027826,0.9999919529281197,5.493990399202459e-05
-0.4723872129921801,-0.4723872129921801,0.9999289892729297,5.585762540917068e-05
-0.4722483821969945,-0.4722483821969945,0.9999895173181175,5.531366858092732e-05
-0.4721453237871174,-0.4721453237871174,1.0001161797141485,5.5543888688678805e-05
-0.4720622322784038,-0.4720622322784038,0.9999591366886479,5.51444051716891e-05
-0.4719260860947543,-0.4719260860947543,1.0000455221028473,5.547670016819091e-05
-0.47182751136278966,-0.47182751136278966,0.9999470894403819,5.5543955176800813e-05
-0.47171490227046886,-0.47171490227046886,1.0000432623067197,5.4887420961419e-05
