time,time,flux,flux_err
-0.49988043147662325,-0.49988043147662325,0.9998328951183948,0.00029920281363637045
-0.49974959024353327,-0.49974959024353327,1.0002464382700378,0.0002837233444088496
-0.49963885278141335,-0.49963885278141335,0.9993629925510037,0.0002748304204516828
-0.49954955969771503,-0.49954955969771503,1.00039330893356,0.00029002331513692636
-0.49940235373897507,-0.49940235373897507,0.9998315896581845,0.0002800538553865198
-0.4992708565032672,-0.4992708565032672,0.9997629582733332,0.00026087891111978046
-0.4991558266359618,-0.4991558266359618,0.9995236367887934,0.0003230623250178256
-0.4990794289598114,-0.4990794289598114,1.0001053206933066,0.00029155269021663844
-0.4990155345543997,-0.4990155345543997,1.00042853239145,0.0003348598529891792
-0.4989283438515429,-0.4989283438515429,1.0005490400100328,0.00028341640202913523
-0.4987718280566014,-0.4987718280566014,1.0000640915125616,0.00029915535741823656
-0.49863621004467407,-0.49863621004467407,1.0001298474214837,0.0002743151839631426
-0.4985119603150622,-0.4985119603150622,1.0002764599989367,0.00027512807314767365
-0.4984227084288534,-0.4984227084288534,0.9992983116466275,0.0002902992570565071
-0.49825896700326666,-0.49825896700326666,0.9996878353784865,0.0002773614361168235
-0.49815101446808396,-0.49815101446808396,0.9999306865187034,0.00028706450782744846
-0.49801813700856884,-0.49801813700856884,1.0000654493570775,0.00031636105803264106
-0.49794980508707454,-0.49794980508707454,0.9996450770207504,0.00031193056524888245
-0.4978777641243141,-0.4978777641243141,0.9995857033650086,0.0003056851069386189
-0.49780896508781325,-0.49780896508781325,1.0004480258133617,0.0002886280229097284
-0.49766322464094515,-0.49766322464094515,0.9998464823721089,0.0002991571138426969
-0.4975275998309826,-0.4975275998309826,0.9996042339817229,0.0002740717759919621
-0.49737698051096685,-0.49737698051096685,0.999931291077349,0.00028373648299135365
-0.4973138725438332,-0.4973138725438332,1.0004174012201639,0.00028238813533903735
-0.4971503550330681,-0.4971503550330681,0.9997755566315536,0.00027723820560258624
-0.4970424065365194,-0.4970424065365194,0.9998365359310804,0.0002871152021020305
-0.4969095301114976,-0.4969095301114976,0.9997055965264694,0.0003163899875302684
-0.496841206676703,-0.496841206676703,1.0004399477414883,0.00031207933039034257
-0.49676485474834065,-0.49676485474834065,0.9998735854904943,0.0003106694557144034
-0.496670724387468,-0.496670724387468,0.9997484659824073,0.0002920607033367791
-0.49655309988126534,-0.49655309988126534,1.0000180902413807,0.0002903993155053405
-0.4964189896148639,-0.4964189896148639,1.000092063887508,0.0002742527474291224
-0.4962561702520816,-0.4962561702520816,0.999650831821068,0.0002908212922208073
-0.49614264367057215,-0.49614264367057215,0.9998706223621575,0.0002855106143798042
-0.49601064988714827,-0.49601064988714827,1.0000880437025437,0.00027414427844802693
-0.4959244257861542,-0.4959244257861542,1.0005396587058522,0.00028018906953422465
-0.49580092321967867,-0.49580092321967867,0.9998951980451324,0.00031619190547636897
-0.49573260826450677,-0.49573260826450677,0.9995250348366472,0.0003119493433616035
-0.49565626559049747,-0.49565626559049747,1.0000185163540054,0.0003106628132970777
-0.4955621246207727,-0.4955621246207727,1.0004493910052568,0.0002921852212975922
-0.49544449005065305,-0.49544449005065305,1.0002598616834535,0.0002905196322561363
-0.49531037940041645,-0.49531037940041645,1.0003028566314833,0.00027420396636065826
-0.4951395316496132,-0.4951395316496132,1.000169826333844,0.0002772154335198667
-0.49498685666146114,-0.49498685666146114,0.9995738102459019,0.00029794750119028265
-0.49489517274716377,-0.49489517274716377,1.0001278421733755,0.00027540323982423807
-0.49479810609921626,-0.49479810609921626,1.0003351311315627,0.00029302132027075325
-0.4946740304357832,-0.4946740304357832,1.0005651407754779,0.00032113636064475475
-0.49461268500792244,-0.49461268500792244,0.9999076623365777,0.0003026849282908613
-0.49450769810709405,-0.49450769810709405,0.9998057690671673,0.00029729079343765875
-0.49443439882023765,-0.49443439882023765,1.000173562208301,0.00029802858836326527
-0.4943358802214675,-0.4943358802214675,1.0002133075190127,0.00029043432078310836
-0.4942017691832007,-0.4942017691832007,1.000264532578539,0.0002741273276114015
-0.49403093744041937,-0.49403093744041937,0.9995040688010682,0.0002771198051474509
-0.49387182295686216,-0.49387182295686216,1.0001251328601917,0.00027912394890716806
-0.4937605410787171,-0.4937605410787171,1.0002367123005482,0.0002895166829856405
-0.49366019973192576,-0.49366019973192576,0.9993042410920566,0.0002894716603999188
-0.4935488601540271,-0.4935488601540271,0.9999671319260462,0.0003114433117071601
-0.493483212742035,-0.493483212742035,1.0002055420655165,0.0003199732556621849
-0.49338533933920414,-0.49338533933920414,0.9995740763473032,0.00028330707624187545
-0.4932480785371126,-0.4932480785371126,1.0001766333001796,0.0002940310904390932
-0.49319312373501134,-0.49319312373501134,0.9998462543854825,0.00028530283237309506
-0.4930230564524152,-0.4930230564524152,0.9991157005624013,0.0002844958118008452
-0.4928863062355958,-0.4928863062355958,1.000001425849384,0.00027701110481813103
-0.4927323123265637,-0.4927323123265637,1.0004228823839847,0.00028524850522793435
-0.4926298143542226,-0.4926298143542226,0.9997592902618786,0.0002758832790552587
-0.49250596572458105,-0.49250596572458105,0.9997767987978501,0.0003150524022425995
-0.4924277769604771,-0.4924277769604771,1.0001575595203915,0.0002916592802009537
-0.4923537909831964,-0.4923537909831964,1.0000701216376122,0.00032218164092510124
-0.4922457629266376,-0.4922457629266376,1.0000285070637296,0.00028638239425802375
-0.4921290513989902,-0.4921290513989902,0.9998177939797482,0.0002951870726842525
-0.49204439308946346,-0.49204439308946346,0.9998785848156642,0.00027451270310393616
-0.49188011579857405,-0.49188011579857405,1.0002844306503909,0.000289529826966119
-0.491752165581164,-0.491752165581164,1.0000444253267418,0.00028167983408824716
-0.4915961894666282,-0.4915961894666282,1.0003311110359148,0.0002781024078408882
-0.4914993669174123,-0.4914993669174123,0.9999840906767632,0.0002870628967272395
-0.49137800255454633,-0.49137800255454633,1.0001971067456872,0.00030861585299308473
-0.4913102863171389,-0.4913102863171389,1.0000086482609092,0.00029693142519630114
-0.4912234161146557,-0.4912234161146557,1.0004266674167772,0.0003163334674082687
-0.4911043298984737,-0.4911043298984737,0.9999059008984051,0.00029258209151731754
-0.49098475266703756,-0.49098475266703756,0.9995832650151236,0.00029863908816307234
-0.4908657833254949,-0.4908657833254949,0.9998841184201076,0.00027404678767042006
-0.4907386248763146,-0.4907386248763146,1.0001246350463542,0.0002822817461077275
-0.4906105729707235,-0.4906105729707235,1.0003321891321586,0.0002840806400575073
-0.49046759434492626,-0.49046759434492626,0.9999158787752782,0.0002740474941808457
-0.4903636858715174,-0.4903636858715174,0.9998955673835999,0.00029303984364024624
-0.49025329814012936,-0.49025329814012936,1.0001220827142219,0.0003070352678743143
-0.4901807472975349,-0.4901807472975349,0.9999258483725463,0.00031163783463220506
-0.4900943612063543,-0.4900943612063543,1.0001245299394506,0.0002936582055555789
-0.4899638600533308,-0.4899638600533308,1.0000407621844345,0.000290169328085851
-0.489835237136856,-0.489835237136856,1.0000659698482675,0.0002852426449002371
-0.4896854834714304,-0.4896854834714304,1.000191098232653,0.0002778193405998877
-0.48954391820341814,-0.48954391820341814,0.9999475049470071,0.00028237138866949585
-0.48943093312845465,-0.48943093312845465,0.999755940429105,0.00029429357425816164
-0.4893240394448526,-0.4893240394448526,0.9997062077963406,0.00028696747941993437
-0.4891946546366285,-0.4891946546366285,1.00015171512934,0.000303619942498569
-0.48910327761285544,-0.48910327761285544,0.9998593660345658,0.0003003205551705873
-0.48903880419542245,-0.48903880419542245,0.9999803033367503,0.00031712655157662654
-0.48895093581697324,-0.48895093581697324,1.0001004046561588,0.0002834685630836852
-0.4888153930970304,-0.4888153930970304,0.9998034815548656,0.0002876272135023465
-0.4886661266881049,-0.4886661266881049,1.0001658231867219,0.00028477002979829767
-0.488525933462779,-0.488525933462779,0.9999781928916637,0.00028758233166216007
-0.4883750630816678,-0.4883750630816678,0.999904367244514,0.0003029845416304976
-0.4882674560503915,-0.4882674560503915,0.9995452384761553,0.00026713127018427094
-0.4881735442699949,-0.4881735442699949,1.0000629963858128,0.0002730575404697509
-0.488061004558341,-0.488061004558341,0.9996253840156276,0.00030953818086170966
-0.4879753762473456,-0.4879753762473456,1.0001659819753066,0.00031820942788667126
-0.48788146204822735,-0.48788146204822735,0.99996293462272,0.00030358755249112026
-0.48778914915495764,-0.48778914915495764,1.0000099857512779,0.0002843396097623621
-0.48766490794999984,-0.48766490794999984,0.9999797280691671,0.00029674228595835694
-0.48751390779722215,-0.48751390779722215,1.00037761590193,0.00026815035120325445
-0.4873844487160852,-0.4873844487160852,1.0001694855421535,0.0002879223454658677
-0.4872439615793496,-0.4872439615793496,1.0001298684860618,0.0002989154497661348
-0.48713928571495446,-0.48713928571495446,0.9999216707325749,0.0002730532293848075
-0.4870200818120793,-0.4870200818120793,1.0000300437266652,0.00028017581235015375
-0.4869274644589609,-0.4869274644589609,1.0001683893579436,0.000307210464404134
-0.4868532882364832,-0.4868532882364832,1.0003595139025343,0.00031541205150498446
-0.48675383517037857,-0.48675383517037857,1.0000926261918142,0.00029828033763154934
-0.4866551500337266,-0.4866551500337266,0.9998386732548511,0.0002938671170213483
-0.48653027911561253,-0.48653027911561253,0.9997469366376865,0.0002859456984816774
-0.4863851165078984,-0.4863851165078984,0.9998956146095006,0.0002725662087108423
-0.4862398277608918,-0.4862398277608918,0.9998280489683827,0.0002879124922249599
-0.48611404162424493,-0.48611404162424493,1.000026698199166,0.00029432814775879945
-0.4860064483251449,-0.4860064483251449,1.0002742301394352,0.0002726941156863128
-0.4858842107954615,-0.4858842107954615,0.9998394519999592,0.0002794350657090854
-0.4857902003007496,-0.4857902003007496,0.9996131594798987,0.000324136381002742
-0.4857231856342651,-0.4857231856342651,0.9998497021419228,0.0003161151265146993
-0.48563347602951695,-0.48563347602951695,0.9999159890298612,0.0002905398185228233
-0.4855175611704624,-0.4855175611704624,1.0001830294257048,0.00028322612367901606
-0.4853764066840597,-0.4853764066840597,0.9999331269967182,0.00029468050365235123
-0.4852250291920086,-0.4852250291920086,0.9996390639600241,0.00027939401605037433
-0.4850638742408364,-0.4850638742408364,1.0002194230015422,0.000296509112054343
-0.484958013110122,-0.484958013110122,1.000520020322849,0.00027557638717819514
-0.48485138431015573,-0.48485138431015573,1.0004160444356163,0.00027521817967255367
-0.48473517735756105,-0.48473517735756105,0.9999081283119089,0.0002965288666503977
-0.4846504553234524,-0.4846504553234524,0.9998620675353586,0.0003146705952427615
-0.484555687052341,-0.484555687052341,0.9999896401825363,0.00030360553692859027
-0.4844641504882077,-0.4844641504882077,0.9995778494725853,0.0002982516992740893
-0.48435855651599696,-0.48435855651599696,1.0000542620081678,0.0002939990263675221
-0.4841963826755489,-0.4841963826755489,0.9997853268187369,0.0002740169183657487
-0.4840549988749615,-0.4840549988749615,1.0003334878770136,0.00028756399571762544
-0.4838968180023073,-0.4838968180023073,1.0000372426617745,0.000294192555786948
-0.4838022897443238,-0.4838022897443238,1.0005326283116023,0.00027369724174701297
-0.4836915068597648,-0.4836915068597648,0.9998524008942461,0.0002765191760475792
-0.48358664256688827,-0.48358664256688827,1.0000681863312877,0.00031045023153725967
-0.48350599477159906,-0.48350599477159906,0.9996893344033568,0.00031602302015310403
-0.4834162692160987,-0.4834162692160987,0.9998376692289025,0.00029062283724798235
-0.48330117952508544,-0.48330117952508544,1.000159812951115,0.0002972000391930882
-0.483164710510556,-0.483164710510556,1.0000572797899963,0.00028856607967614044
-0.4830338548652094,-0.4830338548652094,0.9999115108143766,0.0002778106459702028
-0.48286636553025913,-0.48286636553025913,0.9999751384189874,0.0002970683948699263
-0.48272673377124986,-0.48272673377124986,0.9999608081380067,0.0002653124028200726
-0.48264889814271894,-0.48264889814271894,0.9999457298682713,0.000282254558536956
-0.4825373317132858,-0.4825373317132858,1.0000211509458994,0.0003031761082687032
-0.4824508430555852,-0.4824508430555852,1.0001464796029933,0.0002963045484975221
-0.4823547009108154,-0.4823547009108154,1.000215871700594,0.0003160787372975168
-0.4822734639011287,-0.4822734639011287,0.9997566798920605,0.0003017992991927776
-0.48214277726876276,-0.48214277726876276,0.9994897168989233,0.00029916276937426726
-0.4819910892473104,-0.4819910892473104,1.0004325209193101,0.0002727657264053796
-0.4818743852405589,-0.4818743852405589,0.9999769032183197,0.0002874446470606226
-0.4816860100890949,-0.4816860100890949,0.9998719640471287,0.00027891371148143783
-0.4815850701366628,-0.4815850701366628,0.9998995369995815,0.0002736708411833513
-0.48149136238087065,-0.48149136238087065,0.99994277165619,0.00028643801470891553
-0.4813844084673917,-0.4813844084673917,0.999987454884484,0.00030735944235014804
-0.4812934574440021,-0.4812934574440021,1.00046204440171,0.00031184937592614894
-0.4812036488460706,-0.4812036488460706,1.0003135721212442,0.0002966607513965251
-0.4810658905634739,-0.4810658905634739,0.9999987233899162,0.00028978669371727887
-0.4809540047144651,-0.4809540047144651,1.0006338208116405,0.0003082452475557242
-0.48084206874090113,-0.48084206874090113,0.9998234330833797,0.00027267852633722147
-0.48065281447223357,-0.48065281447223357,1.0001351286536335,0.00029405716137842155
-0.4805095109376623,-0.4805095109376623,0.9999819812473996,0.00026531188036261723
-0.4804263210182228,-0.4804263210182228,0.9996500001208186,0.0002901018008096603
-0.4803411435984685,-0.4803411435984685,1.0000750164708188,0.0002796586887870464
-0.4802444407076848,-0.4802444407076848,0.9999962131083715,0.0003056866072174793
-0.48013752213007593,-0.48013752213007593,0.9999413116813203,0.0003160872769071083
-0.48003063286613495,-0.48003063286613495,1.0003089426914644,0.0002949571150145371
-0.4799077378282391,-0.4799077378282391,0.9999760829749725,0.00030278837800797867
-0.47978374611865887,-0.47978374611865887,1.0001807954581925,0.00029083948042386544
-0.47968203354184313,-0.47968203354184313,1.000146864239192,0.00027947102422934764
-0.4794687812473398,-0.4794687812473398,1.0002864144583707,0.0002788974445461855
-0.47936785054384357,-0.47936785054384357,0.9999472095309618,0.00027357243699857256
-0.479265276910877,-0.479265276910877,0.9996286920989981,0.00028650097200830975
-0.47916718612312936,-0.47916718612312936,1.000248744248344,0.00030745325043239364
-0.4790716130336136,-0.4790716130336136,0.9997856904957171,0.000315913876148525
-0.47897352817772115,-0.47897352817772115,1.0003965873719323,0.000283602245899398
-0.4788396516356158,-0.4788396516356158,1.000226744835274,0.0002981042007091827
-0.4787279408656843,-0.4787279408656843,0.9996891147813305,0.0003083527508229192
-0.47862484962379315,-0.47862484962379315,1.000141955935176,0.0002725939402993804
-0.47843560892245024,-0.47843560892245024,1.0001820110684505,0.0002940730265476621
-0.47829228811354485,-0.47829228811354485,1.0001359936521461,0.0002653726722493345
-0.47820558550172904,-0.47820558550172904,0.9997704163933318,0.0002823465029042107
-0.47808549780104953,-0.47808549780104953,1.0001638558680392,0.0003110306743589025
-0.4780056382116129,-0.4780056382116129,1.0000502447099695,0.0003077108780502046
-0.47791292520400364,-0.47791292520400364,1.0002616799511321,0.0002910209827785031
-0.4778134319302808,-0.4778134319302808,0.999361575041122,0.0002950210181892423
-0.47769052978918014,-0.47769052978918014,1.0001514964248794,0.00030290498404363585
-0.477566534391741,-0.477566534391741,1.000264432640107,0.0002908643236342914
-0.4774648353071484,-0.4774648353071484,0.999959510903885,0.0002794503938276404
-0.47725155241964784,-0.47725155241964784,0.9999878833582067,0.000278880358578019
-0.4771506309614665,-0.4771506309614665,1.0001506370018096,0.0002736095100516305
-0.47704573893245766,-0.47704573893245766,1.0002190584977861,0.00029751572703439237
-0.47694093872324855,-0.47694093872324855,1.0002297460962757,0.00029450670545092493
-0.47683350229015103,-0.47683350229015103,0.9999406704896963,0.00032169255859617485
-0.47673452548824,-0.47673452548824,0.9997285405690846,0.0002913682952142947
-0.4766219811595874,-0.4766219811595874,0.9999693041819151,0.00028387647681967724
-0.47651074568276497,-0.47651074568276497,1.000050319218564,0.0003082850190314351
-0.47640763050105195,-0.47640763050105195,1.000007314789767,0.00027259393701897577
-0.47618257126021035,-0.47618257126021035,0.9997110878514658,0.00028361790975419755
-0.4760665541169374,-0.4760665541169374,0.999756167289951,0.00027645473964404467
-0.47598836353861884,-0.47598836353861884,0.9996760609061397,0.00028228953253802054
-0.47586829365878885,-0.47586829365878885,0.9999087591235696,0.0003111264313644427
-0.4757750063028482,-0.4757750063028482,1.0002133732030323,0.0003047413010188932
-0.4756606456051543,-0.4756606456051543,0.9998036924548943,0.00029659385332348837
-0.4755425503192612,-0.4755425503192612,0.9999285288652955,0.00029342200292127476
-0.47545556570343595,-0.47545556570343595,0.9997903520902902,0.0002975923211532372
-0.4753362324607224,-0.4753362324607224,0.9999766962719796,0.00029507027871074045
-0.4752306575648106,-0.4752306575648106,0.9997694923492922,0.0002725881478555475
-0.4750069598037783,-0.4750069598037783,1.0003297096425279,0.0002855267185325985
-0.4749334113954092,-0.4749334113954092,0.9999536268611007,0.0002733702755207269
-0.47482852206528037,-0.47482852206528037,0.9999710911503129,0.00029768080594113147
-0.47472372990845885,-0.47472372990845885,1.0001839033398918,0.000294461181465436
-0.4746163181937277,-0.4746163181937277,1.0001194149829191,0.0003217594929313801
-0.47451733018129405,-0.47451733018129405,1.000214125199442,0.00029150078525746125
-0.47438702637452934,-0.47438702637452934,1.0002385066810882,0.0002838429467543579
-0.4742935505097705,-0.4742935505097705,0.9996808720676643,0.0003083282664243734
-0.47419692608416425,-0.47419692608416425,0.9999868501406504,0.00027871529658335896
-0.4740202348865978,-0.4740202348865978,1.0000438592302694,0.0002878844083437933
-0.47386296856703325,-0.47386296856703325,0.9996168865850015,0.0002764673089920263
-0.4737896544169587,-0.4737896544169587,0.9999311831383746,0.0002829988377306849
-0.4736741497074206,-0.4736741497074206,0.9997581067552781,0.00030389325062702614
-0.47357878325365166,-0.47357878325365166,0.9996765861982823,0.0003049529706130742
-0.47346544730298207,-0.47346544730298207,0.9995810072353585,0.0002940579101366504
-0.473353689531632,-0.473353689531632,1.00002821674541,0.00030395042106739253
-0.47325020683377944,-0.47325020683377944,0.9997200010676381,0.0002909449500681801
-0.4731321109458236,-0.4731321109458236,0.9999015868724197,0.00029057914071109367
-0.473020506233064,-0.473020506233064,1.0002798988334787,0.00027899500126175007
-0.4728170948178615,-0.4728170948178615,1.0003950599674967,0.0002787022833880775
-0.4727272596677494,-0.4727272596677494,0.9993975371680225,0.00027851496650028914
-0.47262361785631696,-0.47262361785631696,1.0000149617863434,0.0002837736580188979
-0.4725065211094147,-0.4725065211094147,0.9998733330810496,0.00029447300737145556
-0.47240940943786425,-0.47240940943786425,1.0005254352756996,0.00033429775973614357
-0.4723219233100622,-0.4723219233100622,0.9999196316660768,0.0002836134504809245
-0.47218883194001365,-0.47218883194001365,0.9998766852752616,0.0002880425251228254
-0.4721034231066767,-0.4721034231066767,1.0002107615963953,0.00031438781607460097
