time,time,flux,flux_err
-0.49987288429765614,-0.49987288429765614,1.0002372385960303,0.00019391495373668647
-0.49974987357272765,-0.49974987357272765,1.0002910159666658,0.00023276345380819855
-0.4995340465073241,-0.4995340465073241,0.999742665627917,0.00021954970702526321
-0.4994338623873773,-0.4994338623873773,0.9996590386861627,0.00024476810719749743
-0.49933441845860216,-0.49933441845860216,0.9999417882524966,0.000222355118029355
-0.4992708453653904,-0.4992708453653904,1.0001290028866183,0.00022119290117361305
-0.49918148836804904,-0.49918148836804904,1.0002051014854239,0.00023495583234236345
-0.4990522925108962,-0.4990522925108962,1.0000924351781126,0.00022898966201633205
-0.4989798530295957,-0.4989798530295957,0.9998848219221067,0.00021676912601099738
-0.49887172851376815,-0.49887172851376815,1.0000881663161258,0.0002494993752934837
-0.4988365994860942,-0.4988365994860942,0.9998219980481597,0.00025130228846089657
-0.49870939765969524,-0.49870939765969524,1.000102945609235,0.00020961733374460484
-0.4985145386744989,-0.4985145386744989,0.9999087729308593,0.0002209166319819006
-0.49839104605052853,-0.49839104605052853,1.0001190218801035,0.00020427146862761575
-0.4982171256109723,-0.4982171256109723,1.0000840096660322,0.000248045438148816
-0.49808292200250437,-0.49808292200250437,1.0001231364901861,0.00021424749049702682
-0.49793116332002685,-0.49793116332002685,0.9996767809101625,0.0002416458118321863
-0.49777623490226686,-0.49777623490226686,1.000111086523813,0.00021207436371682622
-0.4976064758040593,-0.4976064758040593,0.9998799930215936,0.00022009075639371566
-0.4975070662847429,-0.4975070662847429,1.000083401807674,0.000214386997144228
-0.4974437363503966,-0.4974437363503966,0.999990692476117,0.0002301008549652454
-0.4974257789333933,-0.4974257789333933,1.0000923133491342,0.00020244829015753129
-0.4973769691117923,-0.4973769691117923,0.9999539939905556,0.00026015629427352807
-0.49728899313267905,-0.49728899313267905,1.0001683037038078,0.000242338931584192
-0.4970901381864678,-0.4970901381864678,0.9999022325223335,0.00023384759614272378
-0.4969852145120967,-0.4969852145120967,1.0001346372941962,0.0001941600173644302
-0.49687015008894375,-0.49687015008894375,1.0001111545161028,0.0002464588515252535
-0.4967459006002173,-0.4967459006002173,0.999793231334966,0.00020567844283107765
-0.4966233488936268,-0.4966233488936268,1.0001870925812018,0.0002576784445509704
-0.4964476855282555,-0.4964476855282555,0.9997184755827566,0.0002094524747673858
-0.4963348866338492,-0.4963348866338492,1.0000333167022815,0.00022654049373296918
-0.4962117752525955,-0.4962117752525955,0.999798601680286,0.00022163798949393016
-0.49608026199930466,-0.49608026199930466,1.000020524357452,0.00023970214898421356
-0.49594266405692905,-0.49594266405692905,1.0000866372399213,0.00021979631980023688
-0.4958265781206137,-0.4958265781206137,0.9997935296813683,0.00023195487394210936
-0.4957078411367547,-0.4957078411367547,0.9999300878236941,0.00021478372778001813
-0.49557637013786004,-0.49557637013786004,0.9999876567594871,0.00023324438828370466
-0.49549991983294606,-0.49549991983294606,1.0000707262506257,0.0002199072667881012
-0.4953739276905253,-0.4953739276905253,1.00025798203407,0.00022103644001243862
-0.4952957194611372,-0.4952957194611372,1.0000861018217113,0.00021554469125316159
-0.49519391185895073,-0.49519391185895073,0.999871840543922,0.0002658029677635895
-0.4951032613062125,-0.4951032613062125,0.9999852160615779,0.00020641179804137296
-0.49502820088455335,-0.49502820088455335,0.9996917782524806,0.0002370310495206487
-0.4948688192147529,-0.4948688192147529,1.0002476950811896,0.00020842365338038932
-0.49473143870418423,-0.49473143870418423,0.9997604255842255,0.0002231659507599413
-0.49460522008303087,-0.49460522008303087,0.9999815853139719,0.00020709472553014918
-0.4944808875654417,-0.4944808875654417,1.0002605774624567,0.0002448921144119705
-0.49441611938527785,-0.49441611938527785,0.9999850279913296,0.0002256496713431176
-0.49427065889467486,-0.49427065889467486,0.9997638854759288,0.00022733229031021387
-0.49416988889934144,-0.49416988889934144,0.9998878089842493,0.0001942646365178415
-0.49407847626134754,-0.49407847626134754,1.0001909175776018,0.0002162738958160184
-0.4939518713610596,-0.4939518713610596,0.9999290186515353,0.00022348509646699993
-0.49390455781904163,-0.49390455781904163,1.0003665366326149,0.00022109350257416702
-0.4938347058232466,-0.4938347058232466,1.0001563296780982,0.0002029823647090434
-0.4937720583271584,-0.4937720583271584,1.000030031987436,0.0002684280965898235
-0.49367971824394774,-0.49367971824394774,0.999852308027924,0.00023375465684565564
-0.4935058180555643,-0.4935058180555643,1.0004214473457522,0.00023793539087284924
-0.4933875520415313,-0.4933875520415313,0.999929984569999,0.00019924560122873977
-0.4932246269119787,-0.4932246269119787,0.9997944669465998,0.0002543412180698152
-0.49308526589811663,-0.49308526589811663,0.9999059835673808,0.00020706461273283135
-0.4929396145955252,-0.4929396145955252,1.0000527912087107,0.00025342247593408793
-0.49285889974489694,-0.49285889974489694,0.9999201889112891,0.00021514095034484807
-0.49274974489817397,-0.49274974489817397,1.0000248933379579,0.00024304835648404876
-0.492597427398141,-0.492597427398141,1.0001016291528217,0.00022413535567702964
-0.4924838233710034,-0.4924838233710034,1.0003663749847491,0.00024409198552194424
-0.49234753507262213,-0.49234753507262213,1.0002458266422944,0.00025966156045530045
-0.4922657843060733,-0.4922657843060733,1.0001438727640921,0.00020763653640036738
-0.49214237950582174,-0.49214237950582174,1.0000331251128487,0.00022167227942868723
-0.49205120003389313,-0.49205120003389313,0.9997193421147023,0.00020745585825578816
-0.4919685262539133,-0.4919685262539133,1.0002995814223734,0.00023300832873572662
-0.4918722654656449,-0.4918722654656449,0.9999696130835176,0.00024094065108365095
-0.4917385452754388,-0.4917385452754388,0.9997009544242795,0.00021993784528567044
-0.4915723192600126,-0.4915723192600126,0.9999316452573115,0.0002256702391516847
-0.4915302413814061,-0.4915302413814061,1.000287637197658,0.00028917375977620396
-0.49146763332828414,-0.49146763332828414,0.9997860876356663,0.0001968374384701007
-0.4913701352706994,-0.4913701352706994,1.0001783077705069,0.0002291579496823429
-0.49117826767178485,-0.49117826767178485,1.0002144169566063,0.0002219930832363447
-0.4909821399342036,-0.4909821399342036,1.0001090855218677,0.00021101940158631984
-0.49087990403204457,-0.49087990403204457,1.000091421997807,0.0002249722333830814
-0.49073338033122127,-0.49073338033122127,0.9999317165187028,0.00020936676348251755
-0.4906181716505671,-0.4906181716505671,0.9998789630363791,0.00020758952329153106
-0.4905222723398765,-0.4905222723398765,1.0002853626319184,0.0002068648160772287
-0.49041624172532466,-0.49041624172532466,0.9998132302558854,0.00022909298009793317
-0.490282089352695,-0.490282089352695,0.9998572602684869,0.0002218015544202226
-0.4901901715558779,-0.4901901715558779,1.0000510350075356,0.00022601797943077969
-0.49011009837777236,-0.49011009837777236,1.000228700634043,0.0002409653791843348
-0.4899997349297337,-0.4899997349297337,0.9997740259490747,0.00024892846464497716
-0.48983337977551855,-0.48983337977551855,0.9999519957028783,0.00023076844714645814
-0.4896494413704204,-0.4896494413704204,0.9997837798000463,0.00022044321792566044
-0.4895373962899612,-0.4895373962899612,0.9999014625308578,0.00026096621972976076
-0.4894497854540532,-0.4894497854540532,0.999837354283747,0.00021030914862977388
-0.4893742529609881,-0.4893742529609881,1.0001148044568342,0.00023064173102141285
-0.4892695528571494,-0.4892695528571494,0.9997801777461275,0.00024471337201901545
-0.4891974716738332,-0.4891974716738332,0.9998400803543765,0.00020792510347821246
-0.48905771741701753,-0.48905771741701753,0.999837730262394,0.00024665357034144063
-0.4889467518150923,-0.4889467518150923,1.0000195715475833,0.0002445676714912377
-0.488774880967685,-0.488774880967685,1.0000677181237771,0.00022289355534656037
-0.48864548140845726,-0.48864548140845726,1.000175593402197,0.00023786462740684383
-0.48857575549191096,-0.48857575549191096,0.9999597430029665,0.00020571633828567258
-0.48850757993059235,-0.48850757993059235,1.0005552035608773,0.0002127400057946193
-0.48845276499341705,-0.48845276499341705,0.9999808158772083,0.00022395179658600935
-0.4883362762142497,-0.4883362762142497,0.999908205207919,0.00023693728228835163
-0.4881999474986515,-0.4881999474986515,0.999939562569854,0.00021797987108232645
-0.4880883179343073,-0.4880883179343073,0.9999668433002762,0.00020425768388530337
-0.4879695832634752,-0.4879695832634752,0.9998213296218337,0.00020783792660654396
-0.48783179805541294,-0.48783179805541294,1.000003234827509,0.00023284781950644418
-0.48770024182667837,-0.48770024182667837,0.9999152036694525,0.00023857550730545246
-0.48752935772790806,-0.48752935772790806,1.0000217840858112,0.00021362672226370562
-0.48738933222339254,-0.48738933222339254,0.9998702442502827,0.00024225729788951374
-0.48722121593236806,-0.48722121593236806,0.9998110461323932,0.00022566817278219667
-0.48709601486698373,-0.48709601486698373,0.9999704255837767,0.0002145047433263942
-0.48699663168590634,-0.48699663168590634,0.9999118089662467,0.0002241376572507976
-0.4869119080962264,-0.4869119080962264,1.0000518642579008,0.00021133455635897642
-0.48686873518236096,-0.48686873518236096,0.9998240070177153,0.00022881118235894269
-0.48678310610775954,-0.48678310610775954,1.0001223907850254,0.00021337350835926274
-0.48663518056637256,-0.48663518056637256,1.00029041176942,0.00023641844176278248
-0.4865403359719494,-0.4865403359719494,1.0001892327078727,0.00023378480660128046
-0.4864796357396699,-0.4864796357396699,1.0002516298240764,0.00021259439182758866
-0.48642582188913364,-0.48642582188913364,1.0002015356319336,0.00020236613700557173
-0.48636366936843844,-0.48636366936843844,0.9999546692523913,0.00026902448021953
-0.4862206854981196,-0.4862206854981196,1.000171384468962,0.0002409692660837064
-0.486109666145785,-0.486109666145785,0.9998078164875445,0.00023199222582472593
-0.4859428767253121,-0.4859428767253121,0.9999639993909082,0.00023341741521454873
-0.4858174959292228,-0.4858174959292228,1.0002527137795572,0.0002593814484359936
-0.485664484204608,-0.485664484204608,0.9999937430511832,0.00026312813341520543
-0.4855659090993868,-0.4855659090993868,1.000198118310313,0.00021289075485657403
-0.48548076308652527,-0.48548076308652527,1.000552668650457,0.00023289366722447063
-0.4853265553720121,-0.4853265553720121,1.000138212025998,0.0002371286847159
-0.4851903172042512,-0.4851903172042512,1.0001739971293477,0.000217412287495099
-0.48507751618890327,-0.48507751618890327,1.0002645749175947,0.0002148660338499837
-0.4849948141272762,-0.4849948141272762,1.0002413904146832,0.0002273254603664236
-0.48492993467953055,-0.48492993467953055,0.9998960644170474,0.00022652926234600283
-0.4848470196906419,-0.4848470196906419,1.0000768789400063,0.00020627389717842604
-0.4846869651824818,-0.4846869651824818,0.9997706270189217,0.00021967673632527015
-0.4845808702848444,-0.4845808702848444,1.000115545508511,0.00024145929393850702
-0.484395065803983,-0.484395065803983,1.0000020356459527,0.00021106675223090082
-0.4842516013035493,-0.4842516013035493,0.999823876766046,0.00021303573781410816
-0.4841269998207281,-0.4841269998207281,0.9999013642422279,0.00020521641860060942
-0.4839741981711995,-0.4839741981711995,0.9998667071567479,0.00023943709842968503
-0.4838591672712937,-0.4838591672712937,1.0001592337352756,0.00021770093691151618
-0.4837391852946894,-0.4837391852946894,0.9999127060815496,0.00022051798686454656
-0.48359997528314125,-0.48359997528314125,1.0003152253135035,0.0002174470485694189
-0.4835029977090016,-0.4835029977090016,0.9997623333684315,0.00020727820931588616
-0.48345398861201827,-0.48345398861201827,0.9996537996012688,0.0002495377162207513
-0.48340056667802855,-0.48340056667802855,1.0000470587799135,0.00021985368277115715
-0.48328144115148464,-0.48328144115148464,1.0004271130445364,0.00021758994883169588
-0.48314109912025743,-0.48314109912025743,1.000058453114645,0.00020711328668483178
-0.48299174069761647,-0.48299174069761647,1.0001353576781975,0.0002149020311732885
-0.48291374953696503,-0.48291374953696503,1.000640544677316,0.00023705831828409077
-0.48285624179334263,-0.48285624179334263,1.0001285248626908,0.00020585315548209447
-0.4827242050130735,-0.4827242050130735,0.9999073660344655,0.0002648710609461472
-0.48260565608215983,-0.48260565608215983,0.999869580847782,0.0002065101810991221
-0.48242946783575463,-0.48242946783575463,1.0000831428733459,0.00019480328639853963
-0.4822054954740452,-0.4822054954740452,1.0000693631775601,0.00026156588401222286
-0.4820799156208523,-0.4820799156208523,0.999973820352586,0.00024385310288105728
-0.4819806425497518,-0.4819806425497518,0.9999216232919192,0.0002384722584292379
-0.48191173339946547,-0.48191173339946547,1.000249855792392,0.00022164024115873645
-0.48184883765134146,-0.48184883765134146,1.0002015437514562,0.00023932854216957155
-0.481689525807451,-0.481689525807451,1.0003959012012225,0.0002567985876150957
-0.4815469303997816,-0.4815469303997816,1.0001561205009157,0.00021911094114254728
-0.48146574591301033,-0.48146574591301033,1.000103562149779,0.00022240224008471433
-0.48140733712862127,-0.48140733712862127,1.0003824621624933,0.00021952117558214165
-0.4812439958972391,-0.4812439958972391,0.9999596519681804,0.00020309609344588533
-0.481132793577126,-0.481132793577126,1.0002419783256482,0.0002318334882353748
-0.4809739835727669,-0.4809739835727669,1.0001611377639095,0.00024737752599772494
-0.48080002821370726,-0.48080002821370726,1.0001133399698965,0.00022228365283950908
-0.48063034758306455,-0.48063034758306455,1.0000582762308976,0.0002012625783512966
-0.4805798037537897,-0.4805798037537897,0.9997905743862436,0.00020852295262364915
-0.4804302817246935,-0.4804302817246935,1.000113042595783,0.00025759303435796875
-0.48030465271876893,-0.48030465271876893,1.0001217439530075,0.00025103479908203445
-0.48019904041429984,-0.48019904041429984,1.0002329700233,0.00019921648043904578
-0.48008398085294174,-0.48008398085294174,1.0001171029645124,0.00021925897937587207
-0.4799661155229842,-0.4799661155229842,1.0002069154623752,0.00021934960737064112
-0.4799021793107386,-0.4799021793107386,0.9999848072116272,0.0002495700573925281
-0.4798385293332103,-0.4798385293332103,0.9998303817687558,0.0002330771164739752
-0.4797796985098103,-0.4797796985098103,1.0000841954158752,0.0002868517103451955
-0.4797270983173803,-0.4797270983173803,0.9997807181312013,0.00021752535048552422
-0.47961117563172595,-0.47961117563172595,0.9999153002174452,0.0002279645459999347
-0.4793928765167948,-0.4793928765167948,1.0002525331322982,0.00021724618177197314
-0.4792983907391317,-0.4792983907391317,1.000288241400428,0.0002388594982964295
-0.4791690602542076,-0.4791690602542076,1.0002213120846974,0.000263689927467696
-0.47905982024094557,-0.47905982024094557,1.0000359013182587,0.00023426472950092034
-0.478962484330259,-0.478962484330259,0.9999585967864023,0.00021940629144221114
-0.4787373552499048,-0.4787373552499048,0.9995644927017228,0.00019960063800872644
-0.4785249257278338,-0.4785249257278338,1.0001249620405592,0.00022714725668971457
-0.47840526283180224,-0.47840526283180224,1.0000421133057278,0.00022592347312176035
-0.4783051947459171,-0.4783051947459171,1.0001777846394486,0.0002501884558147612
-0.4782097980569233,-0.4782097980569233,1.0001929756264931,0.0002250879373745492
-0.47814259311562635,-0.47814259311562635,1.0001877257988805,0.00023722425445200576
-0.47802503690036247,-0.47802503690036247,1.000216057235084,0.00022740742492555872
-0.47792241470087904,-0.47792241470087904,1.0003471934869919,0.000272780163231445
-0.4778002930623188,-0.4778002930623188,0.9999666654113272,0.0002216843230797286
-0.47771234634128634,-0.47771234634128634,1.0000012634107756,0.00020066865819535405
-0.477629894502752,-0.477629894502752,1.0000232467497256,0.00024662750134226547
-0.4774912052380387,-0.4774912052380387,0.9998930246656463,0.00022153538884950118
-0.47732471215495026,-0.47732471215495026,1.0000954590710112,0.0002446894578392321
-0.4771929785165412,-0.4771929785165412,1.0000193620134223,0.00019921805916595895
-0.4770542151709378,-0.4770542151709378,0.9999171782402932,0.0002386332889466632
-0.47691512315213913,-0.47691512315213913,1.0001586991442863,0.00024155235215323075
-0.47679757116056865,-0.47679757116056865,0.999803726541449,0.0002372279396931698
-0.47667599048290865,-0.47667599048290865,1.0001104500055635,0.0002075843102439293
-0.47656643171212637,-0.47656643171212637,0.9999997549042542,0.000233793226411494
-0.4764164408501529,-0.4764164408501529,0.9999929758730304,0.0002279011668550661
-0.4763145532866474,-0.4763145532866474,1.0002344920257844,0.0002061897811555663
-0.4762314805215283,-0.4762314805215283,1.00025237564164,0.0002076413174825473
-0.476142939543206,-0.476142939543206,1.0000516027617135,0.0002686379002803191
-0.4760801617630932,-0.4760801617630932,0.999598306286616,0.00021638370506739803
-0.47598989311372863,-0.47598989311372863,1.000266323115516,0.00022511207272427985
-0.47588663463975533,-0.47588663463975533,0.9998267169095272,0.00021160147854535797
-0.4757310089735256,-0.4757310089735256,1.0002511331324502,0.00021773871100779966
-0.47562686571473023,-0.47562686571473023,0.9998210019476896,0.00022848809037727473
-0.47553299556020645,-0.47553299556020645,1.0001981810521303,0.00020084542810722524
-0.4754671835791669,-0.4754671835791669,0.9999484469482878,0.0002582655644712183
-0.475374706050934,-0.475374706050934,1.000141488142537,0.0002055885922360733
-0.4752088910267048,-0.4752088910267048,1.0002730401886097,0.00025200907349961154
-0.4750795826919784,-0.4750795826919784,1.0000209466048045,0.00023428686445440362
-0.47498632189744966,-0.47498632189744966,1.0000506253290058,0.0002405659605399341
-0.47486331914915353,-0.47486331914915353,1.0000125327817688,0.00023043810170741784
-0.47474418069905366,-0.47474418069905366,1.000371240647412,0.00022457058034375181
-0.47462720054900276,-0.47462720054900276,1.0002169444900766,0.00023739619368053156
-0.4745462062754086,-0.4745462062754086,1.0001472964954938,0.00023170848157297425
-0.4744155023028725,-0.4744155023028725,0.9999785625154531,0.00024194255292187098
-0.4741925805872597,-0.4741925805872597,0.9998803912736683,0.00019680668000584593
-0.47411791062259,-0.47411791062259,0.9998789976560488,0.00025501780604351835
-0.4740416771077435,-0.4740416771077435,1.0001195535203213,0.00022689861947827318
-0.4739568297583901,-0.4739568297583901,0.999900725899774,0.0002600346430904182
-0.47390298416794396,-0.47390298416794396,0.9997780568076312,0.0002087647911470967
-0.4737287103758717,-0.4737287103758717,0.9999703721460562,0.00021247075651357377
-0.47357619003960283,-0.47357619003960283,1.000029321716026,0.00022701868612806701
-0.47340082752489254,-0.47340082752489254,1.000007881647001,0.00023053410908509915
-0.47322797642846126,-0.47322797642846126,1.000184203226895,0.0002477464478121456
-0.4731101386190858,-0.4731101386190858,0.999825740951471,0.0002354744201219608
-0.47299550035677385,-0.47299550035677385,0.9999707247389852,0.00022654485422808501
-0.4728907241413253,-0.4728907241413253,0.9997227700339666,0.0002518324566779264
-0.47275648035138146,-0.47275648035138146,1.0000025445793224,0.00021464977803497387
-0.4726486934632703,-0.4726486934632703,0.9997874975367695,0.0002187299451812592
-0.4725673760549398,-0.4725673760549398,1.0000943141474474,0.00022872318132033249
-0.47247028229467103,-0.47247028229467103,0.9999998500071344,0.0002687931584509789
-0.4724242959840922,-0.4724242959840922,1.0001306758375483,0.00021929830069074814
-0.4722850919562916,-0.4722850919562916,1.000142272695009,0.00019929348129033497
-0.4721725015224365,-0.4721725015224365,0.9999166512034506,0.0002438174904278432
-0.47205351770608106,-0.47205351770608106,1.000047540761893,0.0002171388254048956
-0.4718789382488467,-0.4718789382488467,1.0000347742065536,0.00024533086663121756
