time,time,flux,flux_err
-0.4999323418893861,-0.4999323418893861,0.9998539771561924,0.00036657509349951207
-0.49969122783598624,-0.49969122783598624,1.0002413067365612,0.0003637421165937853
-0.49945971348339907,-0.49945971348339907,1.0002593693863566,0.0003866662323250809
-0.49921360744519916,-0.49921360744519916,0.9999516422530249,0.00032595607819655266
-0.49908555342335603,-0.49908555342335603,0.9999169028932743,0.0003422293996635373
-0.4989101041312097,-0.4989101041312097,0.9994124946993473,0.0003410082355278385
-0.4988158326319535,-0.4988158326319535,1.0000433183829962,0.0003349346155441306
-0.49872468826797556,-0.49872468826797556,0.9998053833735477,0.00029070675550080884
-0.49860503519084887,-0.49860503519084887,1.0001802084127631,0.00029271130154303845
-0.4984740271618648,-0.4984740271618648,0.9995688657631753,0.0002859610602081962
-0.49836538248346185,-0.49836538248346185,0.9999032239167823,0.0003126441079156363
-0.4982482672683545,-0.4982482672683545,1.000004488177424,0.00034446310485206034
-0.4980630103593285,-0.4980630103593285,1.0001101802964842,0.00040828227757874855
-0.49796278789945064,-0.49796278789945064,1.0000476516283083,0.00030053082287915004
-0.4978656739127473,-0.4978656739127473,0.9996480770009051,0.00032639763651628274
-0.4977914895651338,-0.4977914895651338,0.9998325122100553,0.0002884668215471599
-0.49764513540503685,-0.49764513540503685,0.9997879050274975,0.000359842862019725
-0.49749977418541674,-0.49749977418541674,0.9998951267506155,0.0003401545859616066
-0.49734736619866454,-0.49734736619866454,1.000010014532765,0.0003333318116407837
-0.49718247280616196,-0.49718247280616196,1.0000301583390807,0.0003423421772416911
-0.49707611802223256,-0.49707611802223256,1.0000291503208616,0.0003173284217718441
-0.4968631566458498,-0.4968631566458498,1.0003393101571376,0.00033513399304003686
-0.49666458322608376,-0.49666458322608376,1.0005441600158558,0.0003440443346879019
-0.49648941884661324,-0.49648941884661324,0.9998943329683316,0.00028888137722121764
-0.4963459982580389,-0.4963459982580389,0.9998748937555166,0.00033361145662091717
-0.4961477401018783,-0.4961477401018783,0.9998385600476535,0.00029636547585803
-0.4960180051784846,-0.4960180051784846,1.000287585641591,0.0003342584248084144
-0.495936279680609,-0.495936279680609,1.0000196793328695,0.0003132384198552912
-0.49584598051442297,-0.49584598051442297,1.000004761318398,0.0002817925014638979
-0.4957603488990571,-0.4957603488990571,1.000171278257654,0.0002949567249916666
-0.49559666894056137,-0.49559666894056137,0.9998147657228819,0.0003332109066395381
-0.49540241033246274,-0.49540241033246274,1.0002884328022545,0.00035969317309113324
-0.49522252517854215,-0.49522252517854215,0.9998380967725724,0.0003272494711924772
-0.4950281772573362,-0.4950281772573362,1.000279210675925,0.00037207913432711414
-0.4947991229571926,-0.4947991229571926,0.9999679454182834,0.0003875611236056445
-0.49466988847561877,-0.49466988847561877,1.0000035087200254,0.00032018976003438576
-0.49454340889060405,-0.49454340889060405,1.0002090962940098,0.0003383826417848507
-0.49443920172197975,-0.49443920172197975,0.999724513359934,0.0003191699043754812
-0.4942858290836739,-0.4942858290836739,0.9996730353866446,0.0003700620647287371
-0.4941234723788511,-0.4941234723788511,0.9998128068089353,0.00032610824436555446
-0.49402063934321633,-0.49402063934321633,1.0003097293317882,0.00037675974932521717
-0.49379195624787825,-0.49379195624787825,0.9994965111980655,0.0003098758540196181
-0.4935997329208476,-0.4935997329208476,0.9999718241400292,0.0002890800423371768
-0.49347301260931997,-0.49347301260931997,1.0000219127825025,0.0003013397007572638
-0.4933885777121759,-0.4933885777121759,0.9998244257589601,0.00029634655767448175
-0.49328704973740967,-0.49328704973740967,0.9997245371987024,0.0003320153083172003
-0.49314239507875757,-0.49314239507875757,0.999755289220807,0.0002907651450675229
-0.4929868519677257,-0.4929868519677257,1.0001227282967309,0.00032426521875337296
-0.4928625813809049,-0.4928625813809049,1.0001636129712286,0.00035076744322826386
-0.49271951517730483,-0.49271951517730483,0.999868766847503,0.0003862907320440963
-0.4925523915611848,-0.4925523915611848,0.9996332336077896,0.0003822146529250462
-0.4923466040781932,-0.4923466040781932,1.0001585740878232,0.0002987774256548373
-0.49215826620420555,-0.49215826620420555,0.9996546162949486,0.00038107748235248793
-0.4920413166080834,-0.4920413166080834,1.0001688493826475,0.0003509519076608745
-0.4919436334341299,-0.4919436334341299,0.999739012592413,0.0003033062762392278
-0.49185681879462206,-0.49185681879462206,0.9998109580320313,0.00030243971080137067
-0.4916890993823472,-0.4916890993823472,1.0000132611621717,0.0003694073985255111
-0.49153172202277345,-0.49153172202277345,1.0001047071409568,0.0003118333411117947
-0.49142825430899395,-0.49142825430899395,0.9999942258225577,0.0003564381171977802
-0.49130615888061585,-0.49130615888061585,1.0002084174449333,0.0003654196523889423
-0.49116887592244896,-0.49116887592244896,0.9996186252636218,0.0003164911956613522
-0.49095019216110813,-0.49095019216110813,0.9998165504591885,0.00034378814734072337
-0.4908558886309038,-0.4908558886309038,1.000064614768252,0.00028454523762484475
-0.490795341667399,-0.490795341667399,1.000092048822798,0.00030269985689815115
-0.4907121319665748,-0.4907121319665748,1.000015383442069,0.0002907271281983826
-0.49057909661496524,-0.49057909661496524,0.9997459851963744,0.00031485703139950765
-0.49040073316864435,-0.49040073316864435,0.9996253532712673,0.00032231732242774837
-0.49033839748517494,-0.49033839748517494,0.9997551738707919,0.0003322011024419624
-0.490244177342538,-0.490244177342538,1.0001055680536246,0.0002995264814660819
-0.49013639006152515,-0.49013639006152515,0.9997939089517429,0.00033975933174929386
-0.489984843183629,-0.489984843183629,1.000166375898452,0.0003733913904367581
-0.4898116451513488,-0.4898116451513488,1.0001987092150622,0.0003574374588336315
-0.4896353463518608,-0.4896353463518608,1.0002392359221124,0.00028502757022969444
-0.48946340680267897,-0.48946340680267897,1.0000040121703697,0.0003227151974238544
-0.48937866391715945,-0.48937866391715945,0.9997968182509492,0.00034962703831315086
-0.48932921458908823,-0.48932921458908823,0.999824651927345,0.0003552386684340597
-0.4892014102275425,-0.4892014102275425,1.0002988817669425,0.0003522245691361728
-0.48914127704629207,-0.48914127704629207,1.000111979938016,0.0002888716220721632
-0.48903255607001483,-0.48903255607001483,1.0002167658655845,0.0003286057039006748
-0.48886165206640725,-0.48886165206640725,0.9998004370506965,0.0003314242889915811
-0.48864203091070524,-0.48864203091070524,1.00046118628553,0.0003840354376344028
-0.48848356275411786,-0.48848356275411786,1.0002790760735996,0.00037156526468134994
-0.4883264337644505,-0.4883264337644505,0.9996649744527476,0.00031308150145067454
-0.4881584079746972,-0.4881584079746972,0.9997693780058545,0.0003035129944004592
-0.4880737106788729,-0.4880737106788729,0.9999581469754816,0.0002884495506926791
-0.48793545029111557,-0.48793545029111557,0.999981468121789,0.0003335563175200349
-0.48781161090228126,-0.48781161090228126,1.0002100553738313,0.0003292334258153799
-0.487672384698817,-0.487672384698817,0.999975386940155,0.0003162773795223865
-0.48755952898427496,-0.48755952898427496,1.0000677674640728,0.0003310597361286596
-0.48737156844581475,-0.48737156844581475,0.9999042143899286,0.00031609703851654254
-0.48724551831764984,-0.48724551831764984,0.9998689200912233,0.0002874892598498616
-0.4870830792351626,-0.4870830792351626,1.0001824312483272,0.00038579021910254785
-0.4869275327437208,-0.4869275327437208,1.0002763220933113,0.0003780149708017396
-0.4868244267825503,-0.4868244267825503,0.9998681062014654,0.0002915395060090339
-0.4867582767488784,-0.4867582767488784,0.999599992813765,0.000306626854359374
-0.48665027655879384,-0.48665027655879384,1.0002076332683398,0.00034524307171342054
-0.48657128888371515,-0.48657128888371515,0.9996973774272264,0.00030915348398520906
-0.4865036155861162,-0.4865036155861162,0.9994866526306325,0.00035937755329174865
-0.486373656908836,-0.486373656908836,0.9998767415077854,0.0003392682302545268
-0.4861948247424152,-0.4861948247424152,1.000269064003285,0.0003396316618070056
-0.4860007318391581,-0.4860007318391581,0.9998850629536487,0.0003421604759025005
-0.48578839689944286,-0.48578839689944286,0.9997990428237289,0.00033921095033542597
-0.48546844561133184,-0.48546844561133184,0.9999825333143113,0.0002957242979518896
-0.4853422418433183,-0.4853422418433183,0.9997355539132513,0.00035546130828010127
-0.4851160268444801,-0.4851160268444801,0.9999196517890212,0.00032875160081758
-0.4850326789492101,-0.4850326789492101,0.9997471261126825,0.0003251449789407454
-0.4849505410551501,-0.4849505410551501,0.999808872418656,0.0002918478953868101
-0.48477184040675636,-0.48477184040675636,1.000463177743008,0.0002909518411148598
-0.48463615919899894,-0.48463615919899894,1.0000154915035178,0.00030485279987303466
-0.48451228995618295,-0.48451228995618295,0.9997770318921486,0.0003443658206881916
-0.4843009965545207,-0.4843009965545207,1.0002881994619908,0.00036266862416625396
-0.4841924233085592,-0.4841924233085592,1.0003015089450145,0.00032794717658176005
-0.4840773926291149,-0.4840773926291149,1.0001536644685798,0.00030896811140362196
-0.48394760967057665,-0.48394760967057665,1.0004299805968435,0.0003485435599992567
-0.483763477741013,-0.483763477741013,1.000184125726812,0.0003416459602804163
-0.4836651357778464,-0.4836651357778464,1.0000469052714593,0.0003408334134267896
-0.4835746905002452,-0.4835746905002452,1.0002075704164684,0.00031976779085838333
-0.4834475255309371,-0.4834475255309371,1.0001636053431933,0.0003353699197986783
-0.48333241178188474,-0.48333241178188474,1.0002436365070886,0.0003368884051336543
-0.4830301597176003,-0.4830301597176003,0.9993600759044424,0.0003501176910933856
-0.4829155001207255,-0.4829155001207255,1.0001794817380567,0.00034460298848951095
-0.48277667023576215,-0.48277667023576215,0.9999992238475851,0.0003430305207304268
-0.4825929451348202,-0.4825929451348202,1.0001998837509878,0.00030410771173838315
-0.4824698772870761,-0.4824698772870761,0.9999476017384712,0.0002928606355222615
-0.48234100954286985,-0.48234100954286985,1.000085416310719,0.0003029980258490269
-0.4822464732009394,-0.4822464732009394,1.0002662040204051,0.00032693056692188353
-0.482172451804945,-0.482172451804945,1.0001322208332006,0.00029445627900045985
-0.48204880464763844,-0.48204880464763844,0.9999549179283083,0.0002879449573109766
-0.4819228068467055,-0.4819228068467055,1.0001670912862937,0.0003193383068854886
-0.48175141029059887,-0.48175141029059887,0.9997657779454034,0.00037149623550353266
-0.4815614908242424,-0.4815614908242424,0.9999655727392012,0.00033528022695647247
-0.4813796968337556,-0.4813796968337556,1.0001250094168654,0.0003350326460426511
-0.4810689093959809,-0.4810689093959809,0.9996246290283419,0.0003443160222178383
-0.48094095169581125,-0.48094095169581125,1.0002335143041423,0.0003603208386202877
-0.48079818357873594,-0.48079818357873594,1.0002397161278633,0.00033035895474890645
-0.48068406301463257,-0.48068406301463257,0.9995490554445376,0.0003522260731602558
-0.48056039911170956,-0.48056039911170956,1.0003299054979056,0.00030670334468745015
-0.4804225672385655,-0.4804225672385655,0.9997282052758365,0.0003874914810324374
-0.48034341423845034,-0.48034341423845034,0.9998831176576255,0.0003402421079618621
-0.48020374962943607,-0.48020374962943607,1.0000560467891102,0.0003809785711451178
-0.4799563044005481,-0.4799563044005481,0.9996344581092078,0.0003029372424692285
-0.4797890310517687,-0.4797890310517687,0.9999188073119111,0.00030024314512001573
-0.4796837245798088,-0.4796837245798088,0.9999878035571189,0.00028274296625135237
-0.47958969089449965,-0.47958969089449965,1.0000957223759657,0.0003117675065992106
-0.4794655998921371,-0.4794655998921371,1.0000697206553408,0.0002956627838734199
-0.47933909972271066,-0.47933909972271066,1.0003954083117585,0.0003133342553762498
-0.4792370644863695,-0.4792370644863695,0.999938774303146,0.00032100143493153514
-0.4791476245962258,-0.4791476245962258,0.999589950276167,0.0003186201400483746
-0.47899866926964024,-0.47899866926964024,0.9997735987949115,0.00034645896755071
-0.47881565620846234,-0.47881565620846234,0.9998470695386246,0.00039411747896765843
-0.4785829934342473,-0.4785829934342473,0.9994785331919784,0.0002982984017847888
-0.47840228897330234,-0.47840228897330234,1.0001623762014742,0.00038031049182633196
-0.4782474636580446,-0.4782474636580446,0.999693789549565,0.0003376134743178357
-0.47816149799327834,-0.47816149799327834,0.9998993000415073,0.00034606589873535616
-0.47802881093593896,-0.47802881093593896,0.9996890635262424,0.0003175401936175378
-0.47788175793612025,-0.47788175793612025,0.9999657917566133,0.00035496301412194084
-0.4777881506903213,-0.4777881506903213,0.9999380557515369,0.0003345837135745667
-0.47766299553768476,-0.47766299553768476,1.0002288862128441,0.0003256263246404325
-0.47749044083684566,-0.47749044083684566,0.999661553050746,0.00035987171329887173
-0.4773030449388898,-0.4773030449388898,0.9997066391744982,0.0003477370870537726
-0.4771169422303501,-0.4771169422303501,0.9999472047209729,0.0002849850583617645
-0.47704373275046236,-0.47704373275046236,0.999565328031904,0.0003139061843336689
-0.47697914786404,-0.47697914786404,1.0002595919257184,0.000297741261920301
-0.47682665889151393,-0.47682665889151393,1.0000355531877962,0.000300438187143398
-0.4767337176628644,-0.4767337176628644,0.9994638066222323,0.00034289479421049116
-0.4766196174896322,-0.4766196174896322,1.0000790307608682,0.00032095960874622964
-0.47655192445672584,-0.47655192445672584,0.9995583549844458,0.00034726178558813395
-0.4764619224049966,-0.4764619224049966,1.0003679692750178,0.000317231853862415
-0.47636429287667853,-0.47636429287667853,0.9996391930168613,0.0003174769615460029
-0.47617306442989504,-0.47617306442989504,1.0001679614986203,0.00038082295545628804
-0.4760416557219287,-0.4760416557219287,0.9998934609610061,0.00036744426272840877
-0.4758598061729572,-0.4758598061729572,1.0001046343317606,0.0003670236033623428
-0.47569658318025176,-0.47569658318025176,1.0003469921629162,0.00032317869822285803
-0.47562894074362705,-0.47562894074362705,0.9997218832825185,0.00029815814577770753
-0.47555109917448135,-0.47555109917448135,1.0000885173298313,0.00040793827700720255
-0.4754395413248858,-0.4754395413248858,0.9998676501839807,0.0003343419612689675
-0.4753760134677577,-0.4753760134677577,1.000279157813886,0.00029535291748551023
-0.47525804556862566,-0.47525804556862566,0.9997522370639841,0.0003676193508986223
-0.47503254650437154,-0.47503254650437154,0.9998087335144896,0.00034440833810114993
-0.4748140603718639,-0.4748140603718639,1.000246087614189,0.0003479069454529623
-0.4745869836253405,-0.4745869836253405,0.9994145669860754,0.0003129438518788302
-0.47439178393324255,-0.47439178393324255,1.0000195549059663,0.00031816825274337123
-0.4742952239015722,-0.4742952239015722,1.000090017009982,0.0003303206065272051
-0.4741381755768089,-0.4741381755768089,1.0002616755350648,0.00036859497629169774
-0.4739915212558117,-0.4739915212558117,0.9997445215475089,0.00034652347002543145
-0.4738925884579658,-0.4738925884579658,0.9996425214416196,0.0003431934473265378
-0.47374498014542044,-0.47374498014542044,0.9997312400754834,0.0002976471301944801
-0.47357318672075055,-0.47357318672075055,0.9999480439286177,0.00028612813968159807
-0.4734336390152748,-0.4734336390152748,1.0004415579281816,0.00033159506254765365
-0.4733047713474662,-0.4733047713474662,1.0001282101776519,0.00036131996975175505
-0.47319483909450355,-0.47319483909450355,0.9991936456520596,0.00037132280800863883
-0.4730854887537134,-0.4730854887537134,1.0002711771135222,0.0003147577319696396
-0.4730121934619092,-0.4730121934619092,1.000094277570882,0.00029627901212682633
-0.4729317324978183,-0.4729317324978183,0.9999427895713076,0.00031700236508238277
-0.47285392311023317,-0.47285392311023317,1.0003505690739285,0.0003590662923562445
-0.4727428286249051,-0.4727428286249051,0.9998945124458893,0.00035939321158327266
-0.47261538281600224,-0.47261538281600224,0.9999868153974537,0.00030967724715257413
-0.47242560227095964,-0.47242560227095964,1.000077108563611,0.0003439746083194265
-0.47226719476893775,-0.47226719476893775,1.000040770962957,0.0003362631129884171
-0.47207222114593606,-0.47207222114593606,1.0003964305625632,0.00033681270183520717
-0.47171771715293287,-0.47171771715293287,1.0001220682893126,0.0003319627210289475
-0.47159399949669023,-0.47159399949669023,1.0003718202043648,0.00031063957228304694
-0.4713556123220769,-0.4713556123220769,0.9997681643594772,0.0003296523591639421
-0.47126150514886833,-0.47126150514886833,1.0003890528126456,0.0002992775327176689
-0.47118495824397544,-0.47118495824397544,0.9997180301256666,0.0002821559182159166
-0.47106889314818545,-0.47106889314818545,1.0000555236038988,0.00029708384935089904
-0.47093788407873943,-0.47093788407873943,1.0005219811179855,0.00029264845998520206
-0.4708340525896347,-0.4708340525896347,1.0000793472039262,0.0003255826569369199
-0.47066687414990155,-0.47066687414990155,1.0000448810356544,0.0003678641831495127
-0.47050383961468467,-0.47050383961468467,1.0002603212414698,0.0003723935420251477
-0.47039103262432036,-0.47039103262432036,0.9997688857548421,0.0003016043861715192
-0.47025854936655376,-0.47025854936655376,0.9999488648211585,0.0003282294953247162
-0.4700489177412237,-0.4700489177412237,0.9999605684506883,0.000352525112891355
-0.46992437674780374,-0.46992437674780374,0.9998100186926605,0.0003488644476616656
-0.4697424199221132,-0.4697424199221132,0.9998324608503772,0.00031657737563317996
-0.4696506149753986,-0.4696506149753986,0.999957048879341,0.0003749462837931329
-0.46945285014735416,-0.46945285014735416,1.0006894514493552,0.00031095407459828036
-0.46924846345209514,-0.46924846345209514,0.9999490855284833,0.0003703195581960375
-0.4691098948351282,-0.4691098948351282,0.9998311830438468,0.00032753190291608824
-0.46893051695660687,-0.46893051695660687,1.0000946849793677,0.00030416073877092154
-0.46875232030361075,-0.46875232030361075,0.9995861665571597,0.00030789926668138193
-0.46863419807632456,-0.46863419807632456,0.99994297233659,0.00028985801789916613
-0.46855268468352734,-0.46855268468352734,0.9996117431169841,0.00033361593260091636
-0.46845172591129086,-0.46845172591129086,1.0003395088588387,0.000306946585087528
-0.4683511047522188,-0.4683511047522188,1.000060748772623,0.0003139554775100523
-0.4682141066448821,-0.4682141066448821,0.9999409720901052,0.00032239687033106993
-0.46807906018002543,-0.46807906018002543,1.0001107758798966,0.00033446241966706813
-0.4679019099814468,-0.4679019099814468,0.999941446761843,0.00035830524906781006
-0.467759032662434,-0.467759032662434,1.0001494251426937,0.0003421164857306239
-0.4676436943678709,-0.4676436943678709,1.00008537621905,0.000335801323932407
-0.46745032814797016,-0.46745032814797016,1.0000962467134993,0.0003076186850315096
-0.4672937359377102,-0.4672937359377102,0.9996788100621915,0.0003734985826510702
-0.46716492938867304,-0.46716492938867304,1.000010258586923,0.00034749531226879564
-0.4670432365193847,-0.4670432365193847,0.9999351575165883,0.0002940166372546526
-0.46694402180874023,-0.46694402180874023,0.9999534627166728,0.00035403217157480433
-0.4668409432815679,-0.4668409432815679,1.0000304165790406,0.0003705826908160167
-0.46670260291430166,-0.46670260291430166,0.9999378239174597,0.00033460942808051356
-0.4666082564159296,-0.4666082564159296,0.9997362421748568,0.0003822124980950171
-0.4665380717451626,-0.4665380717451626,0.999806072759825,0.000368183003512431
-0.4662842787845875,-0.4662842787845875,1.0000071420953887,0.0003096298325002354
-0.4661226487150998,-0.4661226487150998,1.0000169172926554,0.00033347873033800243
-0.4660467003821395,-0.4660467003821395,0.9998557148961517,0.00029312959561370483
-0.46597324463364204,-0.46597324463364204,0.9999154519419639,0.00029383886304462805
