time,time,flux,flux_err
-0.4999338377177385,-0.4999338377177385,1.0006212751613273,0.00033101031979982173
-0.4997456950744284,-0.4997456950744284,0.9997268684786326,0.0004436840526145693
-0.49956890086104977,-0.49956890086104977,0.9998069074868235,0.00032794373398544363
-0.4993991151289568,-0.4993991151289568,0.9998533966992734,0.0003920963852381492
-0.4990819065773394,-0.4990819065773394,1.00013749668621,0.0003437889591057786
-0.4989788185310317,-0.4989788185310317,0.9997226627932811,0.0003240399800703688
-0.4988364125150838,-0.4988364125150838,1.0001953056498671,0.00035475661541566576
-0.4985467083984986,-0.4985467083984986,1.0000455840756333,0.000338506270691059
-0.498293818012462,-0.498293818012462,1.0000312868651198,0.00034118119631909095
-0.4980654525992577,-0.4980654525992577,0.9994834149347784,0.0003817527127046877
-0.497938123314816,-0.497938123314816,0.999950871074239,0.0003053766747149237
-0.49774604124977484,-0.49774604124977484,1.000013231876201,0.0003552705578663953
-0.4975986615900183,-0.4975986615900183,0.9998740103981376,0.00035457613217237965
-0.4975137932910002,-0.4975137932910002,0.9999023414876971,0.000367748077176223
-0.4973925154772587,-0.4973925154772587,1.0002930338104,0.0003648825294430072
-0.49729237599676707,-0.49729237599676707,1.0000237893190467,0.0002988802247311925
-0.4971513301759842,-0.4971513301759842,1.000120305994048,0.0003518444047643751
-0.49703456161223586,-0.49703456161223586,0.9999805300724034,0.000331237868191503
-0.49681293612375155,-0.49681293612375155,0.9999526766499297,0.00039084673890658173
-0.4967050421721069,-0.4967050421721069,0.9999728354012911,0.00035679818823626606
-0.49655022271035704,-0.49655022271035704,0.9996267619061344,0.00032641131136310184
-0.496327624177502,-0.496327624177502,1.0001009194604285,0.00031068642553089374
-0.49615879619814224,-0.49615879619814224,1.000566593884381,0.0004418338282627888
-0.4960669404739747,-0.4960669404739747,1.0000733432304985,0.00033688416143107144
-0.49595479132112813,-0.49595479132112813,1.000012266441205,0.00030658031505362054
-0.4957568214900675,-0.4957568214900675,1.0001302007990145,0.0003057199173943767
-0.49555757387570337,-0.49555757387570337,1.0000102654085334,0.0003482418089845937
-0.49536988713080066,-0.49536988713080066,0.9998163553652921,0.00034461463146419764
-0.49514064549584874,-0.49514064549584874,1.000463536876494,0.0003099218611536083
-0.494838964738301,-0.494838964738301,1.0001902073560969,0.00032554033370177404
-0.4946039281669073,-0.4946039281669073,0.9997491616665386,0.00037795797455748197
-0.49449983681406595,-0.49449983681406595,1.000235205429958,0.00035545072766935906
-0.4944285493198549,-0.4944285493198549,0.9999622662333844,0.00035074053370225285
-0.494301898581034,-0.494301898581034,1.000198722464879,0.00035982154699887954
-0.49419957112695556,-0.49419957112695556,1.0000442555730935,0.0003501570747074676
-0.4940387893642765,-0.4940387893642765,0.9997891844701968,0.0003646502497967393
-0.49391621079848846,-0.49391621079848846,1.0002011662513943,0.00034062954049455233
-0.49380994620587443,-0.49380994620587443,0.9996669487927201,0.00035873833493609236
-0.49359664145158605,-0.49359664145158605,1.0001992360105352,0.0003545578132035795
-0.49349429242574844,-0.49349429242574844,1.0006532670162105,0.00031897514974146347
-0.493413563928334,-0.493413563928334,1.000321217422849,0.0003732363599016086
-0.49330266742617823,-0.49330266742617823,1.000140660584681,0.00032475307624863794
-0.49318832199060125,-0.49318832199060125,1.000295364441289,0.00028934731807187095
-0.49313705862587087,-0.49313705862587087,1.000067504572427,0.0002933667282113973
-0.49292997383745385,-0.49292997383745385,1.0001564104128857,0.0003800806803099556
-0.4927869790306431,-0.4927869790306431,1.0000947948952024,0.0003354252025878104
-0.49263890122092563,-0.49263890122092563,0.99983395630698,0.0003278665483594934
-0.492401743150549,-0.492401743150549,0.9998854015323282,0.00039203570408659534
-0.49226538665825503,-0.49226538665825503,0.9998576368148056,0.0003876107310102104
-0.49204858887242153,-0.49204858887242153,0.9998064264437267,0.00035820875881096686
-0.491944077113294,-0.491944077113294,1.0000152245754115,0.00034325360897488166
-0.49181319318449823,-0.49181319318449823,1.0002400678140098,0.0003996595040702605
-0.49169462205900344,-0.49169462205900344,1.0004552925414634,0.000378506342512934
-0.49159481145179595,-0.49159481145179595,1.0004451314910825,0.0003219597538372279
-0.4914611388143385,-0.4914611388143385,0.9999970665167865,0.00037822556577293636
-0.49130400848807765,-0.49130400848807765,1.0001006253195093,0.000322594155004118
-0.49111554854898715,-0.49111554854898715,1.0001531808632917,0.0002921183809313913
-0.4909834095116821,-0.4909834095116821,0.9999854401983373,0.0003678763901620375
-0.4908474850060884,-0.4908474850060884,1.0001844900372177,0.0003573491512197185
-0.49069567879487297,-0.49069567879487297,0.9995955384925459,0.000339665517600197
-0.49058357811300085,-0.49058357811300085,0.9999753455317368,0.0003099799076136603
-0.4905138985152007,-0.4905138985152007,0.9998210276583975,0.00035460802360647747
-0.4904124241031241,-0.4904124241031241,1.000156991809876,0.0003348895348758158
-0.4903003322877339,-0.4903003322877339,0.9996293152398483,0.0003277601664826254
-0.4901057965893415,-0.4901057965893415,1.00034884117026,0.00029501640341281454
-0.4898980596466572,-0.4898980596466572,0.9997883102908272,0.00033757338098331854
-0.4897374021194992,-0.4897374021194992,0.9997928892745176,0.0003027378695263399
-0.4896184115423239,-0.4896184115423239,0.9994219205512531,0.00035227445868794805
-0.48946458933933173,-0.48946458933933173,1.0005024201711694,0.0004044959458356414
-0.48935864077793667,-0.48935864077793667,0.999884643404571,0.00032138995504697596
-0.4892307041358436,-0.4892307041358436,1.0001051517394945,0.0003232027475963845
-0.4891586519064731,-0.4891586519064731,0.9998062230917254,0.0003220206208422665
-0.48906190702255115,-0.48906190702255115,0.9995709442208162,0.00032181631765225584
-0.4888710431201616,-0.4888710431201616,1.0004196669472978,0.00035026045048622826
-0.4887119575694669,-0.4887119575694669,0.9999545070343053,0.00041466604131317646
-0.48852320999867516,-0.48852320999867516,1.000179516427146,0.00029949907224713823
-0.4882611776789417,-0.4882611776789417,1.0004343492898264,0.0003712669139353422
-0.48810617328999795,-0.48810617328999795,0.9999197229205345,0.00029326537016088796
-0.4879087199529749,-0.4879087199529749,0.9999240906310838,0.00036085347310901763
-0.4876673571707215,-0.4876673571707215,1.0002136112034017,0.00032558918681962703
-0.48749811047455294,-0.48749811047455294,1.0004230657869173,0.0003274191915572529
-0.48738198003702565,-0.48738198003702565,1.0002651053100577,0.00031358470268411163
-0.4871163049363531,-0.4871163049363531,0.9996896688120176,0.0003554663730876485
-0.48689052572881336,-0.48689052572881336,1.000578835781744,0.00031827120277674783
-0.48676618429017254,-0.48676618429017254,1.0000121246199996,0.0003757610450719494
-0.48666215028060833,-0.48666215028060833,1.000025639363608,0.0003608936925070339
-0.48656588897574693,-0.48656588897574693,0.9997029584779238,0.00034247646602641297
-0.4864251557315583,-0.4864251557315583,1.0003695595264503,0.0003630696139350224
-0.4863252673923853,-0.4863252673923853,1.0000894300882923,0.0003265521081455905
-0.48617460055684203,-0.48617460055684203,1.0002059361013007,0.0003484016267125973
-0.48597331893979573,-0.48597331893979573,0.9999455818662945,0.00035425723339322924
-0.4859090695317718,-0.4859090695317718,1.00060647334711,0.00033681229914129434
-0.4857849745967542,-0.4857849745967542,0.9998862449183135,0.00042076161953711054
-0.48553951800713546,-0.48553951800713546,0.9996620422805552,0.0003156166352635252
-0.48536657419608675,-0.48536657419608675,1.0002915662064595,0.0003300976868455338
-0.48524346660269657,-0.48524346660269657,1.0000548417968365,0.0003219562941934452
-0.48513141626754075,-0.48513141626754075,1.0000109920603963,0.0003422631371532625
-0.4849221186887007,-0.4849221186887007,0.9999204420686769,0.00032639154918416043
-0.4847323979382054,-0.4847323979382054,1.0002718322921123,0.00034316683737558196
-0.48456116256857057,-0.48456116256857057,1.000449633149447,0.0003294969594198229
-0.4843753825451131,-0.4843753825451131,0.9994776089980542,0.00030814140033134913
-0.4841476850473555,-0.4841476850473555,1.0001221824879147,0.0003519455272832215
-0.48391624820651485,-0.48391624820651485,0.9998214700032216,0.0003262711205348882
-0.48376397646061375,-0.48376397646061375,1.0002285776168836,0.0003639080234217954
-0.48363762740918903,-0.48363762740918903,0.9995249225927448,0.00035326867789520525
-0.4834873044805136,-0.4834873044805136,1.00039114262056,0.0004125429547618204
-0.4833414244902087,-0.4833414244902087,1.0003001494640338,0.0003234130738352076
-0.48319140607636657,-0.48319140607636657,1.0003156312635615,0.0003225515164730859
-0.4830527396232355,-0.4830527396232355,1.0000958767705364,0.0003816696660592755
-0.48292957463418135,-0.48292957463418135,0.9998053494239978,0.00036786961776156976
-0.4827730459612212,-0.4827730459612212,0.9998059898228286,0.0003583231288548161
-0.4826605784706771,-0.4826605784706771,0.9999466375368078,0.0003234448699440548
-0.48257791411015205,-0.48257791411015205,1.0006337445994116,0.00031001670211023793
-0.4824611297764932,-0.4824611297764932,0.9998004226410829,0.00036072711194696193
-0.48232295899360905,-0.48232295899360905,0.9996183938425321,0.00032457550100801363
-0.48222332509758414,-0.48222332509758414,1.0004091915087183,0.0002915895072565817
-0.48201227105164435,-0.48201227105164435,1.0004185490992898,0.0003005998055677786
-0.48192988616065124,-0.48192988616065124,0.9996874768714378,0.00037829629964209594
-0.4817643188784132,-0.4817643188784132,0.9997431278852836,0.0003282551091710813
-0.4816020087731886,-0.4816020087731886,1.0001856856950035,0.00031420534017330697
-0.4814541008192464,-0.4814541008192464,0.9998075177652055,0.00040847536098004273
-0.4813017403939739,-0.4813017403939739,0.9998234155201086,0.00038444000107333006
-0.48113117581233383,-0.48113117581233383,1.0001956236419653,0.0003778719396756252
-0.48089684664882953,-0.48089684664882953,0.999856933794752,0.00039484511380212734
-0.48085760985850357,-0.48085760985850357,0.9999868845026573,0.0003435234579608897
-0.48072506713797336,-0.48072506713797336,0.9998346105629325,0.0003756239233475131
-0.4806123732574633,-0.4806123732574633,1.0002377579398398,0.0003542689515149487
-0.4805309561677859,-0.4805309561677859,1.000281172444221,0.00032049816751786276
-0.48027535639266716,-0.48027535639266716,0.9999530807438184,0.00033535621181147014
-0.4801368400338106,-0.4801368400338106,1.0002325059233148,0.00031016464004852653
-0.48000273631623713,-0.48000273631623713,1.000147440619547,0.0003466065642561596
-0.47990847541514087,-0.47990847541514087,1.0002729804609032,0.00038685415126168857
-0.4797710004335386,-0.4797710004335386,0.9995901929587063,0.0003152056363348118
-0.47964883366657884,-0.47964883366657884,1.0003705895534505,0.0003541579118222238
-0.47956008193432353,-0.47956008193432353,1.0000552263597668,0.00031134947649535147
-0.47942612067854495,-0.47942612067854495,0.9999728292891403,0.00031808118777032745
-0.479252579077729,-0.479252579077729,0.9995171428350462,0.0002974683066642572
-0.4790949780348456,-0.4790949780348456,0.9997440589036977,0.00032672837897231163
-0.47895868248160695,-0.47895868248160695,1.0002075841298232,0.00031462594482728717
-0.4787685277682613,-0.4787685277682613,0.999840819564851,0.0003524299897132277
-0.4785753939722781,-0.4785753939722781,1.000288325369454,0.0003265074296833368
-0.4784856196652981,-0.4784856196652981,0.9999401248181389,0.0003867272278004
-0.4784072635069606,-0.4784072635069606,0.9998545285557363,0.0003439037922186942
-0.47825544579536655,-0.47825544579536655,0.9998105353244939,0.000279643007564445
-0.4781685422116425,-0.4781685422116425,1.0002827772743472,0.00030794188121278243
-0.478021264814015,-0.478021264814015,1.0002285981226393,0.0003133382801529189
-0.4778168439283036,-0.4778168439283036,1.0000845386722454,0.0003646461063444001
-0.47764760394929906,-0.47764760394929906,0.9993711963164384,0.0003712312156724503
-0.4774831014845404,-0.4774831014845404,1.0001291091092797,0.00037461506203304587
-0.4773000282351859,-0.4773000282351859,0.9996958706205007,0.00038265075291623273
-0.47707189530774485,-0.47707189530774485,0.9998038798695268,0.00032554467038849215
-0.47682524147676303,-0.47682524147676303,0.999903625871579,0.00038965694816868706
-0.4766506268613739,-0.4766506268613739,1.0003454984404523,0.0003521470827839556
-0.47654032369027843,-0.47654032369027843,1.000515551831987,0.0003280733782980849
-0.4763978330331156,-0.4763978330331156,1.0001179321202536,0.00029359783200013804
-0.4761354957197909,-0.4761354957197909,1.0003388818797116,0.00035450795386942713
-0.47597449783206686,-0.47597449783206686,0.9999721236862008,0.0003657658264944306
-0.47586792208312545,-0.47586792208312545,1.000723959418248,0.00031754572204836936
-0.4757405291675241,-0.4757405291675241,0.9996109021356508,0.00034412377256055334
-0.4756604055102798,-0.4756604055102798,0.9999406528221829,0.00037461907364249735
-0.47546758403041167,-0.47546758403041167,1.000020295673069,0.0003551288851790878
-0.4752501076538465,-0.4752501076538465,1.0007262835757633,0.00034097463625369195
-0.47506714818300677,-0.47506714818300677,0.9999191521305175,0.0003679220183268513
-0.4749459956568899,-0.4749459956568899,1.0001283640977898,0.0003563152264759773
-0.4747529607615434,-0.4747529607615434,1.000103673845153,0.0003673831193470428
-0.47453875761420933,-0.47453875761420933,0.999875792206314,0.00035670443206026317
-0.4744656994313118,-0.4744656994313118,1.000239678040649,0.00031268881297583513
-0.474296423382475,-0.474296423382475,0.9999874024147596,0.0002943251839384578
-0.47415082006482406,-0.47415082006482406,0.999740639521607,0.0003494305060624769
-0.4739954064512858,-0.4739954064512858,0.9998789398579693,0.00033691042456046203
-0.47384224834968336,-0.47384224834968336,1.0005455801332792,0.00033678148633563883
-0.4736669652498676,-0.4736669652498676,0.9999183666306799,0.00034679913518182966
-0.4735331745192525,-0.4735331745192525,0.9997696894514799,0.000281640739827774
-0.47339107464358676,-0.47339107464358676,1.0001019551010586,0.000338934674052936
-0.4731856650236296,-0.4731856650236296,1.0000857318954308,0.0003628376168897599
-0.47303199922607747,-0.47303199922607747,1.0000480285070072,0.00034310503229112736
-0.47281289599195586,-0.47281289599195586,1.0002496974299004,0.00037604542147582525
-0.4726460002595559,-0.4726460002595559,0.9999551178789258,0.00037903932549643397
-0.4725282838291605,-0.4725282838291605,1.0002737615343726,0.00037536193642640446
-0.4723494682868477,-0.4723494682868477,1.000024398254779,0.00028166029112163075
-0.4722034415870439,-0.4722034415870439,0.9998974793552184,0.0003479637647984951
-0.47206351656495826,-0.47206351656495826,0.9999347880335188,0.0003712037713549649
-0.4719330997948418,-0.4719330997948418,1.0002217437449719,0.00032749647264899577
-0.47176858899911167,-0.47176858899911167,1.0000105910625234,0.00036335178010443226
-0.47163209375285076,-0.47163209375285076,1.0000316461226098,0.0003150368958987715
-0.4715427402727073,-0.4715427402727073,1.0003810532332007,0.0003652143308091073
-0.4713754042284563,-0.4713754042284563,1.0001452956633226,0.000300850240181751
-0.47120477431017205,-0.47120477431017205,1.000067498404087,0.0003424841941437566
-0.4710419594994164,-0.4710419594994164,1.0002926695275673,0.0003392890921649647
-0.47082057560910473,-0.47082057560910473,0.999564898445181,0.0003142470556202466
-0.47069830274704144,-0.47069830274704144,1.0001172926099426,0.000280702070219671
-0.470575720143097,-0.470575720143097,1.0004860855034554,0.00037421534955288697
-0.47048704303597333,-0.47048704303597333,1.0003686722193286,0.0004165042974203217
-0.4702313983187196,-0.4702313983187196,1.0000634363127414,0.00032852186695573
-0.47008718427678103,-0.47008718427678103,0.9996968449156469,0.0003164756125263444
-0.4699759053095477,-0.4699759053095477,1.0000526042166056,0.00039778805852282926
-0.4698702556750504,-0.4698702556750504,1.0002810713903543,0.00036639839917194093
-0.4697618300007889,-0.4697618300007889,1.0002109465852118,0.00031891782976576597
-0.4696476764860563,-0.4696476764860563,1.000053013358747,0.00034734528430072477
-0.4694637060572859,-0.4694637060572859,1.000195238319014,0.00031922764289124046
-0.46926830939773934,-0.46926830939773934,1.000068301225714,0.0003349475340316694
-0.4691536325248308,-0.4691536325248308,1.0002454697154524,0.0004055391305415464
-0.4690435323223937,-0.4690435323223937,1.0001559823509345,0.0002987271457945169
-0.46890250814030876,-0.46890250814030876,1.0000928923435213,0.00036581334576104804
-0.46875741763797124,-0.46875741763797124,1.000031923500418,0.00036252328482586093
-0.46857599271606887,-0.46857599271606887,0.9999050973959512,0.0003087517777815335
-0.4683972326398361,-0.4683972326398361,1.0004992002406954,0.00031985196486341867
-0.46822251494595546,-0.46822251494595546,0.999658785256722,0.00031036278556195447
-0.4681202765379567,-0.4681202765379567,1.0002741710531147,0.0003035686384814563
-0.46797151686041616,-0.46797151686041616,1.0000511461768837,0.000334858755055857
-0.4678273583253031,-0.4678273583253031,1.0000283126704879,0.0003591385519253555
-0.467689918220276,-0.467689918220276,0.9997299477109227,0.00036327573752449485
-0.4675629039018531,-0.4675629039018531,0.9999681695998117,0.0003665357467982207
-0.4674144247241202,-0.4674144247241202,1.000050868705346,0.00031355977739167044
-0.46724898764223327,-0.46724898764223327,1.0002821489307867,0.00031320909926021935
-0.46706317377393136,-0.46706317377393136,0.9999068091915827,0.00030741274115277383
-0.4668226706504356,-0.4668226706504356,1.0001561333899447,0.00039676902232356666
-0.4666107380980975,-0.4666107380980975,0.9997951852555979,0.00036415546530470304
-0.46640036607714136,-0.46640036607714136,1.0001200466183442,0.00037454405477321676
-0.46621911596594146,-0.46621911596594146,1.0001842467572446,0.0003422542351315457
-0.46606607158173574,-0.46606607158173574,0.999553183639526,0.00036611629933234926
-0.4659207021410111,-0.4659207021410111,1.0002267773188231,0.000360976517561305
-0.46566475012805314,-0.46566475012805314,0.999661089869124,0.00033757591559834563
-0.4655193704937119,-0.4655193704937119,0.9995531845661765,0.00032247372245869507
-0.46538588375260587,-0.46538588375260587,1.0001661479313806,0.0003055105958094717
-0.4652082684406196,-0.4652082684406196,0.9999815643962163,0.000358663839399906
-0.4651426112162881,-0.4651426112162881,1.000022944993606,0.00031909624739176733
-0.46505814708943943,-0.46505814708943943,1.0003210046939344,0.0003603742580813607
-0.464958464258234,-0.464958464258234,1.0000201694467528,0.00032656356174703006
-0.46478763576742493,-0.46478763576742493,1.0001931492422114,0.0003651164246033779
-0.4646290220654919,-0.4646290220654919,1.0002227637319894,0.00039131168542671347
-0.46449138212774416,-0.46449138212774416,1.000147132798691,0.0003410358225577643
-0.46428938087046845,-0.46428938087046845,1.0007696548749554,0.00031779681629170135
-0.4641139045372256,-0.4641139045372256,1.000166927413981,0.00035721783068992527
-0.4639092932382482,-0.4639092932382482,0.9997344265175323,0.0004346003681134802
-0.4637520205695182,-0.4637520205695182,1.0003178540903042,0.00033257670982496
-0.46367007519293113,-0.46367007519293113,0.9993698039538913,0.0003372298361146416
-0.4634993881772971,-0.4634993881772971,1.0000687487343398,0.00031680528186035935
-0.46339356675016463,-0.46339356675016463,1.0002605595750427,0.00028229587432135816
-0.4632816131459549,-0.4632816131459549,0.9997841243151813,0.00033213659980752
-0.46317346101568546,-0.46317346101568546,0.99992385368464,0.00037402129161720525
-0.4629176882604952,-0.4629176882604952,0.9997823255117402,0.00029029384631726487
-0.46279418660124066,-0.46279418660124066,0.9997914046424606,0.0003855364668814903
