time,time,flux,flux_err
-0.4998788628775704,-0.4998788628775704,0.9998275064725007,0.00016547489101011436
-0.49963926886872895,-0.49963926886872895,0.9999943199506656,0.00016812340239257185
-0.4995056535268911,-0.4995056535268911,0.9999330351190404,0.00015632774461622978
-0.499305581095238,-0.499305581095238,1.0000680202291046,0.00015455077019885816
-0.49916216395431545,-0.49916216395431545,0.9999925221110166,0.00015227976504049415
-0.49906797026560523,-0.49906797026560523,0.9997607335819497,0.00014300239666751666
-0.49891915607768167,-0.49891915607768167,1.0001949790772573,0.0001407877301715312
-0.4987614609126467,-0.4987614609126467,0.99989171789905,0.0001553811840928335
-0.498557991828784,-0.498557991828784,1.0001288664919454,0.00015257324342428792
-0.4984515781299706,-0.4984515781299706,0.9999473276716847,0.0001509212781748734
-0.49830222358868925,-0.49830222358868925,1.0000899934677032,0.0001580902012570926
-0.4982164148525044,-0.4982164148525044,1.000085388199765,0.0001430826238151772
-0.49806940894668517,-0.49806940894668517,0.9998980629918135,0.00015382859792080836
-0.49792160668330326,-0.49792160668330326,1.0000972454596764,0.00014402824776309
-0.49775419175275604,-0.49775419175275604,1.0001975344519363,0.00014493975508634603
-0.4975708075293369,-0.4975708075293369,0.999878433818982,0.00014266410508150426
-0.49744931721215835,-0.49744931721215835,1.0000350186499287,0.00015632924330318272
-0.49726144880878564,-0.49726144880878564,0.9998686086858981,0.00015335592479097558
-0.4971538647016132,-0.4971538647016132,0.9999452015113836,0.00016466636929154819
-0.4970538096808014,-0.4970538096808014,0.9999714215446825,0.000175769305028536
-0.49699662546590845,-0.49699662546590845,1.0000199782831702,0.00015497925699614108
-0.49691161385853777,-0.49691161385853777,0.9999905744632116,0.000153422543719612
-0.49679677670683303,-0.49679677670683303,1.000026434763567,0.00017876795249753587
-0.4967024705340009,-0.4967024705340009,1.0000334265948834,0.00015160831697708384
-0.4965837230938632,-0.4965837230938632,0.9995185093171189,0.0001405005388004167
-0.4964564979971328,-0.4964564979971328,1.0002539070661518,0.00015078129915044655
-0.49632103097719665,-0.49632103097719665,0.9999567796551014,0.00017567580454486194
-0.49615223117179996,-0.49615223117179996,0.9999842619865028,0.00014367019790123087
-0.49599429053596394,-0.49599429053596394,0.9998735347998838,0.00016318565176418688
-0.49593320989552014,-0.49593320989552014,1.000006373144146,0.00015965031942116
-0.49584569379840104,-0.49584569379840104,0.9999734182257825,0.0001678716208025203
-0.49572706012295387,-0.49572706012295387,1.000118747794896,0.00015648548293147914
-0.4956613753853162,-0.4956613753853162,0.999897444387346,0.00016531437644999312
-0.4955522009931883,-0.4955522009931883,1.0000203124742109,0.00016740307460577257
-0.49550628551915,-0.49550628551915,0.9999625739002239,0.0001637583846248635
-0.4954459500833764,-0.4954459500833764,1.000216123338277,0.00015727603673195575
-0.49530275857941886,-0.49530275857941886,0.9999718127968278,0.00014288446345434236
-0.49517451198480555,-0.49517451198480555,1.0000284611612194,0.00014157310632323508
-0.49511998818561553,-0.49511998818561553,0.9999825042760715,0.0001541650101210639
-0.4949173712204356,-0.4949173712204356,1.0002018510586108,0.0001443695929087545
-0.4946977348652581,-0.4946977348652581,1.0000679445664395,0.00015370703181866107
-0.49449781496332434,-0.49449781496332434,0.9999383391719542,0.0001541630844796599
-0.4943166006247338,-0.4943166006247338,1.0001100575119293,0.00014455173067529398
-0.4942358970849455,-0.4942358970849455,1.000079586925805,0.00014224137918761987
-0.4941669172829279,-0.4941669172829279,1.0003523716044989,0.00015603209481222604
-0.494015609239068,-0.494015609239068,0.9995949811072367,0.0001426225019188078
-0.49387221143042553,-0.49387221143042553,0.9998352368922763,0.00015185693674930404
-0.4937960850802483,-0.4937960850802483,1.000182477900775,0.00013886956630744954
-0.4936537097524706,-0.4936537097524706,0.9999493823644914,0.00015454787509333912
-0.4934287554631737,-0.4934287554631737,1.0002060508643276,0.00014087516453277865
-0.49320808112752273,-0.49320808112752273,0.9998426056025578,0.00015261352322641335
-0.49301863170076105,-0.49301863170076105,0.9998119646958225,0.00015440439730477604
-0.4929130223565153,-0.4929130223565153,0.9998730199608531,0.0001465510040403926
-0.49271450719788845,-0.49271450719788845,0.9999780444784137,0.00014202849368530272
-0.4925659406846535,-0.4925659406846535,1.0000123411943782,0.00014498499571935424
-0.4924192150348972,-0.4924192150348972,1.0000763848891334,0.0001403866392341701
-0.49232409805008504,-0.49232409805008504,1.0002781667288179,0.0001432173102580471
-0.49223397279820347,-0.49223397279820347,0.9998972866947584,0.00014077013024655727
-0.49202243377367266,-0.49202243377367266,1.000024022411074,0.00015468323495151953
-0.49190675754907714,-0.49190675754907714,0.99996256623608,0.00016665321069854924
-0.49184234358726825,-0.49184234358726825,0.9998423840076949,0.00015483631774295843
-0.49173432103852976,-0.49173432103852976,0.9997458103877725,0.0001527027098156748
-0.4916059014216444,-0.4916059014216444,1.0005760366546477,0.000155550924835318
-0.49147146268915093,-0.49147146268915093,0.9999384120807587,0.00014180139994456853
-0.49139915281921276,-0.49139915281921276,0.9999125683287835,0.00013875057311663264
-0.4913181590683962,-0.4913181590683962,1.0002558825629835,0.00013997262722295487
-0.49119678007155015,-0.49119678007155015,1.0000765037024206,0.00015299713210586099
-0.4910493887189659,-0.4910493887189659,0.9999674384740687,0.00014430246223420535
-0.49089207591168815,-0.49089207591168815,1.0001174119652432,0.00015503817072049035
-0.4907772231494164,-0.4907772231494164,1.0000458033884185,0.00014541865756878214
-0.49066125109020503,-0.49066125109020503,0.9999281454019112,0.00016366254331335843
-0.4906095034250029,-0.4906095034250029,0.99981532988978,0.00015367292758493114
-0.49053727451864687,-0.49053727451864687,1.0004714852317376,0.000156707348328
-0.4904354382160818,-0.4904354382160818,0.9999171098459294,0.00016504775303531296
-0.49035600444949523,-0.49035600444949523,1.0000018891198998,0.0001651308528353095
-0.4902473965124955,-0.4902473965124955,1.0001232212395397,0.0001656603646324441
-0.49012604182207725,-0.49012604182207725,1.0002126934326707,0.000155135040675724
-0.49002310179603226,-0.49002310179603226,1.0000441648151763,0.00014030372395746948
-0.4899414657062152,-0.4899414657062152,1.0000464509483777,0.0001550847128680557
-0.48984139970343676,-0.48984139970343676,0.9999099328039673,0.00014356938045431646
-0.4897424414393754,-0.4897424414393754,0.9998859920543776,0.00015247512539386966
-0.4895984635037166,-0.4895984635037166,0.9999085781443066,0.0001468793763614524
-0.4894310893723741,-0.4894310893723741,1.000146146243544,0.00016977303877596612
-0.48930275452694333,-0.48930275452694333,1.0002275690785931,0.00014449377952934262
-0.48923749602436145,-0.48923749602436145,1.0001118481392752,0.00013922437097132638
-0.4891453246265883,-0.4891453246265883,1.0000503592329018,0.00016185631572752425
-0.48903440493850214,-0.48903440493850214,1.0001273288628845,0.0001468897908666426
-0.4889043891103938,-0.4889043891103938,1.00025083380586,0.0001591703655980445
-0.48876062084164007,-0.48876062084164007,1.000014159008114,0.00014171207356342104
-0.4886248665225139,-0.4886248665225139,0.9997103560736356,0.00015175103789821198
-0.4885573018582363,-0.4885573018582363,0.9998461541889767,0.00014945026490061625
-0.4884111844457948,-0.4884111844457948,1.000142543931437,0.00015450479533600837
-0.48828611974349767,-0.48828611974349767,1.0000829538554306,0.00014306774358381952
-0.48816327520326014,-0.48816327520326014,1.0001241764698066,0.00013494269606771037
-0.4880356036737794,-0.4880356036737794,0.9999784889303454,0.0001395062345993904
-0.4878460181000264,-0.4878460181000264,1.0001285323704898,0.0001698219128377835
-0.48770045921191923,-0.48770045921191923,1.000356739909428,0.0001463021436071132
-0.487595078731465,-0.487595078731465,0.9998679728677896,0.00013962682601752086
-0.4874439791114128,-0.4874439791114128,1.000155515381613,0.00014290017711742384
-0.48728712306619854,-0.48728712306619854,1.0000009214668328,0.00014523946276160835
-0.48717260462071865,-0.48717260462071865,1.000132680427765,0.00013972546217212546
-0.48705233270302417,-0.48705233270302417,0.9997486682373674,0.0001566032987054885
-0.4869653046345775,-0.4869653046345775,1.0000564847484381,0.00013695176465502141
-0.4867958580085542,-0.4867958580085542,0.9997215429595718,0.00016547864294785044
-0.4867021741814824,-0.4867021741814824,0.9998300684833239,0.00015767522192352803
-0.48661751671970704,-0.48661751671970704,1.0000923017186731,0.00015086373989661462
-0.48647873501613503,-0.48647873501613503,0.9998567213285654,0.0001610629602050821
-0.48635994063479304,-0.48635994063479304,1.000036137738091,0.00014539068476846731
-0.4862293764716014,-0.4862293764716014,0.9999782384203278,0.00015555617502414914
-0.4861439427029836,-0.4861439427029836,0.9998117478321251,0.00014316300067627547
-0.4860470803363569,-0.4860470803363569,1.000140519361541,0.00014015287525063504
-0.48591443482328034,-0.48591443482328034,0.9998230538195967,0.0001530896425809039
-0.4857673340866313,-0.4857673340866313,0.9997785874522022,0.00014792965704686406
-0.48569177382742057,-0.48569177382742057,0.9999280760965144,0.00013909096497919467
-0.4855538532177889,-0.4855538532177889,1.0000490266997257,0.0001519991630251256
-0.48541434978105824,-0.48541434978105824,0.9998662104445659,0.00016432330287229996
-0.4853262879216345,-0.4853262879216345,0.9999905913723035,0.00015239612090340869
-0.48523154630420323,-0.48523154630420323,1.0002163020617991,0.0001641629177763786
-0.4851514199475787,-0.4851514199475787,1.000077333232853,0.00016683060643195755
-0.48502108282627887,-0.48502108282627887,0.9998728381707593,0.00016484092362327338
-0.48492143552539346,-0.48492143552539346,0.999890238394733,0.00015325855102868845
-0.48479848851202406,-0.48479848851202406,1.000071871748289,0.00014003115809733615
-0.48466271656761817,-0.48466271656761817,0.9996924430453709,0.00015364948739115695
-0.4845642199179565,-0.4845642199179565,0.9998841886759144,0.0001424922839004563
-0.484432921206826,-0.484432921206826,1.0000136001534303,0.00015435742294575084
-0.4842056016277638,-0.4842056016277638,1.00003916228479,0.00014573326214714036
-0.48407362550460675,-0.48407362550460675,1.0001893064707867,0.00016556311071564339
-0.48391435523953985,-0.48391435523953985,0.9999388194843707,0.00016848328878514237
-0.48384528652823067,-0.48384528652823067,0.9999069471559009,0.00014181558129482572
-0.48372612887178545,-0.48372612887178545,0.999980302001099,0.0001784966850442921
-0.4836268675924657,-0.4836268675924657,1.0001001941566823,0.0001413505553938457
-0.48348047583822334,-0.48348047583822334,1.0000763401219326,0.00014616761652669184
-0.4833659741823794,-0.4833659741823794,1.0000694626787443,0.00014005550595331309
-0.4832486007439002,-0.4832486007439002,1.0000110088623575,0.00015244278896108115
-0.48309413916358607,-0.48309413916358607,0.9998635917660866,0.00015643701026906492
-0.48290733808098596,-0.48290733808098596,0.9999525567997711,0.000153386562902301
-0.4827494614655734,-0.4827494614655734,1.000042372525232,0.00014343964106915634
-0.48259101185249165,-0.48259101185249165,1.0001155283097807,0.00015351778378398735
-0.4824793642277655,-0.4824793642277655,0.9998468539818258,0.00014384510670726564
-0.4824419930206204,-0.4824419930206204,1.0002831768206697,0.00015219691562057806
-0.4822932589519041,-0.4822932589519041,1.0001102648795606,0.00014334815333717294
-0.48214779404988806,-0.48214779404988806,0.9998422911331726,0.00014223318133264984
-0.4820675610280887,-0.4820675610280887,0.9999962675666598,0.00016428617611960195
-0.4819627153396141,-0.4819627153396141,0.9999806766158391,0.00013845078613518067
-0.4818446508823399,-0.4818446508823399,1.00004551238226,0.0001370541949993977
-0.4817212269521406,-0.4817212269521406,1.0000223894371931,0.00014102278108058674
-0.48144779346439465,-0.48144779346439465,1.0000161435205883,0.00015284567678788456
-0.48130129278106326,-0.48130129278106326,1.0000021952546547,0.00016416435376590994
-0.48117986360302895,-0.48117986360302895,0.999989171388771,0.00015578346177466456
-0.4810733062218787,-0.4810733062218787,0.9999045477805477,0.00014321618834650996
-0.48093295125217994,-0.48093295125217994,0.9999351875054732,0.0001421241910846929
-0.4807605256755778,-0.4807605256755778,0.9998236162932151,0.00014686348647850815
-0.48055396647796444,-0.48055396647796444,1.0002332344615965,0.00014021744335352936
-0.4804367012879084,-0.4804367012879084,0.9998093008685343,0.00015311142109057053
-0.4803190938575426,-0.4803190938575426,0.9998379214347892,0.00014487680942579793
-0.48015196396736426,-0.48015196396736426,1.0000669472938681,0.00017396267319729432
-0.48007868451895774,-0.48007868451895774,0.9998959995696974,0.0001543680750606362
-0.4800085308776033,-0.4800085308776033,0.9999433517684256,0.00015441762167522135
-0.47994098352974107,-0.47994098352974107,1.000076104901868,0.0001535154799296354
-0.47977632032379913,-0.47977632032379913,1.000072218884239,0.00015880588409804622
-0.4796739602614252,-0.4796739602614252,1.0000644774050442,0.00015666793885762048
-0.47957985453031143,-0.47957985453031143,0.9999378649246337,0.00014262051586573938
-0.47946183395288244,-0.47946183395288244,0.9998340880284304,0.00015413199861621455
-0.4793491819738847,-0.4793491819738847,1.0000611632560525,0.0001422073088643586
-0.47914467059054006,-0.47914467059054006,1.0000062999561934,0.0001625722193118601
-0.4790046405978501,-0.4790046405978501,1.000236353786304,0.00014978100640534707
-0.47889940298227884,-0.47889940298227884,0.9999451424249142,0.0001755698406480691
-0.478801868922892,-0.478801868922892,1.0001574642470465,0.0001554352298908962
-0.4787159335483011,-0.4787159335483011,1.0001217576399468,0.0001561318988749037
-0.4786171671017655,-0.4786171671017655,0.9998516704209909,0.00016609697528896053
-0.4785320596114616,-0.4785320596114616,1.0001114267552125,0.0001512585560698839
-0.47847432653652505,-0.47847432653652505,0.9999850163405206,0.00016714441309349963
-0.4783796196054027,-0.4783796196054027,1.0021386328004653,0.00016692958469804046
-0.478246643602688,-0.478246643602688,0.9998409828515271,0.00015645046696676661
-0.4781591961727827,-0.4781591961727827,0.9997980235367094,0.0001406107661310752
-0.47806046122168483,-0.47806046122168483,0.9996787629526187,0.0001539179695364417
-0.477909410796201,-0.477909410796201,0.9999763311496187,0.00014048835069800642
-0.4777802385906398,-0.4777802385906398,1.0001840455131674,0.0001413235212290948
-0.4775915602040186,-0.4775915602040186,0.9998826593996037,0.00015716162350119767
-0.47748097800867983,-0.47748097800867983,1.000025533660487,0.00014211700422645397
-0.47735431101827996,-0.47735431101827996,1.0000506076044378,0.0001521665263737157
-0.4771920587274508,-0.4771920587274508,0.9999384429183239,0.00015664356894643075
-0.47703027784082225,-0.47703027784082225,0.9999684413631975,0.00014158416362806904
-0.47691511631819594,-0.47691511631819594,1.0000143467672031,0.00014191298108959447
-0.47680766081139153,-0.47680766081139153,1.000083339761575,0.00015795947247338268
-0.4766913576942898,-0.4766913576942898,1.0001279222452715,0.000151968923554206
-0.4765710420699179,-0.4765710420699179,1.0000792319432248,0.00014262746417099481
-0.47631699123121507,-0.47631699123121507,0.999896483066183,0.0001406997443268302
-0.47612371352515764,-0.47612371352515764,1.0001160346283657,0.00015685315082610436
-0.4759312646507169,-0.4759312646507169,0.9999585673491784,0.00015568413322911232
-0.4757241988394526,-0.4757241988394526,0.9999292811572547,0.00013812426853041554
-0.47555420363496526,-0.47555420363496526,1.000306032094477,0.0001431478550806638
-0.47539832563052187,-0.47539832563052187,1.0000316222855776,0.00015287085481542582
-0.47528772842379113,-0.47528772842379113,0.9998349214239415,0.00014465229399958856
-0.4751728693219775,-0.4751728693219775,1.0002705395242135,0.00014923623983905827
-0.4750127524290292,-0.4750127524290292,1.0004349743304068,0.0001531083989082126
-0.47489758506126234,-0.47489758506126234,1.0000181214122867,0.00015417562943022728
-0.4748568779898051,-0.4748568779898051,1.0000150916827133,0.0001679389618862233
-0.4747210199246183,-0.4747210199246183,1.0000433611212358,0.00016366749844883946
-0.47464183189331377,-0.47464183189331377,1.0000297399162492,0.00014362802418079216
-0.4744514565318241,-0.4744514565318241,0.9998585961105144,0.00015580323913786585
-0.4743534888013528,-0.4743534888013528,1.0000533475370321,0.00014074068148289058
-0.4741695648677705,-0.4741695648677705,0.9997946828586579,0.00015337586495556686
-0.473962646954169,-0.473962646954169,0.9998434899124293,0.00014459191668641217
-0.473845266436183,-0.473845266436183,1.000009753261698,0.0001377595782045959
-0.47370556188107005,-0.47370556188107005,1.0002078636115919,0.00018020670998533336
-0.4736251315327536,-0.4736251315327536,0.9997776059527947,0.00016504816612846455
-0.47354324482366794,-0.47354324482366794,1.0000576032528603,0.00015681274475598745
-0.4734440671843913,-0.4734440671843913,1.0003019300852856,0.00016426001281622324
-0.47333702080613876,-0.47333702080613876,0.9997623532680502,0.00016543364325978839
-0.4732694266527687,-0.4732694266527687,1.0001190911373568,0.0001542228901598182
-0.4731901057086361,-0.4731901057086361,1.0001175359990095,0.00016186468074920338
-0.47302137888800644,-0.47302137888800644,1.0000077471770523,0.00014334554932963044
-0.4729257463179238,-0.4729257463179238,1.0000127249360378,0.00015057203229800958
-0.47278429679136025,-0.47278429679136025,0.9999504982151126,0.0001557004452936507
-0.47264750320500754,-0.47264750320500754,1.000169444081638,0.00015986720347471012
-0.4724687719182839,-0.4724687719182839,1.0000602118810449,0.0001442719193221084
-0.47232434325014766,-0.47232434325014766,1.0001280799220704,0.00017812656098073796
-0.47224461773512305,-0.47224461773512305,1.0001591992604448,0.0001407898154685616
-0.4720874086255208,-0.4720874086255208,1.0000896557900265,0.00016573814973327585
-0.4720214803754061,-0.4720214803754061,0.9996343446877116,0.0001568725605138361
-0.47192211651235993,-0.47192211651235993,0.9999626999977209,0.00016874174443924463
-0.47175876104010966,-0.47175876104010966,0.9998424463183857,0.00014109401754332885
-0.4716160062671406,-0.4716160062671406,1.000172191522196,0.00015240609199717795
-0.47154319567634956,-0.47154319567634956,0.9997239681835106,0.0001510720105874812
-0.4713981079235964,-0.4713981079235964,0.9999877438559563,0.00015347179705471446
-0.47120329167919406,-0.47120329167919406,1.0000127188530117,0.00013860124070520682
-0.47103052962338554,-0.47103052962338554,1.0000052905796657,0.0001407402292904736
-0.4707953506625927,-0.4707953506625927,1.000039304961676,0.00015722067584386684
-0.47064533151715293,-0.47064533151715293,1.000013027639624,0.00014353837768789118
-0.47049445725460826,-0.47049445725460826,1.0001665559021518,0.00014326212965651768
-0.47035976042934635,-0.47035976042934635,0.9998595809787287,0.0001533047695989386
-0.4702268699336855,-0.4702268699336855,0.9999995553869724,0.00014585601252246143
-0.4700821567192179,-0.4700821567192179,1.0000893769054444,0.00013781455820544502
-0.46994973753680824,-0.46994973753680824,1.0000287127455336,0.00014315560721243944
-0.4697645571694011,-0.4697645571694011,1.0003859178525523,0.0001667618065123449
-0.469661779289163,-0.469661779289163,0.9998333550737792,0.00015529944229233464
-0.4695689045096515,-0.4695689045096515,0.9999727797323865,0.00014070223075370194
-0.4694398767522216,-0.4694398767522216,1.000188364608683,0.00015987361349079603
-0.46936402247156367,-0.46936402247156367,0.9998566714140147,0.0001440044878150963
-0.469202041009703,-0.469202041009703,1.0001194233771902,0.00016043307964132606
-0.46910174035292584,-0.46910174035292584,1.0001316329017766,0.00014431217105281255
