time,time,flux,flux_err
-0.4994803228928504,-0.4994803228928504,0.9999702704447806,6.00961054954135e-05
-0.4983473062026557,-0.4983473062026557,0.9998696997403771,6.0000028371692394e-05
-0.49749107076847093,-0.49749107076847093,0.9999710671773182,6.021754999663632e-05
-0.4967513863472656,-0.4967513863472656,1.0000530550804199,6.021778729079865e-05
-0.49595776491478316,-0.49595776491478316,1.000021357801141,5.482479580157786e-05
-0.495076050235366,-0.495076050235366,0.999975133660796,5.49211813477915e-05
-0.49431618775124664,-0.49431618775124664,1.0000230156004963,5.477458340353785e-05
-0.49391098060732475,-0.49391098060732475,0.9998718850351083,5.507757527726781e-05
-0.4926808751741191,-0.4926808751741191,1.0000269393388268,5.481850586498639e-05
-0.49177133764023895,-0.49177133764023895,1.0000492298152257,5.495005146369734e-05
-0.49091622775304133,-0.49091622775304133,0.9999785017033178,5.489886436371151e-05
-0.4906341739217169,-0.4906341739217169,1.0000032145824185,5.488284227991531e-05
-0.49007912995730296,-0.49007912995730296,0.9999462708786577,5.4698025825604964e-05
-0.4895269244698284,-0.4895269244698284,1.0000147860313484,5.4993005845109986e-05
-0.48869084004181784,-0.48869084004181784,0.9999748198992521,5.490736235288822e-05
-0.4875619942155026,-0.4875619942155026,0.9999202858685148,5.466728243565962e-05
-0.48662340572991525,-0.48662340572991525,1.000035460226218,5.4869473519849e-05
-0.4860910792238428,-0.4860910792238428,1.0000415297735352,5.483210198686106e-05
-0.4853427625574113,-0.4853427625574113,1.0000069501408795,5.480088986090246e-05
-0.4845963693631347,-0.4845963693631347,0.9999784313409006,5.492261375075723e-05
-0.48380972892118734,-0.48380972892118734,0.9999863745275649,5.4781448388377496e-05
-0.4832367074464855,-0.4832367074464855,1.000061180549959,5.5108982714122786e-05
-0.48289359020491246,-0.48289359020491246,1.0000604616245623,5.456800032122422e-05
-0.48241474755777747,-0.48241474755777747,1.0000701609606282,5.4910508968727164e-05
-0.482067491482303,-0.482067491482303,0.9999113114236792,5.4977264540734e-05
-0.48145513791532724,-0.48145513791532724,1.000047831325531,5.486093906991028e-05
-0.48100756609128437,-0.48100756609128437,1.000034129492733,5.485213035631725e-05
-0.4799581369610678,-0.4799581369610678,1.0000758667994616,5.479991867561534e-05
-0.478912849270273,-0.478912849270273,1.0000007772821946,5.476366848437089e-05
-0.4783806213003118,-0.4783806213003118,1.0000103428249314,5.461909526938828e-05
-0.47740590758548934,-0.47740590758548934,1.0000201602304588,5.501473746966077e-05
-0.47649893825509937,-0.47649893825509937,1.0000948109181,5.4944943926727154e-05
-0.4756347836329951,-0.4756347836329951,0.9999993178373912,5.4997244620471817e-05
-0.4753721574641531,-0.4753721574641531,0.9999685572853512,5.4815373848887024e-05
-0.4748735220469825,-0.4748735220469825,0.9999883813083231,5.488810611022035e-05
-0.47457393613949533,-0.47457393613949533,0.9999368428221906,5.523885444172925e-05
-0.4735911240146379,-0.4735911240146379,0.999980480342127,5.4657470739801105e-05
-0.472727327352186,-0.472727327352186,1.0000519038013262,5.464837422335878e-05
-0.4722651091084117,-0.4722651091084117,0.9999714225139341,5.477539974730255e-05
-0.47135622191563015,-0.47135622191563015,0.9999795551813391,5.480562831809533e-05
-0.470653492785641,-0.470653492785641,0.9999680057589371,5.471187979422781e-05
-0.4697158459122875,-0.4697158459122875,1.0000130244562353,5.483622377237728e-05
-0.46893713863391895,-0.46893713863391895,1.0000148082037559,5.504762829356666e-05
-0.46816140203445683,-0.46816140203445683,1.0001057874112655,5.469994391131716e-05
-0.46797512107441436,-0.46797512107441436,0.9999925395564446,5.505642058666391e-05
-0.46753554317183443,-0.46753554317183443,1.0000008085650478,5.4984898889960635e-05
-0.4670019620236417,-0.4670019620236417,0.9999573568907196,5.5116388249510163e-05
-0.46637162154147516,-0.46637162154147516,1.000022937867858,5.47403036330029e-05
-0.4650647071088315,-0.4650647071088315,1.0001058046432327,5.480378449052452e-05
-0.46396174653200434,-0.46396174653200434,1.0000881752510637,5.47961522846112e-05
-0.46342676937638316,-0.46342676937638316,1.0000291945308555,5.453620383741551e-05
-0.46272516275785164,-0.46272516275785164,0.9999903979391837,5.483156125257931e-05
-0.46203001058675,-0.46203001058675,1.0000339513345033,5.4747460421737706e-05
-0.46105504627048505,-0.46105504627048505,0.9999324585204323,5.490129696539873e-05
-0.46049820910193373,-0.46049820910193373,1.0000503585060851,5.4893406987375344e-05
-0.4601422188476135,-0.4601422188476135,0.9999076573651005,5.5005342112543196e-05
-0.4595209171908209,-0.4595209171908209,0.9999269222136862,5.4991059782523566e-05
-0.45878064082644415,-0.45878064082644415,1.0000023116455956,5.4798939203960534e-05
-0.4575945621007122,-0.4575945621007122,1.000062730601113,5.491563309493533e-05
-0.4570403793331934,-0.4570403793331934,0.9999816245045366,5.4806907617183284e-05
-0.4564769117947435,-0.4564769117947435,0.9999936896969752,5.471957666032944e-05
-0.45582553479398485,-0.45582553479398485,1.000045130571775,5.488221430328035e-05
-0.455123473189451,-0.455123473189451,1.0000277015769847,5.470945374191908e-05
-0.45425255170994205,-0.45425255170994205,0.9999359353164274,5.487388755520035e-05
-0.4537235383781081,-0.4537235383781081,1.0000261060931537,5.4947843956703745e-05
-0.4532319198260666,-0.4532319198260666,1.0000441380585987,5.490151404473093e-05
-0.4528920435397595,-0.4528920435397595,0.999981239809259,5.479850118891061e-05
-0.4521845630595635,-0.4521845630595635,1.0000074064503484,5.482531292935872e-05
-0.45124631931612386,-0.45124631931612386,0.9999764562334544,5.471131416419289e-05
-0.45022538434714077,-0.45022538434714077,1.000023656673731,5.490312143304176e-05
-0.44950594742476824,-0.44950594742476824,1.0000654636120219,5.4904625382533575e-05
-0.449018170380441,-0.449018170380441,0.9999568473428301,5.46455431388089e-05
-0.4483959425531793,-0.4483959425531793,1.0000239948646665,5.475077131473675e-05
-0.4478088473988464,-0.4478088473988464,1.000074777834224,5.502189209740725e-05
-0.4473733292827092,-0.4473733292827092,1.0000909429039018,5.4839630223520405e-05
-0.44677511537156533,-0.44677511537156533,1.000044656240702,5.4867522955798676e-05
-0.44609945519405303,-0.44609945519405303,0.9999272211664566,5.488676501796527e-05
-0.4457565911638085,-0.4457565911638085,1.0001290898116506,5.488610945104147e-05
-0.4452673399799096,-0.4452673399799096,0.9999677050440077,5.497986620817853e-05
-0.4449119974153291,-0.4449119974153291,1.0000442845405149,5.48228007652439e-05
-0.4443459560410702,-0.4443459560410702,1.0000556718510087,5.4857569865942405e-05
-0.4438476155119133,-0.4438476155119133,1.000061246179295,5.4735997379573215e-05
-0.44308032663029734,-0.44308032663029734,1.000087892428349,5.480001777220715e-05
-0.4419475812806922,-0.4419475812806922,1.0000498064237064,5.4791281907265934e-05
-0.4414542196012917,-0.4414542196012917,1.0000217729869942,5.4545207464662136e-05
-0.4408341218957503,-0.4408341218957503,0.9999637117843436,5.4940704039525815e-05
-0.44013588855814306,-0.44013588855814306,1.0000669986545465,5.502612444857205e-05
-0.4396218939888058,-0.4396218939888058,0.9999716082520909,5.4916594360412884e-05
-0.4387685940382653,-0.4387685940382653,0.9999743163222732,5.5061381375903846e-05
-0.43848385078381397,-0.43848385078381397,0.9999635651692655,5.501351796880672e-05
-0.4379845232127991,-0.4379845232127991,0.9999612754976189,5.4934276304239484e-05
-0.43711247358078253,-0.43711247358078253,1.000083862085204,5.505583239857606e-05
-0.43628288806503407,-0.43628288806503407,0.9999890922258663,5.4853593128111064e-05
-0.4354817972089222,-0.4354817972089222,0.9999981640404254,5.4730839814972494e-05
-0.43492793004770647,-0.43492793004770647,1.000031683301934,5.473217614078433e-05
-0.43411787296063264,-0.43411787296063264,0.9999888133000466,5.4692034518042515e-05
-0.43346749331249157,-0.43346749331249157,0.9998728869045456,5.485352800678017e-05
-0.43277695594588295,-0.43277695594588295,0.9999826179526151,5.5037700491384416e-05
-0.4317732715047896,-0.4317732715047896,1.0000478438388805,5.490943850812284e-05
-0.43087588209818933,-0.43087588209818933,0.9999712051657779,5.5112548119437394e-05
-0.43058418123619047,-0.43058418123619047,1.0000258802135262,5.46991180714742e-05
-0.4301059740544588,-0.4301059740544588,0.9999884490175666,5.475664262468747e-05
-0.42968771063606254,-0.42968771063606254,0.9998957679007436,5.4922533650354484e-05
-0.4283433437172789,-0.4283433437172789,0.9999859376908866,5.490825027223287e-05
-0.427457343354763,-0.427457343354763,1.000074483366481,5.501046312942431e-05
-0.42669361549196766,-0.42669361549196766,0.9999746588087165,5.4712442221547074e-05
-0.425660596160742,-0.425660596160742,0.9999142812358641,5.483002281614862e-05
-0.4245898805631441,-0.4245898805631441,0.9999537626363765,5.490326964144431e-05
-0.42379103011626285,-0.42379103011626285,0.9999605694234355,5.4967332102634636e-05
-0.4229922591228387,-0.4229922591228387,0.9998931187339244,5.4881007083557345e-05
-0.4222869472905586,-0.4222869472905586,0.9999066165315028,5.481464885282352e-05
-0.42168380994626203,-0.42168380994626203,1.000100567311101,5.487752938695987e-05
-0.4210632230046031,-0.4210632230046031,1.0000060568929177,5.486836256514341e-05
-0.42004770557759913,-0.42004770557759913,1.000038039194958,5.4838297646781855e-05
-0.4191911861547851,-0.4191911861547851,0.99993334720954,5.4846053649504574e-05
-0.41845287228861705,-0.41845287228861705,1.0000316948312702,5.475529725833487e-05
-0.4178015455385321,-0.4178015455385321,0.9998380581453322,5.4950063881948655e-05
-0.4169471135712229,-0.4169471135712229,1.0000004818060813,5.481790776370241e-05
-0.41654818945535227,-0.41654818945535227,1.0000888323949475,5.4827598979521454e-05
-0.4160100682260236,-0.4160100682260236,0.9999788081192211,5.476744227619376e-05
-0.41564538827806247,-0.41564538827806247,0.9999908966525057,5.489771395614683e-05
-0.4153565090608026,-0.4153565090608026,0.9999529933605121,5.48434074160269e-05
-0.41469948145240776,-0.41469948145240776,1.0000443349401476,5.491454265723574e-05
-0.41406030274374644,-0.41406030274374644,1.0000558626043827,5.481826867715632e-05
-0.41335189257297317,-0.41335189257297317,1.0000297511082004,5.490989000192072e-05
-0.41235280188047907,-0.41235280188047907,1.0000043716127422,5.4816995321202714e-05
-0.41202013532310955,-0.41202013532310955,1.0000402256333134,5.4790611214046134e-05
-0.4113253266172251,-0.4113253266172251,0.9999788854361833,5.470798492437157e-05
-0.4106842384360789,-0.4106842384360789,1.0001594552558821,5.5041910107550565e-05
-0.4103116970465635,-0.4103116970465635,0.9999508213650881,5.478613866112328e-05
-0.4094942348128825,-0.4094942348128825,1.0000653467442706,5.4955315075963615e-05
-0.40891855295558344,-0.40891855295558344,0.9999536461010168,5.505272319343685e-05
-0.4085584718770406,-0.4085584718770406,1.0000505611607342,5.4699519916675446e-05
-0.40794784075260393,-0.40794784075260393,1.0000214604205713,5.500268261753369e-05
-0.40728009348458727,-0.40728009348458727,0.9999632731254362,5.4775188154148515e-05
-0.40658245003724003,-0.40658245003724003,0.9999655926315917,5.4760692186417556e-05
-0.4058106695505558,-0.4058106695505558,1.0001524391908965,5.4885885505967706e-05
-0.40503005180798934,-0.40503005180798934,1.0000146927576037,5.475890600777971e-05
-0.40460038644450835,-0.40460038644450835,0.9999896051844626,5.475132640016528e-05
-0.40403810588904887,-0.40403810588904887,1.000012996385347,5.4846940412890785e-05
-0.40312593401395136,-0.40312593401395136,1.0000900124373033,5.481672535409615e-05
-0.40256137021133326,-0.40256137021133326,1.0000629125884717,5.514729489073282e-05
-0.40160154358454747,-0.40160154358454747,0.9999563149913554,5.498374004902239e-05
-0.40137426710498403,-0.40137426710498403,1.0000247018693458,5.501583585912358e-05
-0.40087049572757677,-0.40087049572757677,1.0000422903325124,5.4843235027113754e-05
-0.4003699532207975,-0.4003699532207975,0.999962094269445,5.5169165391936515e-05
-0.3994488002543221,-0.3994488002543221,1.00002591429819,5.519437903465333e-05
-0.39881641785759714,-0.39881641785759714,0.9999947265564513,5.4697813418643255e-05
-0.39790093470874127,-0.39790093470874127,0.9999835301206289,5.467100018217223e-05
-0.3970108127366984,-0.3970108127366984,1.0000884835459143,5.470304524140459e-05
-0.3962843232999148,-0.3962843232999148,1.0000556664311102,5.483358020136244e-05
-0.3957963502303755,-0.3957963502303755,0.9998960863865192,5.5020386152684974e-05
-0.39470874095204633,-0.39470874095204633,1.0000425659308958,5.470564056353517e-05
-0.39378865565886373,-0.39378865565886373,1.000036414196592,5.489997099640759e-05
-0.39329408521880393,-0.39329408521880393,1.0000787086781688,5.498376121321818e-05
-0.3925849887396907,-0.3925849887396907,1.0000455010451452,5.493466753579919e-05
-0.39149548330824474,-0.39149548330824474,1.0001711784699898,5.492978651224871e-05
-0.39044134399518954,-0.39044134399518954,1.0001516202887244,5.501869659730663e-05
-0.38923209665663305,-0.38923209665663305,1.0000143607096077,5.481604727055892e-05
-0.38837090340603025,-0.38837090340603025,1.0000268855375154,5.4943659857990845e-05
-0.38762681643274843,-0.38762681643274843,1.000025154470631,5.4753552014008284e-05
-0.3871453164880222,-0.3871453164880222,1.0000270915377716,5.4965589634308596e-05
-0.386686064897367,-0.386686064897367,1.000153860332397,5.489574492880786e-05
-0.38621046317275615,-0.38621046317275615,1.0000084445698043,5.491207345392862e-05
-0.3854349872905004,-0.3854349872905004,0.9999382628189007,5.489255601049104e-05
-0.38463893786174597,-0.38463893786174597,1.0000560632685032,5.4712032149949546e-05
-0.3836097542378411,-0.3836097542378411,1.0000525369937685,5.463795570915974e-05
-0.3829381971132534,-0.3829381971132534,1.0000368877878913,5.46830233237048e-05
-0.38243462412501683,-0.38243462412501683,0.9999314493624963,5.501667899932994e-05
-0.3817723814288911,-0.3817723814288911,0.9999719231009403,5.481727100314333e-05
-0.3812668670849234,-0.3812668670849234,0.9999163532392557,5.491188687373605e-05
-0.38058400818554217,-0.38058400818554217,1.0000418023820856,5.487539050809719e-05
-0.3796696378325578,-0.3796696378325578,0.9999881140531024,5.506299012857633e-05
-0.37941748916200596,-0.37941748916200596,0.9999690552088903,5.4767858465784224e-05
-0.37894763441363466,-0.37894763441363466,1.0001386488034316,5.4698962942932386e-05
-0.37851746139785974,-0.37851746139785974,1.0000074228633562,5.5116791059688544e-05
-0.37823857986950316,-0.37823857986950316,1.0001874393446242,5.473754082561944e-05
-0.3776619753574778,-0.3776619753574778,0.999959138297427,5.4993459591989086e-05
-0.3773777648435498,-0.3773777648435498,0.9998962959296449,5.493738789663019e-05
-0.376688707798894,-0.376688707798894,1.0000065570181293,5.469472972334158e-05
-0.37554561787037527,-0.37554561787037527,0.9999203302789319,5.4849370165518723e-05
-0.37493507990729996,-0.37493507990729996,0.9999899675245306,5.460231545544062e-05
-0.3740752475830959,-0.3740752475830959,1.0000225139360892,5.4881347399701405e-05
-0.373251210514718,-0.373251210514718,1.0000290882135978,5.497977154472437e-05
-0.37202797382560676,-0.37202797382560676,1.0000596881281956,5.5095750463682896e-05
-0.3716092379290785,-0.3716092379290785,1.0000546417030907,5.4841436816447656e-05
-0.37108626179906423,-0.37108626179906423,1.0000700042902195,5.4863450495447776e-05
-0.3707208640618774,-0.3707208640618774,1.0000237277542143,5.513169163206958e-05
-0.3698278361240227,-0.3698278361240227,0.9999272835983491,5.465401745691327e-05
-0.36901683777759897,-0.36901683777759897,0.9999421935299679,5.464467872745274e-05
-0.36855400457716314,-0.36855400457716314,1.0000946705836244,5.4777385882511506e-05
-0.3676807430027111,-0.3676807430027111,0.99993475999572,5.4918125822252714e-05
-0.36712287056361675,-0.36712287056361675,0.9999725928737735,5.462518928184142e-05
-0.36627958134486105,-0.36627958134486105,1.0000184750975334,5.4707160755110554e-05
-0.3654251008752908,-0.3654251008752908,1.000044047710385,5.5002236000533345e-05
-0.364563682062726,-0.364563682062726,0.9999673286156021,5.47839486888794e-05
-0.3642775080188585,-0.3642775080188585,0.9999159739292768,5.5113123671397185e-05
-0.363906401694112,-0.363906401694112,0.9999597650084654,5.483354576914923e-05
-0.36333054314673063,-0.36333054314673063,0.9999528182486751,5.500424329609248e-05
-0.36282171542188735,-0.36282171542188735,1.000061043503155,5.4959030148186275e-05
-0.36155640332362965,-0.36155640332362965,1.0000801271003121,5.4766662426566024e-05
-0.3601988642825745,-0.3601988642825745,1.0000126325381669,5.484210747221803e-05
-0.35965783814390306,-0.35965783814390306,1.0000091516980993,5.467951399607512e-05
-0.35901379073329737,-0.35901379073329737,0.9999726517016677,5.483024441648288e-05
-0.3582410286042432,-0.3582410286042432,0.9999592375046309,5.479880635077192e-05
-0.35710499177876043,-0.35710499177876043,1.000098128897434,5.483593859316278e-05
-0.3566269775357796,-0.3566269775357796,1.0000723645092624,5.4991477043383565e-05
-0.3560667648584058,-0.3560667648584058,0.9999553503658823,5.493624677410979e-05
-0.3553418736482854,-0.3553418736482854,0.9999651567159873,5.482082456344525e-05
-0.3541029734602489,-0.3541029734602489,1.0000468946488723,5.5013894275877766e-05
-0.35334383967274335,-0.35334383967274335,1.0000431060141173,5.471749885390979e-05
-0.35285987546958497,-0.35285987546958497,0.9999998617891963,5.4714483737382994e-05
-0.35222128122259166,-0.35222128122259166,1.0000310459367685,5.478023105731463e-05
-0.35143241797704833,-0.35143241797704833,0.9999547333311177,5.479931309177151e-05
-0.3507093686370354,-0.3507093686370354,1.0000472256477686,5.488169176298323e-05
-0.3501281843942706,-0.3501281843942706,1.000038199676683,5.507246189992745e-05
-0.3497111047297949,-0.3497111047297949,0.9999074368619393,5.469165303991106e-05
-0.34925100500986445,-0.34925100500986445,0.9998867679516966,5.476943736778559e-05
-0.34864961300118014,-0.34864961300118014,0.9999384182943448,5.4941887442286007e-05
-0.3475360315176658,-0.3475360315176658,0.9999929185164426,5.4713015354093406e-05
-0.3467275208924548,-0.3467275208924548,0.999990193205422,5.489939090809539e-05
-0.34583664933234104,-0.34583664933234104,1.0000898647858703,5.502354370014735e-05
-0.3453125711494067,-0.3453125711494067,1.0000087224091843,5.4547490980945724e-05
-0.3447519083230873,-0.3447519083230873,1.0000316044336675,5.4886419680541814e-05
-0.3441471872407419,-0.3441471872407419,0.9999998577399088,5.489519653802689e-05
-0.34365054888112356,-0.34365054888112356,0.9999546662633098,5.4772822568223215e-05
-0.34289363638381476,-0.34289363638381476,1.000028745253594,5.495522437474729e-05
-0.3422807613904297,-0.3422807613904297,1.0000612346776834,5.485020694747336e-05
-0.34186352769320366,-0.34186352769320366,0.9999653322830069,5.482028122933846e-05
-0.3414071185201465,-0.3414071185201465,0.9999277691959938,5.513735636601933e-05
-0.34104295865035966,-0.34104295865035966,1.000053702251345,5.4627962203458136e-05
-0.34057993452224766,-0.34057993452224766,0.9999110936701537,5.476941628057403e-05
-0.3399987301330839,-0.3399987301330839,0.9999306573378479,5.4705999242786915e-05
-0.3392383859711117,-0.3392383859711117,0.9999164007325207,5.4790720344085016e-05
-0.3383020998146094,-0.3383020998146094,1.0001560243289345,5.490087479569434e-05
-0.33781108666298676,-0.33781108666298676,1.000000694083141,5.4611174305134694e-05
-0.33727641425139154,-0.33727641425139154,0.9999937459432706,5.49252374263752e-05
-0.33642249386393813,-0.33642249386393813,1.0000905878053081,5.4812929346723224e-05
-0.3355013338223216,-0.3355013338223216,0.9999860032578429,5.516001372260495e-05
-0.3348683162599627,-0.3348683162599627,1.0000402309869567,5.499853403666522e-05
-0.33466301219086747,-0.33466301219086747,1.0001006050897931,5.4916251395874327e-05
-0.3340071573147725,-0.3340071573147725,1.0000105125483947,5.487970347828605e-05
-0.3330345494956418,-0.3330345494956418,0.9999734765464048,5.5085990545517224e-05
