time,time,flux,flux_err
-0.49992868967698695,-0.49992868967698695,1.0000592426326835,6.534353202258296e-05
-0.4996375513431606,-0.4996375513431606,0.9999181041303448,6.789787992840322e-05
-0.499365543340294,-0.499365543340294,0.999875539816526,6.564328103141833e-05
-0.49913976744270866,-0.49913976744270866,0.9999933101755119,6.770817550156576e-05
-0.4989131905749673,-0.4989131905749673,1.0000001287363895,5.9684728669453165e-05
-0.4987408868742932,-0.4987408868742932,0.9999768792760413,6.354577083482356e-05
-0.49845279561268396,-0.49845279561268396,0.9999863294170085,6.109847942986329e-05
-0.498155204190698,-0.498155204190698,1.000091087524109,6.196871303313994e-05
-0.49788072321462096,-0.49788072321462096,0.9999400607179794,6.33513094528681e-05
-0.49762556874775327,-0.49762556874775327,0.9999825155964851,6.280894354826175e-05
-0.49747480946607536,-0.49747480946607536,0.9999590116204805,6.228568043333913e-05
-0.4973583981212869,-0.4973583981212869,1.0000405934481573,6.191533930753528e-05
-0.4969966182608914,-0.4969966182608914,1.0000347484296968,6.207376436551617e-05
-0.4967429653421277,-0.4967429653421277,0.9998805579913528,6.363137245428291e-05
-0.49642286380258155,-0.49642286380258155,1.0000218444493925,6.012981905453293e-05
-0.4959513279529347,-0.4959513279529347,0.9999637215327197,6.164916534067163e-05
-0.49559171601722485,-0.49559171601722485,0.9999165008128756,6.22794510998706e-05
-0.49543544445186855,-0.49543544445186855,0.999936261576171,6.382523251983349e-05
-0.49524839322330083,-0.49524839322330083,1.0000197179402495,6.361410611769545e-05
-0.49501529974513686,-0.49501529974513686,1.0000478517261182,5.946899075240646e-05
-0.49472965533495883,-0.49472965533495883,1.000050820583684,6.214536622748929e-05
-0.4944593615138729,-0.4944593615138729,0.9999764028135033,6.290534026721933e-05
-0.4939863876126765,-0.4939863876126765,1.0001115050979552,6.236238824901928e-05
-0.4938419563914067,-0.4938419563914067,1.0000318603754779,6.199232372147335e-05
-0.4933462031527597,-0.4933462031527597,1.0000030831313491,5.995388733407658e-05
-0.49293264756852295,-0.49293264756852295,0.9999001092160953,5.971116769174546e-05
-0.49262006068820485,-0.49262006068820485,1.000041003534718,6.172920957355311e-05
-0.4922562705258315,-0.4922562705258315,0.9999682035386079,6.41973639472347e-05
-0.4920115511136828,-0.4920115511136828,1.0001045926681935,6.622784302307798e-05
-0.4918189545744099,-0.4918189545744099,1.0000706193705036,6.185929403572648e-05
-0.4915317465703993,-0.4915317465703993,0.9999679878117295,6.0302205799968484e-05
-0.4913463432138087,-0.4913463432138087,0.9999459071884683,5.9972105944359914e-05
-0.4911425795726245,-0.4911425795726245,1.0000440731070843,6.195607048645353e-05
-0.4908951939753024,-0.4908951939753024,0.999975225030461,6.051641934741941e-05
-0.49062930819782197,-0.49062930819782197,1.0000009873295104,6.18639183244564e-05
-0.49037417544896017,-0.49037417544896017,1.0000698998449515,6.151512651954981e-05
-0.49011298335390163,-0.49011298335390163,1.000007694647628,6.19771539625234e-05
-0.48990692092702376,-0.48990692092702376,1.0000240607574757,6.23009427528923e-05
-0.4896524939162191,-0.4896524939162191,1.0001040602539888,6.157305471881649e-05
-0.4892223620532604,-0.4892223620532604,1.0000252647606191,5.956420964086772e-05
-0.48892837167149994,-0.48892837167149994,0.9999675235252772,6.213317065467717e-05
-0.4888004751468543,-0.4888004751468543,1.0000042038746888,6.186339163695747e-05
-0.4886937732240767,-0.4886937732240767,0.9999636831112294,6.337242717120538e-05
-0.4883656383222842,-0.4883656383222842,1.000075398057776,6.2427984276113e-05
-0.4880950562801445,-0.4880950562801445,0.9999513441129894,6.05253105080053e-05
-0.48764755029042134,-0.48764755029042134,0.9999848556574336,6.417482131945986e-05
-0.4872552901651943,-0.4872552901651943,0.9999865728317019,5.958922589629714e-05
-0.4869118181151862,-0.4869118181151862,1.0001699697302808,6.148217455566841e-05
-0.4866450017419993,-0.4866450017419993,0.9999238443485593,6.530296340418674e-05
-0.4864888777767192,-0.4864888777767192,0.9999592154194261,6.39608910502328e-05
-0.48626797297765734,-0.48626797297765734,1.0000267047555167,6.243845515059904e-05
-0.48583413352025673,-0.48583413352025673,1.0000162927813172,6.265438701483916e-05
-0.48569235653340004,-0.48569235653340004,0.9999958453310832,5.988228951471385e-05
-0.48534303524356803,-0.48534303524356803,1.0000002878625316,6.245821351973e-05
-0.48504297986946765,-0.48504297986946765,0.9999605696613294,6.171147428385769e-05
-0.484840607411752,-0.484840607411752,1.0000438111431873,6.210227612487483e-05
-0.4846421620764886,-0.4846421620764886,0.9999956573749514,6.358499350608272e-05
-0.4843980363373703,-0.4843980363373703,1.0000309106816723,6.01279292978335e-05
-0.4840860603995679,-0.4840860603995679,1.0000086073549586,6.023772785504886e-05
-0.4838994666351937,-0.4838994666351937,0.9998918190231831,6.184570091439442e-05
-0.4835254516736313,-0.4835254516736313,1.0001754334030213,6.23183378304907e-05
-0.48333514170954006,-0.48333514170954006,0.9999883599919412,6.374292811609647e-05
-0.4831762576941401,-0.4831762576941401,1.000056855102614,6.0463661255755156e-05
-0.4830498535578954,-0.4830498535578954,0.9999291590313977,6.400409143388473e-05
-0.48269622293228165,-0.48269622293228165,0.9999353177465418,6.01474030227776e-05
-0.4824681899161078,-0.4824681899161078,1.0000578080655949,6.385471847737792e-05
-0.4821912688144948,-0.4821912688144948,1.00006591172313,6.093000508280536e-05
-0.48184158350195505,-0.48184158350195505,0.9998771218686168,6.153282025966968e-05
-0.4813730572561326,-0.4813730572561326,0.9998502191988891,6.379820787703007e-05
-0.4812106885321555,-0.4812106885321555,0.9999322246190895,6.387400143690046e-05
-0.4810330827269354,-0.4810330827269354,1.0000415227912862,5.96711073029017e-05
-0.48085758854649613,-0.48085758854649613,1.000035031764304,6.360284699783572e-05
-0.4806277741132362,-0.4806277741132362,0.9999469800559032,6.175501415587269e-05
-0.48034676081588257,-0.48034676081588257,1.0001058547819293,6.29114554178271e-05
-0.480096943454555,-0.480096943454555,1.0000231751652149,6.005481949892948e-05
-0.47973823558641016,-0.47973823558641016,0.9998970506143655,6.244065943873159e-05
-0.4794784335179429,-0.4794784335179429,1.0000103995830283,6.17793328996806e-05
-0.47899187015209466,-0.47899187015209466,1.0000410580882433,5.97717749692671e-05
-0.478628001762263,-0.478628001762263,1.0000578536601323,6.040481113836862e-05
-0.478228990923526,-0.478228990923526,1.0001023002556535,6.209078072865432e-05
-0.47791887796483934,-0.47791887796483934,1.0000249556266922,6.411816246414783e-05
-0.4777518055219844,-0.4777518055219844,0.9998775144775811,6.423661429781415e-05
-0.4775829402657109,-0.4775829402657109,1.000014210953742,6.394646191743249e-05
-0.47728674762911394,-0.47728674762911394,0.9999479186407019,6.021626287367678e-05
-0.47710990066625525,-0.47710990066625525,0.9999158300823033,6.196925338239746e-05
-0.47688352699333336,-0.47688352699333336,1.000008985725181,5.9738536998715355e-05
-0.47668471087381475,-0.47668471087381475,1.0000496019424827,6.21389273353607e-05
-0.47638513825877454,-0.47638513825877454,0.9999893391665869,6.237933151515094e-05
-0.47615329359687164,-0.47615329359687164,1.0000360574293352,6.228184802972206e-05
-0.47587146202349684,-0.47587146202349684,0.9998627803430964,6.318726058601613e-05
-0.4756928510338184,-0.4756928510338184,1.0000155683636318,6.0410369313524565e-05
-0.47548886098375076,-0.47548886098375076,1.0000097119194067,6.389151127704796e-05
-0.47519550803408495,-0.47519550803408495,1.0000481426233052,5.980248504952036e-05
-0.4749524908263993,-0.4749524908263993,0.9999788159118488,5.9253397155890115e-05
-0.47465651425227406,-0.47465651425227406,1.0000024496669258,6.234859021056078e-05
-0.4745704792163451,-0.4745704792163451,1.0001030522426673,6.233523355714927e-05
-0.4744136149616679,-0.4744136149616679,1.0000356119416764,6.176962091984362e-05
-0.4742098664137302,-0.4742098664137302,1.0000428814301343,6.40992513093019e-05
-0.47402740668549087,-0.47402740668549087,1.0000293747171818,6.005727458253432e-05
-0.47386651929991785,-0.47386651929991785,0.9999892137196186,6.023418410247953e-05
-0.4735443659024895,-0.4735443659024895,1.000052586101392,6.204364698447297e-05
-0.47316297335928537,-0.47316297335928537,1.0000038260619326,6.014721463515895e-05
-0.47284235643528516,-0.47284235643528516,0.9999665885082291,6.163478295166207e-05
-0.4725736928478,-0.4725736928478,1.0000089712821356,6.384562994688948e-05
-0.4722990217691404,-0.4722990217691404,1.0000040438959514,6.390675657528974e-05
-0.4720094081516436,-0.4720094081516436,1.0000013037641615,6.208792864011072e-05
-0.47173125531262483,-0.47173125531262483,1.0000148001367617,6.169820974292505e-05
-0.4715298863804492,-0.4715298863804492,1.0000307173724452,6.036116156955619e-05
-0.47124704791713157,-0.47124704791713157,1.000144194392301,6.39485252522377e-05
-0.4709555036846723,-0.4709555036846723,0.9999861494970006,6.218770825737107e-05
-0.4707317540116492,-0.4707317540116492,1.0000619220169784,6.219610431964277e-05
-0.47046731889640797,-0.47046731889640797,0.9999656168626145,6.544772921740663e-05
-0.4702825368120102,-0.4702825368120102,1.0001054178198483,6.134232893205254e-05
-0.47009325989129136,-0.47009325989129136,1.0000279255974085,6.233282302474552e-05
-0.4697641800128622,-0.4697641800128622,1.000000480823616,6.177252421472285e-05
-0.46944075724022694,-0.46944075724022694,0.9998980342567771,6.151711971340594e-05
-0.46921631842196804,-0.46921631842196804,0.9999905131785308,6.42342130843998e-05
-0.46908653802238404,-0.46908653802238404,0.9999188044283471,6.011566843935149e-05
-0.46895088441306143,-0.46895088441306143,1.0000271440526318,6.240788039831656e-05
-0.4687310219531355,-0.4687310219531355,0.9999827844465378,6.239893963380386e-05
-0.4684696719843487,-0.4684696719843487,0.9998636231770837,6.19674245226534e-05
-0.468170178445871,-0.468170178445871,0.9999733730806829,6.236192390642108e-05
-0.4678990782078472,-0.4678990782078472,1.000057421342778,6.054462367454267e-05
-0.4673680455307476,-0.4673680455307476,0.9999024091756052,6.377114854523518e-05
-0.4671063888556091,-0.4671063888556091,1.0000304348557898,6.399949278973e-05
-0.4669251176339458,-0.4669251176339458,0.9999800586515774,6.234149866986172e-05
-0.4666129370874842,-0.4666129370874842,0.9999987739021471,6.111353913139837e-05
-0.46638160739821616,-0.46638160739821616,1.0000710502291326,6.372527200383127e-05
-0.466246513898659,-0.466246513898659,0.9999456164936138,6.216092889091051e-05
-0.4659670364118938,-0.4659670364118938,0.9999485543130386,6.0793026302808454e-05
-0.46585944114267475,-0.46585944114267475,0.9999629419876511,5.946441530619514e-05
-0.465648601934663,-0.465648601934663,0.9999320821273117,6.217914995123051e-05
-0.46531891244885626,-0.46531891244885626,1.0000523946594224,6.040429772322535e-05
-0.464763557427068,-0.464763557427068,1.0000798939857045,6.169368184944107e-05
-0.4644518836357747,-0.4644518836357747,1.000099392316488,6.016897588210437e-05
-0.46424497173065904,-0.46424497173065904,0.9999575299853488,5.9391655107213635e-05
-0.4640857343991229,-0.4640857343991229,0.9999850370541041,5.9503953455090694e-05
-0.4639105025511526,-0.4639105025511526,1.0000994481044656,6.272704427934306e-05
-0.4637438576195564,-0.4637438576195564,0.999985559118526,6.344948809388564e-05
-0.46359255030110946,-0.46359255030110946,1.0000080651863583,6.456420008806977e-05
-0.46343900149295225,-0.46343900149295225,0.9998577516496503,6.178580364500909e-05
-0.4632692863677221,-0.4632692863677221,1.0000329779967743,6.208553955536508e-05
-0.4630104210184072,-0.4630104210184072,0.9999883557572634,6.0591756853211955e-05
-0.46287302222044674,-0.46287302222044674,0.9999775387175645,6.173710257990484e-05
-0.46263958836789243,-0.46263958836789243,0.999989152055061,5.9846117129600604e-05
-0.4624176315453951,-0.4624176315453951,1.0000312731599,6.274532733571819e-05
-0.46219088071884473,-0.46219088071884473,1.0000346546462666,6.365313236071613e-05
-0.46202576541763846,-0.46202576541763846,1.0000692497912151,6.186724644402549e-05
-0.4617863327199302,-0.4617863327199302,1.0000821892370353,6.142393782911188e-05
-0.46157913345086854,-0.46157913345086854,1.0000297343358946,6.19504018593815e-05
-0.46141011855215763,-0.46141011855215763,1.0000448432918314,6.246369762623432e-05
-0.46123543083740515,-0.46123543083740515,1.000034207479018,6.24182540216255e-05
-0.4610025685506116,-0.4610025685506116,0.9999809046625406,6.384462880072295e-05
-0.46078907994087787,-0.46078907994087787,0.9999843674413738,6.150709223420845e-05
-0.4604897817305755,-0.4604897817305755,1.0000345148480025,6.175665213353937e-05
-0.4603564604687563,-0.4603564604687563,1.0000111342079818,6.232692093897733e-05
-0.46019919566897444,-0.46019919566897444,1.0000896729362094,6.366317689144457e-05
-0.45998494409141133,-0.45998494409141133,0.9999805514577987,6.241171886690487e-05
-0.4597518401547859,-0.4597518401547859,1.0000176185091347,5.956469226926711e-05
-0.45955778431525685,-0.45955778431525685,0.9999983880525083,6.233415884550532e-05
-0.4592600969212072,-0.4592600969212072,1.0000628478616804,6.18218953499691e-05
-0.4587901245737157,-0.4587901245737157,1.000073194462359,6.192114204473992e-05
-0.4583799720981915,-0.4583799720981915,0.9999808523756191,6.221696414098843e-05
-0.45821414789097614,-0.45821414789097614,0.9999260140138228,6.36320118909243e-05
-0.45793333619876647,-0.45793333619876647,0.9999486707160579,6.149768528152772e-05
-0.45762939422929777,-0.45762939422929777,0.999971135018342,6.0066418924603304e-05
-0.45745812006789494,-0.45745812006789494,1.0000505884659057,6.0685760769025826e-05
-0.45717170982097743,-0.45717170982097743,1.0001313226403457,6.368848793420236e-05
-0.4568988653620181,-0.4568988653620181,1.0001795414371881,6.0443505390445575e-05
-0.4566396172638633,-0.4566396172638633,0.999972337750283,6.14949085045878e-05
-0.4563498537267151,-0.4563498537267151,1.0000751567054746,6.39176808219008e-05
-0.4561847651399148,-0.4561847651399148,1.0001671295249719,6.360950748467617e-05
-0.45594132066180465,-0.45594132066180465,0.9999832931603535,6.156326982367537e-05
-0.45571847664177767,-0.45571847664177767,1.0001229423674218,6.193282210390533e-05
-0.45541204168985133,-0.45541204168985133,1.0000379363662062,5.99813635652112e-05
-0.45514930933713915,-0.45514930933713915,0.9999685010618744,6.009418713486901e-05
-0.454943308718066,-0.454943308718066,0.9998905786293063,6.397176898502251e-05
-0.4547495410988631,-0.4547495410988631,1.0000790874699557,6.214842818738975e-05
-0.4545276638302312,-0.4545276638302312,1.0000035560198395,6.212768051085417e-05
-0.4542849650264543,-0.4542849650264543,1.0000485805118313,5.9530503261288634e-05
-0.45406119144245166,-0.45406119144245166,1.000064073359141,6.176407950977765e-05
-0.4537927545490675,-0.4537927545490675,0.9999868162032817,6.064205941769787e-05
-0.4535673021004186,-0.4535673021004186,1.0000080419819564,6.034555639132068e-05
-0.45315885998206795,-0.45315885998206795,1.0000517949912322,6.375788505848412e-05
-0.4529345196257054,-0.4529345196257054,0.9998885216258131,6.190561407266905e-05
-0.45280769720848185,-0.45280769720848185,0.9999957570313788,6.228546384524764e-05
-0.45252665413208887,-0.45252665413208887,1.0000240182435352,6.136181201101473e-05
-0.45222435878022227,-0.45222435878022227,1.0000055230298401,6.136487108951201e-05
-0.45206008647510315,-0.45206008647510315,1.0000943169029803,6.202986046258967e-05
-0.451852821441571,-0.451852821441571,0.9999269197449063,6.274859863354766e-05
-0.45167338487226516,-0.45167338487226516,1.0000202061264671,6.175897675442462e-05
-0.4513802464847686,-0.4513802464847686,1.0000072979398604,6.39696146350469e-05
-0.45123147568665445,-0.45123147568665445,1.0000184661173326,6.049050440311486e-05
-0.4510739302408183,-0.4510739302408183,0.999949935630608,6.0131756538168196e-05
-0.4506813986241468,-0.4506813986241468,0.9999674596998052,6.214704182967648e-05
-0.45037435910198836,-0.45037435910198836,1.000038035573926,5.995012858967841e-05
-0.45012975211575396,-0.45012975211575396,1.0000069646440841,5.959822657225593e-05
-0.4498102584751905,-0.4498102584751905,0.9999940700969848,6.205857803228905e-05
-0.4495669381460175,-0.4495669381460175,0.9999419851012693,6.380446528260365e-05
-0.4494487753654539,-0.4494487753654539,0.9999731198114631,6.214440720635638e-05
-0.4493068008909177,-0.4493068008909177,1.0000116717451992,6.212336518709698e-05
-0.4491719267767621,-0.4491719267767621,1.000006250851664,6.379839285570501e-05
-0.44885790897460537,-0.44885790897460537,0.9999051137548838,6.0212203965793954e-05
-0.44870332527789286,-0.44870332527789286,0.9999172331472087,6.212020887412035e-05
-0.44857601653056917,-0.44857601653056917,0.9999341989762105,5.9759046093191216e-05
-0.4483808969860547,-0.4483808969860547,1.0000140851244181,5.963916116715755e-05
-0.4481781021349889,-0.4481781021349889,1.0000449028508271,6.241762932637958e-05
-0.44790394326337263,-0.44790394326337263,0.9999941766863056,6.218155103540394e-05
-0.44767681043012997,-0.44767681043012997,1.0000640572862483,6.0339733653652755e-05
-0.447504158544325,-0.447504158544325,1.0000126419555389,6.335563186851516e-05
-0.44731265918017016,-0.44731265918017016,0.9999887178401325,6.0021811323591426e-05
-0.4471254329720978,-0.4471254329720978,1.0000154601699076,6.231520863066206e-05
-0.4468343574561004,-0.4468343574561004,0.999869892209718,6.191639449393056e-05
-0.44667893459190966,-0.44667893459190966,0.9999164525197225,6.397128978248455e-05
-0.44633357828861336,-0.44633357828861336,0.9999441209652078,6.391460378274854e-05
-0.4461981628664944,-0.4461981628664944,1.0000183125720943,6.207832950068726e-05
-0.4460368446096254,-0.4460368446096254,0.9999988998365374,6.213137868574489e-05
-0.44567871668405135,-0.44567871668405135,1.0000692457967812,6.243318617342808e-05
-0.4454541651357431,-0.4454541651357431,0.999916844525831,6.156576757258863e-05
-0.4451273662009044,-0.4451273662009044,0.9999705651733667,6.207501194923875e-05
-0.44460396932408913,-0.44460396932408913,0.9998764525240798,6.352755214276764e-05
-0.44428500850262936,-0.44428500850262936,0.9999424363635583,5.995182711109432e-05
-0.4441236156919331,-0.4441236156919331,1.0000870946915528,6.383163868524857e-05
-0.44387728227084156,-0.44387728227084156,0.9998970940091512,6.36444825973348e-05
-0.44355282768592585,-0.44355282768592585,0.9998808035379552,5.984946194888229e-05
-0.44333980008595975,-0.44333980008595975,0.999951595200905,6.023503774086388e-05
-0.44313308914206573,-0.44313308914206573,0.9999995894770208,6.258950154387985e-05
-0.4428277813894965,-0.4428277813894965,0.9998904717801779,5.9905276760692756e-05
-0.44256871338002385,-0.44256871338002385,0.9999630242716918,6.410581053720734e-05
-0.44225155713866116,-0.44225155713866116,0.99997852333358,6.441699698649185e-05
-0.4419125535103376,-0.4419125535103376,1.000036002314316,6.17640751456622e-05
-0.4417644208333513,-0.4417644208333513,0.9999848032392764,6.350358033073894e-05
-0.44163118084543385,-0.44163118084543385,0.999976617207988,6.223538124476186e-05
-0.44123663088030296,-0.44123663088030296,0.9999839731403046,5.9785096775230974e-05
-0.44097319922657335,-0.44097319922657335,0.9998858817474379,6.242914771831393e-05
-0.44070079411831103,-0.44070079411831103,1.0001185479655343,6.761649299815345e-05
-0.44051362764075747,-0.44051362764075747,0.9999887728097072,5.9937363865012555e-05
-0.440349199737102,-0.440349199737102,0.9999819225506071,6.199464541292656e-05
-0.44012007547353277,-0.44012007547353277,0.9999343849742879,5.990153427610882e-05
-0.439934287158394,-0.439934287158394,1.000034782299298,6.199775679640812e-05
-0.4397158675965329,-0.4397158675965329,1.0000955333162396,5.9781471639713594e-05
-0.43951168909334226,-0.43951168909334226,1.0000050722228937,6.225093623321747e-05
-0.43907466224918607,-0.43907466224918607,0.9999893991109831,6.224054147639671e-05
-0.43866978553196534,-0.43866978553196534,0.9999642667623304,6.412211027474351e-05
