time,time,flux,flux_err
-0.49990337788140476,-0.49990337788140476,1.0002217160614884,0.0009662641934045705
-0.4997656874069965,-0.4997656874069965,0.9999392475888326,0.0008765034423820752
-0.49947553010753154,-0.49947553010753154,0.9993647940218177,0.0008287295778330497
-0.49904797550224583,-0.49904797550224583,0.9989628121836353,0.0008460452772060523
-0.49858909126373874,-0.49858909126373874,0.999819845846303,0.0009262676066618798
-0.49836996182866644,-0.49836996182866644,0.9992742080366088,0.0010602269919388195
-0.4982429499776799,-0.4982429499776799,1.000524343015719,0.0009062906608752876
-0.4980886718887632,-0.4980886718887632,0.9992624023582521,0.0008128100628394846
-0.4978649871352445,-0.4978649871352445,1.0000409728287074,0.0007532509171625873
-0.49758891887720436,-0.49758891887720436,0.9998485848979726,0.0008681012545172161
-0.4972875529236262,-0.4972875529236262,1.0003840067867635,0.000935236683624938
-0.49711902278004344,-0.49711902278004344,1.000534501257967,0.0009706982193856226
-0.49698832557160133,-0.49698832557160133,1.0000645209606565,0.0008908789978305757
-0.496761718197331,-0.496761718197331,0.9997048271167859,0.0009050402813048067
-0.4966231054727814,-0.4966231054727814,0.9999556561750378,0.0009700062204105684
-0.49651925626983484,-0.49651925626983484,0.9998730797657706,0.0008216911592737564
-0.4963616649788946,-0.4963616649788946,0.9991070272249487,0.0007291299004760541
-0.4961524962233398,-0.4961524962233398,0.9997132112069981,0.0007626279721111457
-0.4958076190003567,-0.4958076190003567,1.0001969636268675,0.000872198119747023
-0.4955907560650303,-0.4955907560650303,1.000572554988255,0.0008299978079283141
-0.49544136750828327,-0.49544136750828327,1.0004396992610842,0.0009870843507709523
-0.4952744963361965,-0.4952744963361965,0.999281102998346,0.0008289369736194697
-0.49511188302280973,-0.49511188302280973,1.0000566407961355,0.0009135798111988251
-0.49490465304770626,-0.49490465304770626,1.0000653864687874,0.0008963699140845688
-0.49477609762718655,-0.49477609762718655,1.0001079517616822,0.000866278227528528
-0.4946875668720622,-0.4946875668720622,1.0007971837655254,0.0008479065427552477
-0.4944494620237947,-0.4944494620237947,1.000487536377485,0.0007639951052752631
-0.49419843256848706,-0.49419843256848706,1.0008707423134782,0.0007541156000362671
-0.49379203198552657,-0.49379203198552657,0.9986234154020895,0.0007981509728647388
-0.4933745296741563,-0.4933745296741563,0.9998147514627812,0.0009954606942521285
-0.493214508038227,-0.493214508038227,1.0006160652494362,0.0009947719848499255
-0.49308159795666595,-0.49308159795666595,1.0007650713144431,0.0008986202775340187
-0.4929139120640684,-0.4929139120640684,0.9989836731788644,0.0008021851023784357
-0.4926445782232804,-0.4926445782232804,1.0002143559213543,0.0007500372015993637
-0.4922652944868787,-0.4922652944868787,1.000115140500914,0.0009551569331704394
-0.49206453572039666,-0.49206453572039666,0.9995301260779513,0.0008295313323656592
-0.49193380814595,-0.49193380814595,0.9996913045511786,0.0009621668120660557
-0.49172214255918334,-0.49172214255918334,1.000391176580337,0.0009967397881895
-0.49151939292230507,-0.49151939292230507,0.9991272866136537,0.0009096794462029384
-0.49139488973705736,-0.49139488973705736,1.0004299869434812,0.0008981281313394013
-0.49126055005681335,-0.49126055005681335,1.0005790388717712,0.000747044239645542
-0.49114766457375936,-0.49114766457375936,1.0006488434641063,0.0007861916793397596
-0.4908829034194241,-0.4908829034194241,0.9997122064408751,0.0007591303707162992
-0.49056630325526385,-0.49056630325526385,0.9994933442516647,0.0009013287381333133
-0.49038325653618814,-0.49038325653618814,0.9998482812100317,0.0008393480965518346
-0.49026225842731036,-0.49026225842731036,1.0004673523371097,0.0009888295196249484
-0.4900729405010907,-0.4900729405010907,0.99988984981636,0.0008892828498013597
-0.4899339734271962,-0.4899339734271962,0.9995215339613596,0.0008401123393444529
-0.4897446165512974,-0.4897446165512974,1.0003121816082063,0.000895965452379246
-0.4896171827334683,-0.4896171827334683,0.9996277242454701,0.0008835687110981734
-0.48951426811263443,-0.48951426811263443,1.0003718180872816,0.0008081539221610045
-0.48926610192618225,-0.48926610192618225,0.9996492405648304,0.0007481694650461085
-0.48898595636526354,-0.48898595636526354,0.9999780718418917,0.0007530603353935687
-0.48856460475490165,-0.48856460475490165,0.9992010256419166,0.0008303661157384454
-0.4881940778197986,-0.4881940778197986,0.9994389303593332,0.0009952556531363354
-0.4880586320452494,-0.4880586320452494,0.9997419865591152,0.0009966840600996003
-0.4879194796621732,-0.4879194796621732,0.9991325631893206,0.0009046922446990463
-0.4877355519183766,-0.4877355519183766,0.9998013657656871,0.0007798667377461295
-0.4874238738834265,-0.4874238738834265,0.999192619797228,0.0007517489577769606
-0.4870714524408413,-0.4870714524408413,1.00119098179298,0.000973958093445777
-0.4868612421454145,-0.4868612421454145,1.0003050966675895,0.0009723903314591967
-0.4866954419276226,-0.4866954419276226,0.9995085075853215,0.0009782343269672386
-0.4864378949226193,-0.4864378949226193,0.9993994337206429,0.0009331330381796999
-0.48632075186258134,-0.48632075186258134,0.9997747132643242,0.0008625278832396449
-0.48623902237945915,-0.48623902237945915,1.0004363978106,0.0008483657109112953
-0.4860883750512812,-0.4860883750512812,1.0001984286126722,0.0007278487740243792
-0.4858458831427697,-0.4858458831427697,1.0002864870633712,0.0007474854467367562
-0.485562153075216,-0.485562153075216,1.0006592873417086,0.0008173082009529662
-0.48538478627517634,-0.48538478627517634,0.9988659598874474,0.0008987414481739069
-0.4852176133285866,-0.4852176133285866,1.0003876091036275,0.0008143091047744958
-0.4850952831165614,-0.4850952831165614,0.9999506522805597,0.0010256870623141308
-0.48487319173646026,-0.48487319173646026,0.999933356453783,0.0008549554280105183
-0.4847145670496957,-0.4847145670496957,1.0004187064451522,0.0008316292256038863
-0.4845677282821271,-0.4845677282821271,1.0000972601698463,0.0008993125199753405
-0.4844653472499886,-0.4844653472499886,0.9991466271143015,0.0008997529764227547
-0.48434209278184426,-0.48434209278184426,0.9994813692370357,0.0007823971030372932
-0.48407956991413814,-0.48407956991413814,0.9983776401957709,0.0007558258711388686
-0.4837620421246811,-0.4837620421246811,0.9994397075849013,0.0007464284842612001
-0.4833550656952411,-0.4833550656952411,1.0003204800015184,0.0009251870180770237
-0.48297321442837526,-0.48297321442837526,1.0000374775556498,0.0009993997387743804
-0.48288806934938294,-0.48288806934938294,1.00007611474618,0.0009939888491492855
-0.4827609014756035,-0.4827609014756035,0.9995232403283234,0.0008081058451236911
-0.4825441257437433,-0.4825441257437433,1.0002940362699677,0.0007843868594664752
-0.48221911502757847,-0.48221911502757847,0.9999005424657762,0.000816416393771457
-0.4818773539042013,-0.4818773539042013,1.000591359269387,0.000932759412288497
-0.4816893903356686,-0.4816893903356686,0.9995309856718608,0.0009725228722655603
-0.48150382222738697,-0.48150382222738697,0.999874025929875,0.0009852284511284613
-0.48127367735814913,-0.48127367735814913,0.9998988816115648,0.0009260881187581197
-0.48116479261279893,-0.48116479261279893,0.9993191743060035,0.0008645510622816444
-0.4810539745522192,-0.4810539745522192,0.9994385555087927,0.0007950190574128057
-0.4808933707334063,-0.4808933707334063,1.0001225176692612,0.0007563264898001629
-0.48060755259180044,-0.48060755259180044,1.0001662370742623,0.0007866615910771306
-0.4803144327207292,-0.4803144327207292,1.0007115400996844,0.0008657067341322405
-0.48013229775983746,-0.48013229775983746,0.9997476238894365,0.0008518503915686491
-0.4799887543886598,-0.4799887543886598,0.9994551389856315,0.0009868478990658779
-0.47977314768136237,-0.47977314768136237,1.0005218806706104,0.0009107351212814549
-0.4796819164138924,-0.4796819164138924,1.0001781055591796,0.000788380429379653
-0.47949458907539794,-0.47949458907539794,1.0007051556778008,0.0008975156944079242
-0.4793659696737677,-0.4793659696737677,0.9989409393725955,0.0008661570549012923
-0.4792774601902693,-0.4792774601902693,1.0002755463001503,0.0008477326252082209
-0.4790392490980139,-0.4790392490980139,1.0002821929360968,0.0007632650819717147
-0.4787882894956056,-0.4787882894956056,1.0001310586412835,0.0007540673121037687
-0.47845744535620727,-0.47845744535620727,1.0005203973102927,0.0007740791565159515
-0.4780791352486631,-0.4780791352486631,1.000528113842436,0.0009507961304338121
-0.47782306833264554,-0.47782306833264554,0.999213581284782,0.001060803242437969
-0.47769619749303727,-0.47769619749303727,1.0008991352303196,0.0009057319985377517
-0.4775416859644338,-0.4775416859644338,0.9997967810278896,0.0008276971691395168
-0.47731821963532184,-0.47731821963532184,1.0006986471803745,0.0007530331185533675
-0.4769546527237708,-0.4769546527237708,1.0006156782850737,0.0009304051990028723
-0.4766942786663094,-0.4766942786663094,0.9996983580696754,0.0008281089307682215
-0.4765235506459703,-0.4765235506459703,1.0001289032298275,0.0009931318243617223
-0.4762530447605968,-0.4762530447605968,1.0003957720036134,0.0010061496044377744
-0.47608863742048013,-0.47608863742048013,1.0007437617185602,0.000892763087510298
-0.4759848189463128,-0.4759848189463128,0.999963281844283,0.0008963222540340279
-0.47584957129465694,-0.47584957129465694,1.0006361758513593,0.0007711215773901787
-0.4756985134024944,-0.4756985134024944,1.0003358922190144,0.0007305652409550368
-0.4753902025689058,-0.4753902025689058,0.9998048545943835,0.0008024082560877194
-0.47514329541857026,-0.47514329541857026,0.9999173004225177,0.0008741716243771683
-0.47496187183883193,-0.47496187183883193,1.0012934699241844,0.0008276265394673531
-0.47482180973224786,-0.47482180973224786,1.0004916585679342,0.0010261100255797805
-0.4745998710312961,-0.4745998710312961,0.9988297694225384,0.0008554105055175452
-0.47444119634233173,-0.47444119634233173,1.0015581161214406,0.0008313699971473203
-0.4743022815895756,-0.4743022815895756,0.9998451310942832,0.0008864955128489206
-0.47419196931837176,-0.47419196931837176,0.9999418948092554,0.0009000468027760245
-0.474068643278315,-0.474068643278315,0.9999686215288957,0.0007831992521568966
-0.4738464528642453,-0.4738464528642453,0.9996108971101917,0.0007619621586859041
-0.47359517597883494,-0.47359517597883494,0.9997799288545979,0.0007681740949407604
-0.473245150800426,-0.473245150800426,1.0002399529266577,0.0007977991008554499
-0.47279881489153014,-0.47279881489153014,0.9996013992465882,0.0010091393351874364
-0.4726484627294667,-0.4726484627294667,1.0000392714124493,0.0009967477804742587
-0.4725094515414412,-0.4725094515414412,1.001247704350344,0.0009042550580435248
-0.47229299642954176,-0.47229299642954176,0.9997980818144618,0.000763850883618557
-0.47194708986980916,-0.47194708986980916,1.0003366269180802,0.0007523194733476951
-0.47166662420395367,-0.47166662420395367,1.0003232737524859,0.0009731861250822399
-0.47148701671112575,-0.47148701671112575,1.000141363369395,0.0009012138416214881
-0.47129531830883026,-0.47129531830883026,1.00059725807019,0.001075087292456258
-0.47102771092609147,-0.47102771092609147,1.0004315911540682,0.0009348128310763797
-0.4709107446612052,-0.4709107446612052,0.9999366753868782,0.000863413422478697
-0.47080719444516034,-0.47080719444516034,1.000447188083457,0.0008255422845665595
-0.47065691434804646,-0.47065691434804646,1.0011156951708153,0.0007407737255926158
-0.47041363511327744,-0.47041363511327744,1.000807886704619,0.0007605846821127139
-0.470127567635177,-0.470127567635177,0.9993603409789167,0.0007735101356890813
-0.4699432623374378,-0.4699432623374378,1.0002969678512599,0.000924186790444307
-0.4697595600521254,-0.4697595600521254,1.0003094904917182,0.0009743996689173821
-0.46959114995811435,-0.46959114995811435,0.9994346531463805,0.0008301578426000227
-0.4694284144414723,-0.4694284144414723,1.0007425550473457,0.0009125958124099394
-0.46922424674721697,-0.46922424674721697,0.9994651125968452,0.0008775064897644646
-0.4691153576197621,-0.4691153576197621,1.0001508486067234,0.000885454473139749
-0.46902443120420684,-0.46902443120420684,1.0008930891818644,0.000833162625867071
-0.468849461556465,-0.468849461556465,0.9997084052743089,0.0007778072295208525
-0.4686259330188932,-0.4686259330188932,1.0008127682531112,0.0007528337474494187
-0.4683024858102954,-0.4683024858102954,1.000217728941113,0.0007471856274417721
-0.4679448863021662,-0.4679448863021662,1.000338208966215,0.00092463065587773
-0.467563047919748,-0.467563047919748,1.0003767781875177,0.0009983700305717523
-0.46745675430906886,-0.46745675430906886,0.9995846143122588,0.0009925876524672563
-0.46730416084433274,-0.46730416084433274,0.9994635732202303,0.0008052537007644514
-0.4670448360451928,-0.4670448360451928,1.000422668046484,0.0007530876966216785
-0.46668120830640875,-0.46668120830640875,0.9996746874116201,0.0009285021838348675
-0.4664207955546317,-0.4664207955546317,0.9989076762097067,0.0008275117489919635
-0.46625008023070225,-0.46625008023070225,1.0001903413684978,0.0009935058496807025
-0.4659795449590547,-0.4659795449590547,1.000026689088936,0.0010048749135432725
-0.4658152752419255,-0.4658152752419255,1.00078380628019,0.0008935078491567418
-0.46571143854491764,-0.46571143854491764,1.0001586182790863,0.0008957064389741056
-0.4655762270835112,-0.4655762270835112,0.9991824629265021,0.0007722730260533996
-0.46540627378351473,-0.46540627378351473,0.9989105176023635,0.0007583406972879085
-0.4650946392726837,-0.4650946392726837,0.9990422725609915,0.0007756450262959874
-0.46486988189694783,-0.46486988189694783,0.999559970271944,0.0008760679870328242
-0.4646884361646698,-0.4646884361646698,1.0000397074509442,0.000827645331380926
-0.4645762207126154,-0.4645762207126154,0.9997729324892715,0.0010111793609863429
-0.46436314138827584,-0.46436314138827584,0.9993644814596516,0.0009118449112473397
-0.46420886795906424,-0.46420886795906424,0.9993847531728524,0.0008007640181974922
-0.46405511627833673,-0.46405511627833673,1.0004829058399234,0.0008946152063767405
-0.4639337310339897,-0.4639337310339897,1.0006476347422653,0.000881746357773584
-0.4638306459806699,-0.4638306459806699,0.9999849703088126,0.0008084683630218296
-0.4636160013539211,-0.4636160013539211,1.0002760312622025,0.0007752560788679627
-0.4633781465107177,-0.4633781465107177,1.0001374207547458,0.0007530073144397258
-0.46304723499897593,-0.46304723499897593,1.001825662708097,0.0007737792690506132
-0.4626036006468439,-0.4626036006468439,0.9999312330882137,0.0010145591328230045
-0.46239421432901506,-0.46239421432901506,1.0007246518840256,0.0009943426693614144
-0.4622615990483837,-0.4622615990483837,0.9997282290328517,0.0008971801626663053
-0.46208503875109275,-0.46208503875109275,1.000499540960958,0.000789985186351848
-0.46174029220385365,-0.46174029220385365,0.9989335639666592,0.0007519121308765804
-0.4614383371210806,-0.4614383371210806,1.0002705657370206,0.0009478070333908169
-0.4612135878735444,-0.4612135878735444,1.000419589328496,0.0009010020868923406
-0.4610217974326133,-0.4610217974326133,1.0008840344206669,0.0010743087634435987
-0.4607542549819755,-0.4607542549819755,0.9998212621876957,0.0009345197615694597
-0.4606180857623713,-0.4606180857623713,1.000234438030438,0.0008639372587663884
-0.46050725668551423,-0.46050725668551423,1.000776066840745,0.0007995928922689466
-0.46034729642510686,-0.46034729642510686,1.000526248452054,0.0007694208845672368
-0.46010114451121353,-0.46010114451121353,1.0004868414810564,0.0007571044077362189
-0.45980969909196573,-0.45980969909196573,1.000716942666682,0.0007666102878889841
-0.45963363447085614,-0.45963363447085614,0.9994163200299953,0.0009229168683531593
-0.4594608781009811,-0.4594608781009811,0.9998852599729814,0.0009902325618502618
-0.4592720817010559,-0.4592720817010559,0.9992461946572476,0.0009121789102194945
-0.4591402916205197,-0.4591402916205197,0.9995908773496801,0.0008266785358591923
-0.45895088931024475,-0.45895088931024475,0.9995925497864026,0.0008774032698806937
-0.4588534963462507,-0.4588534963462507,0.9996064632679152,0.0008146348075116549
-0.45876553691753086,-0.45876553691753086,0.9989865983488373,0.0009241219331533872
-0.4586185884381848,-0.4586185884381848,0.9999219902616051,0.0007684963025323598
-0.45839310973851755,-0.45839310973851755,1.0008198225221663,0.0007662053461442483
-0.45811601966927357,-0.45811601966927357,0.9996850590405325,0.0007468984584948259
-0.4578035678570359,-0.4578035678570359,1.000109377083744,0.0009118507848693995
-0.4573825498937822,-0.4573825498937822,0.9985222418195752,0.0009224899982108609
-0.4572107060866301,-0.4572107060866301,1.0007470371228209,0.0009952312942832684
-0.45707733192762134,-0.45707733192762134,1.0011876057019093,0.0009034592653168214
-0.45681938464988436,-0.45681938464988436,1.0002525029013083,0.000862108132658009
-0.4564759421826693,-0.4564759421826693,0.9995357522179456,0.000825271335868897
-0.456193688963458,-0.456193688963458,0.9993245384341547,0.0009284152398938888
-0.4560057678777866,-0.4560057678777866,0.9996543735492931,0.0009718315186610256
-0.45576468645917884,-0.45576468645917884,0.9993983689113412,0.000997534828002308
-0.4555625974036957,-0.4555625974036957,0.999216746565941,0.0009090161625241846
-0.45544791907614124,-0.45544791907614124,0.999473769069054,0.0008741961921540324
-0.4553373023492441,-0.4553373023492441,0.9995670149787946,0.0007943514535617331
-0.4551773255831222,-0.4551773255831222,1.000011775894722,0.0007511380452198181
-0.4547714276398892,-0.4547714276398892,0.9991566259319182,0.0007896188592573803
-0.45456678217879015,-0.45456678217879015,0.9992147568027023,0.0008882292744679977
-0.45441500060096585,-0.45441500060096585,0.9998127457077493,0.0008276451051510769
-0.4542748628807658,-0.4542748628807658,0.9992032052729176,0.0010274140523432753
-0.45405322978961066,-0.45405322978961066,1.000569732677987,0.0008547216535123661
-0.45390753176945964,-0.45390753176945964,0.9999425524003668,0.0008008296438695856
-0.45378173478673034,-0.45378173478673034,1.001289709592907,0.0008944714832591122
-0.4536791751385863,-0.4536791751385863,0.9991438161051281,0.0008692529901238632
-0.45359712101758304,-0.45359712101758304,1.0004476751980147,0.0008589118878482392
-0.4534393121877656,-0.4534393121877656,0.9994616118139419,0.0007767431231810801
-0.4532158302438347,-0.4532158302438347,1.0002653090633102,0.0007522883064763564
-0.45289223713687077,-0.45289223713687077,1.0004984443502996,0.0007465645992966775
-0.4525347069556574,-0.4525347069556574,1.0009081484822286,0.0009238518513016798
-0.45217354205560695,-0.45217354205560695,1.0004100341707796,0.0009970218903179238
-0.4520382327102652,-0.4520382327102652,0.9994567623419449,0.0009932484953137691
-0.4518606061819582,-0.4518606061819582,0.9998151217204108,0.0008086810842635198
-0.45155071596459495,-0.45155071596459495,1.0001617016367232,0.0007507751347977027
-0.45118828666959415,-0.45118828666959415,0.9990765954814634,0.00101591605540024
-0.45097072387188747,-0.45097072387188747,1.0007903537268443,0.0009207963835085303
-0.45074827660455413,-0.45074827660455413,0.999143794255299,0.0010742851209275812
-0.45048079906941896,-0.45048079906941896,1.0005640005579068,0.0009323690635560415
-0.45034473245730167,-0.45034473245730167,0.9990045054303444,0.0008627590589217454
-0.45027066091661255,-0.45027066091661255,0.999344172043773,0.0008334592022182618
-0.4501318598160651,-0.4501318598160651,0.9989560685848732,0.0007235988157659542
-0.44988882659508816,-0.44988882659508816,1.0001833082857785,0.0007718134726786907
-0.44953639414977714,-0.44953639414977714,1.000310990087039,0.0007663296241830108
-0.4493781901947159,-0.4493781901947159,0.9997896091867953,0.0009343351136848812
-0.449212560503247,-0.449212560503247,0.9991999551722618,0.0009760646316191186
-0.449044472766991,-0.449044472766991,1.000797904220354,0.0008324986150755806
-0.4488816397404435,-0.4488816397404435,1.0001372848313927,0.0009113747800998069
-0.44869431532445103,-0.44869431532445103,1.0001029065283682,0.0008764420505194152
