time,time,flux,flux_err
-0.14410486616332907,-0.14410486616332907,1.0000483675135414,0.00021879263323754767
-0.14404651950983993,-0.14404651950983993,0.9999056069864617,0.00021918924052605286
-0.14398817284497736,-0.14398817284497736,1.0000666949287982,0.0002195102534233428
-0.1439346883928388,-0.1439346883928388,0.9999779839761054,0.00020066201733168177
-0.1438860661559877,-0.1438860661559877,0.9999579262978205,0.00020081363531429698
-0.14383744391233516,-0.14383744391233516,1.000249353443977,0.0002011625810954129
-0.1437888216621912,-0.1437888216621912,0.9996575818187197,0.0002014542782303365
-0.14374019940584565,-0.14374019940584565,1.0001032092229172,0.00020174799813449883
-0.14369157714361552,-0.14369157714361552,0.9998518917149776,0.0002017868786460144
-0.1436429548757673,-0.1436429548757673,1.0001295776769745,0.00020174402784460996
-0.14359433260257548,-0.14359433260257548,1.0000260534074699,0.0002016666674249741
-0.14354571032429386,-0.14354571032429386,0.9998050961679631,0.00020174536937580894
-0.1434970880411806,-0.1434970880411806,0.999969195043327,0.00020193386368665876
-0.14344846575345688,-0.14344846575345688,1.0000513239565003,0.00020210793429829946
-0.14339984346134477,-0.14339984346134477,1.0000213812240495,0.00020226750166608804
-0.14335122116508536,-0.14335122116508536,1.0000553999256998,0.00020229576918715818
-0.1433025988648416,-0.1433025988648416,0.9999358285359558,0.00020217423239679826
-0.14325397656083227,-0.14325397656083227,1.0000753267099056,0.00020199369352672477
-0.14320457629625133,-0.14320457629625133,0.9999801731921562,0.00020192313842013238
-0.14315478704968337,-0.14315478704968337,1.0000567790362624,0.00020190812490586543
-0.14310616473525672,-0.14310616473525672,0.9998686796132098,0.0002019991070754503
-0.14305754241773924,-0.14305754241773924,0.9999212603514392,0.00020204083177343944
-0.14300892009727426,-0.14300892009727426,1.0000084269288128,0.00020202506418475738
-0.14296029777396976,-0.14296029777396976,1.000325182996709,0.00020204779837968036
-0.1429116754479848,-0.1429116754479848,0.9996442037903185,0.00020205221474715635
-0.1428630531194472,-0.1428630531194472,1.0001395794266386,0.00020200047417764355
-0.14281443078844136,-0.14281443078844136,1.0000049861007547,0.0002019656533222062
-0.14276580845512044,-0.14276580845512044,0.9999611468883802,0.0002019533920571335
-0.14271718611955336,-0.14271718611955336,1.0001095468141228,0.00020198852976045832
-0.14266731904996882,-0.14266731904996882,0.9999576889375789,0.00020202021305362012
-0.1426160516548587,-0.1426160516548587,1.0000396307414825,0.00020213067065812636
-0.1425674293130214,-0.1425674293130214,1.0000779382576237,0.00020208590495934052
-0.14251880696931957,-0.14251880696931957,0.9997404327249442,0.00020210889799639615
-0.14247018462385683,-0.14247018462385683,1.0001059998344648,0.00020214717981733842
-0.14242156227668254,-0.14242156227668254,0.9999473785847648,0.00020216659295906487
-0.14237293992788785,-0.14237293992788785,0.9999910463931627,0.00020234249735205352
-0.14232431757751854,-0.14232431757751854,0.9999532345605202,0.00020234158202962145
-0.14227569522567185,-0.14227569522567185,1.000097523406436,0.00020231150333798156
-0.1422270728723875,-0.1422270728723875,1.0000261436166888,0.00020228789346014858
-0.1421772057854215,-0.1421772057854215,0.9999560565394306,0.0002022001389412368
-0.14212601616898551,-0.14212601616898551,1.0000213620906533,0.00020226686433383743
-0.14207731601588622,-0.14207731601588622,1.0000787164030736,0.00020226288534753106
-0.14202869365734272,-0.14202869365734272,0.9998607698732076,0.00020227377707487072
-0.14198007129763868,-0.14198007129763868,1.0002947627621388,0.00020211412307200193
-0.14193144893682566,-0.14193144893682566,0.999771962107397,0.00020212099056968525
-0.14188282657493065,-0.14188282657493065,0.9999864366012613,0.00020192066588797827
-0.1418342042120408,-0.1418342042120408,1.0001183280489578,0.00020180744422606395
-0.14178558184813736,-0.14178558184813736,0.9998856285327665,0.00020164555219008757
-0.14173695948330128,-0.14173695948330128,1.0000848032010432,0.0002015814647809479
-0.1416883371175522,-0.1416883371175522,0.9999411970315928,0.0002015560548632584
-0.1416377698562441,-0.1416377698562441,0.9998020761532468,0.00020162573268174888
-0.14158580226981426,-0.14158580226981426,1.0003880537256467,0.00020170021013067168
-0.14152411020868935,-0.14152411020868935,0.9994734357645283,0.00020153805003710087
-0.1414654521822709,-0.1414654521822709,1.0002020729349144,0.0002013132203969089
-0.14141504050881942,-0.14141504050881942,1.00026455272836,0.00020134790058673937
-0.14136408426405014,-0.14136408426405014,0.9997323815219072,0.000201161715409914
-0.1413149173218445,-0.1413149173218445,0.9999826739436918,0.00020119443665489212
-0.1412586709614873,-0.1412586709614873,1.0003417022403867,0.00020104930104018447
-0.14120794810193785,-0.14120794810193785,0.9997810662343024,0.00020104726775925364
-0.14115823658711985,-0.14115823658711985,0.9999837463995748,0.0002009943658472624
-0.14110681356411478,-0.14110681356411478,1.0000106086764506,0.00020104896907173708
-0.14105819118929838,-0.14105819118929838,1.000016367716684,0.00020109628831511817
-0.14100956881395382,-0.14100956881395382,0.9996976609966108,0.00020104581042197826
-0.14096047966329825,-0.14096047966329825,1.0002686011245199,0.00020117381734361482
-0.14091037916669819,-0.14091037916669819,0.9998683232720467,0.00020129219194005236
-0.1408617567898701,-0.1408617567898701,1.000342764678783,0.00020136383205479266
-0.14081157849650347,-0.14081157849650347,0.9996169101429366,0.00020130923079528023
-0.14076062224463928,-0.14076062224463928,1.0003316663742254,0.00020137759582759118
-0.14071091072518507,-0.14071091072518507,0.999691238212322,0.00020128459095502976
-0.14065863194371703,-0.14065863194371703,1.0003900335191633,0.000201267163294712
-0.14060619757019638,-0.14060619757019638,0.9998854054139921,0.0002011928571746598
-0.14053112461626083,-0.14053112461626083,0.9999913750102758,0.00020115813921444008
-0.1404825022363388,-0.1404825022363388,0.9999272260793131,0.00020110956049127884
-0.1404338798560547,-0.1404338798560547,1.000151962272966,0.00020094417649945328
-0.14038525747546388,-0.14038525747546388,0.9999129222881258,0.00020073556342035086
-0.1403366350945669,-0.1403366350945669,0.9999347484514349,0.00020076272897168098
-0.14028801271337307,-0.14028801271337307,1.000030761844069,0.00020071506021676833
-0.14023939033189253,-0.14023939033189253,1.0001434995779264,0.00020073827475170896
-0.14019076795014124,-0.14019076795014124,1.0000704265399132,0.0002008347184083639
-0.14014214556811924,-0.14014214556811924,0.9997487926131952,0.00020083372469978633
-0.14009352318586582,-0.14009352318586582,1.000045134715905,0.00020079981355537895
-0.14004490080336449,-0.14004490080336449,1.0001972680906273,0.00020078975393033436
-0.13999627842063203,-0.13999627842063203,0.9998435913365633,0.00020075733908844198
-0.13994765603767098,-0.13994765603767098,0.9999194374258371,0.00020072759236445053
-0.13989903365450798,-0.13989903365450798,0.9999897187006717,0.00020063288546764285
-0.13985041127113612,-0.13985041127113612,1.0001391308231267,0.00020061179318002706
-0.13980178888757866,-0.13980178888757866,0.9997183419358837,0.0002005108397265827
-0.1397531665038349,-0.1397531665038349,1.000228118041425,0.0002004753483575219
-0.13970454411991887,-0.13970454411991887,0.999882217695448,0.00020038032583880069
-0.1396531210864997,-0.1396531210864997,1.0000128673441844,0.00020041951897498676
-0.13960340956083103,-0.13960340956083103,1.0002747561033412,0.00020048681979243613
-0.1395547871764188,-0.1395547871764188,0.9997770396889057,0.00020055235787966584
-0.13950616479186717,-0.13950616479186717,1.000103985540481,0.00020054485348017505
-0.13945754240717162,-0.13945754240717162,0.9998861582488159,0.0002005355624431672
-0.13940892002235214,-0.13940892002235214,1.0000755522919307,0.00020056123793986782
-0.1393602976334952,-0.1393602976334952,0.9999170436999331,0.00020058081477030486
-0.13931167518572057,-0.13931167518572057,1.000124105776535,0.00020057703496311174
-0.13926289712614381,-0.13926289712614381,0.9999832038920818,0.00020055056888666442
-0.13921248535154188,-0.13921248535154188,0.9998752102103958,0.00020054893734352107
-0.13916386288365548,-0.13916386288365548,1.0000602136033134,0.0002003708025841081
-0.13911415127239665,-0.13911415127239665,1.0001389234214622,0.00020026935215780567
-0.13906467304889603,-0.13906467304889603,0.9996895867869297,0.00020032370847121225
-0.13901605058075178,-0.13901605058075178,1.00021546243694,0.00020025458598764865
-0.1389674281125461,-0.1389674281125461,0.999900296580558,0.00020019749439125512
-0.13891880564426845,-0.13891880564426845,0.999901753478805,0.00020020530381346927
-0.1388701831759322,-0.1388701831759322,1.000116980153455,0.00020022953437528085
-0.13882086054399542,-0.13882086054399542,0.9996260152619503,0.00020019882673319214
-0.13877099334036075,-0.13877099334036075,1.0002155820087926,0.00020025907830796785
-0.13871995919743285,-0.13871995919743285,1.0000446522518094,0.00020025354792816314
-0.13865958954049568,-0.13865958954049568,0.9999941916532435,0.00020025481723709454
-0.13860318747696057,-0.13860318747696057,1.0000096806633867,0.00020023551812362682
-0.1385531646812536,-0.1385531646812536,0.9998639602900206,0.0002001771784504603
-0.1385032196815093,-0.1385032196815093,0.9999671682902502,0.00019999490994430884
-0.13845397484526473,-0.13845397484526473,1.0002079154357195,0.0001999315312733075
-0.13840441882520116,-0.13840441882520116,0.9997756736079155,0.0001998564513831005
-0.13835439602939595,-0.13835439602939595,1.000122208778103,0.00019984296671427034
-0.13830048343616172,-0.13830048343616172,0.999974632105341,0.0001999185113797669
-0.13824392578062308,-0.13824392578062308,1.000105859493652,0.00019998054438712486
-0.13819242486176136,-0.13819242486176136,1.000026788138698,0.00020006966208209408
-0.13814279104576738,-0.13814279104576738,1.0000333553260945,0.00020008609809953802
-0.1380941685771214,-0.1380941685771214,0.999761858794875,0.00020007819729728018
-0.13804484594499206,-0.13804484594499206,1.0002036748055194,0.00020007851779955038
-0.13799186690319115,-0.13799186690319115,0.9998456313128232,0.00019997873363564357
-0.13794161071968353,-0.13794161071968353,1.0002422389175378,0.00019990808625178439
-0.13789189910784394,-0.13789189910784394,0.9997934071237843,0.00019992894377604377
-0.13784327663934132,-0.13784327663934132,1.000127545135763,0.00019995080637624885
-0.13779465417087464,-0.13779465417087464,0.9999137356499759,0.00020000626976593157
-0.13774603170245023,-0.13774603170245023,1.000043516589483,0.00020000612670156037
-0.13769740923406498,-0.13769740923406498,0.9999074249504,0.00019992725291428942
-0.13764551933587485,-0.13764551933587485,1.0001595130461518,0.00019987466030025081
-0.1375936294377269,-0.1375936294377269,1.000001155587838,0.00019980086941218813
-0.13752011226580868,-0.13752011226580868,0.9998980236825907,0.0001996929008988921
-0.13746145412027994,-0.13746145412027994,1.0001461908644753,0.00019969718640197137
-0.13740334054647452,-0.13740334054647452,0.9998517354833905,0.0001996481148669713
-0.1373531621595394,-0.1373531621595394,0.999998314634088,0.00019974734093115894
-0.1373018168334613,-0.1373018168334613,0.9999770838748363,0.00019976387025505033
-0.13724813762900517,-0.13724813762900517,0.9997695165637837,0.00019966628626738966
-0.13719251352594014,-0.13719251352594014,1.0001873173691775,0.00019985288364261655
-0.13714116820013578,-0.13714116820013578,1.0000106967464988,0.0001997596541007769
-0.1370748082564989,-0.1370748082564989,0.9998536704554647,0.00019984453985536177
-0.1370069701899915,-0.1370069701899915,1.000178793157324,0.0001997808244154717
-0.13695834772271787,-0.13695834772271787,1.0000633428363042,0.00019978721773207726
-0.13690972525554557,-0.13690972525554557,0.9999140622213794,0.00019979780112738655
-0.13686110278848057,-0.13686110278848057,0.9998825760192653,0.00019983338680069828
-0.13681248032151686,-0.13681248032151686,0.9998714039225455,0.00019992752629213015
-0.13676385785466721,-0.13676385785466721,0.9999604842745432,0.00019994751296061324
-0.13671523538792507,-0.13671523538792507,1.0000454508535308,0.00020003434037510525
-0.13666661292131024,-0.13666661292131024,0.9999129735890051,0.00020003716046915025
-0.1366179904547832,-0.1366179904547832,1.0001883606878335,0.0002000337156946384
-0.13656936798839983,-0.13656936798839983,1.0000333945857505,0.00020002948512801603
-0.1365207455221403,-0.1365207455221403,0.9999110520637344,0.00019999796484049167
-0.13647212305599804,-0.13647212305599804,0.9999789062511374,0.0001998891419473672
-0.13642350058998964,-0.13642350058998964,0.9999465614629173,0.00019987030105092371
-0.1363748781241246,-0.1363748781241246,1.0001251562001137,0.00019980980221948971
-0.13632625565838707,-0.13632625565838707,0.9998911746095105,0.00019983272835178244
-0.13627763319279293,-0.13627763319279293,1.0000390299945034,0.00019995054800246273
-0.13622901072732874,-0.13622901072732874,0.9999378211263561,0.00020003099552997038
-0.13618038826202117,-0.13618038826202117,0.9999877017139591,0.00019998266286513092
-0.13613176579685052,-0.13613176579685052,1.0001249617438268,0.00019993679948424907
-0.13608314333184307,-0.13608314333184307,0.9999155394543106,0.0001998491935277037
-0.13603452086698872,-0.13603452086698872,1.0002375942623662,0.00019991880838803587
-0.13598589840228112,-0.13598589840228112,0.9996594095788692,0.00019977938558623384
-0.13593727593774937,-0.13593727593774937,1.0001139979154468,0.00019977753514163204
-0.13588818669771138,-0.13588818669771138,0.9998416600740037,0.00019971852646625976
-0.13583761933493918,-0.13583761933493918,1.0001638453238118,0.00019981644367800117
-0.1357875187479999,-0.1357875187479999,0.9998004978791861,0.00019983855617202012
-0.13573889628413988,-0.13573889628413988,1.0000844956978474,0.0001998182963344729
-0.13568965145292272,-0.13568965145292272,0.9999641127661862,0.00019982045868084593
-0.13563830613147707,-0.13563830613147707,0.9999637612582537,0.00019978626527707074
-0.1355871941980507,-0.1355871941980507,0.9999017132642685,0.00019982306301983315
-0.1355385717349372,-0.1355385717349372,1.0002726564800044,0.00019974350898832263
-0.13548994927200986,-0.13548994927200986,0.9999572516969929,0.00019970907824008624
-0.13544015987017072,-0.13544015987017072,0.9998799458700856,0.0001996934668153069
-0.1353881143862786,-0.1353881143862786,1.0001492862236525,0.00019982413044900856
-0.13533054539091066,-0.13533054539091066,0.9998414705161777,0.00019988399256840812
-0.13528145615319054,-0.13528145615319054,1.0000672095041068,0.00019997818093795542
-0.13523119997659147,-0.13523119997659147,1.000020735525312,0.00020004676189527972
-0.13517744298299622,-0.13517744298299622,0.9998492397578002,0.0001999894456265636
-0.13512819815404176,-0.13512819815404176,1.000224138629379,0.00020000823435593153
-0.1350795756928227,-0.1350795756928227,0.9998171605936872,0.00019997593088772535
-0.13502667445527225,-0.13502667445527225,1.0001787915113507,0.00020001039296605196
-0.13497478456516107,-0.13497478456516107,0.9997639431939863,0.00019986044208891688
-0.13492398381841958,-0.13492398381841958,1.0001711845004542,0.0001998588669919572
-0.1348751279703194,-0.1348751279703194,1.0000371282448226,0.00019977892393619536
-0.13482284910128378,-0.13482284910128378,0.9998267045518908,0.00019982717972225343
-0.13477165937561777,-0.13477165937561777,1.0001080190780092,0.000199705159757437
-0.13471836915997454,-0.13471836915997454,0.9998323663928744,0.00019966695805529816
-0.13466725723077352,-0.13466725723077352,1.000235430339088,0.0001997687811427804
-0.13461824579208126,-0.13461824579208126,0.9998027339513353,0.00019981525538758808
-0.13456806741463345,-0.13456806741463345,0.9999168287193791,0.0001998213132226358
-0.13451944495613347,-0.13451944495613347,1.0002817954864445,0.0001998068271767007
-0.13446911098734388,-0.13446911098734388,0.9998522575410235,0.0001997288389183099
-0.1344164431408545,-0.1344164431408545,1.0000543821347079,0.00019973974566352528
-0.134365797988921,-0.134365797988921,0.9999390304380515,0.00019974532230240116
-0.13431414149016443,-0.13431414149016443,1.0002368163648119,0.00019976650553151252
-0.13425735046025097,-0.13425735046025097,0.9996643770014074,0.00019968343470590314
-0.1342060829417912,-0.1342060829417912,1.0001844294411264,0.00019967486409940217
-0.1341456355038788,-0.1341456355038788,1.0000690910202628,0.0001995804838516474
-0.13409218970007872,-0.13409218970007872,0.9996772133494087,0.0001995689984177772
-0.13404068879484227,-0.13404068879484227,1.0002971670985406,0.00019949194812180193
-0.133990432624803,-0.133990432624803,0.9999241281667437,0.00019964838587022095
-0.1339411878021343,-0.1339411878021343,1.0000926022532244,0.00019980425489952443
-0.13389124281642245,-0.13389124281642245,0.9999655893709942,0.0001998724758000607
-0.13384238697402137,-0.13384238697402137,0.9999962485276166,0.00019979240569692456
-0.13379080827448447,-0.13379080827448447,1.000020606086651,0.00019982106054871517
-0.13374148565716704,-0.13374148565716704,0.9999673894517118,0.00019981013009127673
-0.13369138508091524,-0.13369138508091524,1.0000675548369997,0.00019976132569246588
-0.13364073993353287,-0.13364073993353287,1.0000517046840867,0.00019980137913280484
-0.1335709569891294,-0.1335709569891294,0.9997423743749957,0.00019977723048535391
-0.13350615298442353,-0.13350615298442353,1.0002499846413826,0.00019978914050362457
-0.13345753053235287,-0.13345753053235287,0.9998354877804895,0.00019972920235799803
-0.13340890808061862,-0.13340890808061862,1.0000279030595478,0.00019977142502464038
-0.13336028562921368,-0.13336028562921368,1.000151346581942,0.0001997995241914591
-0.13331166317817664,-0.13331166317817664,0.9998866776032915,0.0001997879860381762
-0.13326304072747894,-0.13326304072747894,0.9999790866705421,0.0001997543925135803
-0.13321441827714287,-0.13321441827714287,1.0002134595626064,0.0001997317886524803
-0.13316579582717547,-0.13316579582717547,0.9998761250880485,0.00019967544873891163
-0.13311717337756662,-0.13311717337756662,0.9997978886030155,0.0001997058526994905
-0.1330685509283426,-0.1330685509283426,1.0003820875813851,0.00019974739495560884
-0.1330199284929002,-0.1330199284929002,0.9996684234125292,0.0001997483780261754
-0.13297130620905553,-0.13297130620905553,1.000197255380208,0.00019976323503362583
-0.13292268396793813,-0.13292268396793813,0.9998385934704016,0.00019965001022539752
-0.1328740617272349,-0.1328740617272349,1.0002030550775827,0.0001996174988137465
-0.13282543948692305,-0.13282543948692305,0.9998853196863184,0.00019973208594915563
-0.132774638970678,-0.132774638970678,0.999795204768241,0.00019973382164002515
-0.13272430522836332,-0.13272430522836332,1.000296897880907,0.0001996834033405478
-0.13267568298930987,-0.13267568298930987,0.9998870957259367,0.00019971630427918934
-0.13262706075066708,-0.13262706075066708,0.9999556485906057,0.000199710110231773
-0.1325784385124451,-0.1325784385124451,1.00009963181283,0.00019971676204833403
-0.13252981627465332,-0.13252981627465332,0.9998617832748327,0.00019979291329040466
-0.13248119403731473,-0.13248119403731473,1.000042024158177,0.00019995640712742492
-0.13243257180037746,-0.13243257180037746,1.0001168552119017,0.00020001947872387267
-0.13238394956389316,-0.13238394956389316,0.999998906045317,0.0002000408716929965
-0.13233532732787506,-0.13233532732787506,0.9998247362430757,0.00019995197572772791
-0.13228670509230706,-0.13228670509230706,1.0000753828540412,0.0001999501589792719
-0.13223808285719207,-0.13223808285719207,1.0000410877330832,0.00019981948553930126
-0.13218946062254994,-0.13218946062254994,0.9999474105590489,0.00019984480754876957
-0.1321408383883807,-0.1321408383883807,0.9999645185241672,0.0001999004488201077
-0.13209221615469371,-0.13209221615469371,1.000161557180776,0.0002000018357741601
-0.13204328273919413,-0.13204328273919413,0.999726861446941,0.0002000406422098094
