time,time,flux,flux_err
-0.4994484243332408,-0.4994484243332408,1.0002341012425366,0.00011986342169933108
-0.49869479975459396,-0.49869479975459396,0.9999615467069514,0.00011812285059652795
-0.4978280907147564,-0.4978280907147564,1.0001261477899666,0.0001184576246873489
-0.497241321176989,-0.497241321176989,1.0000805321599595,0.00012125800922966998
-0.49663533032726265,-0.49663533032726265,0.9999031219668166,0.0001180810425083594
-0.4954996502579888,-0.4954996502579888,0.999928686914965,0.00011802187618606436
-0.49472815793706104,-0.49472815793706104,0.9998360564838891,0.00011621127932092705
-0.49353256941103607,-0.49353256941103607,0.9999447982716771,0.0001192144495030365
-0.49267761532973964,-0.49267761532973964,1.0001049343647597,0.00011815564691097295
-0.49159680846350967,-0.49159680846350967,1.0001542044443466,0.00012018475765074141
-0.4909537871542852,-0.4909537871542852,1.0000395031386096,0.0001188937229014922
-0.49027735776180636,-0.49027735776180636,1.00017708845424,0.00011987737183225871
-0.4893269913911354,-0.4893269913911354,1.0001780862521845,0.00011576654283139678
-0.4887583495976287,-0.4887583495976287,0.9999972636616377,0.00011802242103082543
-0.4880163980953512,-0.4880163980953512,0.999910275333453,0.00011616911864776413
-0.48698283415287735,-0.48698283415287735,1.0001842068643996,0.0001175183968084323
-0.48638126096193446,-0.48638126096193446,1.0002450242466785,0.00011803300972094857
-0.48567335789703064,-0.48567335789703064,0.9999420955871517,0.00011862798917819803
-0.48480298156500795,-0.48480298156500795,0.9999740323890218,0.00011804325215390478
-0.48411542011162967,-0.48411542011162967,1.0001204671165673,0.0001181189779997765
-0.482991053861042,-0.482991053861042,1.0000381889404524,0.00011888812315353372
-0.48242680940165883,-0.48242680940165883,1.0001814201136061,0.0001198943164865789
-0.4815674385681632,-0.4815674385681632,0.9998979961432258,0.00011553149862306401
-0.4809095514327055,-0.4809095514327055,1.0001195366311835,0.00011825958408488919
-0.48044621293229284,-0.48044621293229284,1.0000738700892158,0.00012176467061119716
-0.47965686007519254,-0.47965686007519254,0.9998653669374148,0.00011689732228363282
-0.47897128045005954,-0.47897128045005954,0.9998998917622508,0.00011984009520522763
-0.4785252631190815,-0.4785252631190815,0.999987029309181,0.00011815899176976018
-0.47780349403619765,-0.47780349403619765,0.9998104491640231,0.00011937192096278686
-0.4770232973227394,-0.4770232973227394,0.9999919047007468,0.00011877053974449568
-0.4765546277500107,-0.4765546277500107,1.0000517380020024,0.00011818660870486983
-0.47595877962885424,-0.47595877962885424,1.0000592622646072,0.00011879438689503692
-0.4751545764214825,-0.4751545764214825,1.0001025388365725,0.00011993794125141883
-0.4741292993785464,-0.4741292993785464,1.0000398474155465,0.00011621216672029731
-0.4730527287378209,-0.4730527287378209,0.9999988585850268,0.00011617855869366005
-0.47167934614553814,-0.47167934614553814,1.0000511712090938,0.00011624573054117186
-0.47097327081137336,-0.47097327081137336,1.0001070333982374,0.00011623544110164191
-0.46984753708529753,-0.46984753708529753,0.999946693073616,0.00011828946215095434
-0.4691831120086135,-0.4691831120086135,0.9997912225893391,0.0001181907087315557
-0.46864476014307,-0.46864476014307,0.9999576019027507,0.00011971008501942344
-0.46751938259985765,-0.46751938259985765,0.9999068628396179,0.00011912114067127648
-0.46680122683610537,-0.46680122683610537,1.0000817929297439,0.00012114280976053507
-0.46612494442379104,-0.46612494442379104,1.0000091202477353,0.00011803029623242529
-0.46499249989719826,-0.46499249989719826,1.000175458035091,0.00011760523374118556
-0.46447212993516585,-0.46447212993516585,0.9999575866782436,0.00011614890298611844
-0.4636773440011893,-0.4636773440011893,0.9998874354014131,0.0001180051374364773
-0.4627318414015463,-0.4627318414015463,1.0002051528631681,0.00011804919066096238
-0.4621232129007694,-0.4621232129007694,0.9999209448267564,0.00011803807047876894
-0.4613048463565065,-0.4613048463565065,1.0000752314806125,0.0001168208859961577
-0.4605347924531088,-0.4605347924531088,1.0000103347946374,0.00011996354868282566
-0.45973734016006346,-0.45973734016006346,1.0001797431490858,0.00011819098416690206
-0.45883873591956215,-0.45883873591956215,0.9999523220581178,0.00011898549795048312
-0.4583050851870212,-0.4583050851870212,0.9999713787107627,0.00012144172419767873
-0.4576410214722273,-0.4576410214722273,1.000023219121052,0.0001212564605923011
-0.4568803862552159,-0.4568803862552159,0.999990899127304,0.00011759801465147763
-0.45644862635526806,-0.45644862635526806,0.99985929984583,0.0001182751420965672
-0.4558009992149891,-0.4558009992149891,1.0000567894170587,0.00011668053943413354
-0.45513662185257997,-0.45513662185257997,0.9998882657887215,0.00012044849164650699
-0.4545145287120249,-0.4545145287120249,0.9999839906551348,0.00011808550728847387
-0.45409581730637,-0.45409581730637,0.9999878888436114,0.00011828358271208412
-0.453176958450058,-0.453176958450058,0.9997979853285454,0.00011969644888187518
-0.452478558185976,-0.452478558185976,1.0000462983048166,0.00011834231973550935
-0.4516970684941043,-0.4516970684941043,1.0000104862220989,0.00011649837719426774
-0.45096737166168166,-0.45096737166168166,0.9999908192760121,0.00012100710042394385
-0.450121793114522,-0.450121793114522,1.0000194994718237,0.00011620038573008702
-0.44912276207178364,-0.44912276207178364,1.0000549168323496,0.00011804645690393636
-0.44808122953691054,-0.44808122953691054,1.0000529797727222,0.00011629619638511878
-0.4469142125235521,-0.4469142125235521,0.9999245187998922,0.00011616568775859385
-0.4456962294221739,-0.4456962294221739,1.0000364801349326,0.00011813047411040025
-0.4450895485279034,-0.4450895485279034,1.0001882885357571,0.00011893981002355993
-0.444589490495855,-0.444589490495855,1.0000830405279881,0.00012045520879667615
-0.443754269873898,-0.443754269873898,0.9999902106432046,0.00011835419424587126
-0.442834775535448,-0.442834775535448,0.9999782921789248,0.00011714356804010855
-0.44225336566887563,-0.44225336566887563,1.0001013094416742,0.00011613928177262624
-0.4415385822590906,-0.4415385822590906,0.9998688663281777,0.00011829204578166375
-0.44079264462925494,-0.44079264462925494,1.0002260350262488,0.0001177927198295588
-0.4402371432253858,-0.4402371432253858,0.999974357328848,0.00011613716340335301
-0.4395832144960877,-0.4395832144960877,0.9999730107770756,0.00011865312018321104
-0.43869151380058613,-0.43869151380058613,1.0001347949842834,0.00011618466351006147
-0.43803814137208974,-0.43803814137208974,0.9999289704192236,0.000119877106709579
-0.43691509815107565,-0.43691509815107565,0.9999800044760819,0.00011694035572799727
-0.43621545659261757,-0.43621545659261757,0.9999475342045041,0.00011995644319191074
-0.4354957600851776,-0.4354957600851776,1.0001738867024923,0.00011738090964531417
-0.43472722456936025,-0.43472722456936025,1.0000158983516834,0.00011821181921995974
-0.4342284731203108,-0.4342284731203108,0.9998307046194042,0.00011993391030585082
-0.43348031601199183,-0.43348031601199183,0.999918900805055,0.00011642220980092215
-0.43283877436624607,-0.43283877436624607,1.000069865854332,0.00011972817068083825
-0.43229646659747234,-0.43229646659747234,1.0001889213284236,0.00011815828431412112
-0.4317354503160459,-0.4317354503160459,1.0000745478444473,0.0001192920730102669
-0.4307519175374182,-0.4307519175374182,0.9998186733632879,0.00011867118244815583
-0.4302150591320242,-0.4302150591320242,1.0001272407864084,0.00011823253330818021
-0.4295213437886559,-0.4295213437886559,1.0001252547677653,0.00011865394503257772
-0.42875017200713045,-0.42875017200713045,0.9999011922981719,0.00012150083736048737
-0.42794321629044135,-0.42794321629044135,0.999905024275248,0.00011302611906214268
-0.42693532015255187,-0.42693532015255187,1.0002117769127057,0.00011620022398804158
-0.4261012742921594,-0.4261012742921594,1.0002062719346223,0.0001165415779143108
-0.42513101689401084,-0.42513101689401084,1.000132853582653,0.00011615322781054994
-0.4245037091211998,-0.4245037091211998,1.0002355760370059,0.0001181968119367484
-0.42343693776783764,-0.42343693776783764,0.9999831915676269,0.000116973730916856
-0.42280380608135604,-0.42280380608135604,1.0000557555606402,0.00012083690212650899
-0.4220737106210436,-0.4220737106210436,0.9997752452404504,0.00011983314283940788
-0.4208797579849488,-0.4208797579849488,0.9999623535069013,0.00012008087063164908
-0.4203216552414233,-0.4203216552414233,1.0001199402198069,0.00011800791818835804
-0.41943430099927353,-0.41943430099927353,1.0000198988896503,0.00011837887205545855
-0.41862965844920835,-0.41862965844920835,1.0001221379144318,0.00011574913406288897
-0.41805158815695903,-0.41805158815695903,1.0000808853955758,0.00011803884053814643
-0.41724893693753984,-0.41724893693753984,1.0000817808325393,0.00011798324606599653
-0.4163119693781482,-0.4163119693781482,1.000050890048327,0.00011805652157078315
-0.4157111102496856,-0.4157111102496856,0.9999629599979214,0.00011801662203233523
-0.41501592875429194,-0.41501592875429194,1.0001137594897789,0.00011683526863811608
-0.4142551200115122,-0.4142551200115122,0.9999015690271523,0.0001199457788665675
-0.4136096134141553,-0.4136096134141553,0.9999009541885172,0.00011678032491654899
-0.4126413293881342,-0.4126413293881342,1.0000361782163465,0.00011723804087991481
-0.41213065432239093,-0.41213065432239093,0.9999895817305532,0.00012032388353091041
-0.4113098623638507,-0.4113098623638507,1.000132965544387,0.00011756454129662165
-0.4104766036834917,-0.4104766036834917,0.9998345397040728,0.00011815691674794637
-0.41001785620319425,-0.41001785620319425,0.9998902189050272,0.00012033287721541119
-0.40909837725630493,-0.40909837725630493,1.0000863025902784,0.0001164404061873191
-0.4086088964861119,-0.4086088964861119,0.9999210204381018,0.00011874964449909726
-0.4081489938267623,-0.4081489938267623,1.0000797975160625,0.00011821775676927593
-0.40765785773692187,-0.40765785773692187,1.0000901626980707,0.0001180711192831217
-0.40675376642175254,-0.40675376642175254,1.0000765220492063,0.00012140892148338245
-0.40620289491052974,-0.40620289491052974,1.0000533443920085,0.00011653807123675455
-0.4057357565878192,-0.4057357565878192,0.999864989388656,0.00011481937232294849
-0.405004026851384,-0.405004026851384,1.000127141191021,0.00012159711205362626
-0.40443847031128827,-0.40443847031128827,1.00010456402171,0.00011956830989554544
-0.40314927337749396,-0.40314927337749396,1.000274850000889,0.0001162682073090181
-0.4023832413789933,-0.4023832413789933,0.999992105458025,0.00011616831136364398
-0.4009983975731302,-0.4009983975731302,1.0000422404815574,0.00011630479585248265
-0.40014831589360256,-0.40014831589360256,1.0001329833770092,0.00012491371108517492
-0.3993691200899775,-0.3993691200899775,1.0000404550632447,0.00011680757448268905
-0.39871373178320935,-0.39871373178320935,0.9999623951030288,0.00011854707353189133
-0.3982194134252495,-0.3982194134252495,1.0000146989634553,0.00012205245226509132
-0.39741846389079,-0.39741846389079,0.9998473474013373,0.00011830682078923689
-0.3965695865888847,-0.3965695865888847,1.0001613758088772,0.00011714189222324184
-0.3959916245134082,-0.3959916245134082,1.000161958166898,0.00011613412601686624
-0.3952643629934755,-0.3952643629934755,1.0000430151395787,0.00011828802681737882
-0.3945293940065312,-0.3945293940065312,0.9998795491879129,0.00011770676773048235
-0.39405037718097446,-0.39405037718097446,1.0002107644516378,0.00011800641952989107
-0.39355170790367994,-0.39355170790367994,1.0000509385430338,0.00011634619383067883
-0.39277807616308563,-0.39277807616308563,1.0000943840222507,0.00011858354633052604
-0.39200062471354613,-0.39200062471354613,1.0000442556299585,0.000118062745202164
-0.391164839421981,-0.391164839421981,0.999938361244574,0.00011685267495686869
-0.3901192692865152,-0.3901192692865152,0.9999583133312402,0.00011819063605909639
-0.3895222715087584,-0.3895222715087584,0.9999336089846684,0.00011999510761337296
-0.38859160536230775,-0.38859160536230775,0.9999820981653491,0.00011715881141647454
-0.3880223723434028,-0.3880223723434028,1.000241061132177,0.00012005998225493135
-0.38734014804213074,-0.38734014804213074,1.0000248134333671,0.0001182210364767688
-0.3865676045505097,-0.3865676045505097,0.9998410476752447,0.00011961533819467016
-0.386025524152501,-0.386025524152501,0.9999480539620464,0.00011627872290874747
-0.38547173118131467,-0.38547173118131467,1.0000480399829923,0.00011884503043308535
-0.3844766226480715,-0.3844766226480715,0.9999521991820604,0.0001207346614180408
-0.3839411719047348,-0.3839411719047348,1.000049994900401,0.00011821154839217113
-0.3832645681744907,-0.3832645681744907,1.0001336868184372,0.00011859515380998925
-0.382472398034588,-0.382472398034588,1.00009967229728,0.00012130265140836735
-0.38151146648306167,-0.38151146648306167,1.0000484008385635,0.00011452158500541703
-0.3805197622728883,-0.3805197622728883,0.9997889299922639,0.00011621457566464912
-0.3794371425494319,-0.3794371425494319,1.0000834867813193,0.0001162538166332744
-0.37868641193781516,-0.37868641193781516,1.0001591360873965,0.00011617585575116479
-0.37780067707353737,-0.37780067707353737,1.0000281412532075,0.00011810616696435739
-0.3768114373655408,-0.3768114373655408,0.9999431130574251,0.00011939055677692687
-0.3759164042407065,-0.3759164042407065,1.0001888140972102,0.00011619296084601956
-0.37477841010841073,-0.37477841010841073,1.00031128600127,0.00012149536388125865
-0.3741352973447647,-0.3741352973447647,0.9998256167154669,0.00011620412351025424
-0.37341118961776376,-0.37341118961776376,0.999889402271265,0.00011833902857696246
-0.3724663382236031,-0.3724663382236031,1.0000925390084592,0.00011756321610543122
-0.37194168740388706,-0.37194168740388706,0.9998989524219969,0.00011614320690631697
-0.37119191523670453,-0.37119191523670453,1.0000793070394927,0.00011642732883372566
-0.37026102415984496,-0.37026102415984496,0.9999201656830079,0.00011767855766428332
-0.36976896762062095,-0.36976896762062095,0.9998059898566389,0.00012083317323178756
-0.36920570324436996,-0.36920570324436996,1.0000362853132938,0.00011983141653619529
-0.3684278565866407,-0.3684278565866407,1.0000208175591385,0.00011689096732835247
-0.36770344721589937,-0.36770344721589937,0.9999764740453351,0.00012173600288867686
-0.36674450050195445,-0.36674450050195445,1.0000898054830678,0.00011520534799700836
-0.36601791589491767,-0.36601791589491767,0.9998422080541319,0.00011859557656749942
-0.36558894480840537,-0.36558894480840537,1.0000810523559518,0.00011808242455009225
-0.3646744759374997,-0.3646744759374997,0.9999801182852535,0.00011745920754532495
-0.36397000959696013,-0.36397000959696013,0.9999754369335874,0.00011829533675041311
-0.36349592743645187,-0.36349592743645187,0.999953621438641,0.00011828152954763175
-0.36273417953634635,-0.36273417953634635,0.9998249634568918,0.00011821823645413753
-0.362147537022247,-0.362147537022247,1.0000168357004966,0.00012006675405395218
-0.36175584457960214,-0.36175584457960214,0.9998224404398286,0.0001162719306987741
-0.36082490070257334,-0.36082490070257334,1.0000263847849111,0.00012002180859564953
-0.36006604708818485,-0.36006604708818485,0.999904541072319,0.00012044086081391495
-0.35962079181626905,-0.35962079181626905,1.00000983706845,0.00011526101000327788
-0.3588931123013026,-0.3588931123013026,0.999967838983682,0.0001184453918894871
-0.35832809385465225,-0.35832809385465225,1.000001534132784,0.00012227651807958728
-0.357079221845197,-0.357079221845197,1.0000978781790781,0.00011433931140988025
-0.35611602734570624,-0.35611602734570624,1.0003661654537808,0.00011618642028353992
-0.35473659832641713,-0.35473659832641713,1.0000960734070716,0.000116290749817032
-0.3536205518743373,-0.3536205518743373,1.0000162076346784,0.00011811842806725323
-0.3527438636345323,-0.3527438636345323,1.0000722953488024,0.00011892010119231227
-0.352254259865731,-0.352254259865731,0.9999162504712956,0.00012154650293660267
-0.3517041924977093,-0.3517041924977093,0.9998674122448472,0.00011796610410541215
-0.350714172743028,-0.350714172743028,1.0001293199572123,0.00011762994966135873
-0.3499499950776226,-0.3499499950776226,0.9999606132987482,0.00011803967305326927
-0.3493144058913458,-0.3493144058913458,1.0000151896886982,0.000118048343629992
-0.34826618183287794,-0.34826618183287794,0.999905515725585,0.0001176499405375018
-0.3477804244088475,-0.3477804244088475,0.9999381845475174,0.00011799228218351115
-0.3471828883586568,-0.3471828883586568,1.0001085803980088,0.0001180200063031944
-0.34616508160834203,-0.34616508160834203,1.0000322515144302,0.000116171364426117
-0.34549546569469386,-0.34549546569469386,1.0002264805717984,0.00011803482984287588
-0.3446499813144328,-0.3446499813144328,0.9999280901790419,0.00011876807281910277
-0.3437096315494273,-0.3437096315494273,1.0001126862446956,0.0001199612761191852
-0.34283883288298966,-0.34283883288298966,1.000244051712062,0.00011716854194948858
-0.3420463805799955,-0.3420463805799955,0.9998601113555446,0.00011824250965573183
-0.3416078886133619,-0.3416078886133619,0.9998855454198965,0.00012157301362396373
-0.3406269138227799,-0.3406269138227799,0.9999862577237227,0.00011612790442841235
-0.3400318238549517,-0.3400318238549517,1.000111391639572,0.00011818082114642811
-0.3396640396429575,-0.3396640396429575,1.0000007925082255,0.00011812650338118194
-0.33876464953791585,-0.33876464953791585,1.000029819187127,0.00011923273321345154
-0.33791598826501285,-0.33791598826501285,1.0000984768918044,0.00012017601485379099
-0.33748035970784257,-0.33748035970784257,0.999933104518481,0.00011479026716576151
-0.33663177230919245,-0.33663177230919245,0.9999072050931284,0.00012068340186284054
-0.33585535187885396,-0.33585535187885396,0.9999479072256022,0.00011871931002511581
-0.33483103704056705,-0.33483103704056705,1.0000276249022593,0.00011864670673947044
-0.33423255682864694,-0.33423255682864694,1.0000766446361051,0.00011954081446730845
-0.3331776103703305,-0.3331776103703305,1.0000535264328942,0.00011436512514255614
-0.332415762556775,-0.332415762556775,0.9999793316572845,0.00011803021268690184
-0.3314719565139967,-0.3314719565139967,1.000095426384241,0.00011640992887235093
-0.33041524895379554,-0.33041524895379554,0.9999752998550868,0.00011914502967185362
-0.32944102246983675,-0.32944102246983675,1.000041225977171,0.0001181861956470032
-0.32843517762958074,-0.32843517762958074,1.0000121290991306,0.00012034384938353209
-0.32778402366384396,-0.32778402366384396,0.9999030797294257,0.000118046106837229
-0.3267946291613043,-0.3267946291613043,0.9998485836275213,0.00011832791055534882
-0.3259841523860814,-0.3259841523860814,0.9999617493822672,0.00011535705004247377
-0.3253887022117851,-0.3253887022117851,1.0000446322520131,0.00011802455080287669
-0.3243536028865492,-0.3243536028865492,0.9999953584739257,0.00011804088725737766
-0.3236394339997787,-0.3236394339997787,1.0001144018085137,0.0001175556339953434
-0.3230516743875341,-0.3230516743875341,0.9998936494703159,0.0001179967302427951
-0.3223252537456574,-0.3223252537456574,1.0000697835304952,0.00011869020427206182
-0.32155495912302284,-0.32155495912302284,1.0001030704324827,0.0001199497414608288
-0.32080800376425034,-0.32080800376425034,1.00010411359973,0.00011687102398920686
-0.3200628274775227,-0.3200628274775227,0.9998458463775185,0.00011690176335556466
-0.31952345646859615,-0.31952345646859615,1.0000066776950616,0.00011997413853149892
-0.31877601688611323,-0.31877601688611323,0.9999322285278129,0.00011747029485763038
-0.3179373865350499,-0.3179373865350499,1.0000635927318675,0.00011816892219956759
-0.3174666645121761,-0.3174666645121761,0.9998174255928516,0.00012009430973679804
-0.3167343607346993,-0.3167343607346993,1.000062318125822,0.00011450783034948746
-0.3161269648990128,-0.3161269648990128,1.0000081472184643,0.00011990708999082394
-0.31559495362307644,-0.31559495362307644,1.0000261908272912,0.00011817782453141532
-0.31508381668536456,-0.31508381668536456,0.9999244126445053,0.00011897794607978202
