time,time,flux,flux_err
-0.49987293392890325,-0.49987293392890325,1.0007315090453368,0.0004294139703827788
-0.49969084078766174,-0.49969084078766174,0.9996377418676774,0.00036596653622808625
-0.4994789253141789,-0.4994789253141789,1.0004408519421712,0.000441674846695762
-0.4993073021229065,-0.4993073021229065,0.9995976440689077,0.00041864768332230804
-0.4990762275505404,-0.4990762275505404,1.00027030361441,0.00035716306887897747
-0.49891204650557486,-0.49891204650557486,0.9996279649250981,0.00035361198544965773
-0.49878977423213655,-0.49878977423213655,1.0000674005134451,0.0004212815724578274
-0.49858376138217864,-0.49858376138217864,0.9999224336233098,0.0003549799288396124
-0.4983538239612244,-0.4983538239612244,1.0005549429857854,0.0004224560334615469
-0.49807224999603933,-0.49807224999603933,0.9998053767358268,0.0003578125335948354
-0.497922917699907,-0.497922917699907,1.0001866608625154,0.0004206940922660214
-0.49783271298365434,-0.49783271298365434,0.9997747719905303,0.00040386106858063427
-0.4977040577068692,-0.4977040577068692,1.000146719863491,0.0003560686384424838
-0.4975893948336306,-0.4975893948336306,0.9996768186834887,0.0004174224599966467
-0.4974650539457798,-0.4974650539457798,0.9999194008776595,0.00042402531086272236
-0.4972202082448348,-0.4972202082448348,1.0000216128627868,0.00036667006873712215
-0.49698477083147735,-0.49698477083147735,0.9993598599794302,0.0004243431445422648
-0.49682632369804197,-0.49682632369804197,0.9997402193756437,0.00035383698348010926
-0.4966923349536955,-0.4966923349536955,1.000044595208148,0.00039050553540552707
-0.4964627270826895,-0.4964627270826895,0.9999156122292403,0.00038245369664410264
-0.4962730953862774,-0.4962730953862774,1.0003501580954357,0.0004655604904934761
-0.4960075188922929,-0.4960075188922929,0.9999460499217088,0.00040497274620604354
-0.495866623922484,-0.495866623922484,0.9996431776106757,0.00036161600190229585
-0.49573111106219586,-0.49573111106219586,1.000147053712665,0.0003698399493319742
-0.49554077721550127,-0.49554077721550127,0.9996665956220573,0.0004077890943575618
-0.49541516568424415,-0.49541516568424415,0.9996422076338867,0.0003774344341622604
-0.4951801670213172,-0.4951801670213172,1.00020474007446,0.00045342161969792245
-0.49495238343442904,-0.49495238343442904,1.0000846942006496,0.00042080664786343317
-0.49465265743492637,-0.49465265743492637,1.000087003041556,0.0003653799518958324
-0.4945416912116343,-0.4945416912116343,0.9999782227584936,0.0003606052257580028
-0.4944132484699367,-0.4944132484699367,1.000062374658794,0.0004203013221765085
-0.49419928693387194,-0.49419928693387194,0.9995810985686682,0.00035886261721970915
-0.4938888156269968,-0.4938888156269968,1.0001127597124695,0.0004222811803275596
-0.49366495637732444,-0.49366495637732444,0.9995053602564633,0.00039584429412201864
-0.49354809740761996,-0.49354809740761996,1.0000821499339736,0.0003547556241630616
-0.49342123981477926,-0.49342123981477926,1.0002432492655255,0.0004183626055678239
-0.49328343226297877,-0.49328343226297877,1.0001295568990205,0.00037030150187562224
-0.4931535799158155,-0.4931535799158155,0.9998777139911923,0.0003881239507513212
-0.49292972158000337,-0.49292972158000337,0.9994392785766466,0.00041583980954449414
-0.4927181318300427,-0.4927181318300427,0.9998038693178518,0.0004232600402350021
-0.49255240846905507,-0.49255240846905507,0.9999961999959945,0.0003499573785302389
-0.49242688768354126,-0.49242688768354126,1.0003448779785176,0.00035530186629150737
-0.4923004594849772,-0.4923004594849772,0.9994839396032458,0.0004095168678100561
-0.49201338498241964,-0.49201338498241964,1.0001740721668821,0.0003634709722348304
-0.49189556259443634,-0.49189556259443634,0.9997590198206641,0.0004661149084784247
-0.49162743347405924,-0.49162743347405924,1.000341141499693,0.00040543577693005165
-0.491537782458181,-0.491537782458181,0.9992585271690917,0.00036765902669824143
-0.49136603308434135,-0.49136603308434135,1.0005210264061404,0.00036722584497073856
-0.4911417782168428,-0.4911417782168428,1.0000905156093585,0.00039903471200646403
-0.49096398116162165,-0.49096398116162165,0.9999414409646856,0.000364678981420778
-0.4907116826507263,-0.4907116826507263,1.0002491246607597,0.000464441894432108
-0.4903618572308915,-0.4903618572308915,0.9996539982666703,0.00036507642915606576
-0.49019940185680755,-0.49019940185680755,1.0000224038462275,0.00035750288535928203
-0.49007496659978644,-0.49007496659978644,1.000119989647479,0.0004201328235273743
-0.48987084174659684,-0.48987084174659684,1.000406441851348,0.00035255118964977054
-0.48968108109474995,-0.48968108109474995,1.0000975000121786,0.0004199529604447412
-0.4894048556117923,-0.4894048556117923,1.0004923205340852,0.00034454259686584026
-0.4892345880885841,-0.4892345880885841,1.0001217909746942,0.00041656252318256475
-0.4891377543695853,-0.4891377543695853,1.0003089950428383,0.00040731810710081877
-0.48899930070983827,-0.48899930070983827,1.0002123233949598,0.0003714577364991996
-0.48885043160335045,-0.48885043160335045,1.000227396260958,0.0003860069854124296
-0.4886004650528776,-0.4886004650528776,1.0003008169448835,0.0003551644363965201
-0.4884172354621114,-0.4884172354621114,0.9997083083975173,0.0004255402669914417
-0.48828438620475934,-0.48828438620475934,0.9999193291399131,0.0003635002064430673
-0.4881055235688109,-0.4881055235688109,1.0000662563579499,0.00037050678109359306
-0.48800088325078833,-0.48800088325078833,0.9998978269869989,0.0003972912742870942
-0.487681293667265,-0.487681293667265,0.999665489695744,0.00036336616000570487
-0.48752412649118926,-0.48752412649118926,0.9997482987270304,0.00042085925551518745
-0.48727269306982635,-0.48727269306982635,1.0003767666270522,0.00040282937871872023
-0.487163713422342,-0.487163713422342,0.9999579204092806,0.00036524977775371657
-0.48700054900473333,-0.48700054900473333,0.9999022577617216,0.0003570574340244517
-0.4867802101020061,-0.4867802101020061,0.9998442287500229,0.00038702654706006007
-0.48657746941171354,-0.48657746941171354,1.000193366724989,0.00042537907393475186
-0.4863447017472936,-0.4863447017472936,0.9999087321360769,0.0004189801484613674
-0.48597375906465456,-0.48597375906465456,1.0001642692177428,0.00036774706390475993
-0.48585036615841093,-0.48585036615841093,1.0002082824919352,0.0003466572628540672
-0.4857110858225496,-0.4857110858225496,1.0004149596195533,0.0004201352813951732
-0.48550028219324304,-0.48550028219324304,0.999828357386417,0.00034965120132293036
-0.4852806750721356,-0.4852806750721356,0.999932354153462,0.0004268336202103144
-0.48502202041709097,-0.48502202041709097,1.0003122315891122,0.0003376719254533743
-0.48488643600503567,-0.48488643600503567,1.0002196050585257,0.0004139472998405964
-0.48479041208847773,-0.48479041208847773,1.0005471019792676,0.0004039722942994063
-0.48464838550644346,-0.48464838550644346,1.000388299258087,0.00036997780268219514
-0.48444931239500877,-0.48444931239500877,0.9998444968485481,0.00037432897661552304
-0.48414921669827893,-0.48414921669827893,1.0000456327588858,0.00037839494090468695
-0.48402802313867144,-0.48402802313867144,1.000096030726424,0.00041754372035024715
-0.4838352853388642,-0.4838352853388642,1.000843159226987,0.0003533520154828413
-0.4836498250311706,-0.4836498250311706,1.0000664131960761,0.0004260818255795249
-0.48337167965291883,-0.48337167965291883,1.0004924820899999,0.00036347019189254695
-0.48322611668991156,-0.48322611668991156,0.9999123475793136,0.000421562745067653
-0.4829449291130004,-0.4829449291130004,0.9998393123499776,0.00041472831088664624
-0.4828673728567082,-0.4828673728567082,1.0001005268678633,0.00036250972864819013
-0.48271005579008486,-0.48271005579008486,1.0000372294687758,0.0003555214770784379
-0.4824703016034618,-0.4824703016034618,1.0001680401893327,0.0003992495343366666
-0.4822635303768038,-0.4822635303768038,1.0001616737875156,0.0004318668666813515
-0.4820676599876606,-0.4820676599876606,1.0002262099886987,0.0005051292398278028
-0.48179486919325426,-0.48179486919325426,1.000041598313709,0.00036699411888763096
-0.48151207603295915,-0.48151207603295915,0.9999184519626845,0.0003576709224247368
-0.4813720646336151,-0.4813720646336151,0.9999367888798594,0.0004168207410260031
-0.4811043799316394,-0.4811043799316394,0.9995351636658139,0.00035759565369972266
-0.4808253303322999,-0.4808253303322999,1.0000981288816935,0.00041377123868981705
-0.4806638337118784,-0.4806638337118784,1.0000924735176984,0.000353730817906475
-0.48054694025195205,-0.48054694025195205,1.0003531095960823,0.0004124298491881338
-0.4804431957039924,-0.4804431957039924,0.9997629018791525,0.000402856052163187
-0.48031948642164934,-0.48031948642164934,0.9998963967706717,0.00037457856195754704
-0.48007789091934683,-0.48007789091934683,1.0004427102272673,0.00037189179797044423
-0.4797318504934083,-0.4797318504934083,0.9997785211681695,0.000415838827962377
-0.47958392280852424,-0.47958392280852424,0.9996935525341393,0.0003460679994651084
-0.47941908594584676,-0.47941908594584676,1.0003306976260273,0.00036010646246673506
-0.47928687677704146,-0.47928687677704146,1.0003460928379728,0.00047882386140396586
-0.47909804091323166,-0.47909804091323166,1.0001468283582118,0.0003722556422669747
-0.4789334073044301,-0.4789334073044301,0.9997718622437471,0.0004169536872954076
-0.4786517992091831,-0.4786517992091831,1.000251280496444,0.00041885225466755505
-0.47855136420112104,-0.47855136420112104,1.0002194265065945,0.0003635015034068518
-0.47840554388749296,-0.47840554388749296,0.9997379712413798,0.000364670454052105
-0.47814808149560123,-0.47814808149560123,1.0003459703441204,0.0003936299894621558
-0.4778912496527482,-0.4778912496527482,1.0000802810827178,0.0004703458925791328
-0.4777163604441739,-0.4777163604441739,1.0003850156275902,0.00046386312132803335
-0.47740537855934234,-0.47740537855934234,1.0000346413707057,0.0003697783369623865
-0.4771687200438464,-0.4771687200438464,1.0000710966521795,0.00035618653284493564
-0.47704004552433615,-0.47704004552433615,0.9996676895129438,0.00041779329017319576
-0.47678904505301034,-0.47678904505301034,1.0000368088165839,0.0003593897966526891
-0.47652585934920355,-0.47652585934920355,0.9996026188311878,0.00045293715284753014
-0.47633769530511927,-0.47633769530511927,0.9997558949760382,0.0003529535746965472
-0.47620125081593867,-0.47620125081593867,0.9997657769404465,0.00041302416928209654
-0.47610722006793366,-0.47610722006793366,0.9998700423465212,0.00040312703172648193
-0.4759977905341657,-0.4759977905341657,1.0003642517869924,0.00037609854303164624
-0.4758051384676946,-0.4758051384676946,1.0002096717083098,0.0003710880809861654
-0.4754650120747101,-0.4754650120747101,0.9998318388933629,0.00035607170255572975
-0.47528105351448174,-0.47528105351448174,1.0002257857504788,0.0004037767860814626
-0.4751213828130858,-0.4751213828130858,1.000158082011038,0.0003626668092709611
-0.4749870874256885,-0.4749870874256885,1.0001127209702245,0.0004738764890830592
-0.47480675866463573,-0.47480675866463573,1.000312317036012,0.00042167508439112656
-0.47463948777440235,-0.47463948777440235,1.0002877278232096,0.00036520102283614715
-0.47444527939733233,-0.47444527939733233,1.0001771424828396,0.00042623262142594246
-0.4742802493543422,-0.4742802493543422,1.0003878163240074,0.00036326640767930937
-0.4742198991138139,-0.4742198991138139,1.0003322454980639,0.000405382512410779
-0.4740724401199259,-0.4740724401199259,1.0002949740174842,0.0003563037971842074
-0.4738278563563654,-0.4738278563563654,1.0003290095297985,0.00042782323830834986
-0.47365450153083655,-0.47365450153083655,0.9996841549774296,0.0003503695203435207
-0.47339713373075937,-0.47339713373075937,0.9998565940018,0.0004641627021545028
-0.4731124192279822,-0.4731124192279822,0.9998200845683268,0.0004173804697743255
-0.4728245801743469,-0.4728245801743469,0.9999544392411469,0.0003560481533504335
-0.4727031845213787,-0.4727031845213787,1.0000380426226214,0.0004178785115906485
-0.4723895086521225,-0.4723895086521225,1.0003249671379086,0.0003524348897251277
-0.4721808249632886,-0.4721808249632886,1.0001056380044901,0.00046462632300301593
-0.4720171625012881,-0.4720171625012881,1.0000845019629132,0.0003562106889787051
-0.47190842549389345,-0.47190842549389345,1.000331227046023,0.0003668344341792173
-0.4718061244835553,-0.4718061244835553,1.0000249332360256,0.00039948625972458613
-0.47171486756269587,-0.47171486756269587,1.0002148877699926,0.0004210581689211664
-0.47148214272601763,-0.47148214272601763,0.9998911113211161,0.0003744440038388304
-0.4711199232762738,-0.4711199232762738,0.9994112019782472,0.00035612098620199764
-0.47095859018227204,-0.47095859018227204,1.0002724837445724,0.0004077667487221288
-0.4708104216224456,-0.4708104216224456,1.0004534055216088,0.00041090619814135716
-0.47069634939107347,-0.47069634939107347,0.9995887976034934,0.00037910131427093974
-0.4704896314549842,-0.4704896314549842,1.0002132619337782,0.00042638540985495964
-0.47028071209279004,-0.47028071209279004,1.000287306815201,0.0004169074486284112
-0.4700583331381495,-0.4700583331381495,1.0000991248733153,0.00039014328529766713
-0.46991976879144204,-0.46991976879144204,1.0000600690753898,0.0004250169559453161
-0.4698341881114175,-0.4698341881114175,1.000256641647308,0.00035382749524986724
-0.4695876416117244,-0.4695876416117244,0.999525374528093,0.0004053614002110783
-0.46938914878992366,-0.46938914878992366,1.000104290497684,0.00033626205534027884
-0.4691273678610742,-0.4691273678610742,0.9999851240798507,0.0004227974757071212
-0.46895256804855306,-0.46895256804855306,0.9998605078279615,0.0004616724384532564
-0.46850352083638425,-0.46850352083638425,1.0000588914267323,0.00035964911584056384
-0.4683949289166776,-0.4683949289166776,1.000249463782495,0.00041268421305980555
-0.46826064109918664,-0.46826064109918664,1.0010373506741996,0.00037285094666584964
-0.4680245162184292,-0.4680245162184292,1.0001329179280152,0.0003450879096127257
-0.46780525632493664,-0.46780525632493664,0.9999423738024704,0.000454023443964729
-0.4676611734299513,-0.4676611734299513,0.9997773245425888,0.0003648592208323027
-0.4675112868346332,-0.4675112868346332,1.0003309015885469,0.0004058587271256276
-0.4674088856649178,-0.4674088856649178,0.999947485674537,0.00041774493830355085
-0.4672903046754072,-0.4672903046754072,1.0001134502839797,0.00037748622925379174
-0.4670661946744076,-0.4670661946744076,1.0006710944645802,0.0005658221775846149
-0.46682526049917217,-0.46682526049917217,1.0002480157323137,0.00035657241516603484
-0.46663626373338046,-0.46663626373338046,0.9998438873091331,0.0004065076101933009
-0.46650040459935554,-0.46650040459935554,0.9992659668543904,0.000358915918599488
-0.4663765523670008,-0.4663765523670008,1.0000377304602415,0.00041343436165949994
-0.4661929279733158,-0.4661929279733158,1.0002863937482813,0.0004414316074496984
-0.46601073112615266,-0.46601073112615266,0.9996411777402591,0.00036818056620521207
-0.46573094454288366,-0.46573094454288366,0.9997095920085686,0.0004291547864043191
-0.465587053001218,-0.465587053001218,0.9998249390251296,0.00042825969505288803
-0.465464181725838,-0.465464181725838,1.0003606592452368,0.0003408912109678888
-0.46519520687288607,-0.46519520687288607,0.9999890052644199,0.00040568636526547644
-0.4650581342968508,-0.4650581342968508,0.9997228810336317,0.0003525015245963365
-0.46475014315583396,-0.46475014315583396,0.999771894691623,0.00035895391704276976
-0.46462058809847806,-0.46462058809847806,0.999710614697166,0.00046271864731973626
-0.46427821281104115,-0.46427821281104115,0.9999896574224895,0.00036499059700892124
-0.46410888588870874,-0.46410888588870874,1.0003104479790965,0.000409887064814524
-0.4639437345125771,-0.4639437345125771,1.0001640302177426,0.00039601470082653285
-0.46366670070929106,-0.46366670070929106,1.000010779362087,0.00040008518736087833
-0.4634558176694554,-0.4634558176694554,0.9994580923091382,0.0004073528516581289
-0.46327594639660674,-0.46327594639660674,1.0001407931703297,0.0003574139616563426
-0.4631051351891074,-0.4631051351891074,1.0001285674559477,0.0003473894510738933
-0.4630134958679264,-0.4630134958679264,1.0004263213979656,0.00042355035992778346
-0.4627457261623931,-0.4627457261623931,0.9998862790784397,0.0004253167237480194
-0.46244191248479183,-0.46244191248479183,1.000131547505275,0.0003593232173922277
-0.46225165958094294,-0.46225165958094294,0.9999705858402738,0.00040397043110923584
-0.4620806561324571,-0.4620806561324571,1.0002050912178764,0.00040562153365561
-0.46193791258119743,-0.46193791258119743,0.9999348258311317,0.0004400468133615353
-0.46175542591299745,-0.46175542591299745,1.0003107007922079,0.00037028565416973865
-0.46150866961761494,-0.46150866961761494,0.9996705222133462,0.0004192893941076362
-0.4613106210308615,-0.4613106210308615,1.0006256518804864,0.0003885144423401928
-0.46119629327586154,-0.46119629327586154,0.9997004860445126,0.00040825606670482544
-0.46097678594233005,-0.46097678594233005,0.9998633358931176,0.0003513302325729974
-0.46075027022816356,-0.46075027022816356,1.0000324989615588,0.0004053324541667423
-0.46047340264922243,-0.46047340264922243,1.000036989920011,0.0003587116411346762
-0.46029128631344063,-0.46029128631344063,1.0005253622718633,0.0004634381737358108
-0.4600502331661119,-0.4600502331661119,0.999950941584119,0.00035606749320311735
-0.4598328734158713,-0.4598328734158713,0.9996632212852333,0.00035951068093887436
-0.45974188090476675,-0.45974188090476675,0.9999243324600929,0.00041963160695539985
-0.45956166858886716,-0.45956166858886716,1.000493007457445,0.0004217112960519069
-0.4593127577289124,-0.4593127577289124,0.9997894259309555,0.00039962040078000526
-0.4591414593589434,-0.4591414593589434,0.9997576045622871,0.00044154299857990085
-0.45904531209453125,-0.45904531209453125,0.9999301303882989,0.00035012044293349103
-0.45879934500771924,-0.45879934500771924,1.0000006019374001,0.00034847620930691676
-0.45870184323430296,-0.45870184323430296,1.0003569991970809,0.0004198995131705702
-0.4585819921099755,-0.4585819921099755,1.0003614681905897,0.00043168679249827417
-0.4582777284893382,-0.4582777284893382,1.0000636226798185,0.0003623355993154835
-0.4580108352696698,-0.4580108352696698,1.000019686786637,0.00041809836857600635
-0.45784489395155104,-0.45784489395155104,0.9996377256254221,0.00035575632034140936
-0.4577091131352063,-0.4577091131352063,1.0001702597015387,0.00042735082459163397
-0.457574260495312,-0.457574260495312,0.9992743248348466,0.00042728731609071593
-0.4574154045709292,-0.4574154045709292,0.9998478902925815,0.00037020364361278594
-0.4572289045165235,-0.4572289045165235,1.0002339910018252,0.00046536365292622887
-0.45705375733741677,-0.45705375733741677,1.0006104199766779,0.0003706389611258812
-0.45690535132744114,-0.45690535132744114,0.9994941067058761,0.00037269810589468357
-0.45678204950745566,-0.45678204950745566,1.0006312360388054,0.00043333837357203465
-0.45652657717946565,-0.45652657717946565,1.0000128625262004,0.00035538705043135156
-0.4563219560572179,-0.4563219560572179,1.00000127109068,0.0003994048704232025
-0.4560457789972133,-0.4560457789972133,1.000135966342881,0.00046446390393789885
-0.45591438169285536,-0.45591438169285536,1.0002425303977074,0.00036571819450664084
-0.4556591694454255,-0.4556591694454255,0.9996361770834408,0.00036165310933884687
-0.4554532358997676,-0.4554532358997676,0.999846761479018,0.0003688880671064718
-0.4553471691127925,-0.4553471691127925,1.0004958667560993,0.0005181196394600879
-0.45516014148815886,-0.45516014148815886,0.9997727949436349,0.0004024655689587833
-0.45489187567582123,-0.45489187567582123,1.0001952743986846,0.0004039921354302904
-0.45478631048754325,-0.45478631048754325,0.9999126105228415,0.0004123688144464727
-0.4546699541460839,-0.4546699541460839,1.000132999349167,0.00035003916739008716
-0.4544361723295879,-0.4544361723295879,1.0001074351925665,0.0003510013748295448
-0.45433921765798,-0.45433921765798,0.9997489470392458,0.0004179199097742518
-0.45413669929184836,-0.45413669929184836,1.0000446734823503,0.000432912111415431
-0.45380142559151865,-0.45380142559151865,0.9994532009262589,0.000406537431478365
