time,time,flux,flux_err
-0.4990424050047295,-0.4990424050047295,1.00010567768567,0.00018199730489309296
-0.49625444791066303,-0.49625444791066303,0.9999756607569547,0.00018747298523753836
-0.4933705953080789,-0.4933705953080789,1.0001582655560597,0.0001825167465661363
-0.4917170142895581,-0.4917170142895581,1.0003057751467495,0.00018239152607703007
-0.4899516759411199,-0.4899516759411199,0.9999384574351385,0.0001660256039316892
-0.4885529118095292,-0.4885529118095292,0.9999721905444314,0.0001706384504775805
-0.4856317421334097,-0.4856317421334097,0.9999801952365441,0.0001666919528254927
-0.4836548381194007,-0.4836548381194007,0.9999534291553474,0.00016652864703534307
-0.4824451668770052,-0.4824451668770052,1.0000359435416677,0.00016652578013183285
-0.48078599611471873,-0.48078599611471873,0.9997299147126505,0.00016609921911650205
-0.47907186011143493,-0.47907186011143493,1.0001010491708606,0.0001698337657893011
-0.47600102217402307,-0.47600102217402307,1.0001994135937586,0.00016664758139142165
-0.4742457971704425,-0.4742457971704425,0.9998319260914652,0.00016658903163060444
-0.4730086771538481,-0.4730086771538481,0.9999578079693807,0.00016653437304907517
-0.4713324455777183,-0.4713324455777183,1.0001121562053061,0.0001661220816401435
-0.4694423466891749,-0.4694423466891749,1.0000976033223172,0.00016920426388955428
-0.46715436757658607,-0.46715436757658607,0.9999793089933331,0.00016735649550295764
-0.465108885045629,-0.465108885045629,1.0001009523525508,0.00016665125255356576
-0.46381448171450756,-0.46381448171450756,1.0001957149047844,0.0001665621938541732
-0.4621575391938677,-0.4621575391938677,1.000083147540506,0.00016620993658619264
-0.46026997236185707,-0.46026997236185707,0.9997349768495619,0.0001687297788045426
-0.4576251854421571,-0.4576251854421571,0.9999822597275954,0.00016713783712530477
-0.45561790335341357,-0.45561790335341357,1.0000466919568063,0.00016658692035125908
-0.45430043058586306,-0.45430043058586306,0.9999993234412724,0.00016661681207484183
-0.4528947033919394,-0.4528947033919394,1.0000437719001458,0.00016620414307289181
-0.4510979416256305,-0.4510979416256305,1.0001170562218316,0.00016835084680020558
-0.4488526931934757,-0.4488526931934757,0.9997621975694273,0.0001670355225822676
-0.446766730688978,-0.446766730688978,1.0001552128055926,0.00016660715362229795
-0.44542708126246,-0.44542708126246,1.0000301051821134,0.00016654498751261687
-0.4438583610288333,-0.4438583610288333,0.9999881837515774,0.00016636043425906369
-0.44219376393884885,-0.44219376393884885,1.0000844116353265,0.00016796314209923706
-0.4396685325744329,-0.4396685325744329,1.0000057618213416,0.00016698535899473403
-0.43760362747125325,-0.43760362747125325,0.9999807968021217,0.00016663791983344116
-0.43641076066996903,-0.43641076066996903,1.000221864324275,0.00016642976675474471
-0.43500985505525025,-0.43500985505525025,1.0001460533849633,0.0001664507758804985
-0.433458108472405,-0.433458108472405,1.0001068730224894,0.0001676738223331518
-0.4309532769402722,-0.4309532769402722,1.0000066516216586,0.0001669248311784886
-0.4288317968312185,-0.4288317968312185,1.0006745730365154,0.00016669959338301332
-0.4273727674386464,-0.4273727674386464,1.0000594520124824,0.0001665422040637513
-0.4261606756306719,-0.4261606756306719,1.0001036223130704,0.00016647299878881026
-0.424888967606239,-0.424888967606239,1.0000159403819389,0.0001665511127432793
-0.42290424183011055,-0.42290424183011055,0.9997991906609067,0.0001675741573560616
-0.42008445504761766,-0.42008445504761766,0.9999647984941417,0.00016669679472895645
-0.41842041940253694,-0.41842041940253694,0.999977964422769,0.00016660449911938663
-0.41722321666602513,-0.41722321666602513,1.0003674840899353,0.00016669167624379903
-0.4160012671694858,-0.4160012671694858,1.000265399933017,0.00016634810453850527
-0.41380697840068026,-0.41380697840068026,0.9998347117474131,0.00016676785209469147
-0.4109183589724125,-0.4109183589724125,1.0001522121363586,0.00016666269876105475
-0.40890847804257646,-0.40890847804257646,1.0002236909235473,0.00016666908688304423
-0.40771918718819505,-0.40771918718819505,0.9999584557583029,0.00016642325703920252
-0.4065113967517391,-0.4065113967517391,0.9999813438003118,0.00016657791798894235
-0.40361916223482697,-0.40361916223482697,1.0000462559886933,0.00016673541521371762
-0.40081848789996,-0.40081848789996,0.9999881088612741,0.0001665791573812174
-0.3992001946317032,-0.3992001946317032,1.0000217469517758,0.00016658885184635415
-0.3978167375928024,-0.3978167375928024,1.000472943197471,0.00016654731414520802
-0.3959776137053268,-0.3959776137053268,1.0005468702094782,0.00016667151437895346
-0.39258757926872934,-0.39258757926872934,0.9998980584115621,0.00016663987106170714
-0.3905441509064985,-0.3905441509064985,0.9999223810529111,0.00016660439338336236
-0.38919588396383914,-0.38919588396383914,0.9998928171536032,0.00016651324074005308
-0.38813517494127153,-0.38813517494127153,0.9998979099099634,0.0001665298914852715
-0.38528550272458234,-0.38528550272458234,1.0001934399391477,0.0001667287470641905
-0.38227959953073876,-0.38227959953073876,0.9999404211496132,0.00016663972071162932
-0.38050949414027857,-0.38050949414027857,0.9999883191401342,0.00016658900166042814
-0.37944185473024844,-0.37944185473024844,1.0002840685094152,0.00016652718730040034
-0.37835686811595226,-0.37835686811595226,1.000112190333782,0.00016666804671511986
-0.37632495737343563,-0.37632495737343563,1.000280824108837,0.00017968467615406419
-0.37349242385535036,-0.37349242385535036,0.9997911248383179,0.0001666218456672143
-0.37161627736641095,-0.37161627736641095,1.0001148184727306,0.00016661999899128448
-0.37023102288949306,-0.37023102288949306,0.9998487063105636,0.00016652639269809286
-0.36879143516125623,-0.36879143516125623,0.9998795136756492,0.00016664696811280764
-0.36667923094937577,-0.36667923094937577,0.9999364977114269,0.00017492566752533184
-0.3637977998849237,-0.3637977998849237,1.000113166420507,0.00016667517092689636
-0.36215504847641566,-0.36215504847641566,1.0002402663258847,0.0001666352516149774
-0.3607856341812294,-0.3607856341812294,1.0001501040916139,0.00016648341871425626
-0.3592478167352965,-0.3592478167352965,1.000172261800587,0.00016599246841148986
-0.3575211415271042,-0.3575211415271042,1.0001732972808752,0.00017250556810160367
-0.35458311563706957,-0.35458311563706957,0.9998913707986519,0.00016672119653489957
-0.3526140787551412,-0.3526140787551412,0.9999534253883174,0.00016654048888105523
-0.35141111006087156,-0.35141111006087156,0.9996735816705129,0.0001664605503811555
-0.349715177618782,-0.349715177618782,0.9998177687525687,0.00016604317518417936
-0.3479079619777622,-0.3479079619777622,1.0002342367637158,0.0001709588392035547
-0.34477081723161973,-0.34477081723161973,0.9998400484866581,0.0001666697397666069
-0.3431855238974094,-0.3431855238974094,1.0002286419703736,0.00016660192941246038
-0.3419731283269357,-0.3419731283269357,1.0004863538091802,0.0001665704357839589
-0.3404612895043101,-0.3404612895043101,0.9999087744371398,0.00016602148284387366
-0.338835220693727,-0.338835220693727,1.0001580244648145,0.00017003134156629663
-0.33577114990039264,-0.33577114990039264,1.0000038044901582,0.00016665123315035251
-0.3340101228444837,-0.3340101228444837,0.999793740761912,0.0001666119557064572
-0.3327785097266315,-0.3327785097266315,0.9999291139031738,0.0001665485428471511
-0.33109677357133477,-0.33109677357133477,0.9998641025455755,0.00016611060059732455
-0.32920594250608703,-0.32920594250608703,1.000186999626884,0.00016937294619127517
-0.3265732670202851,-0.3265732670202851,0.9998079783284395,0.000167266995388634
-0.3248198154848069,-0.3248198154848069,1.0000540525822732,0.00016659613294580207
-0.3235842220223276,-0.3235842220223276,0.9999769448283831,0.00016650922829569806
-0.3219303208577912,-0.3219303208577912,1.0002275141519017,0.0001815042179408096
-0.3204922580625862,-0.3204922580625862,1.0000543101429842,0.00016889125185677963
-0.31817775616655125,-0.31817775616655125,0.9998868485539448,0.000167295608098953
-0.3161090161971515,-0.3161090161971515,0.9998445941065214,0.00016663349737675018
-0.3145976542902645,-0.3145976542902645,1.0000540471307924,0.00016647460861796083
-0.3131057018152205,-0.3131057018152205,0.9999801087738593,0.00016631493759461483
-0.31167834674124606,-0.31167834674124606,1.0002117434682813,0.00016835795743743242
-0.3093623559456319,-0.3093623559456319,1.0000925882731146,0.0001671711799014969
-0.3069371861027321,-0.3069371861027321,0.9997652766096948,0.0001666364538705254
-0.30539067400677594,-0.30539067400677594,1.0000256092586648,0.0001664693668417708
-0.3039385322743328,-0.3039385322743328,1.0000111571789199,0.00016634276377554632
-0.30242584117804655,-0.30242584117804655,1.000106908274774,0.00016806692226875336
-0.29990012939379085,-0.29990012939379085,1.0001449635737385,0.00016703981007706886
-0.29776579068857245,-0.29776579068857245,1.0000523618516364,0.00016665385605380136
-0.2963476401229855,-0.2963476401229855,1.0001350386857268,0.00016647619079450426
-0.2950866428174777,-0.2950866428174777,1.000048871904706,0.0001664448446961814
-0.2936158194264863,-0.2936158194264863,0.9999308623906755,0.00016758967097468388
-0.29127458996954375,-0.29127458996954375,0.9998726518525036,0.0001669886494067665
-0.28895353868138046,-0.28895353868138046,1.0002026207818449,0.00016662759329769228
-0.2873734601715114,-0.2873734601715114,1.000105689434496,0.00016661504546484148
-0.2864267138589639,-0.2864267138589639,0.999949865923283,0.00016663857892563103
-0.28510208036750556,-0.28510208036750556,1.0000766964518992,0.00016638219990058488
-0.2835566488240147,-0.2835566488240147,1.0001199279114834,0.00016748461057475108
-0.2810678450623527,-0.2810678450623527,0.9999279658745056,0.0001668259286467216
-0.2790236241824459,-0.2790236241824459,0.9999681644361476,0.00016662113280164055
-0.2777850283047883,-0.2777850283047883,1.0000370803597798,0.00016662362987161496
-0.27642596132936886,-0.27642596132936886,0.9998898006333741,0.00016634076464383716
-0.2751616628025658,-0.2751616628025658,1.0001577393381154,0.00016728942777014742
-0.2729203518509166,-0.2729203518509166,0.9996402649085538,0.00016680533723342124
-0.270188385315123,-0.270188385315123,1.000043475922832,0.00016656858738781959
-0.26849899587687104,-0.26849899587687104,0.9998623731560196,0.00016660499288775708
-0.26716785531898496,-0.26716785531898496,1.0000556572949317,0.00016645590748312554
-0.265927366487449,-0.265927366487449,1.0000961137386546,0.0001666438681944609
-0.2627715348644415,-0.2627715348644415,1.000052903581599,0.00016666817255190438
-0.26019283198111226,-0.26019283198111226,0.9997860774915566,0.00016658889334194375
-0.25863084134471137,-0.25863084134471137,0.9999004963481394,0.00016665497791854732
-0.25738467820337974,-0.25738467820337974,1.0001180381986223,0.00016642097830582065
-0.25495718858146577,-0.25495718858146577,1.0002425284850995,0.00016672153929192814
-0.25184841263398994,-0.25184841263398994,1.0002076584355215,0.00016660784501901495
-0.25010184409911745,-0.25010184409911745,1.000310055623211,0.00016660480254503126
-0.24858722515346016,-0.24858722515346016,1.0000529260900177,0.00016662276679003056
-0.24708758346096146,-0.24708758346096146,1.000077103539447,0.00016658354406731945
-0.24379298754502088,-0.24379298754502088,0.9999270918070657,0.00016664575023850404
-0.2411286571295932,-0.2411286571295932,0.9999691470938235,0.00016661519646909173
-0.2397830744390376,-0.2397830744390376,1.0001697906259754,0.00016652335382609632
-0.2387154207099229,-0.2387154207099229,1.0000906170700632,0.00016658929294825688
-0.23695714657369535,-0.23695714657369535,0.9999534200344229,0.00016668829469298232
-0.2338143583998317,-0.2338143583998317,0.9999620023260082,0.00016667972698524884
-0.23141015556175262,-0.23141015556175262,0.9998012303014567,0.000166522191733218
-0.2300032848812407,-0.2300032848812407,0.999981486243333,0.00016657175414550273
-0.22855804845457897,-0.22855804845457897,0.9998640753337658,0.00016661557721706947
-0.226438732346287,-0.226438732346287,1.0001042494848398,0.00017596884722575345
-0.2235710650042165,-0.2235710650042165,1.0000210779753467,0.00016670358385422355
-0.22191986649122555,-0.22191986649122555,1.0000880713988498,0.0001666262330556458
-0.22056076954468154,-0.22056076954468154,1.0000407416279642,0.00016647186773504792
-0.21897676215448883,-0.21897676215448883,0.9998974164300636,0.00016670655160136623
-0.2168266804452287,-0.2168266804452287,1.0001278610067144,0.00017304534144451858
-0.21386718325375115,-0.21386718325375115,1.0000950162909514,0.00016668873812030938
-0.21270837615593335,-0.21270837615593335,0.9997782210324703,0.0001664761792917049
-0.211347912272322,-0.211347912272322,0.9999656538011286,0.00016643882120355119
-0.20984189890732524,-0.20984189890732524,0.9999480435705237,0.00016600085899244932
-0.20812265727145132,-0.20812265727145132,1.0000152179986928,0.00017138602937340783
-0.2051656017487403,-0.2051656017487403,1.0000477580364209,0.000166717661148631
-0.20319219601515215,-0.20319219601515215,1.0003653329755597,0.00016653004576413163
-0.20198551919020247,-0.20198551919020247,0.999894823115063,0.00016651788753957404
-0.20030919248238205,-0.20030919248238205,1.0000639179385247,0.00016604991053691297
-0.19873333752620964,-0.19873333752620964,1.0000545384522082,0.00018796361786514124
-0.1965491633862257,-0.1965491633862257,0.999894561655607,0.00016658196168198262
-0.19439094336994459,-0.19439094336994459,0.9999017564342456,0.00016657427555944577
-0.19293183862173463,-0.19293183862173463,1.0000432668571289,0.00016652921376134638
-0.19151668811682612,-0.19151668811682612,1.0001629250188242,0.0001661396392489248
-0.19017069838009776,-0.19017069838009776,1.000030484716098,0.00016952700438146567
-0.1876579182833666,-0.1876579182833666,0.9998531256179118,0.0001665921870108889
-0.18521547428390478,-0.18521547428390478,1.000092235746185,0.00016660702908529633
-0.18373985006473958,-0.18373985006473958,1.0000228467945105,0.00016655330250478126
-0.18233760994626208,-0.18233760994626208,1.0000761862376417,0.00016622146791020687
-0.18062357687449548,-0.18062357687449548,1.0003126534838276,0.00016894846611312727
-0.17850282238796353,-0.17850282238796353,1.000026433960177,0.00016730304058436255
-0.1762615785235539,-0.1762615785235539,1.0000428411780473,0.00016665153424705868
-0.1745481889724033,-0.1745481889724033,0.9999405981616031,0.0001665129863988818
-0.17317769448272885,-0.17317769448272885,1.0001050559983766,0.00016625959771271044
-0.1718037204205757,-0.1718037204205757,1.0000349262454715,0.0001685089571306347
-0.16972996907425114,-0.16972996907425114,1.0003866277905555,0.0001671652438403707
-0.16708537619851996,-0.16708537619851996,1.0000917840525514,0.00016662346305831892
-0.16535686457937118,-0.16535686457937118,1.00014205441671,0.00016654437787838513
-0.16401043464138637,-0.16401043464138637,1.0001794372923325,0.0001663813680126901
-0.1625985334685538,-0.1625985334685538,0.9998987041724401,0.00016805140905135895
-0.16081702655064872,-0.16081702655064872,0.9996540922923038,0.00016695989445204796
-0.15819001775817015,-0.15819001775817015,0.9999524229740848,0.00016664084809262279
-0.1564776891376823,-0.1564776891376823,1.0003132043309546,0.00016670718480915622
-0.15511513661185744,-0.15511513661185744,0.999984805714121,0.00016639468085043592
-0.15374335793603677,-0.15374335793603677,0.9999695225875508,0.000166618739097553
-0.15164612290682272,-0.15164612290682272,1.0000123148268476,0.00016807553472133961
-0.14901433306513354,-0.14901433306513354,0.9999914958727499,0.00016662473167563253
-0.14736953936808278,-0.14736953936808278,0.9999700773915162,0.0001667131029389513
-0.14648669885064008,-0.14648669885064008,0.9999999817955025,0.00016652977788214992
-0.1450346998288296,-0.1450346998288296,1.0002248586223508,0.00016643015384947563
-0.14333921417128295,-0.14333921417128295,0.9996928726919408,0.00016755238602126602
-0.14083456097287125,-0.14083456097287125,1.0000011169587864,0.00016685274803732237
-0.1387868660123786,-0.1387868660123786,0.9998671505224624,0.00016663272882663663
-0.1375525052048033,-0.1375525052048033,0.9998772166410038,0.00016659717106138515
-0.1361932768195402,-0.1361932768195402,1.0003237215906768,0.00016634015785844193
-0.13493007366487292,-0.13493007366487292,0.9999698222476454,0.00016729276255731762
-0.13268515834060962,-0.13268515834060962,1.0003443871876712,0.00016690631320694365
-0.1300431731797289,-0.1300431731797289,0.9998086584206405,0.00016662802919326943
-0.1284414013818605,-0.1284414013818605,0.9998825395428621,0.0001666183585658987
-0.12700780981685966,-0.12700780981685966,1.0000559437618866,0.00016635872236980568
-0.1256921845226316,-0.1256921845226316,0.9999515330593705,0.00016663145451522107
-0.12252908532682341,-0.12252908532682341,1.000089599286777,0.000166633633723125
-0.11996050262532662,-0.11996050262532662,1.0000051997953157,0.00016661897082718516
-0.11848915889277123,-0.11848915889277123,1.0000948251099704,0.00016664504794931362
-0.11734300495008938,-0.11734300495008938,0.9999933067298155,0.00016646775516918343
-0.11550420691492036,-0.11550420691492036,1.000013661521113,0.00016663549605370288
-0.11211046547687147,-0.11211046547687147,0.9999523239141388,0.00016662186064561604
-0.11007667644298635,-0.11007667644298635,0.9998713934862524,0.00016662727699814786
-0.10865279803110753,-0.10865279803110753,0.9998210299624175,0.0001665360090038454
-0.10732425875612535,-0.10732425875612535,1.0000100246293584,0.000166545454943344
-0.10422696424648166,-0.10422696424648166,1.0001947857386633,0.00016665486352938653
-0.10158747582463548,-0.10158747582463548,1.0000270507252382,0.00016660143151832053
-0.10003963290364482,-0.10003963290364482,1.000167414132078,0.00016664381985111116
-0.09889387528819497,-0.09889387528819497,1.0000133134321139,0.0001665152030550457
-0.09727862518338952,-0.09727862518338952,1.0000610784991586,0.00016662211218499806
-0.09440401463652962,-0.09440401463652962,0.9998423422724146,0.00016665626464072643
-0.09171334322018083,-0.09171334322018083,0.9999719888462136,0.00016664333090482452
-0.0903704690077575,-0.0903704690077575,0.9999401991820829,0.00016652586840842156
-0.08948470520845149,-0.08948470520845149,1.0000282012736843,0.00016652568030583345
-0.08791802584892139,-0.08791802584892139,1.0000798259904924,0.0001667411047676914
-0.0857458128768485,-0.0857458128768485,1.000003755288225,0.00017718653474340295
-0.08283099451218731,-0.08283099451218731,0.99997700406091,0.00016675468875009919
-0.08134296861535403,-0.08134296861535403,0.9999159740146013,0.0001665018283636851
-0.08014799156226218,-0.08014799156226218,0.9999757103128909,0.0001664987366974273
-0.0783719742525136,-0.0783719742525136,0.999977234137431,0.00016672208141020085
-0.07595167333784048,-0.07595167333784048,0.9999942190029902,0.00017374486969473022
-0.07322312185715418,-0.07322312185715418,1.0000502357578671,0.00016663767002027616
-0.071890571367112,-0.071890571367112,0.9998644672840673,0.00016656861057530122
-0.07070818342617713,-0.07070818342617713,1.0000121809285536,0.0001665934036141861
-0.06897718288237228,-0.06897718288237228,1.0001439814535353,0.00016592923597120912
-0.06678315356839448,-0.06678315356839448,0.9999173098262922,0.00017177518995048578
-0.0638530042138882,-0.0638530042138882,1.0002422284702568,0.00016663832860330053
-0.06247884396580048,-0.06247884396580048,0.9998560998826254,0.00016658278526067246
-0.061151472461642695,-0.061151472461642695,1.0003263764755659,0.00016665703930567234
-0.05945778701279778,-0.05945778701279778,1.0003331301030436,0.00016987436812970836
-0.05693111439468339,-0.05693111439468339,0.9999539816793538,0.00016665195254534498
-0.05443865164706949,-0.05443865164706949,1.0003793012542253,0.00016655975805511964
-0.05296618498687167,-0.05296618498687167,0.9997145381092964,0.000166544443056277
-0.05162628948455676,-0.05162628948455676,1.0002145311635917,0.0001661007184226478
-0.04993749385175761,-0.04993749385175761,1.000027041407113,0.00016973042040970042
