time,time,flux,flux_err
-0.4996922410379436,-0.4996922410379436,0.9999734644159228,0.00010059188094774048
-0.49901813251077937,-0.49901813251077937,1.000056662206337,0.00010100913412970178
-0.49762952298260643,-0.49762952298260643,1.0000799851198376,0.00010066674779539936
-0.496654590498656,-0.496654590498656,0.9999372192766061,9.206530184373982e-05
-0.4959910171892261,-0.4959910171892261,0.9999564738259806,9.215411221413973e-05
-0.49522236826305743,-0.49522236826305743,1.0000932094470592,9.196557006550988e-05
-0.4942344660477829,-0.4942344660477829,1.0000152752136766,9.164833572917886e-05
-0.4935363954209606,-0.4935363954209606,1.0000799710465733,9.212796384606541e-05
-0.49252698996861,-0.49252698996861,1.000106579938326,9.183392816455819e-05
-0.4912606469995808,-0.4912606469995808,0.9998606136404373,9.189798016500585e-05
-0.4899387943019974,-0.4899387943019974,1.0001197172963932,9.176605556254617e-05
-0.48911843074893113,-0.48911843074893113,0.9999937010789601,9.2232373834372e-05
-0.48766029597754823,-0.48766029597754823,0.999839610075972,9.180982832892337e-05
-0.48641789703979155,-0.48641789703979155,0.9999283485135548,9.183122310687893e-05
-0.4855552217515651,-0.4855552217515651,1.0001085012641857,9.165047675665701e-05
-0.4844825209118426,-0.4844825209118426,1.0000153554058673,9.171578486416156e-05
-0.48369126522302397,-0.48369126522302397,1.0001295817537554,9.199150177958008e-05
-0.4833455285275704,-0.4833455285275704,0.9998061361220341,9.215724499543921e-05
-0.4826490713690873,-0.4826490713690873,1.0001237339153854,9.174190630367986e-05
-0.4816616814627196,-0.4816616814627196,1.0000860846655428,9.189073044041944e-05
-0.4806201328348834,-0.4806201328348834,0.9999857518892528,9.216907225011762e-05
-0.4801949317596154,-0.4801949317596154,0.9999417878386968,9.180013091465914e-05
-0.47976287473284174,-0.47976287473284174,0.9998599644148888,9.204702493288609e-05
-0.47886018493736626,-0.47886018493736626,1.0000616171459407,9.203365874211666e-05
-0.4778020959260175,-0.4778020959260175,1.0000457565337384,9.176818678289649e-05
-0.4770555231589242,-0.4770555231589242,1.0000510015796455,9.198934338501361e-05
-0.4762696289821179,-0.4762696289821179,1.000032456105212,9.196584958014052e-05
-0.47549334389623255,-0.47549334389623255,1.00013951971719,9.174261001759864e-05
-0.4746351957292063,-0.4746351957292063,0.9999584197997888,9.178114865313296e-05
-0.47386520131694854,-0.47386520131694854,0.999944793737099,9.198598195872285e-05
-0.47261023438186384,-0.47261023438186384,1.0000812761020126,9.181627081083704e-05
-0.47123641719372245,-0.47123641719372245,1.0000665226676806,9.17435739895489e-05
-0.4703292057980434,-0.4703292057980434,1.0000870077600712,9.17543074968215e-05
-0.4694741388739203,-0.4694741388739203,1.000031545452254,9.240512657697505e-05
-0.46843393576418746,-0.46843393576418746,0.9999364905360263,9.190946562516319e-05
-0.4669772861961974,-0.4669772861961974,1.0000979368537206,9.183375711254059e-05
-0.4659968774882145,-0.4659968774882145,1.0001912015634253,9.165290801806534e-05
-0.46478801987541374,-0.46478801987541374,0.9998696268490359,9.19683554236543e-05
-0.4642016466721543,-0.4642016466721543,1.0000724735832616,9.184118938725264e-05
-0.46353419535880674,-0.46353419535880674,0.999893760785336,9.215468665995758e-05
-0.46241023773618506,-0.46241023773618506,0.9999746436515947,9.18811732407739e-05
-0.4613160786102526,-0.4613160786102526,0.9999686941054545,9.208428350717865e-05
-0.4608403389909654,-0.4608403389909654,0.9999807251255668,9.18869635626184e-05
-0.46055966657586395,-0.46055966657586395,0.999958482735458,9.182183942096026e-05
-0.4595259731009719,-0.4595259731009719,0.9998908359574605,9.214831857094369e-05
-0.45859003334626325,-0.45859003334626325,1.0000102827399444,9.181758977780258e-05
-0.4577425195311662,-0.4577425195311662,1.0000568231387337,9.20728329469775e-05
-0.4569617315515643,-0.4569617315515643,0.9999910065025748,9.181992566978617e-05
-0.4561246455676155,-0.4561246455676155,0.999869214657838,9.187145472072122e-05
-0.4550514489543275,-0.4550514489543275,0.9999640793548259,9.193134814104155e-05
-0.45415300752501936,-0.45415300752501936,1.0000672590097643,9.183628130841823e-05
-0.45296624880720626,-0.45296624880720626,1.0000892836995399,9.189405662373e-05
-0.45177818754746113,-0.45177818754746113,0.9998902391866243,9.174804921119343e-05
-0.4511301607679343,-0.4511301607679343,0.9999498724834701,9.193575789355363e-05
-0.4502910129769589,-0.4502910129769589,1.0000257281142084,9.200443652772764e-05
-0.4491845829223166,-0.4491845829223166,1.000185559440212,9.182774261143411e-05
-0.4477747715529404,-0.4477747715529404,0.9999473733458585,9.183564652732719e-05
-0.44686658624268605,-0.44686658624268605,1.0000694129004268,9.18826319164949e-05
-0.44589148931409,-0.44589148931409,0.9999538598595296,9.17509945332212e-05
-0.4450562127822195,-0.4450562127822195,1.00018398001259,9.187406437853993e-05
-0.4447430966698448,-0.4447430966698448,1.0000255965475626,9.183521550206215e-05
-0.4441661179240327,-0.4441661179240327,1.0000790990739248,9.218114272322728e-05
-0.4433288182990509,-0.4433288182990509,0.9999101368720741,9.241211595788943e-05
-0.442185012131813,-0.442185012131813,1.0001558259510506,9.20108596776874e-05
-0.4415553960468969,-0.4415553960468969,1.0000843698033848,9.188365290825394e-05
-0.4411708680447191,-0.4411708680447191,0.9997740451617194,9.192385671030027e-05
-0.4405485334529658,-0.4405485334529658,0.9999116421783529,9.212248220640882e-05
-0.4392735580084263,-0.4392735580084263,0.9998928912497146,9.200782222879796e-05
-0.4384758781379787,-0.4384758781379787,0.9999901958067173,9.187880612789643e-05
-0.43784439864684827,-0.43784439864684827,0.9999268762336289,9.199339773792179e-05
-0.4370392721830285,-0.4370392721830285,0.9999358930455102,9.194229194595886e-05
-0.43610393966955596,-0.43610393966955596,0.9998617607584386,9.19320783049274e-05
-0.4354482422451838,-0.4354482422451838,0.9999340901271191,9.201363418196225e-05
-0.4346689537676866,-0.4346689537676866,0.9998195435947803,9.314477231396015e-05
-0.433623511789483,-0.433623511789483,1.0000390571242745,9.192919012652715e-05
-0.43272057374269934,-0.43272057374269934,1.0002517965929947,9.191959881119542e-05
-0.431914536106342,-0.431914536106342,0.9999938154660442,9.183945770481033e-05
-0.43138248986215333,-0.43138248986215333,0.9999854321853121,9.174678746540582e-05
-0.43025610871700337,-0.43025610871700337,0.9998367465550609,9.194029209999455e-05
-0.4295381415693555,-0.4295381415693555,0.999948013572204,9.19044836011559e-05
-0.4286739998104167,-0.4286739998104167,0.9999914392828811,9.182425961023916e-05
-0.42789899350027555,-0.42789899350027555,1.0000663065879056,9.18418396430002e-05
-0.42708381230331727,-0.42708381230331727,1.0000528266657234,9.180632305500628e-05
-0.42633684928150617,-0.42633684928150617,0.99989939857197,9.172964191539295e-05
-0.4256000363791827,-0.4256000363791827,0.9999840295623196,9.186766333054335e-05
-0.4253026758291526,-0.4253026758291526,0.9998361241512098,9.190275593772541e-05
-0.425048786852858,-0.425048786852858,1.0000651220697456,9.205286035079819e-05
-0.4243421399572981,-0.4243421399572981,1.000003586074783,9.18861742499481e-05
-0.4235245993404533,-0.4235245993404533,0.999960863607137,9.179764174213018e-05
-0.42257077572576235,-0.42257077572576235,0.9998503896204614,9.198908941037928e-05
-0.4221042390083312,-0.4221042390083312,1.0001058031851606,9.188388428639543e-05
-0.42170617610390765,-0.42170617610390765,0.9998620401972034,9.201737064319319e-05
-0.42116446463187457,-0.42116446463187457,1.0000215575528224,9.363265855646613e-05
-0.4201407635686337,-0.4201407635686337,0.9999174045614339,9.200167692215277e-05
-0.4190186856736545,-0.4190186856736545,1.0001072052052284,9.189315300813554e-05
-0.41859255120507444,-0.41859255120507444,0.9998805047790139,9.198419159227784e-05
-0.4181517869641539,-0.4181517869641539,0.9997751700204052,9.182211409574673e-05
-0.41742495204816804,-0.41742495204816804,1.00000950672804,9.195793571522063e-05
-0.4163936406446737,-0.4163936406446737,1.0000378649096833,9.185152512531027e-05
-0.4159054498959449,-0.4159054498959449,0.9999000067605571,9.209028070815593e-05
-0.414824500613031,-0.414824500613031,1.0000166653300266,9.198637176002348e-05
-0.41405892750335627,-0.41405892750335627,1.000036226723259,9.197973746459123e-05
-0.4131030508695403,-0.4131030508695403,1.0000525200519932,9.191023316835567e-05
-0.4126248893488082,-0.4126248893488082,0.9999921287669601,9.17671696191723e-05
-0.41215224397019484,-0.41215224397019484,1.0001346664553643,9.208026990940724e-05
-0.4116105411056196,-0.4116105411056196,0.9999641171729456,9.172119082768403e-05
-0.41077834729803725,-0.41077834729803725,1.0002400392954662,9.213080749674353e-05
-0.41017856127145935,-0.41017856127145935,1.0001483827807751,9.172671281200991e-05
-0.4094744031855953,-0.4094744031855953,1.0000223838189721,9.191407840817095e-05
-0.40851885083684464,-0.40851885083684464,0.9999120793282217,9.191758193110458e-05
-0.408286207501078,-0.408286207501078,0.9999261526794052,9.190800525769535e-05
-0.4074270501427236,-0.4074270501427236,1.0000471040899004,9.180732940584601e-05
-0.40669448836852096,-0.40669448836852096,1.0000353590803606,9.199106815307862e-05
-0.4061438744349289,-0.4061438744349289,1.0000006854757384,9.186596473277201e-05
-0.40584780938079346,-0.40584780938079346,0.9999973033546949,9.191051172472959e-05
-0.40540865632501666,-0.40540865632501666,1.0001162992570847,9.218096780301504e-05
-0.404695505577547,-0.404695505577547,0.9998676753507614,9.181087396591131e-05
-0.4040049227405689,-0.4040049227405689,0.9999603237552632,9.17915081225667e-05
-0.4032590150905889,-0.4032590150905889,1.000122472171824,9.370682041331126e-05
-0.4027367802249501,-0.4027367802249501,1.0000632724651477,9.205877278893338e-05
-0.40235140571749073,-0.40235140571749073,0.9999345953759983,9.19275469164738e-05
-0.4019518746368703,-0.4019518746368703,0.9998546966235722,9.192259175343177e-05
-0.4013327657696209,-0.4013327657696209,0.9999853992738486,9.344963756545088e-05
-0.400339471224288,-0.400339471224288,0.9999680700179324,9.212326877695211e-05
-0.39945226713170995,-0.39945226713170995,1.0000555779633058,9.192580930706104e-05
-0.39899148807744494,-0.39899148807744494,1.0000407465608288,9.188244559633208e-05
-0.39833577468525616,-0.39833577468525616,1.000079353296929,9.19599878078088e-05
-0.39729358040203805,-0.39729358040203805,1.0000383804918513,9.184538441103204e-05
-0.39645475574216105,-0.39645475574216105,0.9999042557660898,9.207919014542395e-05
-0.39543416666710984,-0.39543416666710984,0.9998863916788331,9.206131796304363e-05
-0.394812952108623,-0.394812952108623,1.0000999373828738,9.193892965734885e-05
-0.3943169192658388,-0.3943169192658388,1.0000224732098704,9.19869989647903e-05
-0.39318362279300345,-0.39318362279300345,1.0000246559152206,9.17474287041316e-05
-0.3926141359959729,-0.3926141359959729,0.9999671474791363,9.193697493830704e-05
-0.39199605674657506,-0.39199605674657506,0.999952342664152,9.180942235119803e-05
-0.391165660713159,-0.391165660713159,1.0001447029428436,9.203808964599853e-05
-0.39060677357920215,-0.39060677357920215,0.9999891891222159,9.179628175391417e-05
-0.39018039478105493,-0.39018039478105493,0.9999863325529368,9.270968517150955e-05
-0.3893282336575794,-0.3893282336575794,0.9998588388853559,9.181151581398485e-05
-0.3889703999273479,-0.3889703999273479,0.9999829872649825,9.331387561136646e-05
-0.3885249918050249,-0.3885249918050249,0.9998685207573678,9.188581483639063e-05
-0.3877415362818283,-0.3877415362818283,0.9999737436559315,9.390695681643104e-05
-0.38715765567321797,-0.38715765567321797,0.999998556845495,9.189035251795546e-05
-0.38663685317878843,-0.38663685317878843,0.9999129335802663,9.195092129447628e-05
-0.38638044616382106,-0.38638044616382106,1.000115887236015,9.21068113386684e-05
-0.3856771257662331,-0.3856771257662331,1.0000453455869465,9.17102359146378e-05
-0.38497378315369135,-0.38497378315369135,1.0000262309219472,9.188370131590219e-05
-0.3839852565855836,-0.3839852565855836,1.0000751247745225,9.191066443493766e-05
-0.38334821693133564,-0.38334821693133564,1.0000342559527,9.198518203323483e-05
-0.38293103230389536,-0.38293103230389536,0.9999616010559297,9.200189197503886e-05
-0.382492033316521,-0.382492033316521,0.9998751271233083,9.191749621061056e-05
-0.3814841980463825,-0.3814841980463825,1.0000159078453712,9.349519519072336e-05
-0.38057938369893235,-0.38057938369893235,1.0000209001100075,9.207042805954406e-05
-0.3799486631862237,-0.3799486631862237,0.9999944151591749,9.207334471128837e-05
-0.3793199315754464,-0.3793199315754464,0.999982614670763,9.173592596409705e-05
-0.37834304225834786,-0.37834304225834786,0.9997913432878548,9.180020643994978e-05
-0.3773431817855453,-0.3773431817855453,0.9999969759201246,9.198797579976193e-05
-0.37683477191312703,-0.37683477191312703,0.9998995934511645,9.180009809404238e-05
-0.37582216662412976,-0.37582216662412976,1.0000057446892008,9.19398549016458e-05
-0.375273126277898,-0.375273126277898,0.9999805509694916,9.173862017835349e-05
-0.3745786263709306,-0.3745786263709306,1.00005087214281,9.19927889589106e-05
-0.3735811506106984,-0.3735811506106984,0.9999205554243581,9.18228002913108e-05
-0.3728793807065813,-0.3728793807065813,0.9998759929600899,9.179914281275735e-05
-0.37178631863789635,-0.37178631863789635,1.0000511683655402,9.201846188733381e-05
-0.37105312501080334,-0.37105312501080334,1.000035560776706,9.179839122751641e-05
-0.37052863396238533,-0.37052863396238533,1.000062342045527,9.174271898012232e-05
-0.36980563842516856,-0.36980563842516856,1.000095808330185,9.200362371895762e-05
-0.3694779152647243,-0.3694779152647243,0.9999844853311111,9.181905648177746e-05
-0.368772299408738,-0.368772299408738,1.0001028816982784,9.200999355664973e-05
-0.36835344397113656,-0.36835344397113656,0.9998982145728854,9.164860857617744e-05
-0.36793771394877695,-0.36793771394877695,1.0000880398247527,9.629125563278221e-05
-0.36734013968816726,-0.36734013968816726,0.9999944126487605,9.179658407617442e-05
-0.3670219140665722,-0.3670219140665722,0.9999412237791111,9.205336474123654e-05
-0.3666619932206231,-0.3666619932206231,1.0000202093414572,9.184228505068082e-05
-0.36568549462390365,-0.36568549462390365,0.9998691465398535,9.175857426137262e-05
-0.36445467956800714,-0.36445467956800714,0.9998647180690803,9.195592548436029e-05
-0.3639275858266046,-0.3639275858266046,0.9999858806464103,9.270590981984536e-05
-0.3635625103081111,-0.3635625103081111,0.9999723150434404,9.18831878198464e-05
-0.3631604956681258,-0.3631604956681258,0.9999350356212604,9.209743596904354e-05
-0.36244891416718017,-0.36244891416718017,0.9999587241700365,9.346002808153305e-05
-0.3615575000352692,-0.3615575000352692,1.0001173428746042,9.224716329806966e-05
-0.36088915505679325,-0.36088915505679325,1.0000913234768984,9.427934571757621e-05
-0.36023759476520356,-0.36023759476520356,0.9998743684147507,9.197973518819328e-05
-0.3593716669362038,-0.3593716669362038,0.999880257981918,9.188112950041343e-05
-0.3583781000532326,-0.3583781000532326,1.0000764916683473,9.184829819648121e-05
-0.3575778351252666,-0.3575778351252666,1.0000419757579246,9.203230692213089e-05
-0.35715273863606856,-0.35715273863606856,0.9998249366425078,9.16775765598794e-05
-0.3561532767707831,-0.3561532767707831,0.9999715998409238,9.192991389701372e-05
-0.35573788435867754,-0.35573788435867754,0.9998681576480308,9.180860725469114e-05
-0.3550426608097041,-0.3550426608097041,0.9999642436513071,9.205904813735664e-05
-0.3542600005312124,-0.3542600005312124,1.0000078181757106,9.166333748467782e-05
-0.35376165327761555,-0.35376165327761555,1.000027540255763,9.190921555880734e-05
-0.35257569706591313,-0.35257569706591313,1.0000263392840618,9.193998995182844e-05
-0.35172850508679404,-0.35172850508679404,0.9999807578294903,9.18614791254403e-05
-0.3513171629543649,-0.3513171629543649,0.9999558596923686,9.183194287978129e-05
-0.3505353078144253,-0.3505353078144253,1.000072115374706,9.173324869973698e-05
-0.35007028516265565,-0.35007028516265565,0.9999409141468885,9.175095764091406e-05
-0.3494838290687767,-0.3494838290687767,1.0000440570990885,9.20029395512219e-05
-0.348847717573517,-0.348847717573517,1.0000099192482528,9.165932092044397e-05
-0.3484278891977738,-0.3484278891977738,1.0000236901379917,9.383503637248201e-05
-0.3479092205845518,-0.3479092205845518,0.9998416160573095,9.178611868617218e-05
-0.34761465118790513,-0.34761465118790513,0.999850340678184,9.196675391030825e-05
-0.3472364703178755,-0.3472364703178755,1.0001313437790647,9.191651359924211e-05
-0.3462254792742897,-0.3462254792742897,1.000106195012871,9.177061157401787e-05
-0.34527002940449164,-0.34527002940449164,1.000033187759977,9.20300359825532e-05
-0.3445110721702804,-0.3445110721702804,1.0000677205319897,9.256069723770634e-05
-0.34411188891826894,-0.34411188891826894,1.0000201424588688,9.18876537032854e-05
-0.3436244734984939,-0.3436244734984939,1.0000497137191164,9.18308585143848e-05
-0.34269669489149235,-0.34269669489149235,0.9999250471947093,9.3350050011217e-05
-0.3419208454390173,-0.3419208454390173,0.9999628294682777,9.192131190346282e-05
-0.3411577445061994,-0.3411577445061994,1.0000420319089354,9.204056214974394e-05
-0.3406000815113657,-0.3406000815113657,1.0000535527952787,9.193570163603221e-05
-0.33968860134045825,-0.33968860134045825,1.0000538008192128,9.190067167014147e-05
-0.33841047002351843,-0.33841047002351843,0.9999989308507942,9.194460192571466e-05
-0.33778587515844266,-0.33778587515844266,0.9998323674335383,9.174605632717029e-05
-0.3369129926082678,-0.3369129926082678,0.9999294122752455,9.193569596894936e-05
-0.3363381838964415,-0.3363381838964415,1.000093882435501,9.181566079786036e-05
-0.3354930521105416,-0.3354930521105416,0.9998970692420832,9.19053685419741e-05
-0.3346770237520104,-0.3346770237520104,1.0001574476817896,9.167459895911435e-05
-0.333787496543664,-0.333787496543664,0.9999092390148785,9.181416531726643e-05
-0.3325281457742676,-0.3325281457742676,0.999887402737657,9.183499312081135e-05
-0.3320487072618562,-0.3320487072618562,1.0000121785826068,9.234256861184999e-05
-0.33161424551653906,-0.33161424551653906,0.9999229955620891,9.173813111091478e-05
-0.33089317234116605,-0.33089317234116605,1.000110915823941,9.182914073944278e-05
-0.33055052779673133,-0.33055052779673133,0.9998335711882522,9.164661359237963e-05
-0.32980735390592597,-0.32980735390592597,1.0000138447567604,9.180720485987639e-05
-0.32928353704774055,-0.32928353704774055,0.9999548450506202,9.353741143263114e-05
-0.32867494376259854,-0.32867494376259854,0.9998329984988283,9.179058058595332e-05
-0.32826465824764456,-0.32826465824764456,1.000102233635292,9.183556381861487e-05
-0.32807169920270096,-0.32807169920270096,1.0001268755757553,9.187182383007586e-05
-0.32735208785597936,-0.32735208785597936,0.9999738402228727,9.191102526844488e-05
-0.32663419081654865,-0.32663419081654865,1.0000326717908072,9.189796853803515e-05
-0.325286674965173,-0.325286674965173,1.00003526575694,9.198323518718187e-05
-0.3246612749891938,-0.3246612749891938,0.9998422392851749,9.187647801979703e-05
-0.3237759175957763,-0.3237759175957763,1.0001449098629767,9.193183665503299e-05
-0.3225370052619837,-0.3225370052619837,0.9998765656960217,9.20381703228004e-05
-0.3217647018682328,-0.3217647018682328,1.0000371532208976,9.188516334695545e-05
-0.32108091701957164,-0.32108091701957164,1.0000049553316679,9.193610247588613e-05
-0.3204473578502075,-0.3204473578502075,0.9999419780318878,9.188713967677867e-05
-0.31942241654614917,-0.31942241654614917,0.9999712644534757,9.175879236373593e-05
-0.3184387244968093,-0.3184387244968093,0.9999815204597328,9.186288817065537e-05
-0.31743484235630604,-0.31743484235630604,1.0000582143291772,9.185436127408193e-05
-0.3167470858170418,-0.3167470858170418,1.0001022296492457,9.190493785488756e-05
-0.31582421332859667,-0.31582421332859667,1.0000523270501724,9.1651836751964e-05
-0.31521459662762935,-0.31521459662762935,1.000037692636489,9.17433011107734e-05
