time,time,flux,flux_err
-0.14410381619228516,-0.14410381619228516,0.9999928570255979,0.00021750657786741122
-0.14405033178636528,-0.14405033178636528,0.9999471006390122,0.00019923213467654176
-0.14400170959170996,-0.14400170959170996,0.9999888041686132,0.00019995842809247951
-0.14395308739034793,-0.14395308739034793,1.000105794664259,0.0002005704015841085
-0.14390446518255015,-0.14390446518255015,1.0001082489328117,0.00020111097660193526
-0.1438558429685827,-0.1438558429685827,0.9996979791259486,0.0002017162955039915
-0.14380722074871258,-0.14380722074871258,1.000230925657491,0.0002024481132580485
-0.1437585985231987,-0.1437585985231987,0.9996402433005288,0.0002030852578595423
-0.14370997629229385,-0.14370997629229385,1.0000507996521903,0.00020362139755652998
-0.14366135405624303,-0.14366135405624303,1.0000346049147533,0.0002038849536729772
-0.14361273181527992,-0.14361273181527992,0.9998835962631688,0.000203981781235683
-0.14356410956963989,-0.14356410956963989,1.000017790975281,0.00020421091725785225
-0.14351548731954158,-0.14351548731954158,1.000014658433071,0.0002045633982935989
-0.1434668650651914,-0.1434668650651914,0.9999957104821467,0.00020501214012995313
-0.14341824280679427,-0.14341824280679427,1.0001134647791399,0.000205461258620641
-0.1433696205445409,-0.1433696205445409,0.9998927537466976,0.00020571177709869637
-0.14332099827861425,-0.14332099827861425,1.0000103530447482,0.00020562278003532299
-0.14327237600918868,-0.14327237600918868,1.000127110250364,0.00020541388576090198
-0.14322375373643062,-0.14322375373643062,0.9999094626219976,0.00020531584541334932
-0.1431731865693986,-0.1431731865693986,1.000150479307015,0.00020537131382023077
-0.14312456429032672,-0.14312456429032672,0.9999359667801379,0.0002056751832303777
-0.14307594200838253,-0.14307594200838253,0.9999537315826952,0.000205918727360477
-0.14302731972369723,-0.14302731972369723,1.0000864106982317,0.0002060679792164802
-0.14297869743640595,-0.14297869743640595,1.0000153804214498,0.00020617274119881876
-0.14293007514662498,-0.14293007514662498,0.9998379469960892,0.00020624339206697957
-0.14288145285447523,-0.14288145285447523,1.0001612626205612,0.00020624111618087728
-0.14283283056006302,-0.14283283056006302,0.9998749309647172,0.0002062071157500177
-0.14278420826350077,-0.14278420826350077,1.0000768333842902,0.00020623398991770925
-0.14273558596488306,-0.14273558596488306,0.9999635393132866,0.0002061989672303112
-0.1426869636643054,-0.1426869636643054,1.0001505838143647,0.000206251917758377
-0.14263476276032333,-0.14263476276032333,0.9999759485557755,0.0002064505969944732
-0.14258582927321756,-0.14258582927321756,0.9998859859332974,0.00020662708482845586
-0.14253720696715672,-0.14253720696715672,1.0000140644604272,0.00020681048725985948
-0.14248858465947797,-0.14248858465947797,1.0000763413613023,0.00020698117117573335
-0.1424399623502562,-0.1424399623502562,0.9998882264166564,0.00020711731833575084
-0.14239134003956164,-0.14239134003956164,1.000120092422516,0.00020739435122108695
-0.1423427177274632,-0.1423427177274632,0.999842637178344,0.00020752513079885657
-0.14229409541402163,-0.14229409541402163,1.0000200476298604,0.00020763997930596572
-0.1422454730992992,-0.1422454730992992,0.9998765349040095,0.0002076359736289949
-0.14219638400911294,-0.14219638400911294,1.0000763247581097,0.00020747171864702994
-0.1421451944336145,-0.1421451944336145,1.0000751399495857,0.0002071874757146281
-0.14209571636251814,-0.14209571636251814,0.9999078821466668,0.0002069773721844091
-0.1420470940431479,-0.1420470940431479,0.9998977311294232,0.0002068224884961996
-0.14199847172276914,-0.14199847172276914,1.0001713646331036,0.00020675661749831932
-0.14194984940142447,-0.14194984940142447,1.000067281659089,0.00020665803154760247
-0.1419012270791601,-0.1419012270791601,0.999760167795403,0.00020631086036721003
-0.14185260475601674,-0.14185260475601674,1.000060070433699,0.00020573562290238115
-0.14180398243203646,-0.14180398243203646,0.9998954753588682,0.00020514799556368467
-0.1417553601072566,-0.1417553601072566,1.0001753505480067,0.000204801391034187
-0.14170673778171747,-0.14170673778171747,0.9998874846692128,0.00020460343680464219
-0.14165694851960708,-0.14165694851960708,1.0000074515943473,0.0002045915120506205
-0.14160638129953812,-0.14160638129953812,1.0000861131324579,0.00020462688279031458
-0.14155044617373388,-0.14155044617373388,0.9999397046237105,0.0002046316762234082
-0.14148463098991648,-0.14148463098991648,1.0000432763380045,0.00020445006921665474
-0.14143421935902473,-0.14143421935902473,0.9999254877085141,0.00020414086973246688
-0.14138326315744246,-0.14138326315744246,1.0002727058573235,0.00020387165866455806
-0.1413333182997635,-0.1413333182997635,0.9996743985302082,0.00020355254448311687
-0.14128065059100942,-0.14128065059100942,1.0001923803472161,0.0002034155360574785
-0.14122666035430678,-0.14122666035430678,0.9999387980698093,0.00020323815861998277
-0.14117772683958205,-0.14117772683958205,0.9999115707458455,0.0002031931597916917
-0.14112568149515675,-0.14112568149515675,1.0001647856512386,0.00020323862976859172
-0.14107659238811837,-0.14107659238811837,0.9998587599572506,0.00020332586146781583
-0.1410279700550948,-0.1410279700550948,1.0000789411677788,0.00020348543222806402
-0.14097934772172088,-0.14097934772172088,0.9999377482021042,0.00020371010632462295
-0.14092909167759368,-0.14092909167759368,1.000177655969742,0.0002039104160041173
-0.14088015816062538,-0.14088015816062538,0.9998051028434045,0.0002038795426923752
-0.14083106905188555,-0.14083106905188555,1.0000343246428258,0.00020379046108176007
-0.1407794904793264,-0.1407794904793264,0.9999532440330977,0.000203660139438832
-0.14073009018708743,-0.14073009018708743,1.0001500246909205,0.00020357509554536746
-0.14067936736707973,-0.14067936736707973,0.99989699792674,0.00020342033241246268
-0.1406253771258855,-0.1406253771258855,1.0001083235567718,0.00020332678228848858
-0.14055963972810295,-0.14055963972810295,0.9999576746777004,0.00020311972735291502
-0.14050090394639816,-0.14050090394639816,1.0000809248013023,0.00020290133537587742
-0.14045228161034579,-0.14045228161034579,0.99994696427915,0.0002026011609937909
-0.14040365927413806,-0.14040365927413806,1.0001198804495801,0.00020232696050371317
-0.1403550369377883,-0.1403550369377883,0.9999666230017089,0.00020204196805193156
-0.14030641460130816,-0.14030641460130816,1.000123137796945,0.00020189255131907629
-0.14025779226471363,-0.14025779226471363,0.9997836038789814,0.00020184815871074468
-0.1402091699280131,-0.1402091699280131,1.0001058643924483,0.00020190771107881446
-0.14016054759122082,-0.14016054759122082,0.9999947677301873,0.0002018982960658719
-0.14011192525434532,-0.14011192525434532,0.9999091592346137,0.00020187663820465585
-0.14006330291740157,-0.14006330291740157,1.0000783680587937,0.00020179714845415075
-0.14001468058039865,-0.14001468058039865,0.9999141868866961,0.0002016547177012115
-0.1399660582433464,-0.1399660582433464,1.0001117236905732,0.00020152911489799687
-0.13991743590625463,-0.13991743590625463,0.9999250159838965,0.00020135531457270628
-0.13986881356913566,-0.13986881356913566,1.0000460493421524,0.0002012203336198312
-0.13982019123199718,-0.13982019123199718,1.0000180363195446,0.00020116903867005106
-0.1397715688948496,-0.1397715688948496,0.9998590604409398,0.00020114174962173651
-0.13972294655770107,-0.13972294655770107,0.9999336990506398,0.00020116955323272776
-0.13967307948873042,-0.13967307948873042,1.0001649802068875,0.00020125733008436526
-0.13962181209647007,-0.13962181209647007,0.9998630742801028,0.00020134989262540997
-0.13957318975937777,-0.13957318975937777,1.0000589073394264,0.0002015046614282534
-0.13952456742231495,-0.13952456742231495,1.0000656219375113,0.00020162697675944153
-0.13947594508529723,-0.13947594508529723,0.9998159309745006,0.000201682952112632
-0.13942732274833017,-0.13942732274833017,1.000107250936768,0.0002016439356321099
-0.1393787004114188,-0.1393787004114188,1.0000369516841308,0.00020159506708963219
-0.13933007804058498,-0.13933007804058498,0.9998530005367998,0.00020155883979654682
-0.13928145562166477,-0.13928145562166477,1.000134779119217,0.00020158356526074058
-0.13923151067265396,-0.13923151067265396,0.9998419049388751,0.00020155902219141402
-0.139182265886568,-0.139182265886568,1.000309624173397,0.00020154187468687289
-0.13913333228406102,-0.13913333228406102,0.9997165125364675,0.00020140964348278108
-0.13908307615186125,-0.13908307615186125,1.0000786817917766,0.00020129164693411487
-0.1390344537330463,-0.1390344537330463,1.0000134210542289,0.00020111533760787314
-0.13898583131434447,-0.13898583131434447,0.9999425035849707,0.0002009253962201073
-0.13893720889576283,-0.13893720889576283,1.0002232313853494,0.0002008431413007343
-0.1388885864773052,-0.1388885864773052,0.9997360733652123,0.00020075385583695954
-0.13883996405897983,-0.13883996405897983,1.0000153638570117,0.00020079813028168122
-0.13878947453993576,-0.13878947453993576,1.0001125064603547,0.0002008535468333961
-0.1387398407756022,-0.1387398407756022,0.9998208916029807,0.0002008887144562273
-0.1386835165667391,-0.1386835165667391,1.0000824387711464,0.000200938299970236
-0.1386239249316127,-0.1386239249316127,1.0000611082772293,0.0002008975655792763
-0.13857156831243994,-0.13857156831243994,0.9999172648623382,0.00020080898500676937
-0.13852240132403498,-0.13852240132403498,1.0000041915577407,0.0002006672230525879
-0.13847237858126465,-0.13847237858126465,0.9999026228635465,0.00020054736305524538
-0.13842360057255454,-0.13842360057255454,1.0000285646645737,0.0002004698732553525
-0.13837318885082622,-0.13837318885082622,0.9999623383071807,0.00020041063032591572
-0.1383230105168997,-0.1383230105168997,1.0000454039401017,0.0002004347433678832
-0.13826326329165517,-0.13826326329165517,0.9998847317278583,0.00020053650958141192
-0.13821238479539236,-0.13821238479539236,1.000225762344226,0.0002005993888034799
-0.13816119511588684,-0.13816119511588684,1.0000004644761717,0.00020068747627111487
-0.13811257270015856,-0.13811257270015856,0.9999159913342701,0.00020083681444113717
-0.13806395028464227,-0.13806395028464227,1.0000762038753914,0.00020090599618262085
-0.1380119048513151,-0.1380119048513151,0.9999188438876596,0.00020088293902661134
-0.1379607929686036,-0.1379607929686036,0.9999931471393262,0.00020082662501640834
-0.13791030345305053,-0.13791030345305053,1.0000162753757362,0.0002007992443141064
-0.13786168103846075,-0.13786168103846075,0.9999679590777077,0.00020079224354433876
-0.13781305862410562,-0.13781305862410562,1.000050259502616,0.00020078714480810665
-0.1377644362099867,-0.1377644362099867,1.0000304426585438,0.00020074457346626898
-0.13771581379610937,-0.13771581379610937,0.9999174295510697,0.0002006679002294625
-0.13766625783214043,-0.13766625783214043,1.0000818796253281,0.00020056511852471317
-0.1376127342795077,-0.1376127342795077,0.9998696778709494,0.00020041081903324795
-0.13755026420323424,-0.13755026420323424,1.0001288970694326,0.00020028438519087508
-0.13748297078400745,-0.13748297078400745,0.9999321908495785,0.00020015722818594227
-0.13742446829744143,-0.13742446829744143,0.9999905695212474,0.0002001989132390831
-0.13737195609240102,-0.13737195609240102,1.0001205991487137,0.00020024766688065475
-0.1373220889468767,-0.1373220889468767,0.9998663923533468,0.00020027770554743022
-0.13726833200873528,-0.13726833200873528,1.000054265742882,0.0002003347359021802
-0.13721348592893032,-0.13721348592893032,1.0000126321943923,0.00020030018947148924
-0.13716035135833543,-0.13716035135833543,0.9999841070343859,0.00020022854481148585
-0.13710799474666727,-0.13710799474666727,0.9999294689833398,0.0002001599349979072
-0.13702537554733354,-0.13702537554733354,1.0001028828865042,0.00020003544536206737
-0.13697675313758687,-0.13697675313758687,0.9998978627826249,0.00019996907218482562
-0.1369281307281407,-0.1369281307281407,0.9999052518545382,0.00019995190850989969
-0.13687950831899842,-0.13687950831899842,1.0001864355025245,0.00019997963330544121
-0.13683088591016265,-0.13683088591016265,0.9998777159309574,0.0002000366295339629
-0.13678226350163764,-0.13678226350163764,0.9999230509718906,0.00020016466547398906
-0.1367336410934256,-0.1367336410934256,1.000065117958765,0.00020028062264621703
-0.13668501868553046,-0.13668501868553046,1.000007323766015,0.00020037382042498647
-0.13663639627795474,-0.13663639627795474,1.000065822028191,0.00020044644494549287
-0.13658777387070348,-0.13658777387070348,1.0000146701441053,0.00020047570552916808
-0.1365391514637783,-0.1365391514637783,0.9998964908344921,0.00020043816896692297
-0.13649052905718184,-0.13649052905718184,1.0001701561228296,0.000200424719278619
-0.1364419066509182,-0.1364419066509182,0.9999977171268455,0.00020039581954008133
-0.13639328424499148,-0.13639328424499148,0.9998903294454315,0.00020039659320559363
-0.13634466183940352,-0.13634466183940352,1.0000866146218608,0.0002003807468213431
-0.136296039434158,-0.136296039434158,0.9998658010197321,0.00020030248402892574
-0.13624741702925713,-0.13624741702925713,0.9999560552305663,0.00020022064946055313
-0.13619879462470524,-0.13619879462470524,1.000262230115,0.00020013801683797382
-0.13615017222050482,-0.13615017222050482,0.999786851796601,0.0002000675420497016
-0.13610154981665906,-0.13610154981665906,1.0000620681099799,0.00020008533050748395
-0.13605292741317335,-0.13605292741317335,1.0002057902068557,0.00020008887741778753
-0.13600430501004773,-0.13600430501004773,0.999740060894761,0.00020005238348811544
-0.13595568260728502,-0.13595568260728502,1.0003378588423337,0.0002000895161087248
-0.1359070602048887,-0.1359070602048887,0.9998558663363163,0.00020010246593247342
-0.1358568040901626,-0.1358568040901626,1.0000714210276345,0.000200167465380067
-0.1358062367924649,-0.1358062367924649,1.0000527002078536,0.0002001508039046911
-0.13575730320784887,-0.13575730320784887,0.9998874687393569,0.00020006580590680042
-0.13570868080698245,-0.13570868080698245,0.9999764508186356,0.0001999746127392136
-0.1356582691021692,-0.1356582691021692,1.000096422762525,0.00019986961572660472
-0.13560575691009608,-0.13560575691009608,0.9998676437831687,0.00019979750178234106
-0.1355569789187543,-0.1355569789187543,0.999995237072984,0.0001997427893540712
-0.13550835651948487,-0.13550835651948487,1.0001213987147044,0.00019975094245934603
-0.13545973412061105,-0.13545973412061105,0.9999764217515246,0.00019978394416473856
-0.13540761090946285,-0.13540761090946285,0.9999920406185936,0.0001998645876161094
-0.13535214247781518,-0.13535214247781518,0.9999099381094443,0.00019998003385685628
-0.13530025265512013,-0.13530025265512013,1.0001173977001883,0.00020009215625231262
-0.1352500743412738,-0.1352500743412738,0.999998993477711,0.00020017550233797978
-0.13519810672367924,-0.13519810672367924,1.000120918252709,0.0002002160228395657
-0.13514660588154997,-0.13514660588154997,0.9999539419585279,0.00020019898259650233
-0.1350979834857174,-0.1350979834857174,1.0000929822365434,0.000200196185387663
-0.1350474161945042,-0.1350474161945042,0.9998572830789636,0.0002001833313727156
-0.1349947484162885,-0.1349947484162885,1.00006467196957,0.00020018288635016723
-0.13494239182190354,-0.13494239182190354,1.00005285767318,0.00020012125121670184
-0.13489376942786485,-0.13489376942786485,1.00000832452175,0.00020010809998852546
-0.13484257977189557,-0.13484257977189557,0.999888281457799,0.0002000727791871126
-0.13479162350389307,-0.13479162350389307,1.0001403694904727,0.00020001427513533619
-0.13473833336154373,-0.13473833336154373,0.999963251495792,0.00019991622093199954
-0.13468644354461284,-0.13468644354461284,0.999921492426479,0.00019993338970026485
-0.13463704319463723,-0.13463704319463723,1.0000082595749997,0.00019994386304237433
-0.13458686488687674,-0.13458686488687674,0.9999051529713778,0.00019992142246962166
-0.13453785351697226,-0.13453785351697226,0.9999631244488038,0.00019993495043030946
-0.13448884214753823,-0.13448884214753823,1.0000288150782306,0.0001999870308978983
-0.13443648555817003,-0.13443648555817003,0.9998212166335032,0.00020001913008349433
-0.13438436235680767,-0.13438436235680767,1.0002330893160758,0.00020001944151731317
-0.13433433964317865,-0.13433433964317865,0.9999314488562014,0.00019990231312409687
-0.13427863783512622,-0.13427863783512622,0.9999862653412596,0.00019979492363768082
-0.13422573667720852,-0.13422573667720852,0.99984960476474,0.0001996743600516559
-0.13416980148293195,-0.13416980148293195,1.0003233409855194,0.0001996242266216005
-0.1341119213938189,-0.1341119213938189,0.9998757110840488,0.0001995466573362896
-0.13405964260426267,-0.13405964260426267,1.0001361732848846,0.00019958210954483193
-0.13400930871069075,-0.13400930871069075,0.9998974546057692,0.00019957997961011497
-0.13396021955070134,-0.13396021955070134,1.00005606655596,0.00019969261782902477
-0.13390980786237278,-0.13390980786237278,1.0000545849713822,0.00019982527868480908
-0.13386102988668158,-0.13386102988668158,0.9999205961599398,0.00019987564916561945
-0.13381054040361667,-0.13381054040361667,1.0001926326166761,0.00019993506888114015
-0.13375989532947238,-0.13375989532947238,0.9997449697412468,0.00019992136719240573
-0.13371057278469153,-0.13371057278469153,0.9999965145631426,0.00019987879633262092
-0.1336607056697678,-0.1336607056697678,1.0002448914860484,0.00019982522500897555
-0.13360337015769203,-0.13360337015769203,0.999921785324125,0.00019979479125790516
-0.13352456300315133,-0.13352456300315133,0.9998588871858558,0.00019977811466406585
-0.1334759406232317,-0.1334759406232317,1.0002261029455657,0.00019973696672647483
-0.13342731824385243,-0.13342731824385243,0.999879290922191,0.0001996796734013484
-0.13337869586501863,-0.13337869586501863,0.9999887977468044,0.00019964735825329957
-0.133330073486733,-0.133330073486733,1.0001215839834479,0.00019960395495961003
-0.13328145110900028,-0.13328145110900028,0.9999585958761681,0.0001995598177714648
-0.1332328287318249,-0.1332328287318249,1.0000255826522948,0.00019956337008303907
-0.1331842063552114,-0.1331842063552114,1.0000104963923273,0.0001996116340216872
-0.1331355839791633,-0.1331355839791633,1.0000384625700243,0.0001996458439542222
-0.1330869616036859,-0.1330869616036859,1.0000906966437317,0.00019971718672769908
-0.13303833922878291,-0.13303833922878291,0.9998518582160465,0.00019970700767742768
-0.13298971694985826,-0.13298971694985826,1.000038619171732,0.00019970491494264154
-0.1329410947829452,-0.1329410947829452,0.9998869275097647,0.0001996319625845296
-0.1328924726167858,-0.1328924726167858,1.0000472254828363,0.00019955493071696742
-0.13284385045121927,-0.13284385045121927,1.000022808791325,0.00019943526311411923
-0.13279460592254586,-0.13279460592254586,1.0000372916151503,0.0001993182729878105
-0.1327427163487617,-0.1327427163487617,0.9998651472828268,0.00019925185233982964
-0.1326940941850518,-0.1326940941850518,1.0000094348720687,0.00019922928174642175
-0.13264547202195448,-0.13264547202195448,1.000350592058761,0.00019930298013791104
-0.13259684985947504,-0.13259684985947504,0.9997712061140508,0.00019936062328652004
-0.1325482276976179,-0.1325482276976179,1.0002620954780699,0.0001994691731208071
-0.13249960553638873,-0.13249960553638873,1.0000156204214936,0.0001995317342674299
-0.13245098337579253,-0.13245098337579253,0.999985644109785,0.00019957375812910152
-0.13240236121583432,-0.13240236121583432,0.9999872764514384,0.0001996002405415097
-0.1323537390565201,-0.1323537390565201,1.0000135952901397,0.00019959541129397945
-0.13230511689785418,-0.13230511689785418,1.0000512571337692,0.00019958590839189538
-0.13225649473984297,-0.13225649473984297,0.9998467594365585,0.00019954454903250608
-0.13220787258249128,-0.13220787258249128,1.000050448096428,0.00019951802252983356
-0.13215925042580542,-0.13215925042580542,1.0000044144010802,0.00019949981550197314
-0.13211062826979053,-0.13211062826979053,1.0000132464216671,0.0001994966925779813
-0.13206200611445248,-0.13206200611445248,0.99998924420559,0.00019946895259627916
-0.13201190584630926,-0.13201190584630926,0.9998794440069645,0.0001994399112305097
