time,time,flux,flux_err
-0.4991191413690103,-0.4991191413690103,0.9999161380808577,6.372597453621623e-05
-0.4976458364602877,-0.4976458364602877,1.0000888816133249,6.383449817430092e-05
-0.49657849049835934,-0.49657849049835934,1.0000829607555684,6.37792443810642e-05
-0.49527582441223783,-0.49527582441223783,0.9998794584132913,6.371912305655905e-05
-0.4939908001484582,-0.4939908001484582,1.0000805134151725,6.380879445181065e-05
-0.4929005460435292,-0.4929005460435292,1.0001401015898401,6.38738403277354e-05
-0.4915765777899651,-0.4915765777899651,0.9999719605535689,6.390366416487565e-05
-0.4899097571062157,-0.4899097571062157,0.9999495199688333,6.382693443623458e-05
-0.4888141165691195,-0.4888141165691195,1.0000284654314746,6.382217302032912e-05
-0.48737458467367106,-0.48737458467367106,0.9999627717353494,6.378441531791599e-05
-0.4863896149065113,-0.4863896149065113,1.0000108099680074,6.381325773843291e-05
-0.4852565137145575,-0.4852565137145575,0.9999641370434998,6.381816277438707e-05
-0.48447182078671175,-0.48447182078671175,0.9999222909592159,6.37393785547736e-05
-0.48358580777130555,-0.48358580777130555,0.9999267162588712,6.382636576177415e-05
-0.4816641023440752,-0.4816641023440752,0.9999856824503552,6.369643779615787e-05
-0.4794224248820683,-0.4794224248820683,0.9998941633167991,6.38338593017563e-05
-0.47765035613556395,-0.47765035613556395,0.999900049238905,6.38759995097546e-05
-0.4767266938550165,-0.4767266938550165,1.0000431089288413,6.391814450070394e-05
-0.4753811803180724,-0.4753811803180724,1.0000324192549406,6.388994640988483e-05
-0.47428959884273353,-0.47428959884273353,1.0000313454661316,6.37754656619968e-05
-0.47319530140957794,-0.47319530140957794,0.9999306466161944,6.382689186031613e-05
-0.4713637480454054,-0.4713637480454054,0.99987461521356,6.372212267446969e-05
-0.4699165275262203,-0.4699165275262203,1.0000264612853322,6.383773790264935e-05
-0.46915018176077866,-0.46915018176077866,1.0000395951455248,6.391625232230494e-05
-0.46793046269740446,-0.46793046269740446,1.0000360524729885,6.378916595624905e-05
-0.4660832928318996,-0.4660832928318996,0.9999185195079618,6.377734416835696e-05
-0.46499401436012705,-0.46499401436012705,1.0000274519079753,6.386764955751828e-05
-0.46380015105823985,-0.46380015105823985,0.9999786168712786,6.388984341993384e-05
-0.4627072426897939,-0.4627072426897939,0.9999939431864565,6.395303076742314e-05
-0.4616243979660794,-0.4616243979660794,1.0000007452227666,6.383432856834896e-05
-0.46045369709900114,-0.46045369709900114,0.9999273984448378,6.373841809189027e-05
-0.4586884079995798,-0.4586884079995798,1.000009906069429,6.381517193494818e-05
-0.45753783686377575,-0.45753783686377575,0.9999848765466792,6.371686500721372e-05
-0.455628476999118,-0.455628476999118,1.0000160823184034,6.3802826736857e-05
-0.4542507534031756,-0.4542507534031756,0.999899643832768,6.388026657137669e-05
-0.45328373661322985,-0.45328373661322985,0.9999620435321432,6.383213943391181e-05
-0.4516025005694246,-0.4516025005694246,0.9999632302284198,6.393008545182394e-05
-0.44992765024071557,-0.44992765024071557,1.0000638258424133,6.388191337491896e-05
-0.4484028954000678,-0.4484028954000678,0.9999890600930895,6.389609287259368e-05
-0.44679851865803355,-0.44679851865803355,1.0000945999666964,6.380059378456362e-05
-0.44586399773543234,-0.44586399773543234,0.9999396330011899,6.377486286583133e-05
-0.44545702465693465,-0.44545702465693465,0.9999480636492883,6.371871838427043e-05
-0.4440645815862808,-0.4440645815862808,1.000014364644944,6.383516112657972e-05
-0.442689893883653,-0.442689893883653,0.9999064133153862,6.371094998915306e-05
-0.4405772734928178,-0.4405772734928178,1.0001149845027897,6.38374503883618e-05
-0.4387386694608722,-0.4387386694608722,1.0001590089238475,6.388033976670614e-05
-0.437748971756082,-0.437748971756082,1.0000630314912577,6.39721786141299e-05
-0.4360041125386488,-0.4360041125386488,1.000134429825757,6.385286537777843e-05
-0.43498457316309214,-0.43498457316309214,0.9999797040853636,6.386903877310198e-05
-0.43336268941347955,-0.43336268941347955,0.9999877935204777,6.377944464491738e-05
-0.43196248590247704,-0.43196248590247704,0.9999017411305324,6.37612990373939e-05
-0.43066378488438206,-0.43066378488438206,1.0000094274941465,6.385439690164863e-05
-0.42940070570621175,-0.42940070570621175,0.9999407901031511,6.380654391576875e-05
-0.42693570620322135,-0.42693570620322135,0.9999834816133667,6.382271582717468e-05
-0.4258067828195635,-0.4258067828195635,0.9999437958157855,6.392081874194697e-05
-0.42475037929252724,-0.42475037929252724,0.999978493717572,6.386448038059839e-05
-0.4239475022710394,-0.4239475022710394,0.9999413563211951,6.395980495961576e-05
-0.4227820997853996,-0.4227820997853996,1.000090109522838,6.383812198197726e-05
-0.4215138201310765,-0.4215138201310765,0.9999442240839048,6.370646664544615e-05
-0.4190569759928621,-0.4190569759928621,0.9999890616439366,6.376800623456705e-05
-0.4173924485017778,-0.4173924485017778,0.9998939622015964,6.374140421141113e-05
-0.41562862146529367,-0.41562862146529367,0.9999613229857399,6.39363549134213e-05
-0.41457072806369977,-0.41457072806369977,0.9999306232180848,6.384572259024644e-05
-0.4135058205371024,-0.4135058205371024,0.9999065585325468,6.39090161060727e-05
-0.41210499285371044,-0.41210499285371044,1.0001215934812722,6.383917342081186e-05
-0.41097017378779127,-0.41097017378779127,0.9999486717337204,6.381051728114849e-05
-0.40985215005057396,-0.40985215005057396,1.0000164763435566,6.395279073004106e-05
-0.4087460498412838,-0.4087460498412838,1.0000475669757596,6.387416635323112e-05
-0.4072227942146128,-0.4072227942146128,0.9999879289027522,6.374160251933318e-05
-0.40654663055611306,-0.40654663055611306,0.9999443056170761,6.371199742962507e-05
-0.40537560351076535,-0.40537560351076535,0.9999253979929318,6.376121220991266e-05
-0.4040145421720808,-0.4040145421720808,0.999954964626349,6.36959082099736e-05
-0.40181037980655676,-0.40181037980655676,0.9999819750799119,6.383513343014303e-05
-0.3997135546669597,-0.3997135546669597,0.9999792506971245,6.38634843963808e-05
-0.39839352801791394,-0.39839352801791394,0.9998797562263968,6.397776056121213e-05
-0.3965893040644005,-0.3965893040644005,1.0000377114237091,6.383380485545227e-05
-0.3953089327260386,-0.3953089327260386,1.0002041749033461,6.393369124284694e-05
-0.3940150048874784,-0.3940150048874784,0.9999892319471672,6.378889476949218e-05
-0.3923934771388303,-0.3923934771388303,1.000002613622876,6.37034551888192e-05
-0.39151976266002747,-0.39151976266002747,0.9999399254513749,6.39171386703409e-05
-0.390281450925977,-0.390281450925977,0.9999308738227782,6.375555242724269e-05
-0.388342584221391,-0.388342584221391,1.000066228939131,6.375962824525433e-05
-0.38681327878148297,-0.38681327878148297,1.0000791645145053,6.38863109822784e-05
-0.38550979817810005,-0.38550979817810005,0.9999820805720528,6.39375672705418e-05
-0.38430314146680755,-0.38430314146680755,0.9998513011151573,6.390450943002361e-05
-0.3833433249295922,-0.3833433249295922,1.0000553491504236,6.378624705664772e-05
-0.38194602957519236,-0.38194602957519236,0.9999723871384749,6.384687485773156e-05
-0.38016928707365877,-0.38016928707365877,0.9999867478077021,6.373978450449782e-05
-0.3781069638149347,-0.3781069638149347,1.0001218005245345,6.384029267619332e-05
-0.3765858169295825,-0.3765858169295825,0.9999778889192872,6.390008426741146e-05
-0.3754482996184379,-0.3754482996184379,1.0000041663545152,6.391250676623437e-05
-0.37337049895722885,-0.37337049895722885,0.9999983993516395,6.384261838767341e-05
-0.3720219155366067,-0.3720219155366067,1.0000668701667437,6.381785540828101e-05
-0.37068908123183064,-0.37068908123183064,0.999939217577135,6.386414816125126e-05
-0.36943165939010214,-0.36943165939010214,0.9999817322163869,6.375095195455454e-05
-0.3680195574794197,-0.3680195574794197,1.0000314279756526,6.378092831012014e-05
-0.3671844806580339,-0.3671844806580339,0.9999907051566357,6.377280502442993e-05
-0.3654778544470901,-0.3654778544470901,0.9999733224049112,6.369295049024769e-05
-0.363108247864875,-0.363108247864875,1.0001065473295254,6.381512002614378e-05
-0.361318170352024,-0.361318170352024,0.9999151130060063,6.38795899751788e-05
-0.3596991960250307,-0.3596991960250307,1.0000141584400803,6.38231406265598e-05
-0.35796279333007985,-0.35796279333007985,1.0001029196261664,6.385195428186219e-05
-0.35659276353835595,-0.35659276353835595,0.9999166480206663,6.38373090690687e-05
-0.35494721873255913,-0.35494721873255913,0.999954833882998,6.373655649365766e-05
-0.35330514748056885,-0.35330514748056885,1.0000305757887589,6.37341026458483e-05
-0.35221041572804096,-0.35221041572804096,0.9999985959265534,6.379579464781535e-05
-0.3508101368875941,-0.3508101368875941,0.9999477277636334,6.370021413497684e-05
-0.34894650784845,-0.34894650784845,1.0000081920235924,6.387280896085357e-05
-0.34738434518512806,-0.34738434518512806,0.9999464761745273,6.390925855248984e-05
-0.3460145707038464,-0.3460145707038464,1.0000108795980303,6.393197266742997e-05
-0.3449007079034345,-0.3449007079034345,0.9998966003157328,6.382534812420521e-05
-0.34382646889425816,-0.34382646889425816,1.000015067906494,6.378474769264339e-05
-0.34236214503471274,-0.34236214503471274,1.000063378583501,6.3813528385629e-05
-0.34054331802763044,-0.34054331802763044,1.000032900529924,6.381021934963164e-05
-0.3387433016236173,-0.3387433016236173,0.9999849013084668,6.38400525132065e-05
-0.3373204071220243,-0.3373204071220243,1.0000374972950332,6.388780052477455e-05
-0.33583274118427653,-0.33583274118427653,1.0000935548218068,6.387750665503909e-05
-0.33429541053192224,-0.33429541053192224,0.999962059265906,6.396696062948445e-05
-0.33327116471482443,-0.33327116471482443,1.0000947453629838,6.384752541594168e-05
-0.3318495071842335,-0.3318495071842335,0.9999860141339711,6.387133265754787e-05
-0.33059853125014343,-0.33059853125014343,1.0001025075693175,6.380749124889075e-05
-0.32933469403942583,-0.32933469403942583,1.0000136315246064,6.377991303752413e-05
-0.32789170277537777,-0.32789170277537777,0.9999483917707869,6.372343631093312e-05
-0.3258752886380535,-0.3258752886380535,1.0000418970704597,6.377875050658659e-05
-0.32393157375045123,-0.32393157375045123,0.9999969425431028,6.382457158735242e-05
-0.3220714437775314,-0.3220714437775314,1.0000567891128758,6.39620503987846e-05
-0.3203687542089028,-0.3203687542089028,0.9999540385722343,6.373666740469702e-05
-0.31895002196833955,-0.31895002196833955,0.9999561402937681,6.37964369192363e-05
-0.3176860047620721,-0.3176860047620721,1.0000412237823628,6.384074120682112e-05
-0.315924603966414,-0.315924603966414,0.9998820421047933,6.379856670667258e-05
-0.31424777771171647,-0.31424777771171647,0.999994478944054,6.378717699019644e-05
-0.312597907561576,-0.312597907561576,0.999846353671817,6.370654777957885e-05
-0.3114908481424209,-0.3114908481424209,0.9999928586049656,6.375862220008115e-05
-0.30941495556908194,-0.30941495556908194,1.0000077935532672,6.392416884330977e-05
-0.3082369118754286,-0.3082369118754286,1.000071658505267,6.390039968704244e-05
-0.30717472519318106,-0.30717472519318106,1.0000332952345405,6.393136954716732e-05
-0.3060624640347669,-0.3060624640347669,0.9999424326558893,6.382621119815286e-05
-0.30480962853180243,-0.30480962853180243,1.0000379291533066,6.377469064740374e-05
-0.3028622185433051,-0.3028622185433051,0.9999946643665323,6.383940422433513e-05
-0.3013106444646837,-0.3013106444646837,0.9998912048509799,6.377877828138146e-05
-0.2995730663154973,-0.2995730663154973,0.9999988036399096,6.38392410925971e-05
-0.29824903261906,-0.29824903261906,1.000026044717909,6.390722081726376e-05
-0.29667213156644723,-0.29667213156644723,0.9999884121899816,6.386338386478173e-05
-0.294846588029759,-0.294846588029759,0.9999383789883686,6.391620758903059e-05
-0.29361223098821937,-0.29361223098821937,1.0000865433148143,6.385579963200824e-05
-0.2923336841253331,-0.2923336841253331,1.0000083028247595,6.379071869527447e-05
-0.29128476581245194,-0.29128476581245194,0.9999753162596214,6.378967872316969e-05
-0.29020834220282266,-0.29020834220282266,1.0000524550481704,6.379131901451111e-05
-0.2891465328051709,-0.2891465328051709,1.000048926776118,6.380697373279224e-05
-0.28804150061914696,-0.28804150061914696,0.9999989245113399,6.37560334079088e-05
-0.286572616599733,-0.286572616599733,1.0000235818808956,6.373690163907353e-05
-0.2846268728986615,-0.2846268728986615,0.9999279115034845,6.383791342810786e-05
-0.28322110688022806,-0.28322110688022806,1.0000292421379051,6.391687125096223e-05
-0.2811907558876555,-0.2811907558876555,0.9999989938829135,6.380448575186595e-05
-0.2798050781391794,-0.2798050781391794,0.999908830503129,6.379253277953168e-05
-0.277873848285526,-0.277873848285526,1.0000300561857545,6.375151927533404e-05
-0.27652866885473487,-0.27652866885473487,0.9999819453185361,6.372400767387823e-05
-0.27469743881956676,-0.27469743881956676,1.0000162413916796,6.380176918582476e-05
-0.2727943359641358,-0.2727943359641358,0.9999406683093911,6.37638205612878e-05
-0.27058401870017407,-0.27058401870017407,0.9999935366484258,6.391992487547415e-05
-0.2694235455885064,-0.2694235455885064,0.9998743518556609,6.391215036388017e-05
-0.2684358117170632,-0.2684358117170632,1.0000174016847359,6.393778257784285e-05
-0.2674822301865788,-0.2674822301865788,1.0000964841960607,6.38123822539056e-05
-0.26683465095993597,-0.26683465095993597,0.9999687209353297,6.378391085111917e-05
-0.2658160998427775,-0.2658160998427775,1.0000791712051036,6.388843653500404e-05
-0.26386101259558925,-0.26386101259558925,1.0000420016119522,6.379300017764309e-05
-0.2623100696335314,-0.2623100696335314,0.9999327953673334,6.376098425870491e-05
-0.2607726927555632,-0.2607726927555632,1.0000452111949891,6.385150638465782e-05
-0.25940914334205445,-0.25940914334205445,1.0001002825365042,6.390922432431416e-05
-0.25812318712414706,-0.25812318712414706,0.9998574813899548,6.391428354207872e-05
-0.2564378967043012,-0.2564378967043012,0.9999551946815698,6.386089224166648e-05
-0.25481752737250646,-0.25481752737250646,1.000002073486725,6.395507938781955e-05
-0.25345080441329626,-0.25345080441329626,1.0000383050965713,6.379979790468006e-05
-0.25244455034553537,-0.25244455034553537,1.0001239708633476,6.379724176027877e-05
-0.2512934841652168,-0.2512934841652168,0.9999867904667437,6.376307782681252e-05
-0.25000721582619007,-0.25000721582619007,1.0001236213710603,6.386944693617547e-05
-0.2490507970302133,-0.2490507970302133,1.0000054871727435,6.375764474799168e-05
-0.24759790610987692,-0.24759790610987692,1.0000337611857968,6.374667738929962e-05
-0.24550983552471733,-0.24550983552471733,0.9999772908515334,6.389395340604231e-05
-0.2440168979985174,-0.2440168979985174,1.0000012201121058,6.387744946091358e-05
-0.24194425347959622,-0.24194425347959622,0.9999774726562822,6.381071453881522e-05
-0.24062405135773587,-0.24062405135773587,0.999975970894177,6.379018753747085e-05
-0.23886534663906786,-0.23886534663906786,0.9999665984215392,6.373346822544395e-05
-0.2373611004644772,-0.2373611004644772,0.9999755282136846,6.376997881953776e-05
-0.23635854254534933,-0.23635854254534933,1.0001003037418599,6.372907513083736e-05
-0.23537135130609385,-0.23537135130609385,0.9999967799591136,6.378159144950153e-05
-0.23364177918992937,-0.23364177918992937,1.000162499089913,6.380055541943869e-05
-0.23136539311672094,-0.23136539311672094,1.0001008801594904,6.394105550943937e-05
-0.23039587289385963,-0.23039587289385963,1.000128201079496,6.393309239231495e-05
-0.22922705335658974,-0.22922705335658974,0.9999048713021939,6.391866885115398e-05
-0.22823116699873935,-0.22823116699873935,0.9999560014854458,6.379154762059479e-05
-0.22719686204509343,-0.22719686204509343,0.9999792017843168,6.382998442159878e-05
-0.22581387528043706,-0.22581387528043706,1.0000050815312995,6.390616735169277e-05
-0.22463768334127962,-0.22463768334127962,0.9999694115766374,6.374266862796524e-05
-0.22310380524431822,-0.22310380524431822,0.9999945230022371,6.373478042840344e-05
-0.22161005309899337,-0.22161005309899337,1.0000313706730037,6.38923026937538e-05
-0.22048485948762392,-0.22048485948762392,0.9999874402548311,6.511421034633811e-05
-0.219207544362871,-0.219207544362871,0.9999825672363027,6.383254652729051e-05
-0.21741976593330037,-0.21741976593330037,1.0000058484210048,6.388345488116409e-05
-0.21587260298838373,-0.21587260298838373,1.0000717507935488,6.397425318550003e-05
-0.2145867161132628,-0.2145867161132628,0.9998815778637147,6.38484483232821e-05
-0.21380671228980647,-0.21380671228980647,0.9998930570825058,6.383619788599084e-05
-0.21272129912103993,-0.21272129912103993,0.9999499712311815,6.37479575670896e-05
-0.21123729986720718,-0.21123729986720718,0.9999221200013994,6.382451161229932e-05
-0.21035479113343172,-0.21035479113343172,0.9999732534034755,6.371225998400843e-05
-0.20909779764770065,-0.20909779764770065,1.000015258993456,6.381311896075452e-05
-0.20787241554353386,-0.20787241554353386,1.0000971281735473,6.383777659466507e-05
-0.20612105686159338,-0.20612105686159338,1.0000353999303822,6.385769990118963e-05
-0.20461729156959335,-0.20461729156959335,0.9999972686170949,6.3829088341928e-05
-0.20316703232529107,-0.20316703232529107,0.9999541946203212,6.382925917504514e-05
-0.2021854372549569,-0.2021854372549569,1.000060316901425,6.385061943128947e-05
-0.20045430412865245,-0.20045430412865245,1.0001229781462277,6.378964766927476e-05
-0.1991749963577604,-0.1991749963577604,1.0000009626760833,6.375105756512081e-05
-0.19765871948329733,-0.19765871948329733,1.0000374378928838,6.379724138272377e-05
-0.19579078952083365,-0.19579078952083365,1.000060352455478,6.377714992891757e-05
-0.19354614008916543,-0.19354614008916543,1.0000885000954012,6.387127200160533e-05
-0.19193894838099368,-0.19193894838099368,1.0000517074268251,6.392040457075253e-05
-0.1909197695524199,-0.1909197695524199,0.99997610236174,6.395466818999917e-05
-0.18985139106516727,-0.18985139106516727,0.9999855393133847,6.38339844502258e-05
-0.18895059541391673,-0.18895059541391673,1.0000949838556954,6.387639128754547e-05
-0.1876645720214583,-0.1876645720214583,0.9999720776021069,6.380071628448887e-05
-0.18673409618495498,-0.18673409618495498,1.0001040361238136,6.387345529585163e-05
-0.18572615750308613,-0.18572615750308613,0.9999842486087562,6.372789812266551e-05
-0.18503701102745254,-0.18503701102745254,0.9999816766787658,6.38231487272197e-05
-0.1839840920030838,-0.1839840920030838,1.0000502072579922,6.375001559187902e-05
-0.18308502160653006,-0.18308502160653006,1.000046179838318,6.380870922385693e-05
-0.18156188938592094,-0.18156188938592094,0.9999906335977847,6.38819649064195e-05
-0.17984692002355587,-0.17984692002355587,0.9999153142846889,6.381006674479311e-05
-0.1781843749631662,-0.1781843749631662,0.999989915433854,6.390663416377195e-05
-0.17669416791177356,-0.17669416791177356,0.9999577900992349,6.394297341325028e-05
-0.17567297474597582,-0.17567297474597582,0.9999977295538336,6.381614206173022e-05
-0.1748044901934918,-0.1748044901934918,0.9999312845377151,6.379011273889348e-05
-0.17346788571448996,-0.17346788571448996,1.0000249816485716,6.370637770698838e-05
-0.1718652337527601,-0.1718652337527601,1.0000845430973953,6.379414295641204e-05
-0.17066540374653413,-0.17066540374653413,0.9999828372578048,6.37420363943252e-05
-0.16928132058819756,-0.16928132058819756,0.9999240461565645,6.383409082994304e-05
-0.1681272146612173,-0.1681272146612173,0.9999673322581867,6.389325847206625e-05
-0.16718628259550314,-0.16718628259550314,1.0000832322631708,6.38141385875352e-05
-0.16623101652076003,-0.16623101652076003,1.000104361839843,6.389151493052152e-05
-0.165145834282157,-0.165145834282157,1.0001371672726804,6.379360164936651e-05
-0.16373555229220074,-0.16373555229220074,0.9998763042746932,6.384892480196412e-05
-0.16270167116308584,-0.16270167116308584,1.0000616882772833,6.377929436429085e-05
-0.16127492215891834,-0.16127492215891834,0.9999297263880804,6.376678979619207e-05
-0.15980263226956595,-0.15980263226956595,1.000054067382616,6.380143087274503e-05
