time,time,flux,flux_err
-0.49949285403999966,-0.49949285403999966,0.9999849766215867,9.292391653104782e-05
-0.49918940851057414,-0.49918940851057414,0.9998913327290314,9.27765231324465e-05
-0.4986697316431673,-0.4986697316431673,1.0000604066177154,9.311440877615343e-05
-0.4982869412313448,-0.4982869412313448,0.9998439923076873,9.32085301611536e-05
-0.49790259773726575,-0.49790259773726575,1.0002407388593002,9.311018759545242e-05
-0.49760108939080966,-0.49760108939080966,1.0002642821288412,9.371523862305637e-05
-0.4969734739715932,-0.4969734739715932,0.9999586038914969,9.518277360056021e-05
-0.49623912885435856,-0.49623912885435856,0.9999126656101103,9.256969005201949e-05
-0.49558099327550736,-0.49558099327550736,1.0000464221044465,9.280701719269221e-05
-0.4951369658112526,-0.4951369658112526,1.000052152838893,9.301529186888699e-05
-0.4943891666131094,-0.4943891666131094,1.000055214717587,9.255884602690174e-05
-0.4938201210956322,-0.4938201210956322,0.9999829108621565,9.273976577489038e-05
-0.49348718553083015,-0.49348718553083015,1.0000065672531027,9.345567022912627e-05
-0.4931131093413569,-0.4931131093413569,1.0000150813455828,9.33919827284366e-05
-0.4926687916420633,-0.4926687916420633,1.0000440327802207,9.278072084479914e-05
-0.492396134059527,-0.492396134059527,0.9999470327480335,9.36976414260404e-05
-0.4915552233956987,-0.4915552233956987,1.0001170408650624,9.270556143405107e-05
-0.49055758835747837,-0.49055758835747837,0.9998921248832879,9.256856893801812e-05
-0.4899448753654724,-0.4899448753654724,0.9998130691772316,9.274413091166256e-05
-0.4894842550449539,-0.4894842550449539,0.9998770315858817,9.312867182336908e-05
-0.48927466497116257,-0.48927466497116257,0.9999675565265063,9.352767642634011e-05
-0.4890324668958783,-0.4890324668958783,1.0000653948132403,9.312099787991446e-05
-0.48834869054262525,-0.48834869054262525,1.0001237716438678,9.296844371932739e-05
-0.48795924390724393,-0.48795924390724393,0.999934059425821,9.332063681314785e-05
-0.4873040414910065,-0.4873040414910065,1.0001456277706926,9.273794065120403e-05
-0.48707300729583947,-0.48707300729583947,1.0000206544875512,9.297292085164073e-05
-0.486171639667009,-0.486171639667009,1.0001274212451283,9.218414282172483e-05
-0.4853254856890999,-0.4853254856890999,1.0002139841285433,9.294171690751621e-05
-0.48493845146440434,-0.48493845146440434,0.9999596027642083,9.350317208551263e-05
-0.4845367072499357,-0.4845367072499357,0.9999962089581084,9.257621160003107e-05
-0.4841587345523294,-0.4841587345523294,1.0000116338734792,9.336012332461898e-05
-0.48379267387790603,-0.48379267387790603,0.9999648683555673,9.329348069433123e-05
-0.48332203975878657,-0.48332203975878657,0.9999622815160049,9.372732201840801e-05
-0.48283498602104374,-0.48283498602104374,1.000099344627241,9.554466523010294e-05
-0.48211356982646975,-0.48211356982646975,1.000018770026663,9.27469417596069e-05
-0.4816301417304203,-0.4816301417304203,1.000147432940362,9.297796117395532e-05
-0.4811081896070391,-0.4811081896070391,1.000005062284637,9.357574947763719e-05
-0.4806268852989888,-0.4806268852989888,1.000091995339132,9.254912722230966e-05
-0.4800737409648718,-0.4800737409648718,1.0000335585905398,9.273311358035623e-05
-0.4797273717384087,-0.4797273717384087,1.0002160074028745,9.309488023186952e-05
-0.4793739439744968,-0.4793739439744968,1.0001978462103074,9.311808694457063e-05
-0.4789999572036322,-0.4789999572036322,0.9999126574478179,9.339975248180667e-05
-0.4785995137412101,-0.4785995137412101,0.9999270889048189,9.316223433658043e-05
-0.4775996815908002,-0.4775996815908002,1.0000039271404637,9.249979580397183e-05
-0.4766434373974334,-0.4766434373974334,0.9999703838308875,9.277522700477329e-05
-0.47605186130676885,-0.47605186130676885,0.9999509248775382,9.26731574575308e-05
-0.47551746409153567,-0.47551746409153567,0.9998687956954321,9.279120977063076e-05
-0.47524579624296165,-0.47524579624296165,1.0000662678356975,9.364720498267787e-05
-0.4749315475957701,-0.4749315475957701,0.9998365565059576,9.354803844216292e-05
-0.47427445458597506,-0.47427445458597506,1.0001776837377343,9.277120027692196e-05
-0.47383237594622185,-0.47383237594622185,1.0000735457298346,9.331719869073326e-05
-0.4733646920736646,-0.4733646920736646,1.0001226770322078,9.297536396438288e-05
-0.4730431643401971,-0.4730431643401971,0.9998837695707932,9.274778305010044e-05
-0.47176984656834975,-0.47176984656834975,1.0001671383669088,9.220890473967444e-05
-0.4711439202685142,-0.4711439202685142,0.9999599190678612,9.29158553344204e-05
-0.4707893662387505,-0.4707893662387505,0.9999375409468108,9.37183620231108e-05
-0.47060326409118713,-0.47060326409118713,1.000002423090148,9.314030664229658e-05
-0.4702601963101188,-0.4702601963101188,0.9999958680517667,9.32087448696176e-05
-0.4698763284832239,-0.4698763284832239,1.0000687832184791,9.311271040127437e-05
-0.4694182811625069,-0.4694182811625069,1.0000644309717646,9.347686151745755e-05
-0.4688794547371799,-0.4688794547371799,1.0002220593855018,9.705641705281948e-05
-0.4684868195588933,-0.4684868195588933,0.9999428217527866,9.27250477748749e-05
-0.46781886024400593,-0.46781886024400593,0.9998171220345309,9.340170390029769e-05
-0.4673219931370113,-0.4673219931370113,1.000071174330192,9.260649013781408e-05
-0.46680938080244233,-0.46680938080244233,1.000058024789039,9.328824851851567e-05
-0.46627743990684395,-0.46627743990684395,0.9999866338271082,9.276106733052565e-05
-0.46592794278112704,-0.46592794278112704,0.9999297911463447,9.311008436067236e-05
-0.4655457269924227,-0.4655457269924227,1.0000522464850679,9.273163024065974e-05
-0.46520504263753537,-0.46520504263753537,1.000046374980787,9.369349307541608e-05
-0.46489344210422134,-0.46489344210422134,0.9999669227603245,9.31968553247682e-05
-0.4643376617983449,-0.4643376617983449,0.9999660015957403,9.290966963895739e-05
-0.462993922753958,-0.462993922753958,1.000028682669591,9.337998715539932e-05
-0.46247062637412456,-0.46247062637412456,0.999924922624593,9.300496300582335e-05
-0.46183915936853737,-0.46183915936853737,1.0000340654498914,9.300582696413501e-05
-0.4613309668144211,-0.4613309668144211,1.0001145204839563,9.292027840153659e-05
-0.46101617261592764,-0.46101617261592764,1.0001170749351318,9.349000448206617e-05
-0.4605674086837098,-0.4605674086837098,1.0000472762737704,9.31812062466342e-05
-0.4599571939121233,-0.4599571939121233,1.0001270783076055,9.315863124459095e-05
-0.45967122750298584,-0.45967122750298584,0.9999050311770716,9.309272445715931e-05
-0.4593187854043208,-0.4593187854043208,0.9999514892372712,9.255258232891417e-05
-0.4585936304967618,-0.4585936304967618,0.9998953779884602,9.278400898080876e-05
-0.45748142334341535,-0.45748142334341535,0.9999993680260232,9.236240548434515e-05
-0.4570238532382064,-0.4570238532382064,1.0000802947440273,9.329012787042129e-05
-0.4567436614714097,-0.4567436614714097,0.9999054838027466,9.345956941105151e-05
-0.4565662498032907,-0.4565662498032907,0.9999486216590816,9.311433452547819e-05
-0.4561613113386557,-0.4561613113386557,0.9999286953794553,9.279892639605889e-05
-0.455543765501352,-0.455543765501352,1.0000094540498452,9.327058170698356e-05
-0.45522357352892867,-0.45522357352892867,0.99996195794341,9.333249131233024e-05
-0.4547362459765282,-0.4547362459765282,0.9998107607610747,9.833330724929573e-05
-0.45445614005730023,-0.45445614005730023,0.9998522112083993,9.2094450504126e-05
-0.4538948696077568,-0.4538948696077568,0.9999239464610739,9.386174912783591e-05
-0.4533140924671898,-0.4533140924671898,0.9999412722150606,9.260609536006456e-05
-0.4526844958891161,-0.4526844958891161,1.0000352993021369,9.312967722241642e-05
-0.4522774602577556,-0.4522774602577556,0.9999749048281675,9.293179324497912e-05
-0.45191734697145874,-0.45191734697145874,1.000224291600422,9.333679201731451e-05
-0.4515397045703139,-0.4515397045703139,1.0001072748484834,9.274176522017002e-05
-0.45118656230333726,-0.45118656230333726,1.0000064790749097,9.348757505418901e-05
-0.45091454618086574,-0.45091454618086574,1.0000896321600332,9.318038677095885e-05
-0.45036432647902985,-0.45036432647902985,0.9999712320811547,9.312912532766256e-05
-0.4493151347473031,-0.4493151347473031,1.0000720253637048,9.293755263761615e-05
-0.4486997866159072,-0.4486997866159072,0.9999663316928086,9.33011333688717e-05
-0.4481387195439311,-0.4481387195439311,1.0000770153855487,9.260768031015835e-05
-0.44735889312578364,-0.44735889312578364,1.0000149208837419,9.278733532874397e-05
-0.44691952225985004,-0.44691952225985004,0.9998142663825307,9.38174900410405e-05
-0.44664154105703346,-0.44664154105703346,1.0000693738217339,9.317308328890107e-05
-0.44609311965759846,-0.44609311965759846,0.9998979857280329,9.296476325373449e-05
-0.4457721747487085,-0.4457721747487085,1.0000688741686112,9.348048788346692e-05
-0.4455106002627872,-0.4455106002627872,1.0000974243525083,9.297359066481688e-05
-0.4448326012439793,-0.4448326012439793,1.000031447836696,9.252870196932135e-05
-0.4436630749696633,-0.4436630749696633,0.9999616747608859,9.238696490548194e-05
-0.44316608262015506,-0.44316608262015506,1.0000964878027512,9.297667796842872e-05
-0.44282928919128606,-0.44282928919128606,0.9999091099989391,9.362225434451876e-05
-0.4426835822639987,-0.4426835822639987,0.9998785917433775,9.330645990557198e-05
-0.4424787624244345,-0.4424787624244345,1.0000712370102314,9.317092903961759e-05
-0.44191741414833813,-0.44191741414833813,0.9999810271659613,9.276487341827269e-05
-0.4414559971744893,-0.4414559971744893,0.9998322245651105,9.365586943580238e-05
-0.4407796529267216,-0.4407796529267216,0.9998183219183163,9.25747222881286e-05
-0.4402451374742668,-0.4402451374742668,1.0000121949930458,9.27123570240182e-05
-0.43972830766288096,-0.43972830766288096,1.0000485213093857,9.241215303961167e-05
-0.43877755137509666,-0.43877755137509666,0.9999738782966612,9.311091555518444e-05
-0.43840660829737316,-0.43840660829737316,1.0000686176800735,9.259844080014222e-05
-0.4379975482850568,-0.4379975482850568,0.9999937233200281,9.329080236463781e-05
-0.43763459682813843,-0.43763459682813843,0.9998234078624968,9.277472295027898e-05
-0.43723768326453866,-0.43723768326453866,0.9998389982240408,9.331668143733685e-05
-0.4369984539691359,-0.4369984539691359,1.0000655072181526,9.329802827844012e-05
-0.4365154048922705,-0.4365154048922705,0.9999239953198813,9.354766535316116e-05
-0.4353537379298359,-0.4353537379298359,0.9999942139732279,9.286222040095567e-05
-0.4347609190910589,-0.4347609190910589,1.000133767368078,9.291260679646292e-05
-0.4343899886356667,-0.4343899886356667,0.9999755268170777,9.318894955938619e-05
-0.4336118401784915,-0.4336118401784915,1.0000808524120235,9.258761690442355e-05
-0.43304289781372063,-0.43304289781372063,0.9999427356828295,9.347906039390533e-05
-0.4326739284617361,-0.4326739284617361,1.0001001773071134,9.314165765354163e-05
-0.4322773969353875,-0.4322773969353875,0.9997478358446064,9.299090993672485e-05
-0.4318130550294882,-0.4318130550294882,0.9998755830891909,9.334430415602217e-05
-0.4316113574343035,-0.4316113574343035,0.999814044901378,9.330580432134682e-05
-0.4308196174853947,-0.4308196174853947,0.9998633499766566,9.252257451805995e-05
-0.42978060702444054,-0.42978060702444054,0.9999671882599943,9.256489470853024e-05
-0.42920859813457357,-0.42920859813457357,1.00010527863308,9.290790384289338e-05
-0.4288362372724805,-0.4288362372724805,1.0000116143021107,9.315210882046043e-05
-0.4286192693078192,-0.4286192693078192,0.999976891390229,9.350400828636295e-05
-0.4284153310669353,-0.4284153310669353,1.0001450754879309,9.316353492463618e-05
-0.4278386148333084,-0.4278386148333084,1.0001184333196746,9.277562837440381e-05
-0.42732168278307653,-0.42732168278307653,1.0000404483862153,9.349064352235562e-05
-0.4266990774223814,-0.4266990774223814,0.9999746276421734,9.237058374737425e-05
-0.42640156783454586,-0.42640156783454586,0.9999941190988932,9.295278782435366e-05
-0.42598612009896897,-0.42598612009896897,0.999982516804655,9.276422364930656e-05
-0.425103657800355,-0.425103657800355,0.9998710063685079,9.238344839048154e-05
-0.42451276968349705,-0.42451276968349705,1.0000767699928819,9.29391269652734e-05
-0.4241315320308786,-0.4241315320308786,1.0001882610745472,9.311994566288767e-05
-0.42364848676661493,-0.42364848676661493,0.9998650595724659,9.336403195906684e-05
-0.42327043584373314,-0.42327043584373314,1.0000690157524141,9.313830797116242e-05
-0.4230021457042312,-0.4230021457042312,0.9999659114239193,9.309523168301801e-05
-0.42246444401680494,-0.42246444401680494,0.9999849264051692,9.373173897648181e-05
-0.42183462053653786,-0.42183462053653786,0.9999457905145352,9.429621016097827e-05
-0.42098167184449264,-0.42098167184449264,0.9999844774698264,9.257626688466362e-05
-0.420539444356109,-0.420539444356109,1.0001669392157282,9.326445152440035e-05
-0.4199302930472186,-0.4199302930472186,1.0000654138074376,9.257033780119564e-05
-0.4192558786890004,-0.4192558786890004,0.9998671432471677,9.295085256831306e-05
-0.41878366957826074,-0.41878366957826074,0.999888614388737,9.361651956107578e-05
-0.41845029284304475,-0.41845029284304475,0.9999525111914022,9.319491952821743e-05
-0.4179397189116571,-0.4179397189116571,1.000094377420488,9.27695718644177e-05
-0.41769675055402333,-0.41769675055402333,1.0000191497864583,9.370116439533605e-05
-0.4170665626355913,-0.4170665626355913,0.9998092174482034,9.23472164006793e-05
-0.4159898688958492,-0.4159898688958492,1.0001392695432947,9.293237689983338e-05
-0.4154184508748585,-0.4154184508748585,0.9999457282381681,9.253479885855119e-05
-0.4149734814709518,-0.4149734814709518,0.9999631340072426,9.301573066194135e-05
-0.41458925886254294,-0.41458925886254294,1.0000859437745335,9.329897027270506e-05
-0.4144444067176664,-0.4144444067176664,0.9999436332256926,9.334504084833673e-05
-0.41402660416206344,-0.41402660416206344,0.9999961013811955,9.296320643525964e-05
-0.41336560242343695,-0.41336560242343695,0.9999999238907906,9.330789683838819e-05
-0.4129181091819191,-0.4129181091819191,1.000035409885955,9.29487350912918e-05
-0.4124357576773036,-0.4124357576773036,0.9999322687271885,9.252825325347173e-05
-0.41207642113149634,-0.41207642113149634,0.9999984180782032,9.295964441755087e-05
-0.41092797642340884,-0.41092797642340884,0.9997799720611541,9.219568391761329e-05
-0.41042765038146173,-0.41042765038146173,1.0000659354717998,9.311834340021537e-05
-0.4099896306433948,-0.4099896306433948,0.999836292040911,9.350009430566992e-05
-0.4096052287408384,-0.4096052287408384,0.999886241167235,9.280397160138458e-05
-0.4092395151295932,-0.4092395151295932,1.0000368014046375,9.298083165097212e-05
-0.40896447862323837,-0.40896447862323837,1.0000965450557406,9.383776254090058e-05
-0.4084268826525658,-0.4084268826525658,1.0000922653795195,9.354607349220284e-05
-0.40788922930078114,-0.40788922930078114,1.0001671917782633,9.538433178104427e-05
-0.40706885590334424,-0.40706885590334424,1.0000945220301372,9.309601538052299e-05
-0.4066832574753789,-0.4066832574753789,1.0000509618808482,9.283016474255913e-05
-0.40616023617913016,-0.40616023617913016,1.0001165789614919,9.315381034888605e-05
-0.405597305847914,-0.405597305847914,0.9999313597293865,9.252699491198494e-05
-0.4051499854802387,-0.4051499854802387,0.9999885356982242,9.333411665642065e-05
-0.4048032699502073,-0.4048032699502073,1.0000464060901741,9.324867360552193e-05
-0.40445478647307026,-0.40445478647307026,0.9998226691891462,9.316136803200183e-05
-0.40410129869414957,-0.40410129869414957,1.0001462447964673,9.301597988457425e-05
-0.40353430779359767,-0.40353430779359767,1.0000892004532393,9.290938660024327e-05
-0.4024327754363185,-0.4024327754363185,0.9999199590400367,9.290242121594525e-05
-0.40175176740449386,-0.40175176740449386,0.9999925442828005,9.258779983560675e-05
-0.40116916298284194,-0.40116916298284194,0.9999822626932293,9.267403835646602e-05
-0.40065093360026366,-0.40065093360026366,1.0000646431302072,9.294125618059521e-05
-0.40043751354678536,-0.40043751354678536,1.0000736324719384,9.370880134762831e-05
-0.4000644322746666,-0.4000644322746666,0.9999528737958585,9.333440156768293e-05
-0.39938332623569295,-0.39938332623569295,1.0000238190472701,9.296688063668352e-05
-0.3989690022950526,-0.3989690022950526,1.0000308319054063,9.311511580967005e-05
-0.3985121528035961,-0.3985121528035961,1.0000322549452594,9.276466821651512e-05
-0.3980857407732401,-0.3980857407732401,0.999972521309464,9.279057977404015e-05
-0.39681027697515675,-0.39681027697515675,0.999973997121498,9.220861607444966e-05
-0.3963130586053012,-0.3963130586053012,0.999997171509644,9.327481082409724e-05
-0.39595024872978685,-0.39595024872978685,1.000264363723236,9.333866344914216e-05
-0.39577912890235895,-0.39577912890235895,0.9998483254176789,9.343197057618146e-05
-0.39541386782657356,-0.39541386782657356,0.9998996449157527,9.317276494442494e-05
-0.3950119104876649,-0.3950119104876649,1.0000127158092962,9.329531520444515e-05
-0.3945439422008349,-0.3945439422008349,1.0000955847068334,9.351144717582571e-05
-0.3940548586746445,-0.3940548586746445,0.9999460215608516,9.681409288161581e-05
-0.3935508447670145,-0.3935508447670145,0.9998006444758814,9.252227574492381e-05
-0.39298515155387576,-0.39298515155387576,1.000013597361963,9.314373559046434e-05
-0.39254778703325427,-0.39254778703325427,0.9998549829657197,9.257990258162521e-05
-0.39204744846210815,-0.39204744846210815,1.0000329746850602,9.329571223979242e-05
-0.3915086968889227,-0.3915086968889227,0.9999893480650714,9.276316905068805e-05
-0.39110104698629583,-0.39110104698629583,1.0000508772359336,9.311526615638403e-05
-0.390704431195627,-0.390704431195627,0.9999522119695724,9.271171515116237e-05
-0.3903501968365163,-0.3903501968365163,1.0000813170348342,9.371348694655037e-05
-0.3900919499777956,-0.3900919499777956,1.0001079380064049,9.298301372362608e-05
-0.389281602576375,-0.389281602576375,0.9999410440808199,9.291842262421472e-05
-0.38802145031804686,-0.38802145031804686,0.999987275061024,9.293715698058822e-05
-0.38745998246013186,-0.38745998246013186,1.0000169891753015,9.264070436492586e-05
-0.3867982000519987,-0.3867982000519987,1.000097815288076,9.296657764440544e-05
-0.38644614990917037,-0.38644614990917037,1.0000952043713356,9.31282922522726e-05
-0.3861010079941479,-0.3861010079941479,1.0001093687228646,9.369553201969863e-05
-0.38553844087873584,-0.38553844087873584,0.9999130009405551,9.29664962541669e-05
-0.385066350462148,-0.385066350462148,1.0000836177844552,9.331139648057983e-05
-0.38475083854282277,-0.38475083854282277,0.9999667475188485,9.294389266010051e-05
-0.3843932946008863,-0.3843932946008863,0.9999047612534099,9.254054057212736e-05
-0.3832592035381822,-0.3832592035381822,0.9999695195855873,9.260459139370474e-05
-0.38249302373442334,-0.38249302373442334,0.9998620311330086,9.233170812475636e-05
-0.3821197108569322,-0.3821197108569322,0.9998965043863173,9.370673415114565e-05
-0.3819021017465275,-0.3819021017465275,1.0001798737472831,9.324960657462857e-05
-0.3816451672377298,-0.3816451672377298,1.0000127013913989,9.297646065553113e-05
-0.38112854879873337,-0.38112854879873337,0.9999220837728148,9.298180803755737e-05
-0.3807013858080609,-0.3807013858080609,0.9998315950240085,9.364227809046454e-05
-0.38020453803183046,-0.38020453803183046,1.0001182179326173,9.784571792403893e-05
-0.37987544776988214,-0.37987544776988214,1.0000404081488723,9.293102172147966e-05
-0.37945743211894295,-0.37945743211894295,1.0000299181547398,9.25274366735539e-05
-0.3789670810481766,-0.3789670810481766,0.9999887918430559,9.360809959841896e-05
-0.37822171602456367,-0.37822171602456367,0.999877311601465,9.273606458937344e-05
-0.3777276150736725,-0.3777276150736725,0.9999178560716617,9.315938980757995e-05
-0.37728873050946277,-0.37728873050946277,1.0000727793896353,9.312152770280797e-05
-0.3769621616054792,-0.3769621616054792,0.9999668080369378,9.273566157485994e-05
-0.3765485948417336,-0.3765485948417336,0.9999665454394648,9.329055338388763e-05
-0.37625912825169505,-0.37625912825169505,0.9999384248812101,9.295344571575195e-05
