time,time,flux,flux_err
-0.49993034690245014,-0.49993034690245014,0.9999544056853157,0.0001651477054344303
-0.49982070436029363,-0.49982070436029363,0.9999800248045112,0.00016551739361378909
-0.4997403454556964,-0.4997403454556964,1.0000854016668843,0.00016310425647648213
-0.49968361854480464,-0.49968361854480464,0.9997940213814875,0.00014807799255918863
-0.4995805067126639,-0.4995805067126639,0.9998050431145662,0.0001560294792647948
-0.4994982228454319,-0.4994982228454319,1.0000733727870115,0.00016630407057566064
-0.4993976241989003,-0.4993976241989003,0.9999680455626059,0.00015159160498464934
-0.4992978008391219,-0.4992978008391219,0.9999695327653318,0.0001483359942671626
-0.499198685734882,-0.499198685734882,1.000003525907626,0.00014582769939504767
-0.49909736697954943,-0.49909736697954943,1.000365049145982,0.00014939743301434612
-0.4990207959097461,-0.4990207959097461,0.99973426611053,0.00014927635848981428
-0.4989096703735413,-0.4989096703735413,1.000020017600646,0.0001758627385184011
-0.4987051233409147,-0.4987051233409147,1.0001046580488304,0.00015005376594707696
-0.49851976791978814,-0.49851976791978814,0.9998020619233617,0.0001522167228223613
-0.4984046386227419,-0.4984046386227419,1.0001533796708613,0.0001615591596987391
-0.49824875158228676,-0.49824875158228676,1.0001083950635898,0.00014903828193353055
-0.49810656878762527,-0.49810656878762527,1.0001828431902942,0.00016611021571229543
-0.4980039314148598,-0.4980039314148598,1.0000607819079819,0.00014096354275428805
-0.49783253979039727,-0.49783253979039727,1.0001226120662452,0.00017041112172844366
-0.49766301264171486,-0.49766301264171486,0.9998894256299045,0.0001654473274737796
-0.4975542024651077,-0.4975542024651077,0.9996144999507074,0.00014815768523457803
-0.49741671035444596,-0.49741671035444596,1.0001530967280143,0.00014548089325035863
-0.49728167822686375,-0.49728167822686375,0.9998910359725857,0.0001467517602258631
-0.49713109839576647,-0.49713109839576647,0.9998527634512324,0.0001472295678268449
-0.49705070631898707,-0.49705070631898707,0.9998889761684143,0.00014552431549900709
-0.4969684806004807,-0.4969684806004807,1.0000670773081866,0.00017289166110631484
-0.4967868048850505,-0.4967868048850505,0.9998666456419587,0.00014581744557642395
-0.4966129168707994,-0.4966129168707994,0.9999294779151457,0.00014509487176596165
-0.49653638492382013,-0.49653638492382013,1.0001195234218585,0.00015298050616547693
-0.4964157570138923,-0.4964157570138923,1.0002784387031156,0.0001408957896407949
-0.49634175401879477,-0.49634175401879477,0.9999310234548489,0.0001578085607440717
-0.49622776292744675,-0.49622776292744675,1.0001280410406512,0.00016262415827885955
-0.4961099523214216,-0.4961099523214216,0.9999312826186862,0.00015042104689712402
-0.4959477497948683,-0.4959477497948683,0.9999901085810249,0.00014749216525809748
-0.4958163028510171,-0.4958163028510171,0.9997855494370395,0.0001520257636500207
-0.4956266947563563,-0.4956266947563563,0.9998166933857828,0.00015990228996903122
-0.49552043681032953,-0.49552043681032953,0.9999354427325511,0.00014003193288713553
-0.4953923823362857,-0.4953923823362857,1.0000310377591408,0.00015866192569753836
-0.495229229182587,-0.495229229182587,1.000176481660921,0.00014807369096554512
-0.4951285174531222,-0.4951285174531222,1.0000674610471705,0.00015726998896863477
-0.49495926586241695,-0.49495926586241695,1.0001151489452156,0.00016713457587540044
-0.4948317336362379,-0.4948317336362379,1.0000319860015507,0.00015633543894833437
-0.4946899504931935,-0.4946899504931935,0.9998955478736258,0.00014746286377458764
-0.49459154002979633,-0.49459154002979633,1.0001178114731095,0.00015490214661827338
-0.4944610841179383,-0.4944610841179383,0.9998720686265692,0.0001495705035412372
-0.49428967868007023,-0.49428967868007023,1.000075728073895,0.00016192674411623142
-0.49421932204204494,-0.49421932204204494,0.9999375183723131,0.00014932618541018146
-0.49410545319042287,-0.49410545319042287,1.0000206718639184,0.00015936581870415342
-0.4940606648597168,-0.4940606648597168,0.9999120316446419,0.00014624806368526686
-0.49395903103941236,-0.49395903103941236,1.0002421345904953,0.00014984019654411962
-0.493877411109861,-0.493877411109861,1.0000385722107787,0.00015136127281288746
-0.4937418577581411,-0.4937418577581411,1.0001237737404178,0.0001582389988290613
-0.49365608174994124,-0.49365608174994124,0.9999725000287452,0.00016146182679659511
-0.49356717242699233,-0.49356717242699233,1.0000231633753625,0.0001474395178384784
-0.493415718038159,-0.493415718038159,1.0000931019720514,0.0001455594996123241
-0.4932796327870165,-0.4932796327870165,1.0000081066693804,0.00015345109658770323
-0.4932009197800653,-0.4932009197800653,0.999962721659444,0.00014448979125295986
-0.4930980410266784,-0.4930980410266784,1.0001316065129064,0.00014996457041496859
-0.49296307416443597,-0.49296307416443597,0.9998038885895417,0.00015839221087357098
-0.49286767876401427,-0.49286767876401427,0.9999944066074864,0.0001602818955145634
-0.4927298482398328,-0.4927298482398328,1.0002480188482648,0.00014460929733002589
-0.4925567087753734,-0.4925567087753734,0.9999844369541913,0.00014350335727073772
-0.4923871820632485,-0.4923871820632485,1.0001089339667861,0.0001481069507400084
-0.49223451051366285,-0.49223451051366285,1.000032578053319,0.0001562087999752875
-0.4920752108788292,-0.4920752108788292,1.0001655476678284,0.00016223060106188573
-0.4919128685032774,-0.4919128685032774,1.000168284938932,0.00015200598030562339
-0.491828269657708,-0.491828269657708,1.000069053167897,0.00015448086718545753
-0.49165154329384675,-0.49165154329384675,0.9998133565822434,0.00017718072146250658
-0.4914980426168768,-0.4914980426168768,0.9999570139957861,0.00015160660206398337
-0.4914062581163307,-0.4914062581163307,1.000035657772539,0.00016367012071734013
-0.4913145893777255,-0.4913145893777255,1.0000035398871119,0.00017180160913302255
-0.49119146470475245,-0.49119146470475245,1.0000179586079967,0.0001533675782486962
-0.49108602162086756,-0.49108602162086756,1.0002408906510232,0.0001526473590377179
-0.49098260108221436,-0.49098260108221436,0.9998947443993359,0.0001601577094556927
-0.49088590033716173,-0.49088590033716173,1.0000154791439066,0.00014815009168079124
-0.49077499996274127,-0.49077499996274127,0.9998780444637742,0.0001621505594627938
-0.49068343653998453,-0.49068343653998453,0.9996866419811117,0.00014365533908312786
-0.49059680403297534,-0.49059680403297534,0.9999638895344614,0.0001515875894992173
-0.490535851875029,-0.490535851875029,1.0000464207659838,0.0001433902284111261
-0.4904192502486694,-0.4904192502486694,1.0000727962962404,0.00015812140212699408
-0.490303370073525,-0.490303370073525,1.0002781950348332,0.00014674029126569436
-0.4902130704031151,-0.4902130704031151,0.9998946850122742,0.00021218845633270462
-0.4900345152724185,-0.4900345152724185,0.999936983444857,0.00015058229243479805
-0.4899754120757279,-0.4899754120757279,0.9999445487305607,0.0001514436810951216
-0.48986061137984505,-0.48986061137984505,1.0000947450443014,0.00014816995491463225
-0.4897297890551272,-0.4897297890551272,0.9997923348269732,0.0001626038429969113
-0.48964337222860194,-0.48964337222860194,0.999957614604785,0.0001475859047951605
-0.48944410412586875,-0.48944410412586875,1.0001518590589338,0.00014757208775213778
-0.48927453216019784,-0.48927453216019784,1.000113011052351,0.00014819888720769898
-0.4889630701938586,-0.4889630701938586,1.0000200201955276,0.00014094509757999976
-0.4887802355478925,-0.4887802355478925,0.9998713573550596,0.00014912852261162737
-0.4886989807186183,-0.4886989807186183,1.0000540925983699,0.0001483920649382762
-0.4886153339190059,-0.4886153339190059,1.0000767469390437,0.00014604994902789255
-0.48842022613753217,-0.48842022613753217,1.0002495613372688,0.00015225661262765575
-0.48828214061431935,-0.48828214061431935,0.9998176270761803,0.0001777977759972674
-0.48812249500042526,-0.48812249500042526,0.9997735429904013,0.00015625804297151488
-0.4879696386386058,-0.4879696386386058,0.9998728183950087,0.000146774186754719
-0.4878761598993151,-0.4878761598993151,0.999916018318922,0.0001554574935597655
-0.48776115001455767,-0.48776115001455767,0.99999550557973,0.00014887028466438522
-0.48767649810324654,-0.48767649810324654,1.0000522967993057,0.00016055021467917816
-0.4875880510880961,-0.4875880510880961,0.9998559653294936,0.00014877569203293716
-0.4875150860912981,-0.4875150860912981,1.0000662440845043,0.00015866570609031442
-0.48741516232912546,-0.48741516232912546,0.9999889009411518,0.00014224119217476477
-0.4872719887476705,-0.4872719887476705,1.0000713486823216,0.00014773547717340956
-0.4871096701892384,-0.4871096701892384,0.9998595517906896,0.00014928437363775235
-0.4869669259162038,-0.4869669259162038,0.9998105883266785,0.0001623480585342256
-0.48690937870633205,-0.48690937870633205,0.9999413494603189,0.00015918374371673137
-0.48675289617312956,-0.48675289617312956,1.0001114945963168,0.00015006650932900255
-0.4865515253535705,-0.4865515253535705,1.000069365628947,0.00014414924438847058
-0.4864211963067646,-0.4864211963067646,1.0002845132312388,0.0001659360723023895
-0.4863151016514166,-0.4863151016514166,0.9998088627450766,0.00015043010282929798
-0.48611452850309433,-0.48611452850309433,1.0000515481111694,0.00016110697038800015
-0.48602497592146393,-0.48602497592146393,1.000009067068021,0.00014991860938186902
-0.4857948173361365,-0.4857948173361365,1.0000704667986577,0.0001492380841233646
-0.4856268554874987,-0.4856268554874987,1.0001055259177407,0.0001490173684015254
-0.48550050587873556,-0.48550050587873556,0.999912032213983,0.00014817580451281255
-0.485346618998301,-0.485346618998301,0.9999787470606997,0.00014748627857445756
-0.4850955630150565,-0.4850955630150565,0.9999445085351766,0.00015166833498083326
-0.4849980059021618,-0.4849980059021618,1.0000523455124513,0.00017016563365399414
-0.4848867621141835,-0.4848867621141835,0.9998989114797553,0.00015334636802578685
-0.48464064030195003,-0.48464064030195003,0.9998614895114615,0.00014720033732070387
-0.4845646200614283,-0.4845646200614283,1.0000080719674784,0.00015164522235742227
-0.48447722633791274,-0.48447722633791274,0.9999979688585773,0.0001482421220351607
-0.48435396956992915,-0.48435396956992915,1.000210778334138,0.0001412527356576812
-0.48430857059574917,-0.48430857059574917,0.9998472599427286,0.00015742691803940573
-0.4841995188508008,-0.4841995188508008,0.9999345055175777,0.0001638785893247783
-0.4840619852147938,-0.4840619852147938,1.0001231858291564,0.0001477089395442006
-0.483987154316128,-0.483987154316128,0.9999096463299819,0.0001484424762523083
-0.48385030855497463,-0.48385030855497463,1.000134661130004,0.0001465501391332788
-0.48377034017103143,-0.48377034017103143,1.0000017331914566,0.00015197811402852546
-0.48365965761404367,-0.48365965761404367,0.9999991669717891,0.00016413181572004737
-0.4835034862262546,-0.4835034862262546,1.000058520010938,0.00014470540966459868
-0.48335999499686294,-0.48335999499686294,1.0000668214701753,0.00014531963852979797
-0.48319197311939205,-0.48319197311939205,1.000168004237805,0.00014812816569822795
-0.48306552231879324,-0.48306552231879324,0.9999782385093295,0.00016625968910754762
-0.4828943679509393,-0.4828943679509393,0.9999860163479463,0.00016380506960981002
-0.482798087302217,-0.482798087302217,1.0002853629582817,0.00015469406124032952
-0.48266389008203986,-0.48266389008203986,1.000049867012396,0.00015629549040911347
-0.4825049095576105,-0.4825049095576105,0.9999772369378246,0.00015210878398720602
-0.48229963071353266,-0.48229963071353266,1.000130981039114,0.00016158477387715376
-0.4821626323195233,-0.4821626323195233,1.0002062984700546,0.00016036166485776038
-0.48208453371480575,-0.48208453371480575,0.9998912924319348,0.0001503150386240482
-0.481990981814306,-0.481990981814306,1.0001348466830515,0.00014723801702923978
-0.48185654708431686,-0.48185654708431686,1.0000618031887485,0.00014672387732937302
-0.48180774523789294,-0.48180774523789294,0.9999873099379487,0.0001526165234270385
-0.481677618255344,-0.481677618255344,0.9999446517727503,0.00016996166298740333
-0.4816103177232435,-0.4816103177232435,1.0001128501415455,0.00014813611029359857
-0.48149532810639356,-0.48149532810639356,0.9999888517550817,0.00014947644858152474
-0.48127638333389766,-0.48127638333389766,1.000118828720734,0.00015393258162968893
-0.48117306641652247,-0.48117306641652247,0.9999314299606785,0.00014519370080219723
-0.481106973542046,-0.481106973542046,1.000004309096558,0.00014827411043659923
-0.4809119766403455,-0.4809119766403455,1.0001952259755136,0.00016732997702235123
-0.4807672961273056,-0.4807672961273056,1.0001286995251157,0.00014848932745603177
-0.48060505845278384,-0.48060505845278384,0.9999811526979301,0.00014774607775334673
-0.48040812350300255,-0.48040812350300255,1.0001150691659324,0.00015582496192722637
-0.48026080111085323,-0.48026080111085323,1.0000993712725117,0.00016158552415578231
-0.4800486409360019,-0.4800486409360019,0.9999947822283939,0.00014939829189772352
-0.4798782794234285,-0.4798782794234285,0.9998864598282358,0.00014951134055400154
-0.47978944823771597,-0.47978944823771597,0.9997771822660833,0.00015738941057449613
-0.4796671328200318,-0.4796671328200318,1.0000557195784143,0.00015949188427233173
-0.47949408506756297,-0.47949408506756297,0.9997388419758668,0.00015313066573521396
-0.4794038603627996,-0.4794038603627996,1.000182810382697,0.0001489449790103577
-0.47929278279989374,-0.47929278279989374,1.000101020347873,0.00015416955692126812
-0.4791069020306168,-0.4791069020306168,1.0001473473041647,0.0001579823389765018
-0.4790149851527531,-0.4790149851527531,0.9997303919490201,0.00014741391573814842
-0.47892143582794233,-0.47892143582794233,1.0000273932995278,0.00015833470240581807
-0.4788414605660364,-0.4788414605660364,0.9997763096576472,0.0001609771857840858
-0.4787444398396474,-0.4787444398396474,1.000143594407424,0.00014412167257383263
-0.47865226497524416,-0.47865226497524416,1.000010743046568,0.00014995766287650717
-0.4785321774041222,-0.4785321774041222,0.9999846048479502,0.00014881203777136106
-0.47847669831608075,-0.47847669831608075,0.9996993301237757,0.00014439674253015705
-0.4783934869643417,-0.4783934869643417,1.0000860963238336,0.0001611837592433555
-0.47824011726261234,-0.47824011726261234,0.9999482090408979,0.0001537764883639856
-0.47801099868593155,-0.47801099868593155,1.0001999739464797,0.0001518152840522405
-0.4779376795049757,-0.4779376795049757,0.9999702252620029,0.0001454722562691727
-0.47785542806595915,-0.47785542806595915,1.0000210670239835,0.00014337968603756807
-0.4777192548281164,-0.4777192548281164,0.9997958394132533,0.00016256338503975007
-0.47762856446352087,-0.47762856446352087,1.0001441990725717,0.0001645151118487317
-0.47743268303674996,-0.47743268303674996,1.0000986618936072,0.00014284546424725788
-0.4772516793520481,-0.4772516793520481,1.000151847008686,0.00015353532529020775
-0.4770234971671016,-0.4770234971671016,0.9998312737213307,0.00014762216517817388
-0.47682171873311746,-0.47682171873311746,1.0000076667673343,0.0001416632816437974
-0.4767121079537901,-0.4767121079537901,1.0001082910700403,0.00016120769097868818
-0.4766274787369184,-0.4766274787369184,1.0004083014835286,0.00014792172924254615
-0.47646546920441324,-0.47646546920441324,0.9998426930416681,0.0001451678695532032
-0.4763095562637318,-0.4763095562637318,1.0000533971430101,0.00016810466305766685
-0.47618914364720694,-0.47618914364720694,0.999599383653903,0.00016561291666202275
-0.4760443909020978,-0.4760443909020978,0.9999686000837738,0.00016306253291121223
-0.47592576499664574,-0.47592576499664574,0.9998072378987695,0.0001509431833377691
-0.47581767266237873,-0.47581767266237873,1.0001036414021214,0.0001521177070186332
-0.4756997934688115,-0.4756997934688115,1.0000160276060077,0.0001508508431238912
-0.47563089831965044,-0.47563089831965044,0.999944044104697,0.0001598919266429818
-0.4755281098208798,-0.4755281098208798,1.0001727073506839,0.00014379464830695308
-0.4755032291825046,-0.4755032291825046,1.0002587507940361,0.00016257456611587704
-0.47543362678043194,-0.47543362678043194,1.0001381491564416,0.00014271394016038491
-0.47535170878181815,-0.47535170878181815,0.9998843683704454,0.00014636056305718237
-0.47526994981308235,-0.47526994981308235,0.9999574197389947,0.00014387647424722388
-0.4751806036496419,-0.4751806036496419,1.0000779571040053,0.00015053416502356208
-0.4750036627636291,-0.4750036627636291,1.00002721990578,0.00016282127469702498
-0.4749099813503562,-0.4749099813503562,0.9999522865861131,0.0001641648767022958
-0.47474764885919285,-0.47474764885919285,0.9999659657054213,0.00014845378882849154
-0.47454053338369706,-0.47454053338369706,0.9999372401229648,0.00014574402544095897
-0.47443689922001797,-0.47443689922001797,0.9999981346818105,0.00014936292854376862
-0.47435594429916816,-0.47435594429916816,1.0001138319116518,0.00016417952346456393
-0.474277649117721,-0.474277649117721,0.9999751585817938,0.00014904167267782047
-0.47410899305468773,-0.47410899305468773,1.0000164986440043,0.0001644173455803165
-0.4740298067743424,-0.4740298067743424,1.000129849560214,0.00015740403078652054
-0.47386113146785647,-0.47386113146785647,1.0000578817082117,0.00018162297468428073
-0.47370133134973,-0.47370133134973,0.9999886229228542,0.0001475333490543547
-0.4735641639948881,-0.4735641639948881,0.9998960737180955,0.0001460420622547441
-0.47349517507173006,-0.47349517507173006,0.9999957853257495,0.0001460142803690583
-0.47340778552243135,-0.47340778552243135,0.9998943444407319,0.00015212895929257454
-0.47326062916908995,-0.47326062916908995,0.9999020413217135,0.00015687614796563483
-0.4730275234171131,-0.4730275234171131,1.0002844301795921,0.00017405991907457578
-0.47293595037117486,-0.47293595037117486,1.0000853064422481,0.0001468705128539101
-0.47280325247847943,-0.47280325247847943,1.0000747325847237,0.00014715466973282376
-0.4726447333974647,-0.4726447333974647,0.9999843826772482,0.0001447680380338831
-0.4725408368103672,-0.4725408368103672,0.9998644300396415,0.00015409210966093302
-0.4725073338137008,-0.4725073338137008,1.000152529578695,0.00015944510623868395
-0.4724682526270044,-0.4724682526270044,0.9998496383800756,0.00015035380599116293
-0.47234177232094227,-0.47234177232094227,1.0002508741812028,0.00014173416841820402
-0.47227466365511644,-0.47227466365511644,1.0000264403939645,0.00015773845107878417
-0.47219645204240807,-0.47219645204240807,0.9996956127057794,0.00016416753396654587
-0.47204282984312157,-0.47204282984312157,1.0000502997610363,0.00014966525046348323
-0.4719136737519875,-0.4719136737519875,0.9999484543750716,0.000152103742539566
-0.47181611783453264,-0.47181611783453264,0.9996525518402406,0.00015003621613991067
-0.4717199907558097,-0.4717199907558097,1.0000913813255214,0.000148743315813102
-0.47162814468174474,-0.47162814468174474,0.9999474699847528,0.00016056380783118719
-0.4714055872784229,-0.4714055872784229,1.0000457399290796,0.0001411058298261706
-0.4712410273743444,-0.4712410273743444,0.9999818861523435,0.00015306746974828763
-0.4711380400782218,-0.4711380400782218,1.0001208493660625,0.00015955231430230159
-0.4709802010605927,-0.4709802010605927,1.0001644968437486,0.00016616012835316197
-0.4708102979209798,-0.4708102979209798,0.9999917121584637,0.0001559315137845938
-0.47073275324582936,-0.47073275324582936,0.9999635398832751,0.00016619986157911303
-0.47062454909610096,-0.47062454909610096,0.9998936950222561,0.00015352526138588256
-0.4703969063302793,-0.4703969063302793,1.0002685377104672,0.00016229773812777675
-0.47023716115145364,-0.47023716115145364,1.000160888529222,0.00014515614725111196
-0.47008712082388227,-0.47008712082388227,0.9999271677007947,0.0001457444737555436
-0.46998970858330724,-0.46998970858330724,1.0001274292071407,0.00015022858570038722
-0.469892940230784,-0.469892940230784,0.9998861443745077,0.00014615927422986162
-0.46974550595332404,-0.46974550595332404,1.0000683956751026,0.00016464235352703252
-0.4696428036251746,-0.4696428036251746,1.0000512640801742,0.00015725854484898788
