time,time,flux,flux_err
-0.49989305341538665,-0.49989305341538665,0.9991812792097251,8.510901624065016e-05
-0.499778842383724,-0.499778842383724,0.9996475928653884,8.52479901380659e-05
-0.49963583279410767,-0.49963583279410767,0.9993995604191853,8.207586828303165e-05
-0.49951845441100884,-0.49951845441100884,0.9995431663301645,7.80474372164265e-05
-0.49940556477959036,-0.49940556477959036,0.9990173812808354,8.131816558358238e-05
-0.49928337239689424,-0.49928337239689424,0.9991102044043924,7.719748066706171e-05
-0.4991885002600611,-0.4991885002600611,0.999350695777184,7.473514595785013e-05
-0.4990197082181112,-0.4990197082181112,0.9993246971999842,7.846813802238352e-05
-0.49891335960273864,-0.49891335960273864,0.9994617343123394,7.527421274783951e-05
-0.4988240195409162,-0.4988240195409162,0.9997469531895595,7.931533423989432e-05
-0.4987494875967968,-0.4987494875967968,0.9992129548535205,7.59963284000951e-05
-0.49867680726456454,-0.49867680726456454,0.9997613458294692,7.707397936090593e-05
-0.4985149542597355,-0.4985149542597355,0.9992153348347552,7.593887470945197e-05
-0.4984362605973729,-0.4984362605973729,0.9991801636689621,7.879750832377937e-05
-0.49825185942754613,-0.49825185942754613,0.9998962865850715,7.614778400008138e-05
-0.4980573762120912,-0.4980573762120912,0.999364662663843,7.870028967660067e-05
-0.4978977821127046,-0.4978977821127046,0.9993828854179126,7.90666290927435e-05
-0.4977902981830994,-0.4977902981830994,0.9991957619794742,7.954375939365501e-05
-0.4976967467344366,-0.4976967467344366,0.9998286970672968,7.901222353947341e-05
-0.4975004940541112,-0.4975004940541112,0.9996362554705985,7.59146555776369e-05
-0.4973484991758596,-0.4973484991758596,0.9992698024944235,7.84252478865831e-05
-0.4972141693011508,-0.4972141693011508,0.9991978035021895,7.71228050687979e-05
-0.49712614999734794,-0.49712614999734794,0.9992800341620376,7.896000977726655e-05
-0.4969435690538376,-0.4969435690538376,0.999323612132587,7.803718498765785e-05
-0.4967521352562471,-0.4967521352562471,0.999660228191043,7.647479069592943e-05
-0.49662322129297537,-0.49662322129297537,0.99963622519683,7.544501780192585e-05
-0.4965276010290836,-0.4965276010290836,0.9987809122454261,7.851857157661768e-05
-0.4964720832809689,-0.4964720832809689,0.9993495293742491,7.937063794343337e-05
-0.49635895049432294,-0.49635895049432294,0.9995357751810481,7.584694854250555e-05
-0.4961968215444358,-0.4961968215444358,0.9994594368849128,8.00083436139265e-05
-0.4960366013809107,-0.4960366013809107,0.9992891470169363,7.63613112103668e-05
-0.49595768635481363,-0.49595768635481363,0.9994102170844521,7.694298672634508e-05
-0.49583872125222117,-0.49583872125222117,0.9990369826732355,7.935690898546797e-05
-0.4957136052486021,-0.4957136052486021,0.9991975957442323,7.584784932641595e-05
-0.4955886423296761,-0.4955886423296761,0.9993949923081615,7.565001286226905e-05
-0.49546519627183444,-0.49546519627183444,0.9995186148789145,7.989197194162241e-05
-0.4952927600214025,-0.4952927600214025,0.9998686886942766,7.769822262399212e-05
-0.4951318112143781,-0.4951318112143781,0.9995367226449613,8.141135408379443e-05
-0.49498637103970394,-0.49498637103970394,0.9990216050004651,7.566914966655683e-05
-0.4948830503242789,-0.4948830503242789,0.9996930432076911,7.778366626130535e-05
-0.49477664622827433,-0.49477664622827433,0.9996418174730615,7.98017947339994e-05
-0.49470888633077265,-0.49470888633077265,0.999402688847273,7.630716648553446e-05
-0.49462950269517025,-0.49462950269517025,0.999552975151507,7.476703070188708e-05
-0.4944727671754663,-0.4944727671754663,0.9992414080549212,7.816233761586495e-05
-0.49425450014532546,-0.49425450014532546,0.9996346062568765,7.635024283176984e-05
-0.4940553926600842,-0.4940553926600842,0.9990230114996608,7.736649538983716e-05
-0.49389055132342036,-0.49389055132342036,0.9992702777698457,7.709716943710295e-05
-0.4938136049066088,-0.4938136049066088,0.9991886579807175,7.631854884196837e-05
-0.4937496131009539,-0.4937496131009539,0.9998585518340967,7.744754972295251e-05
-0.4936298705084482,-0.4936298705084482,0.999790059729882,8.002490551421441e-05
-0.4935398721456295,-0.4935398721456295,0.9990634215459293,7.697244906821559e-05
-0.4934623459848808,-0.4934623459848808,0.9997537312288003,7.59828851383286e-05
-0.4933375452295877,-0.4933375452295877,0.9993496380290205,7.54953511493602e-05
-0.4932008047995623,-0.4932008047995623,0.999112680764064,7.617621645757198e-05
-0.49300959997199245,-0.49300959997199245,0.9995762869393724,7.672183877146392e-05
-0.4929313583954354,-0.4929313583954354,0.9994827777494735,7.857490897957126e-05
-0.4928557079329039,-0.4928557079329039,0.9991543144739758,7.628485116990881e-05
-0.49275714848045027,-0.49275714848045027,0.9992258564963071,7.82279873175404e-05
-0.49257337553281105,-0.49257337553281105,0.9994113766904095,7.813929079636121e-05
-0.4925049100231263,-0.4925049100231263,0.9991820404873124,8.249143559523648e-05
-0.49229412789136406,-0.49229412789136406,0.9988789186986551,7.752518950371291e-05
-0.4921602121452452,-0.4921602121452452,0.9991061835542296,8.082908650131822e-05
-0.4920768986325129,-0.4920768986325129,0.9993409763244235,8.061091902429441e-05
-0.4919857530709123,-0.4919857530709123,0.9992977153413202,7.560067916511535e-05
-0.49186971796734724,-0.49186971796734724,0.9995759155084991,8.013039198330335e-05
-0.49177713848475835,-0.49177713848475835,0.9992962831207327,7.666391375355108e-05
-0.491707502581994,-0.491707502581994,0.9992879704341352,7.755150855993833e-05
-0.49151964329794284,-0.49151964329794284,0.9993732865500414,7.42999231615017e-05
-0.4913094771865872,-0.4913094771865872,0.9996918828653504,7.475559309722746e-05
-0.4911392697133124,-0.4911392697133124,0.999496017575696,7.838023513062869e-05
-0.4909944766375702,-0.4909944766375702,0.9991579615596725,7.890126189241263e-05
-0.4908715879413649,-0.4908715879413649,0.9993240932483871,7.704009653749701e-05
-0.490767379735189,-0.490767379735189,0.9992405563515373,7.684864400882991e-05
-0.49070242907910144,-0.49070242907910144,0.9992835713179339,7.823934160253976e-05
-0.49055974040238653,-0.49055974040238653,0.999340976853777,7.656443111084862e-05
-0.4904615019157063,-0.4904615019157063,0.9995067823061836,7.930471509562484e-05
-0.49029201699449915,-0.49029201699449915,0.9998300836213263,7.883461929603665e-05
-0.4901356578397099,-0.4901356578397099,0.9993438931023629,7.691946855898488e-05
-0.4900465416983934,-0.4900465416983934,0.9994370185614303,8.00419538144251e-05
-0.48989725656283556,-0.48989725656283556,0.9998380563897534,7.79559745841203e-05
-0.48976152806571915,-0.48976152806571915,0.999220060625861,7.58970315824866e-05
-0.4896366711662267,-0.4896366711662267,0.9992034354955776,7.661762643735453e-05
-0.48950760179723146,-0.48950760179723146,0.9992408447834359,8.0096526840334e-05
-0.48935152265330545,-0.48935152265330545,0.9992861596852677,7.714535017379603e-05
-0.48918376575165895,-0.48918376575165895,0.9993871478074741,8.047841163555161e-05
-0.4891142022141139,-0.4891142022141139,0.9992122397847074,7.634469992120164e-05
-0.48906647368712586,-0.48906647368712586,0.9989339520160669,7.743195884298434e-05
-0.4889889593803673,-0.4889889593803673,0.9991141025534139,7.943150332017856e-05
-0.488891861695447,-0.488891861695447,0.9992676233270293,7.767956139095271e-05
-0.48875545683840754,-0.48875545683840754,0.9992646611264624,7.567011473999039e-05
-0.48852489726996284,-0.48852489726996284,0.9993567667954302,7.625977433356948e-05
-0.4883054719612119,-0.4883054719612119,0.9989883774469799,7.6707988466912e-05
-0.4881959969570744,-0.4881959969570744,0.9993534615841184,7.932781573674953e-05
-0.4881069093069527,-0.4881069093069527,0.999444895583008,7.857222846618345e-05
-0.4879472841057577,-0.4879472841057577,0.9999278919504111,7.599945393250941e-05
-0.48784922331396957,-0.48784922331396957,0.9995431891709302,7.816847089817545e-05
-0.4877892409393098,-0.4877892409393098,0.9991758224499439,7.587673231238951e-05
-0.48767387754487573,-0.48767387754487573,0.9994249213849068,7.595408922115322e-05
-0.48755945665325273,-0.48755945665325273,0.9991400435157276,7.804313902564196e-05
-0.48749815288028914,-0.48749815288028914,0.9994948768676208,7.704438256804185e-05
-0.48735714216600173,-0.48735714216600173,0.9994878436379843,7.65431357823492e-05
-0.4871735099106445,-0.4871735099106445,0.9995884889649588,7.671463795094891e-05
-0.48697595256817294,-0.48697595256817294,0.9994703190439171,7.954997083745504e-05
-0.48681387419637756,-0.48681387419637756,0.9990792876415249,7.799346191197007e-05
-0.4867192713310942,-0.4867192713310942,0.9993423324378478,7.482070538159164e-05
-0.48660137176048013,-0.48660137176048013,0.999300887320485,8.054599799306735e-05
-0.48648519633716203,-0.48648519633716203,0.9996026421815415,7.804817142067585e-05
-0.4863864140599617,-0.4863864140599617,0.9994425378858505,7.824321225786884e-05
-0.4862703371603857,-0.4862703371603857,0.9995043890214154,7.584019551144925e-05
-0.48614504896831934,-0.48614504896831934,0.9992391260228229,7.915263605201235e-05
-0.48601463675149714,-0.48601463675149714,0.9993488999069691,7.964881336231644e-05
-0.48584506446059095,-0.48584506446059095,0.9995137244252268,7.705245595200261e-05
-0.4856807856980595,-0.4856807856980595,0.9992436358664346,7.535810645050357e-05
-0.48557478066650217,-0.48557478066650217,0.9994548798114652,7.929592280537197e-05
-0.4854681997734588,-0.4854681997734588,0.999402731490623,7.744452674842542e-05
-0.4853369792166632,-0.4853369792166632,0.9998841163826061,7.556741757931629e-05
-0.4852295270800823,-0.4852295270800823,0.999487115305443,7.976688543133931e-05
-0.48509885271632813,-0.48509885271632813,0.9994129528514755,7.557769373482413e-05
-0.4849324573791819,-0.4849324573791819,0.9992126551567038,7.838818455106866e-05
-0.4848262855564826,-0.4848262855564826,0.999194084872336,8.085775721761245e-05
-0.4847083208602271,-0.4847083208602271,0.9994530535508244,7.844399472335603e-05
-0.4845989679248305,-0.4845989679248305,0.9994570353923196,7.687937470843466e-05
-0.4844367675163085,-0.4844367675163085,0.9995967848792624,7.730913714329373e-05
-0.4842973803402856,-0.4842973803402856,0.9990052915725565,7.644792280626876e-05
-0.48417000322951936,-0.48417000322951936,0.9993718006298182,7.80109844839569e-05
-0.4840826417988865,-0.4840826417988865,0.9996365020707337,8.038957438257242e-05
-0.48390725587523775,-0.48390725587523775,0.9992502034856319,7.994394254947128e-05
-0.4837534186095581,-0.4837534186095581,0.9993428439571295,7.594257057802629e-05
-0.4836998840299202,-0.4836998840299202,0.9988471037483121,7.936976030003761e-05
-0.48361720388638785,-0.48361720388638785,0.9992876374886303,7.722484190528711e-05
-0.4834537481307052,-0.4834537481307052,0.9990891805215487,7.494378898296797e-05
-0.483196949257399,-0.483196949257399,0.9992023729835502,7.669688279057157e-05
-0.48308400792593603,-0.48308400792593603,0.999328270785484,7.696757560147188e-05
-0.482892049192742,-0.482892049192742,0.9991789699194976,7.62839925575124e-05
-0.4826937725782045,-0.4826937725782045,0.9992305163946533,7.663380703467858e-05
-0.48258528526057487,-0.48258528526057487,0.9995316229956188,7.606561416035948e-05
-0.4825061196112074,-0.4825061196112074,0.9994937809165428,7.635760925038957e-05
-0.482323877037561,-0.482323877037561,0.9997621759367605,7.913505492040788e-05
-0.48218678375124,-0.48218678375124,0.9993284796885021,7.708630429052133e-05
-0.48204272736620624,-0.48204272736620624,0.9991342570178858,7.644046865828841e-05
-0.4819424164001248,-0.4819424164001248,0.999443961551483,7.459016307665537e-05
-0.4818526392962667,-0.4818526392962667,0.9993853085436623,8.006084144944971e-05
-0.4817258479641168,-0.4817258479641168,0.999453146283173,8.050329297977602e-05
-0.48156174197793006,-0.48156174197793006,0.9995466970828385,7.798452678178934e-05
-0.48149671792634763,-0.48149671792634763,0.9990523862579728,7.803394300163658e-05
-0.4813692400319269,-0.4813692400319269,0.9995464000024341,7.713296616141917e-05
-0.48126709320786176,-0.48126709320786176,0.9992534936384544,7.794403777665076e-05
-0.4811068859198713,-0.4811068859198713,0.9991924770864056,8.078792166328627e-05
-0.48099876665655755,-0.48099876665655755,0.999382950642382,7.874146103547062e-05
-0.4808679176858277,-0.4808679176858277,0.9990338861858683,7.53982714665444e-05
-0.48077893682493594,-0.48077893682493594,0.9996013748791116,7.763724129396581e-05
-0.48063273254665545,-0.48063273254665545,0.9985660406331547,7.681664352302783e-05
-0.4804807404259918,-0.4804807404259918,0.9991858434322441,7.791939183881524e-05
-0.48039055221015586,-0.48039055221015586,0.9990570328025166,7.558920540174924e-05
-0.480315255910682,-0.480315255910682,0.9992434937336536,7.858945663469298e-05
-0.4802510461260681,-0.4802510461260681,0.9991089164583291,7.916512276279032e-05
-0.4801451308245305,-0.4801451308245305,0.9992364615411397,7.566944883786521e-05
-0.4799706223260728,-0.4799706223260728,0.9991571504514974,7.724739783551379e-05
-0.47975953267596194,-0.47975953267596194,0.9995693449709352,7.643855371604867e-05
-0.4796302270391607,-0.4796302270391607,0.9994801997561147,7.698600331751732e-05
-0.47952470789896323,-0.47952470789896323,0.9992245004460478,7.593284674194852e-05
-0.4793558580116951,-0.4793558580116951,0.9995209870094259,7.80384126577409e-05
-0.47922000280668725,-0.47922000280668725,0.9995044716745263,7.743594967219359e-05
-0.47901158222957746,-0.47901158222957746,0.9995273706051646,7.686462912808699e-05
-0.4788669527406455,-0.4788669527406455,0.999907178810935,8.334194869803602e-05
-0.4787476608573343,-0.4787476608573343,0.999440490661281,7.770036318476784e-05
-0.47868143871310165,-0.47868143871310165,0.9995215647675814,7.711916011997531e-05
-0.478540155790688,-0.478540155790688,0.9992656436675906,7.692666755726801e-05
-0.4784618821693584,-0.4784618821693584,0.9996084565214037,7.733211169531627e-05
-0.47838672785728703,-0.47838672785728703,0.9991133938690329,7.663583610856633e-05
-0.4782767731740023,-0.4782767731740023,0.9992926360233847,7.899614122084951e-05
-0.47808072139741853,-0.47808072139741853,0.9995423130813078,7.739384380199305e-05
-0.47789153755438746,-0.47789153755438746,0.9993976070456574,7.904359637764522e-05
-0.47774286262574606,-0.47774286262574606,0.9994963897535107,7.749583478235068e-05
-0.47763826421578415,-0.47763826421578415,0.9996741338607039,7.850555341913546e-05
-0.47755127013952003,-0.47755127013952003,0.9994734095024699,7.582397670624891e-05
-0.47741498665709514,-0.47741498665709514,0.9996562608287449,7.986371936318788e-05
-0.4773469338018913,-0.4773469338018913,0.9994541631840402,7.885893061848326e-05
-0.47718750583735525,-0.47718750583735525,0.9994478624710592,7.51609153227318e-05
-0.4770763029096997,-0.4770763029096997,0.9992956399489501,7.800718405385945e-05
-0.47697537077765445,-0.47697537077765445,0.9996607475852184,7.553925746455914e-05
-0.4768995491307578,-0.4768995491307578,0.9994269486988078,7.686906440875863e-05
-0.4767536803963594,-0.4767536803963594,0.9995522785184452,7.595753179308407e-05
-0.4766318342619343,-0.4766318342619343,0.999541890564856,7.671997093005e-05
-0.47652802133670774,-0.47652802133670774,0.9992783263819593,8.053165490089224e-05
-0.47634988050413085,-0.47634988050413085,0.9994140348867916,7.784454354718963e-05
-0.4762507617197116,-0.4762507617197116,0.99961883682172,7.951921951162635e-05
-0.47606273252458775,-0.47606273252458775,0.9995159747735816,7.521569585065702e-05
-0.47594768438139,-0.47594768438139,0.9991507399853117,7.863461736877084e-05
-0.4758035449500312,-0.4758035449500312,0.999194476556925,7.753378720659329e-05
-0.4757025716782664,-0.4757025716782664,0.9995168535094269,7.824425704245379e-05
-0.4756041281245416,-0.4756041281245416,0.9993802544644133,7.803766277911741e-05
-0.47549515302234796,-0.47549515302234796,0.9997008423661352,7.501645341631483e-05
-0.4753641904651886,-0.4753641904651886,0.9996958338206394,7.765962334211616e-05
-0.4752713059046073,-0.4752713059046073,0.9991763288355269,8.087062403006021e-05
-0.4751562054065289,-0.4751562054065289,0.9992658497270407,7.673439081487244e-05
-0.47503391625214136,-0.47503391625214136,0.9990886370873724,7.82227446898629e-05
-0.47484120368899313,-0.47484120368899313,0.9992504796166989,7.513414409948662e-05
-0.4747475818963721,-0.4747475818963721,0.9996553678913724,7.654247869237906e-05
-0.474670029785193,-0.474670029785193,0.9991144972100301,7.893261136152909e-05
-0.47457832303189207,-0.47457832303189207,0.9991292981240509,7.726764773148466e-05
-0.4744423967276816,-0.4744423967276816,0.9996880178364613,7.624005375063791e-05
-0.4743547750491416,-0.4743547750491416,0.999300056863822,7.868354795225031e-05
-0.4742486062576063,-0.4742486062576063,0.9992260672131593,7.627803406717109e-05
-0.4740046059698216,-0.4740046059698216,0.999219584336454,7.572478413593589e-05
-0.4738903568111709,-0.4738903568111709,0.9994734239020502,8.184115932080605e-05
-0.4737257777742343,-0.4737257777742343,0.9994046077673154,7.8304275077681e-05
-0.47362702203681695,-0.47362702203681695,0.9995945456097857,8.006584672049007e-05
-0.4734255740433582,-0.4734255740433582,0.9996160336503677,7.681170021263843e-05
-0.4732838221345446,-0.4732838221345446,0.999388883549349,7.731022371276414e-05
-0.4731514505445375,-0.4731514505445375,0.9992803874406062,7.587635650911965e-05
-0.47305572056066014,-0.47305572056066014,0.9994194826452703,7.704842464979128e-05
-0.4729439494869439,-0.4729439494869439,0.999329705374248,8.01689466435662e-05
-0.4727620469071553,-0.4727620469071553,0.9995667049388193,7.753331410306516e-05
-0.47265131831372853,-0.47265131831372853,0.9995220095635642,7.614095118096778e-05
-0.47252371391805353,-0.47252371391805353,0.9995496109213027,7.60103601491353e-05
-0.4724346167218755,-0.4724346167218755,0.9992510471035538,7.799186294961031e-05
-0.47239405479922425,-0.47239405479922425,0.9992122040799396,7.80922571300862e-05
-0.4723131645907415,-0.4723131645907415,0.9996153576710114,7.84649297077487e-05
-0.4721571235611918,-0.4721571235611918,0.9992301863840833,8.057785341695829e-05
-0.47203712328191616,-0.47203712328191616,0.9997902641272354,7.529444086921237e-05
-0.4718981380108744,-0.4718981380108744,0.9993592144989893,7.722417024871427e-05
-0.47179100459761686,-0.47179100459761686,0.9993220521382188,7.91567808223381e-05
-0.47168321708741134,-0.47168321708741134,0.9988394885953982,7.671168653210388e-05
-0.4715616401445004,-0.4715616401445004,0.9993153146390176,7.545250722479614e-05
-0.4714418795556412,-0.4714418795556412,0.9994346472013713,7.531458036394934e-05
-0.4713446454130462,-0.4713446454130462,0.9994698032090049,8.011295126407965e-05
-0.47114708899753166,-0.47114708899753166,0.9997158779463267,7.773511215780161e-05
-0.4709959877029178,-0.4709959877029178,0.9993806657517517,8.071041280074994e-05
-0.4708487043651985,-0.4708487043651985,0.9992258209949434,7.639021194328424e-05
-0.4707412483970984,-0.4707412483970984,0.9995999201650119,7.999824244065708e-05
-0.4706470474571688,-0.4706470474571688,0.9997804466224517,7.704154619075072e-05
-0.4705880767098279,-0.4705880767098279,0.9994726555157513,7.603245916844734e-05
-0.470473936831695,-0.470473936831695,0.9996995206667949,7.628595905124274e-05
-0.4703643219792866,-0.4703643219792866,0.9997938381049666,7.820155103441941e-05
-0.47017632168135604,-0.47017632168135604,0.9995102301284309,7.667671615280925e-05
-0.46994456993270434,-0.46994456993270434,0.9991743330533591,7.867798577136463e-05
-0.46975834680342815,-0.46975834680342815,0.9992447010664849,7.65925718515017e-05
-0.4696708324496285,-0.4696708324496285,0.9991575795705007,7.63209808031958e-05
-0.469562098813185,-0.469562098813185,0.9996459653118273,7.668788204482056e-05
-0.4694495717063546,-0.4694495717063546,0.9992009361814922,7.837568131245676e-05
-0.4693645279636257,-0.4693645279636257,0.9995797324700723,7.683597812919521e-05
-0.46921162712969816,-0.46921162712969816,0.9994930490399112,7.574613036448493e-05
-0.4690727771318052,-0.4690727771318052,0.9991325649934414,7.602385661176646e-05
-0.4689100547329872,-0.4689100547329872,0.9995541427463601,7.783025178601839e-05
