time,time,flux,flux_err
-0.49983979989519867,-0.49983979989519867,0.9999035057558258,0.0001404716560065238
-0.4995977259592716,-0.4995977259592716,1.0000278044192703,0.00014179834482684161
-0.49947749720801465,-0.49947749720801465,0.999962428038964,0.0001411491253406331
-0.49921041410343603,-0.49921041410343603,0.9999206313655427,0.00012410397447688333
-0.49903441935020965,-0.49903441935020965,1.0000988846988657,0.00013581292331644884
-0.4988582791258523,-0.4988582791258523,0.9999086843890789,0.0001314908843799718
-0.49869375390335335,-0.49869375390335335,0.9999178075150634,0.0001341887600253752
-0.49844338699622315,-0.49844338699622315,0.9999334452931421,0.0001283001747714449
-0.49818894177369655,-0.49818894177369655,1.0001000904181154,0.00012352539898567182
-0.4980394855054328,-0.4980394855054328,0.9998108671520336,0.00012713941527876265
-0.4978316551831085,-0.4978316551831085,0.9999796524088111,0.00012598890704888102
-0.49757089290505974,-0.49757089290505974,1.0001225777742881,0.0001361389538136435
-0.4973239134502364,-0.4973239134502364,0.9997581312356765,0.00014477963504306806
-0.4971836168966547,-0.4971836168966547,1.0000629854142085,0.000128266182201098
-0.496928541577654,-0.496928541577654,1.000301138811089,0.00013050217728543097
-0.49669535538050696,-0.49669535538050696,0.9999674681049775,0.00012191157456603263
-0.49656042485366925,-0.49656042485366925,0.999945070379278,0.0001326770982549173
-0.4962276521830063,-0.4962276521830063,1.0000857706950765,0.00012912192334165766
-0.4960744191441336,-0.4960744191441336,0.9998583706378448,0.00013398202713966052
-0.4959379432257265,-0.4959379432257265,1.0000518696585081,0.00012039663484981371
-0.49572765076663927,-0.49572765076663927,0.9998986337303026,0.00012133846066894258
-0.4955540892260615,-0.4955540892260615,0.9999626351677978,0.00013002115428642572
-0.4953522547388275,-0.4953522547388275,1.0001153841931312,0.00013014657742426003
-0.49517910226859385,-0.49517910226859385,1.000147443993892,0.000129254658109834
-0.49491025972311037,-0.49491025972311037,1.0000565878141174,0.00012174072334311377
-0.49476278243528216,-0.49476278243528216,1.0000876716920346,0.00012578676800906275
-0.49453914180921854,-0.49453914180921854,1.0001173295141679,0.0001263751979423966
-0.49444870157167314,-0.49444870157167314,0.9999657617007781,0.00013217274602619469
-0.49427630585851146,-0.49427630585851146,0.9998579072916092,0.00012278379388253304
-0.49402879930494237,-0.49402879930494237,0.9997587653419862,0.00013883038425337835
-0.4938533745589666,-0.4938533745589666,0.9999228070042271,0.00012620140279286123
-0.4936780593525327,-0.4936780593525327,0.9999840460884192,0.00013175808145811854
-0.4933687415235909,-0.4933687415235909,1.000128502715301,0.00013149338498926944
-0.49317660123560925,-0.49317660123560925,1.000039331284339,0.0001248189415435472
-0.4930363711631799,-0.4930363711631799,0.9999262262811894,0.00012165483534856015
-0.4927865399251459,-0.4927865399251459,1.0000370223331345,0.00012239082338694752
-0.4925430585943104,-0.4925430585943104,0.999792959693605,0.0001343639425014581
-0.4922916496434482,-0.4922916496434482,0.9998949849317496,0.0001366252106133553
-0.49201282349022224,-0.49201282349022224,0.9998332881617108,0.00012226001710018958
-0.4916613005370891,-0.4916613005370891,0.9998985753017788,0.00012043973882915399
-0.4915019006111834,-0.4915019006111834,1.00009220846419,0.00013218373940557338
-0.49128674639723613,-0.49128674639723613,0.9998845403964788,0.00012133912563536001
-0.49106582887397965,-0.49106582887397965,1.000041794740301,0.000141762999449717
-0.4909686103761487,-0.4909686103761487,1.0000395020257198,0.0001231910701159825
-0.49076137548399856,-0.49076137548399856,0.9999954922982827,0.0001219324363913919
-0.49054184751439606,-0.49054184751439606,0.9999212762459659,0.0001224970579716708
-0.49031126753470744,-0.49031126753470744,0.9999733723183738,0.00013523181225736297
-0.490165874412196,-0.490165874412196,1.000090241827594,0.00012838319836559487
-0.4899295421033457,-0.4899295421033457,1.0000114882931532,0.0001300803204606035
-0.48971032699919304,-0.48971032699919304,0.9999287723765239,0.0001266287389288772
-0.48951718370444725,-0.48951718370444725,0.9999890116879678,0.00011983922589905444
-0.48940439129146396,-0.48940439129146396,1.0000257540140556,0.00013562996951607648
-0.4893074864092341,-0.4893074864092341,1.0001816937358348,0.00012525403928909486
-0.48908124302251965,-0.48908124302251965,1.0000992653474166,0.00012218755423758514
-0.48886279976795777,-0.48886279976795777,1.0000395106405835,0.00013044114775297123
-0.48868634490208934,-0.48868634490208934,1.0001897092614356,0.00013541373256157157
-0.4883795215770078,-0.4883795215770078,1.0000967339834201,0.00013330439717163154
-0.48816753159626386,-0.48816753159626386,0.9998740402883154,0.0001226143151127458
-0.4880449420270452,-0.4880449420270452,1.0001416185955958,0.0001219693459661729
-0.48776927193030134,-0.48776927193030134,1.0000524223538154,0.00012572812975621104
-0.4875037014775444,-0.4875037014775444,0.999909696550082,0.00013515687045692406
-0.4873071723974135,-0.4873071723974135,0.9999317252662046,0.00013583854439077868
-0.48712841337473944,-0.48712841337473944,1.0000754373569527,0.00012846826789066843
-0.4868957466009306,-0.4868957466009306,0.9999222160871302,0.0001309296307701208
-0.4865965737219085,-0.4865965737219085,0.9999832568538183,0.0001301993707979337
-0.48640962615972966,-0.48640962615972966,1.0000858728972228,0.0001246084628224283
-0.48619336974661564,-0.48619336974661564,0.9999541174913027,0.00012617489973205286
-0.48593349984585077,-0.48593349984585077,1.0000254181323094,0.00013758249396255887
-0.4857007849073852,-0.4857007849073852,0.9998132643398318,0.0001219605017579664
-0.48549158770983925,-0.48549158770983925,0.9999787465893519,0.00012261081168179854
-0.4852939493299345,-0.4852939493299345,0.9999514514553784,0.00012827454195969804
-0.4850898518103349,-0.4850898518103349,1.0000866127004566,0.0001311978395810935
-0.48493001872120656,-0.48493001872120656,0.9998159647787533,0.00012878028391496147
-0.4847117489451193,-0.4847117489451193,1.0002047263461755,0.0001228059473524579
-0.4844866674946388,-0.4844866674946388,1.0001753511703917,0.00013147165426353915
-0.4843106372798502,-0.4843106372798502,0.9999182284567596,0.00012970271678719892
-0.4841783465148183,-0.4841783465148183,1.0001201837910787,0.00012434592904962444
-0.4839953857117507,-0.4839953857117507,0.999871188402963,0.0001311146928463566
-0.4837166898243595,-0.4837166898243595,0.999961802052663,0.0001280848324522587
-0.48351239433541193,-0.48351239433541193,0.9999092725011017,0.00013543057788060515
-0.4832183370104758,-0.4832183370104758,0.9999380205968667,0.00013225841791575274
-0.4830936054204358,-0.4830936054204358,1.0001247027103193,0.00012208943024767365
-0.48296647429742734,-0.48296647429742734,1.0001900488022446,0.00012167540070712833
-0.48277184996768485,-0.48277184996768485,0.9999648831259156,0.0001290388163643415
-0.4825837621196115,-0.4825837621196115,0.9999014939600084,0.00012804675582248016
-0.482386882854189,-0.482386882854189,1.0000155162981517,0.0001355183313223811
-0.4821724264067598,-0.4821724264067598,1.000068201412884,0.00013827530625289643
-0.48193354305694813,-0.48193354305694813,0.999891012047543,0.0001371220513449384
-0.4816653446992859,-0.4816653446992859,0.9999583393524457,0.0001201557481321878
-0.48150171433153444,-0.48150171433153444,1.0001360843868068,0.00013119210947330355
-0.4813092988690187,-0.4813092988690187,0.9998761489859636,0.00012445531402965334
-0.48104460121394366,-0.48104460121394366,0.9999274192772274,0.00012895036841764854
-0.4808252122507838,-0.4808252122507838,1.000012395008767,0.00013166063569313883
-0.4805533519000164,-0.4805533519000164,1.0000371341201528,0.00012272878760200622
-0.48032851265816134,-0.48032851265816134,0.9998231654690327,0.0001224355119464678
-0.4802152943644614,-0.4802152943644614,1.0001570930391164,0.0001358006289696183
-0.47999080817098727,-0.47999080817098727,0.9996650782971237,0.00012812879667728892
-0.4797741746850079,-0.4797741746850079,1.000009882075506,0.0001299661825255748
-0.4794815940520493,-0.4794815940520493,1.0001300957672254,0.00012177565435767015
-0.4793262877901725,-0.4793262877901725,0.9998741811618415,0.0001356509297178858
-0.47918833650837767,-0.47918833650837767,1.0000627735581105,0.00012500848863812098
-0.4791041675147426,-0.4791041675147426,0.9999203887390493,0.00013087524251007433
-0.4789604905825399,-0.4789604905825399,1.0001002315262448,0.00012521181364873185
-0.4787791697162902,-0.4787791697162902,1.000021798743553,0.0001256292314955572
-0.4785431370677543,-0.4785431370677543,1.0001317304986368,0.00013275277324791614
-0.4783215767121874,-0.4783215767121874,1.000122931232971,0.0001351939889385051
-0.47809179860705625,-0.47809179860705625,0.999886213203759,0.0001231518728519518
-0.47803306201603846,-0.47803306201603846,0.9999765426874072,0.00012384798970638483
-0.47786864162189885,-0.47786864162189885,0.9998170240926063,0.00012398219331087506
-0.4775738976175489,-0.4775738976175489,1.000017561292133,0.00012575739538238118
-0.47740637205934033,-0.47740637205934033,0.9998243786998146,0.00013746569652861704
-0.4771531114616664,-0.4771531114616664,1.0000114240093083,0.00013475199192485317
-0.47687875373740096,-0.47687875373740096,0.9999302115549913,0.0001293193805371846
-0.4766423294087872,-0.4766423294087872,0.9998657094032242,0.0001229244837532338
-0.47648274745442903,-0.47648274745442903,0.9999429047238226,0.0001288169164671644
-0.4762454846641049,-0.4762454846641049,0.9999005986516168,0.00012178637874411997
-0.4760202910780208,-0.4760202910780208,0.9999348945627842,0.00012611080183473877
-0.4758306761839776,-0.4758306761839776,1.0000103783500571,0.00013821671748622343
-0.47543611749788395,-0.47543611749788395,0.9999788013957694,0.00012204374553543825
-0.47521081613740535,-0.47521081613740535,1.0001134092333668,0.00012825819513091595
-0.4751261492143385,-0.4751261492143385,0.9999186956160502,0.00012643339177674656
-0.47495133176707893,-0.47495133176707893,0.9998548331489037,0.00012468291093358988
-0.47474910517121316,-0.47474910517121316,1.0001281119061844,0.00012616531869674285
-0.4745690695213852,-0.4745690695213852,0.9998485460425647,0.00012433018901343256
-0.4743761960606207,-0.4743761960606207,0.9999415169551773,0.00012021148123223232
-0.4741952581702208,-0.4741952581702208,0.9998350968490494,0.00012564630596703267
-0.4740606202132767,-0.4740606202132767,1.0000116247682476,0.00013441524015425117
-0.4739765731806983,-0.4739765731806983,1.000200874047286,0.0001256112318977896
-0.47379680481171815,-0.47379680481171815,0.9999768257907352,0.00012798211045107847
-0.4734826335537946,-0.4734826335537946,0.9999209003689845,0.00013434756529023394
-0.4732731130963657,-0.4732731130963657,0.9999105428070898,0.00013244090774168753
-0.47309995467076077,-0.47309995467076077,0.9998705648661519,0.00012872919199658961
-0.47298866658165933,-0.47298866658165933,1.0000761348646863,0.00012087378166969385
-0.47281780722041733,-0.47281780722041733,1.000022952472831,0.00012403555746612696
-0.4725253607117338,-0.4725253607117338,0.9998598231047312,0.00012563608969519473
-0.47239311240336973,-0.47239311240336973,1.000038371789795,0.00013269510617999465
-0.4723030051776732,-0.4723030051776732,1.0000744232482026,0.00014152323696090273
-0.47210157837544103,-0.47210157837544103,0.999890035379759,0.00013192727816950953
-0.47169252168314413,-0.47169252168314413,0.9999070441562061,0.00013543163599356574
-0.47148853009639424,-0.47148853009639424,1.0000280649088729,0.00012122714538922977
-0.47136381870368493,-0.47136381870368493,0.9999506296604739,0.00013061269287963916
-0.4711720537779911,-0.4711720537779911,0.9999301585754429,0.00012368326276512094
-0.4709824330639094,-0.4709824330639094,0.9998966654551561,0.0001268512197706845
-0.47085438591529966,-0.47085438591529966,1.0001085933962226,0.00013359497589271157
-0.4705880602756224,-0.4705880602756224,1.000172667471698,0.00013343917567880292
-0.4702966501710762,-0.4702966501710762,0.9999520406275508,0.00012447287158515516
-0.47013436413326415,-0.47013436413326415,0.9999814035139899,0.00012707294336001417
-0.4700585251252051,-0.4700585251252051,0.9999266106702173,0.00012763646669156604
-0.4698670433564985,-0.4698670433564985,1.0000994150644558,0.00012585983212655026
-0.4696675574974506,-0.4696675574974506,1.0001195736459665,0.00012846645854966958
-0.4694445230270503,-0.4694445230270503,0.9999241713866208,0.00012907068874073289
-0.46925972402314076,-0.46925972402314076,1.0000344274529336,0.00012169276574422869
-0.46909859421721195,-0.46909859421721195,1.0000149223880672,0.00012429734156441352
-0.46897601548334933,-0.46897601548334933,1.0000289303167222,0.00012834962783111258
-0.46889965905502323,-0.46889965905502323,0.999969606661544,0.0001288144665078232
-0.4687162643989723,-0.4687162643989723,0.9999390959662904,0.00012769500875422615
-0.46845842598340826,-0.46845842598340826,0.99996715533624,0.00013777481554658552
-0.46817427033602144,-0.46817427033602144,1.000019588159343,0.00013530627422527513
-0.46804691352663214,-0.46804691352663214,0.9999583454214431,0.00012992060688540923
-0.4678832439305552,-0.4678832439305552,1.0000513677555474,0.00012516344364481448
-0.4677333572995849,-0.4677333572995849,0.999931660240047,0.00013412853788931343
-0.4674747406352253,-0.4674747406352253,1.0000689496875732,0.00012954693779814472
-0.4673317306143872,-0.4673317306143872,1.0000598532355227,0.00012891788618057354
-0.46716267780138876,-0.46716267780138876,1.0002072058239768,0.00014222429598953853
-0.4668843629529874,-0.4668843629529874,0.9999994277151629,0.00013322553121311782
-0.4664327263199084,-0.4664327263199084,0.9999179613994814,0.00012610660777400242
-0.46626464517757993,-0.46626464517757993,1.000085628474304,0.00013166066713289805
-0.4660828169180604,-0.4660828169180604,1.0000214300950332,0.0001258447880276622
-0.46587552230848817,-0.46587552230848817,0.9999618014322463,0.0001356323167403391
-0.465663669724745,-0.465663669724745,1.0000167185873008,0.00014172538863216794
-0.4654169758025091,-0.4654169758025091,0.9997898538027947,0.00012852838157037088
-0.46512467657667,-0.46512467657667,0.9998336246198918,0.000126710227551767
-0.4650061378073588,-0.4650061378073588,0.9999374792504566,0.00013526626032196298
-0.46491436704673106,-0.46491436704673106,0.9998697501058323,0.00012216176790797869
-0.46463328693062067,-0.46463328693062067,0.9999645962941652,0.00013465030417896142
-0.4645105216288357,-0.4645105216288357,0.9998615141966608,0.00012591824483054658
-0.4643362755756243,-0.4643362755756243,1.0000040772247902,0.00012620601640469088
-0.4641041638838942,-0.4641041638838942,1.0000747199677176,0.00012227207803843526
-0.46394644516549305,-0.46394644516549305,0.999915894028708,0.0001281000223317345
-0.46380069491060566,-0.46380069491060566,0.9999307782076763,0.00012883749026804478
-0.46368363364454124,-0.46368363364454124,0.9999156015702925,0.00013093853621617616
-0.46348085544232165,-0.46348085544232165,1.0000975627486446,0.00013585322601294476
-0.46323428849791526,-0.46323428849791526,1.0001133949513314,0.00012862506916425448
-0.4629873211400991,-0.4629873211400991,1.0000877411854818,0.00013149992807077817
-0.4628555645846063,-0.4628555645846063,0.9998177227030471,0.0001247079775086697
-0.4627314136174391,-0.4627314136174391,0.9999646900608778,0.0001322799396479718
-0.4624991993499862,-0.4624991993499862,1.0001332995990793,0.0001240791349519607
-0.4623224513947207,-0.4623224513947207,0.999891787682453,0.0001312487739476855
-0.46217718610569136,-0.46217718610569136,0.9999169780231687,0.0001381625302486463
-0.46202841475897005,-0.46202841475897005,1.000017228343266,0.0001342257155507593
-0.46162846650695427,-0.46162846650695427,0.9996260519359129,0.0001289060831752349
-0.46139528173225697,-0.46139528173225697,0.9999684047948424,0.0001293188069272824
-0.46117641427408673,-0.46117641427408673,0.9999401922209173,0.00012085693318156731
-0.4609315152731142,-0.4609315152731142,0.9999779682263812,0.00012891498770607352
-0.46071689818636513,-0.46071689818636513,1.0001438045199478,0.00014206455925683126
-0.4604889613496198,-0.4604889613496198,0.9998078429433324,0.0001320805316237112
-0.4602189590623311,-0.4602189590623311,0.9998870795490251,0.00013044781490324295
-0.45999061574693767,-0.45999061574693767,1.0000863426610458,0.00012627678012808353
-0.45985859845532107,-0.45985859845532107,0.9999075584039533,0.0001285005125058805
-0.4595444087361102,-0.4595444087361102,1.000158447010439,0.00012939383459250136
-0.4593835054714873,-0.4593835054714873,0.9998721714574899,0.00013007260495795944
-0.4592396399246354,-0.4592396399246354,0.9998150253840892,0.000127820857282441
-0.459020500270708,-0.459020500270708,1.000037283142979,0.00012215146759208496
-0.4587949231361563,-0.4587949231361563,1.0001189661925662,0.0001301257608513594
-0.4586469595640665,-0.4586469595640665,1.0000298665762246,0.0001301042578644639
-0.45841848350537473,-0.45841848350537473,1.0000578310622632,0.00012958382578744508
-0.4581643739991705,-0.4581643739991705,0.9999066907533111,0.00012470411598502392
-0.4580394475844514,-0.4580394475844514,1.0001566879853976,0.00012956230065365492
-0.4578348031100177,-0.4578348031100177,0.9999542723697802,0.0001263304303182246
-0.4577500213745225,-0.4577500213745225,1.0000081868252118,0.00013246927738928767
-0.45761329860033584,-0.45761329860033584,0.9998063847656982,0.00012388248189522372
-0.4573757030069828,-0.4573757030069828,1.0000348840596678,0.00012345352864345457
-0.4571935048086743,-0.4571935048086743,1.0001172169997468,0.00013370096509447428
-0.4570623840780172,-0.4570623840780172,1.000016667284496,0.00013165348991201457
-0.45683631689680626,-0.45683631689680626,0.9999832296038665,0.000141118886515059
-0.456582543875993,-0.456582543875993,0.9999384637543157,0.00012282039554130952
-0.45639548329636453,-0.45639548329636453,0.9999384362244788,0.00012079762361900373
-0.4562265107946587,-0.4562265107946587,0.9999108726363992,0.0001232759572038191
-0.4559462343771884,-0.4559462343771884,1.0002426033313985,0.0001237628668754126
-0.4557252782818978,-0.4557252782818978,0.9998495230599683,0.00013619123878900089
-0.45551257842453197,-0.45551257842453197,1.0001307165348963,0.000141719354806558
-0.4552294944871392,-0.4552294944871392,1.0000007644336844,0.00013035480453047052
-0.4549319646524964,-0.4549319646524964,1.0001132695077952,0.00012864316628809577
-0.45474539456772617,-0.45474539456772617,1.0001792010108315,0.00012518693420105034
-0.45446037325527866,-0.45446037325527866,1.0000944953762299,0.00013011859929933496
-0.45428377827338406,-0.45428377827338406,0.9998400574690006,0.00013728942658052722
-0.454118697244121,-0.454118697244121,1.0000107331685493,0.00012157004081459662
-0.45387088669158404,-0.45387088669158404,0.9999791844838957,0.00012169914822404255
-0.45366483014076947,-0.45366483014076947,0.9998949609591762,0.00013242599989627616
-0.45350565788685343,-0.45350565788685343,0.999948951901161,0.000126935832149385
-0.4532703037635656,-0.4532703037635656,0.9999235794912542,0.00012855806157944453
-0.4530561570150894,-0.4530561570150894,0.9999804873358371,0.00012320016916704426
-0.45289946344055354,-0.45289946344055354,1.0002329687194125,0.00012295497294234975
-0.45272403229027985,-0.45272403229027985,1.000043102724688,0.0001279490149250707
-0.45265872474119534,-0.45265872474119534,0.9999595521869136,0.0001334472259295255
-0.4524810922666802,-0.4524810922666802,1.000039897920564,0.00012090974535003968
-0.45226567807476387,-0.45226567807476387,1.0001266085889466,0.00013904620491589245
-0.4520765437024238,-0.4520765437024238,1.0000595953148956,0.00012667726471598284
-0.45185918628412763,-0.45185918628412763,1.0001106136476683,0.00013511318764775337
-0.4515564920948236,-0.4515564920948236,1.0001190908624473,0.00012907606273458955
-0.45139909897770847,-0.45139909897770847,1.0000458828463192,0.0001233667664008643
-0.45122823265264744,-0.45122823265264744,1.0001553199757176,0.00012214051246621244
