time,time,flux,flux_err
-0.4837370511888461,-0.4837370511888461,0.9999914138642221,4.3530171447118816e-05
-0.48366676259888436,-0.48366676259888436,0.9999374306049735,4.349214463108597e-05
-0.4835964740027851,-0.4835964740027851,1.0001380430044104,4.3467776652537206e-05
-0.48353204278493517,-0.48353204278493517,0.9999674222735434,3.96536409370921e-05
-0.4834734689468859,-0.4834734689468859,1.0000797115700522,3.963681871381828e-05
-0.4834148951058125,-0.4834148951058125,0.999893836936884,3.961084803648361e-05
-0.48335632126195405,-0.48335632126195405,1.000044734633629,3.959356335172958e-05
-0.4832977474156331,-0.4832977474156331,1.000021384675996,3.957649893731932e-05
-0.48323917356706597,-0.48323917356706597,1.0000304890982596,3.956998221048781e-05
-0.4831805997164995,-0.4831805997164995,1.0000059602390738,3.9549992343483614e-05
-0.4831220258641496,-0.4831220258641496,0.9999950260877366,3.953538072116909e-05
-0.48306345201020956,-0.48306345201020956,1.0000375914681932,3.9515917393765084e-05
-0.48300487815482385,-0.48300487815482385,1.0000194346089117,3.950129611157377e-05
-0.4829463042981973,-0.4829463042981973,0.9999899513249779,3.948293048413214e-05
-0.4828877304404662,-0.4828877304404662,0.9999986241529666,3.947193155053556e-05
-0.4828291565817463,-0.4828291565817463,0.9999636809111715,3.94495754118701e-05
-0.4827705827222015,-0.4827705827222015,1.0000448543560043,3.943585819487923e-05
-0.4827120088619221,-0.4827120088619221,0.9999730955963327,3.9419999188520975e-05
-0.48265343500104924,-0.48265343500104924,0.9999859109033249,3.9403193534514534e-05
-0.48259486113964245,-0.48259486113964245,1.0000345696994457,3.938528496947888e-05
-0.4825362872778315,-0.4825362872778315,1.0000114844219503,3.9361036277432946e-05
-0.4824777134156828,-0.4824777134156828,1.0000003390875876,3.934816868901279e-05
-0.4824191395532817,-0.4824191395532817,0.9999992875258854,3.9322922506450584e-05
-0.48236056569071273,-0.48236056569071273,1.0000063461721045,3.931224834418929e-05
-0.4823019918280492,-0.4823019918280492,0.999980235615919,3.930444865948535e-05
-0.4822434179653426,-0.4822434179653426,1.0000249051463883,3.9282611382953224e-05
-0.4821848441026636,-0.4821848441026636,1.0000273708554095,3.927395525610233e-05
-0.4821262702400704,-0.4821262702400704,0.9999628568650625,3.925434460291786e-05
-0.4820676963776111,-0.4820676963776111,1.0000172861772934,3.924026756319915e-05
-0.4820091225153521,-0.4820091225153521,0.9999659381473178,3.9242360420674786e-05
-0.48195054865331743,-0.48195054865331743,1.0000147998696245,3.923280405756869e-05
-0.48189197479156504,-0.48189197479156504,1.0000122742635793,3.922757233130006e-05
-0.48183340093013854,-0.48183340093013854,1.000024399350055,3.9223026391846825e-05
-0.48177482706906954,-0.48177482706906954,1.000020339545528,3.922675592190801e-05
-0.4817162532084132,-0.4817162532084132,1.0000141737796389,3.92246296263943e-05
-0.48165767934819287,-0.48165767934819287,1.0000925265771585,3.92275276358417e-05
-0.48159910548842,-0.48159910548842,0.9999477272624361,3.922811444886211e-05
-0.4815405316291693,-0.4815405316291693,1.0000293489261913,3.922725710773482e-05
-0.4814819577704414,-0.4814819577704414,0.9999579891651476,3.9236139610467774e-05
-0.48142338391226724,-0.48142338391226724,0.999996956820665,3.924154498353997e-05
-0.4813648100546863,-0.4813648100546863,1.0000704295599137,3.9241835212196055e-05
-0.48130623619769786,-0.48130623619769786,0.9999863190022111,3.9249243540968543e-05
-0.4812476623413577,-0.4812476623413577,1.0000599318656658,3.925767223265102e-05
-0.4811890884856617,-0.4811890884856617,0.9999708116237187,3.9278624772426915e-05
-0.48113051463063766,-0.48113051463063766,1.0000393354002424,3.928494628452656e-05
-0.48107194077633614,-0.48107194077633614,1.0000655471919822,3.928424589777101e-05
-0.48101336692272556,-0.48101336692272556,1.0000160463688035,3.9295951005891965e-05
-0.48095479306985356,-0.48095479306985356,0.9999471350071645,3.930458186007067e-05
-0.4808962192177395,-0.4808962192177395,1.0000216273354883,3.931840287393397e-05
-0.4808376453664035,-0.4808376453664035,1.0000175008580185,3.932956570943938e-05
-0.48077907151583715,-0.48077907151583715,0.9999863801498667,3.933176501767881e-05
-0.480720497666068,-0.480720497666068,0.9999997151286812,3.9345479907719416e-05
-0.48066192381711914,-0.48066192381711914,0.999969006886199,3.9354718584916346e-05
-0.4806033499690077,-0.4806033499690077,1.000034723391943,3.935641921645704e-05
-0.48054477612172863,-0.48054477612172863,0.9999997487091632,3.936461270904422e-05
-0.48048620227529815,-0.48048620227529815,0.9999691829290217,3.936855839922548e-05
-0.48042762842973563,-0.48042762842973563,1.0000357752087816,3.93796871973831e-05
-0.4803690545850604,-0.4803690545850604,0.9999892645533013,3.9387683679707236e-05
-0.4803104807412649,-0.4803104807412649,1.0000042083556981,3.93898415805986e-05
-0.480251906898373,-0.480251906898373,0.9999436456091539,3.939695644931457e-05
-0.48019333305638845,-0.48019333305638845,1.0000239756566898,3.940320597570095e-05
-0.4801347592153268,-0.4801347592153268,0.9999977205951405,3.940963272139651e-05
-0.48007618537517666,-0.48007618537517666,1.0000067245388178,3.94160931131847e-05
-0.4800176115359882,-0.4800176115359882,1.0000708625655241,3.942338822534652e-05
-0.4799590376977346,-0.4799590376977346,0.9999142228459965,3.943081570725915e-05
-0.4799004638604397,-0.4799004638604397,1.0000229545545762,3.9445841461940205e-05
-0.4798418900241067,-0.4798418900241067,1.0000105195920934,3.944720178342699e-05
-0.4797833161887365,-0.4797833161887365,0.9999535773751965,3.945842634865686e-05
-0.4797247423543639,-0.4797247423543639,1.0000175798814608,3.9463402204817775e-05
-0.47966616852096483,-0.47966616852096483,1.0000056172503782,3.9475760416082204e-05
-0.4796075946885708,-0.4796075946885708,1.0000345810788525,3.9480740265618317e-05
-0.47954902085714773,-0.47954902085714773,0.9999911754312552,3.948973584824681e-05
-0.4794904470267496,-0.4794904470267496,0.9999917406925768,3.949617993280151e-05
-0.4794318731973686,-0.4794318731973686,0.9999896281781748,3.9506089911065156e-05
-0.4793732993689934,-0.4793732993689934,0.9999955260542389,3.951328368173292e-05
-0.47931472554166277,-0.47931472554166277,0.9999921289280417,3.952159636570197e-05
-0.47925615171534536,-0.47925615171534536,1.0000264981898572,3.9524608694107565e-05
-0.47919757789006423,-0.47919757789006423,0.9999772060255934,3.9529216864516356e-05
-0.47913900406584037,-0.47913900406584037,1.0000270461945047,3.9526626349051185e-05
-0.4790804302426414,-0.4790804302426414,1.0000246769748649,3.953502830711401e-05
-0.47902185642051887,-0.47902185642051887,0.9999865985054545,3.953707574365224e-05
-0.478963282599437,-0.478963282599437,1.000010221168099,3.953832392287669e-05
-0.4789047087794237,-0.4789047087794237,0.9999459506570583,3.954811547782408e-05
-0.4788461349604745,-0.4788461349604745,1.000015213401694,3.955285921599944e-05
-0.4787875611425975,-0.4787875611425975,1.0000261926067382,3.9560800451233596e-05
-0.47872898732580405,-0.47872898732580405,0.9999524190238758,3.956429661056182e-05
-0.4786704135100833,-0.4786704135100833,1.0000386597157962,3.956853672359811e-05
-0.4786118396954584,-0.4786118396954584,0.9999590694049376,3.95707192575483e-05
-0.4785532658819333,-0.4785532658819333,1.0000719575911738,3.958422361853221e-05
-0.4784946920694688,-0.4784946920694688,1.0000033258158125,3.9578088904502175e-05
-0.478426277857969,-0.478426277857969,1.0000401838923663,3.957377343443521e-05
-0.47835880082882953,-0.47835880082882953,0.9999351382677901,3.958711257017997e-05
-0.4783002270200528,-0.4783002270200528,0.9999994025346393,3.9601802975560266e-05
-0.4782416532123637,-0.4782416532123637,1.0000088959124893,3.961236980840919e-05
-0.47818307940579785,-0.47818307940579785,0.9999860774185405,3.961607355856563e-05
-0.4781245056003559,-0.4781245056003559,1.0000040159937658,3.9632378696004964e-05
-0.478065931796045,-0.478065931796045,0.999974911048058,3.964184524800976e-05
-0.47800735799285354,-0.47800735799285354,1.0000400006529726,3.9652921926666416e-05
-0.47794878419078934,-0.47794878419078934,1.0000604409842664,3.966230389857513e-05
-0.47789021038984797,-0.47789021038984797,0.9999964361264582,3.966660192325682e-05
-0.47783163659006567,-0.47783163659006567,1.0000639924393422,3.966960017284163e-05
-0.47777306279142245,-0.47777306279142245,0.999954519526922,3.9675915925228554e-05
-0.4777144889939061,-0.4777144889939061,1.0000474884350878,3.967622526031015e-05
-0.47765591519753664,-0.47765591519753664,1.0000173531653402,3.967481526412563e-05
-0.47759734140233345,-0.47759734140233345,0.9999487898798973,3.9675284577068496e-05
-0.47753876760828096,-0.47753876760828096,1.0000379328991933,3.9669957776734194e-05
-0.4774801938153758,-0.4774801938153758,1.0000087292356017,3.966790257125252e-05
-0.47742162002362953,-0.47742162002362953,0.9999738270309635,3.964847080148406e-05
-0.4773630462330575,-0.4773630462330575,1.0000312858795453,3.963556588162181e-05
-0.47730447244365537,-0.47730447244365537,1.0000727074594364,3.9634270394538676e-05
-0.4772458986554122,-0.4772458986554122,1.000019297143479,3.961786396774467e-05
-0.4771873248683437,-0.4771873248683437,0.9999715230945687,3.960116039320436e-05
-0.47712875108246083,-0.47712875108246083,1.000004013280472,3.9593520926823486e-05
-0.47707017729775264,-0.47707017729775264,1.0000209644678946,3.958331372472787e-05
-0.4770116035142147,-0.4770116035142147,0.9999737865805065,3.956827640323482e-05
-0.47695302973187886,-0.47695302973187886,1.000015360963713,3.954564155026403e-05
-0.47689445595074476,-0.47689445595074476,1.0000266084339255,3.952748849624701e-05
-0.47683588217077305,-0.47683588217077305,0.9999387570699906,3.950787241800485e-05
-0.47677730839201127,-0.47677730839201127,1.0000220973485372,3.948824678917266e-05
-0.47671873461444303,-0.47671873461444303,0.9999981083906155,3.947833171045266e-05
-0.47666016083806867,-0.47666016083806867,0.99999743068718,3.945000169839466e-05
-0.4766015870629124,-0.4766015870629124,1.0000142978773403,3.9427094534785274e-05
-0.4765430132889696,-0.4765430132889696,1.0000017470443323,3.9397035062439554e-05
-0.47648443951621716,-0.47648443951621716,1.000024009339004,3.9375418047139984e-05
-0.4764258657447013,-0.4764258657447013,0.9999892712171444,3.9362764049897034e-05
-0.47636729197438,-0.47636729197438,0.9999855563652963,3.934032001379842e-05
-0.47630871820528026,-0.47630871820528026,1.0000300810155214,3.9324307344735564e-05
-0.4762501444374093,-0.4762501444374093,1.000012041850336,3.929760233259782e-05
-0.47619157067077217,-0.47619157067077217,0.9999638037949312,3.928183246916902e-05
-0.4761329969053564,-0.4761329969053564,1.0000595654047495,3.926771416695818e-05
-0.4760744231411894,-0.4760744231411894,1.0000203411120974,3.924713646533628e-05
-0.47601584937823205,-0.47601584937823205,0.9999560082704887,3.923717117002356e-05
-0.4759572756165199,-0.4759572756165199,1.0000118787502044,3.922886072059899e-05
-0.47589870185605276,-0.47589870185605276,1.00000098268572,3.921281266760346e-05
-0.47584012809683085,-0.47584012809683085,0.9999982951345148,3.920429354751829e-05
-0.47578155433886166,-0.47578155433886166,0.9999819268465497,3.919730722198984e-05
-0.4757229805821336,-0.4757229805821336,0.9999598545430788,3.9194202756468425e-05
-0.47566440682667804,-0.47566440682667804,1.0000394211717651,3.919847718717924e-05
-0.4756058330724559,-0.4756058330724559,0.9999808440326913,3.9188110885857996e-05
-0.4755472593195299,-0.4755472593195299,1.0000615867363685,3.9197091834692165e-05
-0.47548868556784873,-0.47548868556784873,0.9999328767676371,3.920602118556949e-05
-0.4754301118174363,-0.4754301118174363,1.0000436814064664,3.921088268991868e-05
-0.47537153806827287,-0.47537153806827287,0.9999556281782626,3.921347361871603e-05
-0.4753129643204054,-0.4753129643204054,1.000016014850431,3.922361595426832e-05
-0.4752543905738148,-0.4752543905738148,1.0000003576901801,3.9228651550773815e-05
-0.47519581682851586,-0.47519581682851586,0.9999952360700377,3.924437339179297e-05
-0.47513724308447813,-0.47513724308447813,0.9999687769843305,3.92510178661652e-05
-0.47507866934174403,-0.47507866934174403,1.0000657813780216,3.92676925232472e-05
-0.47502009560029446,-0.47502009560029446,0.9999910529932098,3.9283067149478486e-05
-0.47496133442417143,-0.47496133442417143,0.9999562302759276,3.929081857297867e-05
-0.47490060517176114,-0.47490060517176114,1.0000401252959057,3.9308787347935436e-05
-0.4748420314342784,-0.4748420314342784,0.9999707631879232,3.931788426483456e-05
-0.47478345769807595,-0.47478345769807595,0.9999937455287263,3.9327977549049634e-05
-0.47472488396319334,-0.47472488396319334,1.0000425409988107,3.93316030573204e-05
-0.47466631022961436,-0.47466631022961436,0.9999459352985495,3.934485787811192e-05
-0.47460773649735566,-0.47460773649735566,1.0000545481548475,3.9355948765804966e-05
-0.47454916276643583,-0.47454916276643583,0.9999904434387814,3.936966676978058e-05
-0.4744905890368162,-0.4744905890368162,0.9999793801927158,3.9369682747834474e-05
-0.4744320153085395,-0.4744320153085395,1.0000450544887542,3.938002971774876e-05
-0.4743734415815952,-0.4743734415815952,0.9999609129153004,3.938843889536159e-05
-0.47431486785598204,-0.47431486785598204,0.9999938312247547,3.9402086703126015e-05
-0.47425629413171544,-0.47425629413171544,1.0000241494808544,3.940683484361239e-05
-0.4741977204087843,-0.4741977204087843,1.0000016652363384,3.941152034193211e-05
-0.4741391466872046,-0.4741391466872046,0.999971338576332,3.9420851947380744e-05
-0.4740805729669836,-0.4740805729669836,1.0000058124753093,3.9425048589195685e-05
-0.4740219992481098,-0.4740219992481098,0.9999996943095082,3.9423688191459696e-05
-0.47396342553060666,-0.47396342553060666,1.0000251350167613,3.9428013353136016e-05
-0.4739048518144549,-0.4739048518144549,0.9999919318596369,3.9428360761646796e-05
-0.4738462780996776,-0.4738462780996776,1.0000115250010044,3.9434574056497266e-05
-0.47378770438628653,-0.47378770438628653,0.9999879227849051,3.943517171848736e-05
-0.47372913067424693,-0.47372913067424693,0.999952690808343,3.944155717738013e-05
-0.47367055696361343,-0.47367055696361343,1.000065463849651,3.944665833074713e-05
-0.47361198325434256,-0.47361198325434256,0.999931256484959,3.9456942925652614e-05
-0.47355340954647007,-0.47355340954647007,1.0000719531358555,3.946143870672509e-05
-0.47349483584000013,-0.47349483584000013,0.9999984150220451,3.947104848044587e-05
-0.47343626213493223,-0.47343626213493223,0.9999898678622223,3.946826108645563e-05
-0.47337768843126193,-0.47337768843126193,0.999968797604847,3.947456782471813e-05
-0.4733191147290058,-0.4733191147290058,1.000024214085628,3.947270048605522e-05
-0.4732605410281754,-0.4732605410281754,0.9999761697426385,3.9484415777705196e-05
-0.4732019673287435,-0.4732019673287435,0.9999923600174021,3.9490406341919615e-05
-0.4731276490209657,-0.4731276490209657,1.000035774617628,3.9489055758109814e-05
-0.4730684192993774,-0.4730684192993774,1.0000511016443554,3.949863154766717e-05
-0.47300984560465065,-0.47300984560465065,0.9999364435272016,3.950146857341903e-05
-0.47295127191135417,-0.47295127191135417,1.00002308681668,3.951091184243654e-05
-0.4728926982195102,-0.4728926982195102,1.0000281192086318,3.9516864598927425e-05
-0.4728341245291075,-0.4728341245291075,1.0000033116714635,3.951704517613944e-05
-0.472775550840166,-0.472775550840166,1.0000435963000922,3.951877844504097e-05
-0.47271697715270145,-0.47271697715270145,0.9999698517762123,3.952997783064154e-05
-0.472658403466682,-0.472658403466682,1.000002312577624,3.954004384798779e-05
-0.4725998297821473,-0.4725998297821473,1.0000007399452726,3.9541516921701535e-05
-0.47254125609909714,-0.47254125609909714,0.9999963744731695,3.9543194543375655e-05
-0.47248268241752084,-0.47248268241752084,1.0000208455390243,3.9550872252305715e-05
-0.4724241087374358,-0.4724241087374358,0.9999460604756292,3.9556485526241755e-05
-0.47236553505885537,-0.47236553505885537,1.00001731307071,3.956437229770025e-05
-0.4723069613817751,-0.4723069613817751,1.0000229084174692,3.957096802695158e-05
-0.4722483877061954,-0.4722483877061954,0.9999899739051527,3.9581665511026895e-05
-0.4721898140321551,-0.4721898140321551,0.9999871523333341,3.9593787455554924e-05
-0.47213124035960374,-0.47213124035960374,1.0000090010436191,3.9597761126108734e-05
-0.4720726666885965,-0.4720726666885965,1.0000006513183755,3.960766841914917e-05
-0.47201409301910785,-0.47201409301910785,0.9999981032547476,3.962820294947469e-05
-0.4719555193511794,-0.4719555193511794,1.000009598868395,3.963573754260546e-05
-0.47189694568479,-0.47189694568479,0.9999940908459981,3.965819190967548e-05
-0.4718383720199563,-0.4718383720199563,1.0000028159801784,3.96701399204422e-05
-0.4717797983566821,-0.4717797983566821,0.9999711265030774,3.967623203008086e-05
-0.47172122469497485,-0.47172122469497485,1.000022840283295,3.9689637525498774e-05
-0.47166265103485017,-0.47166265103485017,1.0000143980596252,3.970250846677206e-05
-0.4716040773762966,-0.4716040773762966,0.9999954870902783,3.9701734041304924e-05
-0.4715455037193294,-0.4715455037193294,1.0000442685428879,3.97112884314382e-05
-0.47148693006398085,-0.47148693006398085,0.999988042645717,3.9712444345852324e-05
-0.4714283564102235,-0.4714283564102235,0.999999474764372,3.971705303097384e-05
-0.4713697827580994,-0.4713697827580994,1.0000051153657807,3.971411475543859e-05
-0.471311209107554,-0.471311209107554,1.0000151283331287,3.9701824773974965e-05
-0.47125263545866625,-0.47125263545866625,1.000029801081377,3.969907835376218e-05
-0.4711940618114124,-0.4711940618114124,0.9999729841963194,3.9692991801415435e-05
-0.4711354881657971,-0.4711354881657971,1.0000151227398013,3.9687908766573076e-05
-0.47107691452183065,-0.47107691452183065,0.9999900239734629,3.967882221976757e-05
-0.4710183408795256,-0.4710183408795256,1.000021879943299,3.966611968610606e-05
-0.470959767238901,-0.470959767238901,1.000012994186525,3.965024943938551e-05
-0.47090119359994287,-0.47090119359994287,0.9999578512468016,3.9627358811936785e-05
-0.47084261996268484,-0.47084261996268484,1.0000109794510237,3.9609343727699386e-05
-0.4707840463271274,-0.4707840463271274,1.0000477527112333,3.9589776487603535e-05
-0.4707254726932627,-0.4707254726932627,0.9999644134836296,3.956827547885552e-05
-0.4706668990611186,-0.4706668990611186,1.0000421464976896,3.9551311960980494e-05
-0.4706083254307104,-0.4706083254307104,0.9999780413049868,3.9522320311103425e-05
-0.4705497518020302,-0.4705497518020302,1.0000626819278,3.948944240551476e-05
-0.47049117817508995,-0.47049117817508995,0.9999814726518157,3.946977319491336e-05
-0.470432604549913,-0.470432604549913,0.9999532072591123,3.944058536252051e-05
-0.4703740309265044,-0.4703740309265044,1.0000113248162719,3.941077606673299e-05
-0.47031545730487395,-0.47031545730487395,1.0000094422929422,3.938345162511353e-05
-0.4702568836850232,-0.4702568836850232,1.0000069052426646,3.936029890793653e-05
-0.4701983100669671,-0.4701983100669671,1.0000044603315907,3.9327042160197355e-05
-0.4701397364507224,-0.4701397364507224,1.0000148832649094,3.930090796581291e-05
-0.47008116283630696,-0.47008116283630696,1.000000005107377,3.927890720283795e-05
-0.47002258922371426,-0.47002258922371426,0.999999601110981,3.9247517956143415e-05
-0.4699640156129797,-0.4699640156129797,1.0000100520975599,3.922681293575148e-05
-0.46990544200408657,-0.46990544200408657,0.9999557853106996,3.9201652879506384e-05
-0.46984686839706724,-0.46984686839706724,1.0000624556665074,3.9187753447607963e-05
-0.46978829479194084,-0.46978829479194084,0.9999563878165654,3.917240495493347e-05
-0.46972972118868855,-0.46972972118868855,1.0000005319117098,3.915484030079474e-05
-0.4696711475873679,-0.4696711475873679,1.000021974265526,3.914745799136227e-05
-0.4696125739879444,-0.4696125739879444,0.9999853631288742,3.913868974477683e-05
-0.469554000390477,-0.469554000390477,1.0000730129637394,3.913676269479777e-05
-0.46949542679494227,-0.46949542679494227,1.000094852521225,3.9135274068521333e-05
