time,time,flux,flux_err
-0.49881224433859944,-0.49881224433859944,1.0000100610200373,0.00017032086299002038
-0.4977106251844816,-0.4977106251844816,0.9999742317645622,0.00017403357269135943
-0.49556273114224797,-0.49556273114224797,0.9998307906947831,0.00016935328767163948
-0.493410067896184,-0.493410067896184,0.9999130967433214,0.00015529259833047134
-0.49251347569734205,-0.49251347569734205,1.0000478723803277,0.0001543426690109266
-0.49099271787927135,-0.49099271787927135,1.0000490255603363,0.00015950032161002962
-0.4899095977227262,-0.4899095977227262,0.9999955485245824,0.0001543790567726409
-0.488242099017225,-0.488242099017225,1.0003169224903359,0.00015711633100221962
-0.4855576702677354,-0.4855576702677354,0.9999800869495562,0.00015745882333274359
-0.48468570610421013,-0.48468570610421013,1.000104821023457,0.0001543256725766335
-0.48325137943757,-0.48325137943757,1.0001814149096266,0.00015677451928716602
-0.48214723965720624,-0.48214723965720624,1.000298856400674,0.00015452054619969458
-0.4809702126745833,-0.4809702126745833,1.0004941322515775,0.00015445107129956781
-0.47800657441403016,-0.47800657441403016,0.9998871172898542,0.00015485842127744832
-0.476749812169146,-0.476749812169146,0.9998501040489503,0.0001555792508924867
-0.4752838078878995,-0.4752838078878995,1.000122200846596,0.00015552357330078434
-0.47401080209747304,-0.47401080209747304,0.9999012528485263,0.00015444006608977376
-0.4727334354167397,-0.4727334354167397,0.9999095521278182,0.0001587237596805356
-0.47083007536566585,-0.47083007536566585,0.9996365117767929,0.0001601810674893488
-0.46904215434624347,-0.46904215434624347,1.0000089384574198,0.0001552041657400071
-0.468140918865538,-0.468140918865538,1.000330663704255,0.00015431767963459332
-0.46662822861253517,-0.46662822861253517,1.0001527157704921,0.0001587364001569
-0.46554403222107793,-0.46554403222107793,1.0000166058386246,0.00015437373502176315
-0.4638772283316939,-0.4638772283316939,0.9998000895631906,0.00015685729219085462
-0.46119258802282276,-0.46119258802282276,0.9997874606017652,0.00015705001595377356
-0.46031305891738156,-0.46031305891738156,0.9999075717379828,0.00015428191525364705
-0.458886874478776,-0.458886874478776,1.0002828328872926,0.00015660152293234624
-0.4577974386709684,-0.4577974386709684,1.0003827053807957,0.00015435412083080423
-0.4568484759489365,-0.4568484759489365,1.0000851866203875,0.00015449245324638733
-0.455165822863637,-0.455165822863637,1.0000258778418427,0.00015480120160018843
-0.4529136609482521,-0.4529136609482521,1.0000481418957787,0.00015569953876108108
-0.4520612083630112,-0.4520612083630112,0.9999571109379811,0.0001543143404713184
-0.45034544369700596,-0.45034544369700596,1.0003496889731764,0.00015546501167260473
-0.4490472259189119,-0.4490472259189119,0.99997131877721,0.00015805688020022784
-0.4467062110430561,-0.4467062110430561,0.9999021394988171,0.00015463977326300572
-0.4446743339060049,-0.4446743339060049,1.000340230287904,0.00015520537346614001
-0.44376849301552285,-0.44376849301552285,0.999950175530022,0.00015427528588913376
-0.4422637863586715,-0.4422637863586715,1.0001536555375754,0.000158233796300315
-0.44132520175990064,-0.44132520175990064,1.0000554864932703,0.00015454244012220363
-0.43963720941756035,-0.43963720941756035,1.000315385899626,0.00015447572840730572
-0.436827589123277,-0.436827589123277,0.9998483794502334,0.0001566578299904339
-0.43594054880813926,-0.43594054880813926,0.9999385819690192,0.00015431595149701635
-0.43429612779655147,-0.43429612779655147,1.0004094758386843,0.00015649300823569395
-0.4332796628375945,-0.4332796628375945,1.000040093139741,0.00015448169053092727
-0.43199950148555216,-0.43199950148555216,1.000011208170268,0.00015445682964270883
-0.4299504151007568,-0.4299504151007568,1.0002382612578131,0.00015467702818237246
-0.4283274849745794,-0.4283274849745794,0.9998556193550371,0.00015549128230093757
-0.4274708178803849,-0.4274708178803849,0.9997311405962035,0.00015426208199718805
-0.4256163468751765,-0.4256163468751765,1.000028649797416,0.00015535374223669214
-0.42459404755572905,-0.42459404755572905,0.9998337957322274,0.00015768493785173464
-0.4219936636676721,-0.4219936636676721,1.0001455663598497,0.00015454237599391815
-0.4199680476209323,-0.4199680476209323,1.0000512163069208,0.00015499246842858602
-0.41863739363252533,-0.41863739363252533,1.00033059426394,0.00015490279858599136
-0.4172240108535334,-0.4172240108535334,0.9999329977705248,0.00015656047403648344
-0.4161853045654425,-0.4161853045654425,0.9997989759388674,0.0001545529964735081
-0.413398275658983,-0.413398275658983,1.0001506648735643,0.00015439006152827322
-0.4117579744735849,-0.4117579744735849,0.9999684494966052,0.0001563723914448595
-0.4103896618456929,-0.4103896618456929,1.0002095441233987,0.00015475021950598204
-0.4092414822662249,-0.4092414822662249,1.0000435368461118,0.0001558749500425872
-0.40815868575155034,-0.40815868575155034,1.000044895906877,0.00016069306127404638
-0.4064707292272942,-0.4064707292272942,1.0000652652459838,0.00015476351100501465
-0.40440773657755924,-0.40440773657755924,0.9996639343663208,0.00015533593060103407
-0.40346162882924547,-0.40346162882924547,0.9997698486074645,0.00015431672916499552
-0.40216832185178647,-0.40216832185178647,1.0000671332855382,0.00016016125034626447
-0.40092468245420604,-0.40092468245420604,0.9999371357049058,0.0001544015859256595
-0.39970717282922125,-0.39970717282922125,1.0000505282248926,0.0001573545308633486
-0.39674557853577425,-0.39674557853577425,1.0002209095722392,0.0001551256199338645
-0.3954073692941165,-0.3954073692941165,0.9998418019302792,0.00015726972401882834
-0.394128609407926,-0.394128609407926,1.000131526043846,0.00015488581917814912
-0.3928633838397218,-0.3928633838397218,1.0001778088331506,0.00015638090514825178
-0.391770441425615,-0.391770441425615,0.999848758739122,0.0001545176325586155
-0.3890404870347993,-0.3890404870347993,1.000207030793223,0.00015439687710343367
-0.387380731257872,-0.387380731257872,1.000085327779993,0.00015615128057703013
-0.38582818006689196,-0.38582818006689196,1.000095851474797,0.00015566525729745443
-0.3847187692721491,-0.3847187692721491,1.000046088961281,0.00015428784943250239
-0.38379017765255413,-0.38379017765255413,1.000195164598453,0.00015961432418395874
-0.38199544270974,-0.38199544270974,1.0002897582748123,0.00015471698255908005
-0.37982373773338624,-0.37982373773338624,0.9998420287117404,0.00015528108614964927
-0.37891235513743593,-0.37891235513743593,0.9997599278645011,0.00015432976724534704
-0.37746832360571714,-0.37746832360571714,1.0000784928769466,0.00015937473504498793
-0.3763855212469934,-0.3763855212469934,0.9999359433049193,0.00015437750767532694
-0.3749701175256632,-0.3749701175256632,1.0000462824070957,0.00015711017269354934
-0.371982174499135,-0.371982174499135,1.0000586900769932,0.00015479440393134108
-0.3710315731143055,-0.3710315731143055,0.9999968770868943,0.00015693627459931314
-0.3697636342018086,-0.3697636342018086,1.0000856947497585,0.00015480335262300877
-0.3685028209198208,-0.3685028209198208,0.99989763074561,0.00015627153701493118
-0.36739995404859654,-0.36739995404859654,0.9999662610987082,0.00015447127016407234
-0.36448158347120624,-0.36448158347120624,0.9998317496969416,0.000154750036307454
-0.3629307198993047,-0.3629307198993047,1.0000486602271343,0.0001555396481510371
-0.3614657705751597,-0.3614657705751597,0.9999206595920551,0.00015549054807574662
-0.360192783032835,-0.360192783032835,0.9999089314436997,0.00015443265493579985
-0.3589139355914085,-0.3589139355914085,1.0000059821078253,0.0001586188863292052
-0.3570121433091117,-0.3570121433091117,0.999802484608237,0.00016011826236885928
-0.355223502851004,-0.355223502851004,1.0000847670625526,0.00015522869272991945
-0.3543217530786933,-0.3543217530786933,0.9999212491485322,0.00015431289388978439
-0.3528099540308176,-0.3528099540308176,0.9999953351004965,0.0001586691760198815
-0.351869690073363,-0.351869690073363,1.0001667506261813,0.00015456994373602676
-0.350599197250267,-0.350599197250267,1.0000770848588583,0.00015691740830332937
-0.3476238198847568,-0.3476238198847568,1.000143890426853,0.0001547540200255427
-0.3466558502033877,-0.3466558502033877,1.0000154017632397,0.00015655969195242514
-0.34518857815346565,-0.34518857815346565,0.9998090226791397,0.00015656409068819368
-0.3439794247969985,-0.3439794247969985,1.0001913360422514,0.00015433430537092064
-0.3430295460377238,-0.3430295460377238,1.0001398982168626,0.00015448927144198229
-0.3413476280096802,-0.3413476280096802,1.0001129301339138,0.00015483328157088924
-0.3390954981572577,-0.3390954981572577,1.0002110265722923,0.0001556982260039028
-0.33824220773385605,-0.33824220773385605,1.0001748489909308,0.00015431188985256297
-0.33652738983073505,-0.33652738983073505,1.0000891956451876,0.0001554093902630528
-0.3352286980065401,-0.3352286980065401,0.9998895455134982,0.00015799522804298087
-0.3329097451758571,-0.3329097451758571,0.999978022098707,0.00015464986278164282
-0.3310977183704381,-0.3310977183704381,0.999853159081146,0.0001551431746031551
-0.33016596602028586,-0.33016596602028586,1.0000017756900084,0.0001543043504765444
-0.3287361759939813,-0.3287361759939813,1.0000364243745787,0.00015813947168864432
-0.3276612709036272,-0.3276612709036272,1.0003363844105255,0.0001545994998711267
-0.3264989696937846,-0.3264989696937846,1.0000068398108248,0.0001545001275587597
-0.32326561943191334,-0.32326561943191334,1.0001326879834014,0.00015473651154490265
-0.3221313569410995,-0.3221313569410995,0.9999419645279722,0.00015620735543802908
-0.32047808125862504,-0.32047808125862504,0.9997080051250139,0.0001564239220085099
-0.3194616172113456,-0.3194616172113456,0.9998616729257866,0.00015444854274374189
-0.31818176633678374,-0.31818176633678374,1.0000042082998994,0.00015446323045411448
-0.3164581753881066,-0.3164581753881066,0.999937208392705,0.00015468382299902632
-0.31450880417251026,-0.31450880417251026,1.000143807172278,0.00015548124349043583
-0.3136519124978804,-0.3136519124978804,1.0000202060846113,0.00015430526061161002
-0.31179856313101484,-0.31179856313101484,0.9999461543341166,0.0001553494433066391
-0.31077550041372887,-0.31077550041372887,1.0000413785964883,0.000157631283622335
-0.3081750353696407,-0.3081750353696407,1.0000644083259758,0.0001545166760341515
-0.30614902007073397,-0.30614902007073397,0.9999373260955394,0.00015496845610772956
-0.3048189158420428,-0.3048189158420428,0.9997323236044924,0.00015483614619393786
-0.30340616025787315,-0.30340616025787315,1.000125897699839,0.0001565529920570051
-0.30232205018837705,-0.30232205018837705,0.9999679243037403,0.00015449736675484237
-0.2995807355851866,-0.2995807355851866,0.9998787125961102,0.00015437819020643282
-0.29793827871399114,-0.29793827871399114,0.9998430605837504,0.00015634390138409318
-0.29657174694148125,-0.29657174694148125,1.0000947751108167,0.00015473751675013685
-0.29542336674203395,-0.29542336674203395,1.000150779621909,0.00015588751453032192
-0.29434002290436184,-0.29434002290436184,0.9998697543972337,0.000160566724535384
-0.29270562237798003,-0.29270562237798003,1.0001861116070585,0.00016053278035467786
-0.290834161429666,-0.290834161429666,0.9999100479051283,0.00015489469287782799
-0.28981561049295124,-0.28981561049295124,1.000025095420502,0.00015508508314904232
-0.2886585425301746,-0.2886585425301746,0.9999744214003968,0.00016011729635157342
-0.2872671040422574,-0.2872671040422574,1.0001470728514301,0.00015441697399347587
-0.28616217472590505,-0.28616217472590505,0.9999446212489002,0.00015728166984638067
-0.284165801420022,-0.284165801420022,1.000131600899519,0.00015456532298075267
-0.28188187874038706,-0.28188187874038706,1.0000908018806673,0.0001577748917654368
-0.28098043698628317,-0.28098043698628317,1.0002544577356545,0.00015432692416094966
-0.2793948517355602,-0.2793948517355602,0.9997028281259052,0.00015683801708413065
-0.2784329239824729,-0.2784329239824729,0.9998688068064163,0.0001544898663718367
-0.27650425885804,-0.27650425885804,0.999954691609102,0.0001544303972109514
-0.2740022858408338,-0.2740022858408338,1.0000561475986367,0.00015609454751790912
-0.2727528417141002,-0.2727528417141002,1.0001227562273667,0.00015428615932451198
-0.27111318771349036,-0.27111318771349036,1.0001734989441409,0.00015567132895817742
-0.27019665039406393,-0.27019665039406393,0.9999577900618883,0.000154432253386813
-0.26903041457335347,-0.26903041457335347,0.9998893889457294,0.0001596117937585162
-0.26647419155997343,-0.26647419155997343,1.0000679594707953,0.00015482024704139213
-0.26544407525943825,-0.26544407525943825,1.0002407804423055,0.00015505753763415318
-0.26428699478346973,-0.26428699478346973,0.9998985894572892,0.00015934341353235397
-0.2629074469019542,-0.2629074469019542,1.000099087706333,0.00015437164642976333
-0.2617920576441975,-0.2617920576441975,1.0000810410291556,0.00015708050407964427
-0.25940233907676885,-0.25940233907676885,0.9997859760459459,0.00015429683567623592
-0.2575096331107488,-0.2575096331107488,0.9998018461892556,0.0001573735718337997
-0.2566090793123294,-0.2566090793123294,1.0001909563702083,0.0001543097452251315
-0.2550344930576102,-0.2550344930576102,0.9997708316484537,0.00015674149496870685
-0.2540698790035094,-0.2540698790035094,1.0000152308685422,0.00015446514935406685
-0.2525987250177423,-0.2525987250177423,1.0000610143167883,0.00015442034145429507
-0.24964084234452458,-0.24964084234452458,0.9999499238343612,0.0001558642980078225
-0.24879427720952663,-0.24879427720952663,0.9999333982117108,0.0001542869624379792
-0.2468834148705355,-0.2468834148705355,1.0002486543619824,0.00015553957554566782
-0.24577694025065283,-0.24577694025065283,1.0001493707865943,0.0001585313923860328
-0.24380951301791357,-0.24380951301791357,1.0001634770024153,0.0001546849636060775
-0.24164255395880901,-0.24164255395880901,0.9999410631326487,0.0001551696200431918
-0.240719855579664,-0.240719855579664,0.9999243766752712,0.00015430225112267098
-0.23928376371477497,-0.23928376371477497,1.0000855811018747,0.00015858911393235798
-0.238206153333158,-0.238206153333158,1.0000827425733234,0.00015459157945201912
-0.2371445334109012,-0.2371445334109012,0.999698261487269,0.00015683773952505833
-0.2347598987420497,-0.2347598987420497,0.9999715034272363,0.0001597470965317072
-0.23313745556297363,-0.23313745556297363,0.9998782529142657,0.0001570110727440829
-0.23210039272671565,-0.23210039272671565,1.0002946030757887,0.0001547796641521743
-0.23050485467829276,-0.23050485467829276,0.9998666587717047,0.00015611441911306717
-0.22964058079451205,-0.22964058079451205,0.9999005309393217,0.0001544755584585449
-0.22849455123359802,-0.22849455123359802,1.000201820586096,0.00015440551485882372
-0.22584078396248514,-0.22584078396248514,1.0000477754533053,0.00015502399722265247
-0.22473985121541773,-0.22473985121541773,0.9998066451505071,0.00015532233092410442
-0.22347103600259288,-0.22347103600259288,0.9998396655364516,0.00015538280780393263
-0.22201265682888333,-0.22201265682888333,0.9998865831464954,0.00015441791539913305
-0.2201769730185333,-0.2201769730185333,0.999879574043493,0.00015820078743221454
-0.2174993553555396,-0.2174993553555396,1.0001418415573406,0.0001552326101278611
-0.21653085914804251,-0.21653085914804251,1.0001065411038275,0.0001542531208434632
-0.21524516465287888,-0.21524516465287888,0.9998744147529646,0.00015808876088366534
-0.21402141410217154,-0.21402141410217154,0.999826203803593,0.00015436375611202518
-0.2131332539836876,-0.2131332539836876,0.999810079738997,0.00015451910499361942
-0.21080972234994988,-0.21080972234994988,1.000016936555164,0.0001544581629878429
-0.20881685078711598,-0.20881685078711598,0.9999890513798434,0.0001565625832994394
-0.20773074963726684,-0.20773074963726684,1.0000099515300724,0.0001547829664441291
-0.2061449514774722,-0.2061449514774722,1.000269454074267,0.00015601676540242217
-0.20511702291041728,-0.20511702291041728,0.9999846816038259,0.0001544842307058219
-0.203652648904972,-0.203652648904972,1.0002183137086669,0.00015438637377505345
-0.20119125424025697,-0.20119125424025697,0.9997901521471082,0.000155881188965923
-0.20022612230022788,-0.20022612230022788,1.0002227836069721,0.00015429900078849055
-0.19870295712316874,-0.19870295712316874,1.000135381561184,0.0001552796669210392
-0.19747422311556875,-0.19747422311556875,0.9998303186936457,0.0001544048244272714
-0.19575118266802746,-0.19575118266802746,0.9999627577632154,0.00015759151956006487
-0.19266935089835896,-0.19266935089835896,0.9996391712125355,0.0001550756333754342
-0.19175793737667846,-0.19175793737667846,1.0000258416377745,0.00015428905796152265
-0.18993744468898513,-0.18993744468898513,1.0002969878351256,0.00015704941109832707
-0.18897792119751103,-0.18897792119751103,0.9999132263504077,0.00015450726851485593
-0.18714873257704312,-0.18714873257704312,0.999912280780433,0.00015448451224746486
-0.1848260448256042,-0.1848260448256042,1.0000381677080328,0.00015626746707775936
-0.1837178630848939,-0.1837178630848939,1.000307088157823,0.00015432754259680576
-0.18199099250123255,-0.18199099250123255,1.000159742909632,0.00015575388888641923
-0.18102308036977774,-0.18102308036977774,0.9999297425164487,0.00015444783374256952
-0.1797904529419611,-0.1797904529419611,0.9999870409239413,0.00016041995058995053
-0.17701638170474326,-0.17701638170474326,1.000321942056104,0.00015491863766438046
-0.17599654661098613,-0.17599654661098613,0.9998384537285328,0.00015506707946226036
-0.17483947681394058,-0.17483947681394058,0.9999824988501744,0.00016002838881509627
-0.17344936028312077,-0.17344936028312077,0.9998245388612634,0.00015439779115760942
-0.17234327014448353,-0.17234327014448353,0.9999448312397738,0.0001572655036387505
-0.17034810198747435,-0.17034810198747435,0.9997987901325986,0.00015456288798482496
-0.16806273578476977,-0.16806273578476977,0.9996406743646779,0.00015772741670461214
-0.16716138872798184,-0.16716138872798184,1.00008883567522,0.0001542774711117827
-0.16557703135840712,-0.16557703135840712,0.9999142607289819,0.00015680955048224713
-0.16461480386642507,-0.16461480386642507,1.000137786979462,0.00015451196766520648
-0.16268550722670624,-0.16268550722670624,0.9997787371612988,0.0001544186027321181
-0.16018367433425737,-0.16018367433425737,1.0001729137491293,0.00015605689176635993
-0.15893420431530103,-0.15893420431530103,1.0000465396886233,0.0001542583753833675
-0.15724343089386822,-0.15724343089386822,1.0000056985514685,0.00015564584266293077
-0.15615226592490217,-0.15615226592490217,1.0003007287670322,0.00015940439005772246
-0.15478407064874772,-0.15478407064874772,1.000267593911993,0.00016073306668271155
-0.15240787896327673,-0.15240787896327673,0.9999212816727596,0.00015527789661364823
-0.1514529961721564,-0.1514529961721564,0.9996366818199226,0.0001542908055127399
-0.1501626916411624,-0.1501626916411624,0.9999516381789245,0.0001592151600009385
-0.14892686413877526,-0.14892686413877526,1.000070625058849,0.00015440317813123503
-0.14769719325631742,-0.14769719325631742,1.0001334265001944,0.00015708898902243721
-0.14488600662516546,-0.14488600662516546,1.000045772827042,0.00015426677916046498
-0.1435602659752476,-0.1435602659752476,0.9998401845776087,0.0001572807944401129
-0.14247052120335865,-0.14247052120335865,0.9999546430715602,0.0001548143636279817
-0.1410470489274303,-0.1410470489274303,0.9999526212127747,0.00015621600194433872
-0.13998556536826073,-0.13998556536826073,0.9999430339824922,0.00015444725233416088
-0.1386583325882384,-0.1386583325882384,0.9999308494373622,0.00015439306862747277
-0.13582267130695982,-0.13582267130695982,0.9998775885310731,0.00015585311786210055
-0.1349752619229548,-0.1349752619229548,0.9998901475251847,0.00015430506108926655
-0.13306567447361886,-0.13306567447361886,0.9999592093822359,0.00015550189870403193
-0.13195840683329152,-0.13195840683329152,0.9997208807840499,0.00015844322870778755
-0.12999092587851918,-0.12999092587851918,0.9995339201231435,0.00015465936868549427
-0.12782444367330753,-0.12782444367330753,1.0000183317344764,0.00015519938318226843
