time,time,flux,flux_err
-0.49978663346846586,-0.49978663346846586,0.9999143496595817,0.00044627775941123206
-0.49881168571882883,-0.49881168571882883,0.9998272803005603,0.000451270718476813
-0.49730014943779677,-0.49730014943779677,0.9992057536878601,0.0004453264976910478
-0.49579865874839013,-0.49579865874839013,0.999715740698138,0.0004465468871051916
-0.493983663477411,-0.493983663477411,1.0004184710496924,0.00044702942644069915
-0.4919157362237456,-0.4919157362237456,0.99997597325108,0.00044638803210379936
-0.4907395568137872,-0.4907395568137872,0.9996448582218088,0.000454534921155439
-0.4884713484309032,-0.4884713484309032,1.000151162935743,0.000446063291848565
-0.48639068037155087,-0.48639068037155087,0.9995815536188353,0.0004484504977209385
-0.48534392414294414,-0.48534392414294414,1.0003599944267176,0.0004465392422872522
-0.48409598616271976,-0.48409598616271976,0.9991854342125043,0.0004530900931574575
-0.4827711324382108,-0.4827711324382108,0.9999370123171841,0.00044634365694483136
-0.4818054802512052,-0.4818054802512052,0.9997754103689218,0.0004465025089147014
-0.4800668371099164,-0.4800668371099164,0.9995353638935525,0.00044937220367540897
-0.4789048903650837,-0.4789048903650837,0.9993633891602988,0.00044675003840543984
-0.47706996344059005,-0.47706996344059005,0.9998271189773892,0.0004454943325083527
-0.47561778413364664,-0.47561778413364664,0.9994671858122185,0.0004469940986692275
-0.47395541576988764,-0.47395541576988764,0.9994023134556761,0.0004475443152131183
-0.47201094521442427,-0.47201094521442427,1.0002141016042239,0.0004469402367060214
-0.46980331168597333,-0.46980331168597333,1.000005006577179,0.00044855119509157603
-0.46817005293560215,-0.46817005293560215,0.999693964703048,0.0004461400037153041
-0.4668090554288938,-0.4668090554288938,0.9993349027993638,0.0004506333094728506
-0.46536228902841686,-0.46536228902841686,1.0003077912554623,0.0004463862183457016
-0.4645214111631503,-0.4645214111631503,0.9999068780827812,0.0004465211542414125
-0.46295005826686975,-0.46295005826686975,1.0002202628175254,0.00044850782448774284
-0.46192083148343954,-0.46192083148343954,0.9998209408803801,0.00044623579457243645
-0.4600988355188747,-0.4600988355188747,0.999221577167669,0.00044562218113936524
-0.4587590792565607,-0.4587590792565607,1.0000638637363863,0.0004469859650261576
-0.45682516742817825,-0.45682516742817825,0.9998476097642802,0.0004469880539269398
-0.45541777312027987,-0.45541777312027987,1.0004676810131934,0.00044704551860746304
-0.4536967608422856,-0.4536967608422856,1.0006492078018783,0.00045487936800423965
-0.4515303523250623,-0.4515303523250623,0.999904778804086,0.00044731990643919145
-0.45062689762125957,-0.45062689762125957,1.0001408954689752,0.00044605425723956915
-0.4485497099798522,-0.4485497099798522,0.9997990402137011,0.00044929766952418797
-0.4477810066353413,-0.4477810066353413,0.9998317763338166,0.000446741450778119
-0.4463505968233221,-0.4463505968233221,0.9996805826085085,0.00045796591357229015
-0.44522085879871154,-0.44522085879871154,1.0004336628002293,0.00044588975976912905
-0.4440021949616494,-0.4440021949616494,0.9996109358430288,0.0004461723430821009
-0.4422969568753615,-0.4422969568753615,0.9997926257935971,0.00044624063091847787
-0.44051590358139947,-0.44051590358139947,0.999683648831547,0.0004462514732532308
-0.438910181132087,-0.438910181132087,0.9999500495708477,0.0004477538744365204
-0.4368880967464065,-0.4368880967464065,1.0007140812844688,0.00044716077335852245
-0.4359773814561777,-0.4359773814561777,1.0004965217403736,0.0004626952509068313
-0.43373572265554683,-0.43373572265554683,1.000475616530712,0.0004462432096838881
-0.43214795362873704,-0.43214795362873704,1.0003443893948258,0.00044859137842707215
-0.4307021355634788,-0.4307021355634788,0.9998175781667612,0.0004461702112314411
-0.4296607483105618,-0.4296607483105618,1.000681173698969,0.0004539050490549808
-0.4284063555809553,-0.4284063555809553,1.0001608221446787,0.00044774960352854577
-0.42762371786957376,-0.42762371786957376,1.0006552705303313,0.0004464476730717713
-0.4259067214603419,-0.4259067214603419,1.0000952414695965,0.00044997009767343336
-0.42474377232138066,-0.42474377232138066,0.9999493398710191,0.0004467404056857975
-0.42271886384842217,-0.42271886384842217,0.9991976696552515,0.0004459368599126493
-0.4212863647015183,-0.4212863647015183,0.9999263245854866,0.00044708317984548847
-0.41935293047572486,-0.41935293047572486,0.9995379319443043,0.0004471314290140041
-0.4177840436634142,-0.4177840436634142,1.0001218830280298,0.00044732664725455644
-0.4157435372850159,-0.4157435372850159,0.9998346205877382,0.0004485850006918134
-0.4137382587650791,-0.4137382587650791,0.9997208066549197,0.0004460193661976103
-0.4127613316901261,-0.4127613316901261,0.9998203116492791,0.000445966333851023
-0.41100007050845305,-0.41100007050845305,0.9991928577596678,0.00045110048287953775
-0.4103305545839248,-0.4103305545839248,1.0005230278148889,0.000446981733746384
-0.40876930392551003,-0.40876930392551003,0.9999202698274259,0.0004486439279537169
-0.4075357323643402,-0.4075357323643402,1.0000519718777094,0.00044650463947798523
-0.40613068085804116,-0.40613068085804116,1.0004251338448031,0.0004459375039635387
-0.4046447120126686,-0.4046447120126686,0.9998507279920406,0.0004466462734758871
-0.4026126696247957,-0.4026126696247957,0.9999594578397192,0.00044604061344642645
-0.4014445252600126,-0.4014445252600126,1.000619353868885,0.0004484695139007078
-0.3993930192955304,-0.3993930192955304,1.0003822863758867,0.0004456473708928669
-0.39725187542353524,-0.39725187542353524,0.9999886488414162,0.0004479330905358206
-0.39586985917412676,-0.39586985917412676,1.0001559733480245,0.00044600884748337993
-0.3940561308336328,-0.3940561308336328,0.9993277622281388,0.0004497410887478092
-0.3931335659624892,-0.3931335659624892,1.0000960366415392,0.00044639753815135477
-0.39184343383676606,-0.39184343383676606,1.0000288961575392,0.000448022716792039
-0.3904616298023029,-0.3904616298023029,1.0005869622508,0.0004460099713238029
-0.38931745316658634,-0.38931745316658634,1.0000076271359826,0.0004466781311848179
-0.3877775899178232,-0.3877775899178232,1.0000934390317546,0.00044544177078326315
-0.38628663641575256,-0.38628663641575256,1.0006283724724665,0.0004469127553077123
-0.3846209758106852,-0.3846209758106852,0.9998889235873751,0.0004469058374302312
-0.3829239680446335,-0.3829239680446335,0.9998296144162723,0.0004463823543985914
-0.38124963405280143,-0.38124963405280143,1.0002817634259071,0.0004541552298782594
-0.37898015881801256,-0.37898015881801256,0.9989848945263201,0.0004460030294409545
-0.37738734352169556,-0.37738734352169556,1.0001158724608228,0.0004486571777991889
-0.37594643861666555,-0.37594643861666555,0.9992872367082724,0.00044624953385272864
-0.3749040835042251,-0.3749040835042251,0.9992787237525986,0.0004543544860938797
-0.3736504862332367,-0.3736504862332367,0.9998180324742302,0.000447723266398463
-0.37286863352492217,-0.37286863352492217,0.9991213791204225,0.00044626905347694944
-0.371466203154705,-0.371466203154705,1.000242425404004,0.0004500113750720223
-0.3700624091958161,-0.3700624091958161,0.9993854057540748,0.0004463282627728404
-0.36795979236776477,-0.36795979236776477,0.9996144561526037,0.00044601085678409446
-0.3665297439234564,-0.3665297439234564,0.9999986620994591,0.00044716744592819817
-0.36459641936526166,-0.36459641936526166,1.0007980501421083,0.00044730625283962946
-0.3630261973841698,-0.3630261973841698,0.9997463148458665,0.0004472378867749125
-0.3609858916111989,-0.3609858916111989,1.0004520956586984,0.00044878120036521074
-0.3589815898390952,-0.3589815898390952,1.0000438732342847,0.00044592186341645525
-0.35800289468461416,-0.35800289468461416,1.000186614305194,0.0004459112293951818
-0.3562415876280284,-0.3562415876280284,0.9991387632128059,0.0004523072549651523
-0.3555779430709663,-0.3555779430709663,0.9999444546306184,0.00044643326401959046
-0.35427337213332066,-0.35427337213332066,0.9998505473610638,0.0004491677669332283
-0.3529763738755719,-0.3529763738755719,1.000249853621225,0.0004457477012826578
-0.35175949556869457,-0.35175949556869457,1.00055622653672,0.0004465985971601691
-0.3500683210149873,-0.3500683210149873,1.000594841930838,0.0004463976782082757
-0.3483754619228421,-0.3483754619228421,1.0002644262183933,0.0004461225134809366
-0.347012714392622,-0.347012714392622,0.9993914280262463,0.0004475712191437781
-0.3449107530686888,-0.3449107530686888,0.9999855672655213,0.0004466436388005487
-0.3433851558933384,-0.3433851558933384,1.000617288543015,0.0004584595188460121
-0.3415140501107089,-0.3415140501107089,1.0004712163355625,0.0004461678436778119
-0.3404036867825198,-0.3404036867825198,1.0001341396699466,0.00044990528225376307
-0.33872769509471257,-0.33872769509471257,0.9997456662771181,0.00044598381963946475
-0.338016546992003,-0.338016546992003,1.0002684126550272,0.00044625654574614637
-0.33643505954969444,-0.33643505954969444,1.0002031893365673,0.00044799653882217767
-0.3354049042056431,-0.3354049042056431,0.999674275013296,0.000446388650549637
-0.3336026542558102,-0.3336026542558102,1.000219836764066,0.00044566512582828706
-0.33227613105846104,-0.33227613105846104,0.9997667037767117,0.000446875405130756
-0.33031394711724715,-0.33031394711724715,1.0002332863473329,0.0004456627341992749
-0.32905792813689916,-0.32905792813689916,0.9993624455237251,0.00044774299353841104
-0.32710421107622095,-0.32710421107622095,0.9996069084525724,0.0004460596548182472
-0.3251498388621258,-0.3251498388621258,0.9999430441295536,0.0004543156436872464
-0.3238303875361453,-0.3238303875361453,0.9999451066341875,0.0004461701148543738
-0.3217549118664465,-0.3217549118664465,0.9996602943562332,0.0004488232480265129
-0.32097428704437336,-0.32097428704437336,0.9988440875960659,0.0004466275709814416
-0.31955703788407847,-0.31955703788407847,0.9999590523819155,0.00045610112320924027
-0.3184986584557919,-0.3184986584557919,0.99965000914979,0.0004459456684969503
-0.31753576279443224,-0.31753576279443224,1.0000644168340658,0.00044656636807509625
-0.3160137705912348,-0.3160137705912348,0.9998766575734269,0.0004495561592168042
-0.31467877961113117,-0.31467877961113117,1.0001601856698823,0.0004466169784360312
-0.3125973403235548,-0.3125973403235548,1.0001473432654975,0.00044672698809169813
-0.3108903929780354,-0.3108903929780354,0.9993003308785442,0.0004463216426322742
-0.309551816729072,-0.309551816729072,0.9994547601964126,0.0004477447157961624
-0.307196800118254,-0.307196800118254,0.9998262157616635,0.00044767291757823126
-0.3053595321980538,-0.3053595321980538,1.0008233596429725,0.0004485443212971515
-0.3039025665915688,-0.3039025665915688,0.9998962965746735,0.0004462122716474285
-0.3028633388268645,-0.3028633388268645,0.9998456655030317,0.000452844858055021
-0.3013989996732562,-0.3013989996732562,1.000413395772448,0.0004459735569088693
-0.3005468780218507,-0.3005468780218507,1.0000641171513518,0.00044660125576446145
-0.29879735223948956,-0.29879735223948956,1.0008970178590852,0.0004496091922041789
-0.29764884839532896,-0.29764884839532896,1.000508873190589,0.0004464548606455351
-0.2958188220654847,-0.2958188220654847,1.0005576094205282,0.00044594246904370216
-0.2944888610698399,-0.2944888610698399,1.0001237720574745,0.00044693649008588007
-0.2925552034270368,-0.2925552034270368,0.9988444107914347,0.0004470737712367681
-0.2909893118092441,-0.2909893118092441,0.9992626807705738,0.00044703918354781376
-0.2887252226704732,-0.2887252226704732,1.0002840096966212,0.00044832794648370027
-0.28675871446321255,-0.28675871446321255,0.999830549495077,0.00044609664763952853
-0.2856447848418611,-0.2856447848418611,0.9998943836381189,0.0004501571499412416
-0.283970425921143,-0.283970425921143,1.000507325652924,0.00044606493009906323
-0.2832603417133214,-0.2832603417133214,0.9996855080017909,0.0004462008179218641
-0.28167760847572937,-0.28167760847572937,0.999338038617692,0.0004482616159183771
-0.28064999670459656,-0.28064999670459656,1.0000846847850324,0.00044646304524058593
-0.2788398555130698,-0.2788398555130698,0.9997848536675168,0.00044557286379198367
-0.2775217620044714,-0.2775217620044714,0.9995058293166263,0.0004469461291083757
-0.27555355471849907,-0.27555355471849907,1.0005233214561138,0.00044564559978300537
-0.2743014737570775,-0.2743014737570775,1.0000767393929773,0.0004479832859430488
-0.2723474949219963,-0.2723474949219963,1.0006506110036466,0.00044620879332105644
-0.2703922141168732,-0.2703922141168732,0.9994510125520311,0.00045494348066994864
-0.2690732530565583,-0.2690732530565583,0.9997812119532605,0.0004460739507227415
-0.26699701710313095,-0.26699701710313095,0.9994454328075465,0.00044894873235339257
-0.26622170064219974,-0.26622170064219974,0.9993743974061455,0.00044678443858832466
-0.26479860720719445,-0.26479860720719445,1.0003674505607696,0.00045704939180309795
-0.26374125554866623,-0.26374125554866623,1.0000683822759993,0.0004461209533167861
-0.26277925422327825,-0.26277925422327825,0.9989222115738527,0.00044657886541303853
-0.2612552977720043,-0.2612552977720043,0.9996618404103664,0.00045003328027915814
-0.2599218200615724,-0.2599218200615724,1.0001394602809843,0.0004465746866755598
-0.25784107039944504,-0.25784107039944504,1.0000107801385578,0.0004466575164526922
-0.25613145048118896,-0.25613145048118896,0.9993509221804322,0.00044632744531235323
-0.25475600671925347,-0.25475600671925347,0.9991284627674837,0.00045276779292529473
-0.2524408892626525,-0.2524408892626525,1.000302199537751,0.000447644095049265
-0.250598795642145,-0.250598795642145,0.9996761870485324,0.0004483864394594069
-0.2491468002379406,-0.2491468002379406,0.9993276060463924,0.00044606484701661633
-0.24810661506926407,-0.24810661506926407,1.0000021974294475,0.0004533518938971923
-0.24664000203192699,-0.24664000203192699,1.0000947103258446,0.0004461263287043278
-0.24579086352896412,-0.24579086352896412,0.9992444215189786,0.0004462610887252452
-0.2440414905024227,-0.2440414905024227,0.9996374509840887,0.0004498362609849858
-0.24289158428728114,-0.24289158428728114,0.9997189013088839,0.00044636260565217854
-0.2410589189894381,-0.2410589189894381,1.0003095829887731,0.0004460894313818931
-0.2397321804150124,-0.2397321804150124,1.000689178079363,0.0004470090517468046
-0.23779861498769606,-0.23779861498769606,0.999719673707868,0.00044717261406383783
-0.23623139548726613,-0.23623139548726613,1.0000076787141214,0.0004471948583170608
-0.23396899458311965,-0.23396899458311965,0.9999635287965868,0.0004485181692869422
-0.23200341208139436,-0.23200341208139436,0.9996610516410411,0.0004461573673803992
-0.23088591523410287,-0.23088591523410287,0.9999629854410689,0.00045078624556430934
-0.22921320112363902,-0.22921320112363902,0.9994534486396768,0.00044603583592780474
-0.22850417383015156,-0.22850417383015156,1.0000202730391903,0.00044632119581616776
-0.2269201909817639,-0.2269201909817639,0.9995815471428463,0.00044851345597988313
-0.22589511613332433,-0.22589511613332433,0.9998304654296282,0.0004466756576426068
-0.2240771176162525,-0.2240771176162525,1.0010631713491605,0.00044573560119107235
-0.22276742019312223,-0.22276742019312223,0.9999282264919243,0.00044706148337326135
-0.2207932054254343,-0.2207932054254343,1.0002039323139755,0.0004456488380617333
-0.2195450447325129,-0.2195450447325129,1.0005985156422277,0.00044817012434337274
-0.21759081490745302,-0.21759081490745302,0.9999191855738865,0.00044602347120145295
-0.21563461948680923,-0.21563461948680923,0.9999467415108052,0.0004556964288264491
-0.2143161623069318,-0.2143161623069318,1.000351007928367,0.00044615131769274894
-0.21223916671733606,-0.21223916671733606,0.9999164739850144,0.0004492514559863923
-0.21146914150158408,-0.21146914150158408,0.9999757379528349,0.0004467562429331294
-0.21004019680985947,-0.21004019680985947,0.9994812279401379,0.0004578733896767425
-0.20891067269985797,-0.20891067269985797,1.0002064478891046,0.0004459136957674917
-0.20769194199092453,-0.20769194199092453,0.9999710650093314,0.0004462265263697637
-0.20598613219190157,-0.20598613219190157,0.9998214190926011,0.0004462017198959482
-0.20420516762678745,-0.20420516762678745,0.999556527382012,0.0004463062236589956
-0.2025990376190748,-0.2025990376190748,0.9996094359725877,0.0004477440146058376
-0.20057748883991736,-0.20057748883991736,0.9999582813773257,0.00044713917332195134
-0.19922081136173803,-0.19922081136173803,0.9994011907586071,0.00045325726607849375
-0.19709527032391633,-0.19709527032391633,1.0004197967665505,0.000445922757444042
-0.19496033496689052,-0.19496033496689052,0.9998330228685223,0.00044854113532248824
-0.19416770531533983,-0.19416770531533983,1.000102544795116,0.0004467628327435234
-0.19269049222639295,-0.19269049222639295,0.9995203591246652,0.0004530742665671359
-0.19150542741990648,-0.19150542741990648,0.9997072150802161,0.00044619898099793097
-0.19045215695368825,-0.19045215695368825,1.000645743557737,0.00045049053443258787
-0.18870247570885113,-0.18870247570885113,1.0007199911591766,0.0004463385591531936
-0.18748077034106245,-0.18748077034106245,1.0000179537173979,0.00044605058443790614
-0.18579907102684956,-0.18579907102684956,0.999628576824159,0.00044663080936930996
-0.18409815018385417,-0.18409815018385417,1.0002447494669418,0.00044620352798438413
-0.18274926176381995,-0.18274926176381995,0.9999890330812615,0.0004476410752140772
-0.180397710003308,-0.180397710003308,1.0002435766379,0.00044730367379290545
-0.17857140139240074,-0.17857140139240074,1.0003865988587302,0.0004481999095862427
-0.17710315576114227,-0.17710315576114227,1.0003411286709412,0.0004460975703637755
-0.17573964256880573,-0.17573964256880573,0.9997732917726359,0.00045106853719894196
-0.17429535319388378,-0.17429535319388378,1.001183675504505,0.0004465876155400851
-0.17345385066728342,-0.17345385066728342,1.0000056556433454,0.00044653313233026116
-0.17188256242952776,-0.17188256242952776,0.9997154463422102,0.00044864693592509526
-0.1708528073533671,-0.1708528073533671,1.0005126572893157,0.00044640647314312103
-0.16902878722903553,-0.16902878722903553,1.0000551279466525,0.0004457784686798534
-0.16769150102627464,-0.16769150102627464,1.0003867447687371,0.00044674206033756434
-0.16575764718581923,-0.16575764718581923,0.9994108227527596,0.000447025533383583
-0.16454874538612785,-0.16454874538612785,0.999610400101637,0.0004486277955287537
-0.16283416941732867,-0.16283416941732867,0.9995709758932094,0.00044602292316001406
-0.16087705368699973,-0.16087705368699973,0.9999425122567736,0.0004566686980431044
-0.1595591159290052,-0.1595591159290052,0.9998115256320071,0.0004459164498112996
-0.15774531691713492,-0.15774531691713492,1.0001288896202207,0.0004497580210660251
-0.15682242594339185,-0.15682242594339185,1.000683986171428,0.00044645648154005915
-0.15553260439919542,-0.15553260439919542,0.9997172928251711,0.000448009532626562
-0.15415143293794245,-0.15415143293794245,0.9995274665172355,0.0004458073266542773
-0.15293297382741003,-0.15293297382741003,0.9998567404455171,0.0004463314546007941
-0.15122944583417847,-0.15122944583417847,1.0001120606094136,0.000446243415738104
-0.14944812727480894,-0.14944812727480894,1.000110859357921,0.0004462210203730525
-0.14784362178470473,-0.14784362178470473,0.9997725434106369,0.0004479344946642823
-0.14581210790056504,-0.14581210790056504,0.9996740421840371,0.0004454705652221949
-0.14395911165047437,-0.14395911165047437,0.9998576800871033,0.0004536490032423077
-0.14227686528902267,-0.14227686528902267,0.9990401336085692,0.00044617260746454443
-0.1402023413189454,-0.1402023413189454,1.0003122626648835,0.0004486403259045658
-0.13941505775874247,-0.13941505775874247,0.9996011331880921,0.00044675141217857643
-0.13800510594301157,-0.13800510594301157,1.000337862954297,0.00045532502001362695
-0.13694547436462018,-0.13694547436462018,0.9992479284367268,0.0004460301154106461
-0.13598144446295918,-0.13598144446295918,1.0005716523192973,0.0004467285159375129
-0.1342424486138043,-0.1342424486138043,0.9995295994213466,0.0004496242290053
-0.13308158538857243,-0.13308158538857243,0.9998477835154091,0.0004469600091758691
