time,time,flux,flux_err
-0.4998960699813324,-0.4998960699813324,0.9999936289734982,0.00010624011206847364
-0.4996376086304129,-0.4996376086304129,0.9999907258702786,0.00010777500998088517
-0.4994464341010219,-0.4994464341010219,1.0000772408205687,0.00010533034106882601
-0.4992739981767954,-0.4992739981767954,0.9998181425295153,9.89073255294988e-05
-0.49911236191837816,-0.49911236191837816,0.9999488933128424,9.702065057199454e-05
-0.4989346432768798,-0.4989346432768798,0.9998350058346481,0.0001003457823576767
-0.4987884626229061,-0.4987884626229061,0.9999614082668954,9.729644807744437e-05
-0.4986440805987513,-0.4986440805987513,1.0001839800556866,9.780809900183278e-05
-0.4984697789979691,-0.4984697789979691,0.9999809759844143,9.960192542899167e-05
-0.4983002767505241,-0.4983002767505241,0.9999526424726721,9.793521428794332e-05
-0.49816888925488456,-0.49816888925488456,0.9999536349846567,9.884365703174116e-05
-0.4980194873540313,-0.4980194873540313,1.0000081624931947,9.653293177833594e-05
-0.4978967461604043,-0.4978967461604043,1.0000967504813396,9.891920862178548e-05
-0.4977706841578765,-0.4977706841578765,1.0001687740314207,9.806206578609343e-05
-0.4976040324960195,-0.4976040324960195,0.9999220351245957,9.8173046364145e-05
-0.49744263127213345,-0.49744263127213345,1.0001378674030066,9.814181824797598e-05
-0.49724256540939676,-0.49724256540939676,0.9999773010665086,9.819703207671664e-05
-0.49708948667248476,-0.49708948667248476,0.9999740735188777,9.811886831187875e-05
-0.4968518523070088,-0.4968518523070088,1.0000287895174265,9.889813790220051e-05
-0.4967122887566802,-0.4967122887566802,0.9999291148913378,9.761368058820975e-05
-0.49656206606232445,-0.49656206606232445,0.9999334085889451,9.926986396391223e-05
-0.4964196451146563,-0.4964196451146563,1.0000735352107015,9.677574578275267e-05
-0.4962992274631688,-0.4962992274631688,1.0000761328660714,9.73725891911477e-05
-0.4961928551609162,-0.4961928551609162,1.0000124500491951,9.798128475896657e-05
-0.4960611375259759,-0.4960611375259759,1.0000725749243746,9.723826302361613e-05
-0.495943587320653,-0.495943587320653,0.9999424824631991,9.889557356722795e-05
-0.49579974221705925,-0.49579974221705925,1.000012127550613,9.680909941640661e-05
-0.49568404837627894,-0.49568404837627894,0.9999275402178884,9.624935557496448e-05
-0.4955564935720759,-0.4955564935720759,0.9999540454136605,9.929398486060827e-05
-0.495382847757719,-0.495382847757719,1.000032324777731,9.72684373639295e-05
-0.4952727979674819,-0.4952727979674819,0.999896912433097,9.659083587986581e-05
-0.4951197112648515,-0.4951197112648515,0.999928508712839,9.813933623902332e-05
-0.4949745714220626,-0.4949745714220626,0.9998537536427593,9.626561030764446e-05
-0.4947956098767463,-0.4947956098767463,1.000134999115096,0.00010122940118023457
-0.4945807652838994,-0.4945807652838994,1.000073358694556,9.701751788873433e-05
-0.49432521279959474,-0.49432521279959474,0.9999299821128297,9.922245090386315e-05
-0.4941542456333991,-0.4941542456333991,0.9998172132563159,9.534745170440792e-05
-0.49394551095101635,-0.49394551095101635,1.0001010577062968,9.412304767209549e-05
-0.4938145926280413,-0.4938145926280413,0.9998478589699988,9.827107806953594e-05
-0.493712465743738,-0.493712465743738,0.9999939783688099,9.39877691971148e-05
-0.49354818330248235,-0.49354818330248235,0.999985993401993,9.715324526893423e-05
-0.4934365104985773,-0.4934365104985773,0.9999339291560123,9.598969703782254e-05
-0.49326192004518815,-0.49326192004518815,1.0000278772275384,9.902800093915453e-05
-0.49310311283916236,-0.49310311283916236,0.9999004000328858,9.671496476558399e-05
-0.49295734631305094,-0.49295734631305094,0.9999196392788706,9.596945817247991e-05
-0.4928353560593678,-0.4928353560593678,0.9999993142434839,9.877666593474392e-05
-0.4926697759758099,-0.4926697759758099,1.0001190628139203,9.4227111843383e-05
-0.4925335220206762,-0.4925335220206762,1.0000779157572894,9.938853468097206e-05
-0.4923725819142419,-0.4923725819142419,0.9999342345614363,9.647392468507487e-05
-0.49221474728765313,-0.49221474728765313,0.9999868530737643,9.664786502689432e-05
-0.4920643089186342,-0.4920643089186342,0.9998961569484207,9.723215181179143e-05
-0.4919273235500441,-0.4919273235500441,1.0001201862430056,9.47358117797599e-05
-0.49180504694813865,-0.49180504694813865,1.0000041967033275,9.884373438072237e-05
-0.4916085257122177,-0.4916085257122177,1.0001497553842338,9.531093719076483e-05
-0.491514674150676,-0.491514674150676,0.9999727339974609,9.507249689257261e-05
-0.4914287994353799,-0.4914287994353799,1.000005699578645,0.00010025732080496626
-0.49124587118058116,-0.49124587118058116,0.9999787285622957,9.509242298716959e-05
-0.49116007198172157,-0.49116007198172157,1.0000134778264502,9.760276863764936e-05
-0.4910980659398774,-0.4910980659398774,0.9997940918435402,9.542154733072857e-05
-0.49092410624725746,-0.49092410624725746,0.9999575352657788,9.424690403277814e-05
-0.4908158040649141,-0.4908158040649141,0.9999253407109527,9.82259275661799e-05
-0.4907397223323642,-0.4907397223323642,1.0001250193053572,9.648732152291806e-05
-0.4905978786511696,-0.4905978786511696,0.9999665496961114,9.429922748994813e-05
-0.4904711545583268,-0.4904711545583268,0.9999372441924805,9.823409684279918e-05
-0.49031542265220196,-0.49031542265220196,1.0000369814212655,9.573209354781736e-05
-0.49015347941822257,-0.49015347941822257,1.0000333300580095,9.728757442746644e-05
-0.4900529678125167,-0.4900529678125167,0.9998578917374731,9.699182186327615e-05
-0.48985254153303687,-0.48985254153303687,0.9998115885728023,9.576682497633523e-05
-0.4897366347518982,-0.4897366347518982,0.9999218135492727,9.727876614732417e-05
-0.4895080865782802,-0.4895080865782802,1.0000432017719236,9.828691430314569e-05
-0.4893800634978106,-0.4893800634978106,0.9999125530202366,9.72694901062239e-05
-0.4891725037166907,-0.4891725037166907,1.000074969138106,9.69516077166218e-05
-0.48902638189319986,-0.48902638189319986,1.0001485062158149,9.507447370545535e-05
-0.4888007865338295,-0.4888007865338295,1.0000617668699334,9.508709723125815e-05
-0.48866366540896705,-0.48866366540896705,1.0000699505722663,9.400045413036367e-05
-0.4884926742968673,-0.4884926742968673,0.9999940136067987,9.592088705268084e-05
-0.48835738587367816,-0.48835738587367816,0.9999361161512492,9.402808173121358e-05
-0.4881347499474941,-0.4881347499474941,0.9998437172260083,9.600686788005621e-05
-0.4879433378271642,-0.4879433378271642,1.000094199952502,9.392739259948642e-05
-0.4877587015464087,-0.4877587015464087,1.000008590131054,9.710190423635354e-05
-0.4874841547374672,-0.4874841547374672,1.000009067392082,9.503422821256095e-05
-0.4873313738462457,-0.4873313738462457,0.9999540298236248,9.619982245702717e-05
-0.48706151799851793,-0.48706151799851793,1.0000717309170466,9.677111216362775e-05
-0.48692658167128683,-0.48692658167128683,1.0000457396404812,9.679949721535676e-05
-0.4866975352830195,-0.4866975352830195,1.000026654644103,9.658466365205255e-05
-0.48645697588071923,-0.48645697588071923,0.9999107156233696,9.621816598535955e-05
-0.48625359407815266,-0.48625359407815266,0.9999970443480498,9.625869104725281e-05
-0.48599706811510257,-0.48599706811510257,1.0000779225803704,9.7192201017591e-05
-0.4858143191973795,-0.4858143191973795,1.0000432205248981,9.559136377442119e-05
-0.48561038845946314,-0.48561038845946314,1.0001274402254923,9.68149915557764e-05
-0.4853714656361262,-0.4853714656361262,1.000160706165968,9.684504021838027e-05
-0.4851979806509917,-0.4851979806509917,1.000033215605733,9.489473942147316e-05
-0.4849647946837649,-0.4849647946837649,1.0001213404836513,9.591714108815786e-05
-0.48459938185842477,-0.48459938185842477,0.9999122301152557,9.609591287337704e-05
-0.48422239116189303,-0.48422239116189303,0.999836839062213,9.702967405021532e-05
-0.4838868757200544,-0.4838868757200544,0.9999458328519595,9.742209318296112e-05
-0.48362572591213393,-0.48362572591213393,0.9998822266093665,9.863250653001434e-05
-0.4833689133010921,-0.4833689133010921,1.0001269086979077,9.41902895798317e-05
-0.4831766444978712,-0.4831766444978712,0.9999891265187463,9.784613815293855e-05
-0.48294484189464126,-0.48294484189464126,0.9998694599399695,9.720649660791274e-05
-0.48276787776194396,-0.48276787776194396,1.0000251547398722,9.693582726266577e-05
-0.48250720986543455,-0.48250720986543455,1.0000526406410353,9.792498711007301e-05
-0.4822781976050464,-0.4822781976050464,0.9998350676241305,9.543871929165235e-05
-0.482108573824371,-0.482108573824371,0.9999216960760158,9.879662509944475e-05
-0.48183106706055695,-0.48183106706055695,0.9999409329697062,9.790789150049151e-05
-0.4816240812797332,-0.4816240812797332,0.9998680832575093,9.598780887247874e-05
-0.48137790315231543,-0.48137790315231543,1.000005914770125,9.856847780184686e-05
-0.48119549590119276,-0.48119549590119276,1.0000246841977811,9.595101952268328e-05
-0.4809694455936551,-0.4809694455936551,1.0000766489255117,9.730117793636804e-05
-0.48082778366369894,-0.48082778366369894,0.9999436010833577,9.577554337489531e-05
-0.4806461444233719,-0.4806461444233719,0.9999247524067794,9.752497276034597e-05
-0.48049194803388673,-0.48049194803388673,0.9999869948106713,9.58239612621312e-05
-0.480357092221675,-0.480357092221675,1.0000415374117866,9.452793982000892e-05
-0.48023377584904664,-0.48023377584904664,0.9999704221407306,9.717366855606646e-05
-0.48011105967016193,-0.48011105967016193,0.999785072977889,9.839092981487154e-05
-0.47997400695458053,-0.47997400695458053,0.9999992672710188,9.447588742835482e-05
-0.4798296844252036,-0.4798296844252036,1.0000285762440901,9.735501339240416e-05
-0.479652268326754,-0.479652268326754,1.000073721990497,9.685582864244478e-05
-0.47949458501680053,-0.47949458501680053,0.9999527033270287,9.473364590394185e-05
-0.4793456133753352,-0.4793456133753352,0.9999645988270617,9.701642465254876e-05
-0.4792082020052476,-0.4792082020052476,1.0000370730071266,9.511331971582317e-05
-0.47904413218784614,-0.47904413218784614,0.9999480765601154,9.690918781489463e-05
-0.47882972094739673,-0.47882972094739673,1.000030965822677,9.502713060315204e-05
-0.47863628434715794,-0.47863628434715794,1.0000374350635,9.834224813449287e-05
-0.4784108204854419,-0.4784108204854419,1.0000480056827787,9.511128936886863e-05
-0.47822116447932783,-0.47822116447932783,0.9999259034016985,9.723472392601413e-05
-0.4780521171727742,-0.4780521171727742,0.9999961952084512,9.457799051164062e-05
-0.4778697019100946,-0.4778697019100946,0.9999514669811669,9.7204758261797e-05
-0.4776033204820124,-0.4776033204820124,0.9998766856488004,9.494143516481011e-05
-0.47744029139139454,-0.47744029139139454,0.99995819597075,9.864794762533316e-05
-0.477219314800459,-0.477219314800459,0.9999022229787707,9.592289380593887e-05
-0.47703651363626703,-0.47703651363626703,0.9998729614954982,9.882062440013455e-05
-0.47684906638096436,-0.47684906638096436,0.9999832438584519,9.652519805968745e-05
-0.47666733208097867,-0.47666733208097867,1.0000541294826024,9.733064305196173e-05
-0.4764421632738959,-0.4764421632738959,1.0001032623614332,9.863501905113778e-05
-0.4762004220661765,-0.4762004220661765,1.0002288102593835,9.592637227626293e-05
-0.47606975868475276,-0.47606975868475276,1.000018196902514,9.795027525271353e-05
-0.4758648276852909,-0.4758648276852909,1.0000228858926794,9.564467325960237e-05
-0.4757287184074812,-0.4757287184074812,1.0001085653431174,9.764369501483834e-05
-0.47554940859481576,-0.47554940859481576,0.9999235596638142,9.562387737943808e-05
-0.4754462367149245,-0.4754462367149245,1.0000861775281247,9.815342152722214e-05
-0.47534188820573037,-0.47534188820573037,1.0000616809108331,9.531912254150726e-05
-0.4751602478347195,-0.4751602478347195,0.9999511721396603,9.540246582504529e-05
-0.4750614417462202,-0.4750614417462202,0.9998797931724448,9.646178575011888e-05
-0.4748819976710365,-0.4748819976710365,1.000001041705403,9.680565532477588e-05
-0.4747520196142432,-0.4747520196142432,0.9998561587246817,9.659537994166964e-05
-0.4746383575235086,-0.4746383575235086,0.9999495585524298,9.61566642077409e-05
-0.4744143851617991,-0.4744143851617991,1.0000481821199432,9.683539844913162e-05
-0.4742322705184051,-0.4742322705184051,0.9999451022520403,9.629332299186766e-05
-0.47407163913885597,-0.47407163913885597,1.00010684653749,9.85698123499547e-05
-0.47393016932255705,-0.47393016932255705,1.0000145858430167,9.517080854240241e-05
-0.4737860132394417,-0.4737860132394417,1.000008761792133,9.59161576704281e-05
-0.4736343682445295,-0.4736343682445295,0.9998225923409549,9.840774538105246e-05
-0.47348061451048123,-0.47348061451048123,0.9998774878006318,9.615707645563767e-05
-0.47330838018897337,-0.47330838018897337,1.000054729363454,9.632372066944325e-05
-0.473144314855017,-0.473144314855017,1.000021985501904,9.599082396898647e-05
-0.47293597924581265,-0.47293597924581265,1.0000165580180644,9.715340481117262e-05
-0.4727482636961213,-0.4727482636961213,0.9999497815915088,9.496014372277435e-05
-0.4725435404056043,-0.4725435404056043,0.9999145686461134,9.614238958417436e-05
-0.4723949125800573,-0.4723949125800573,0.999985768861929,9.504897333194669e-05
-0.4722195990420005,-0.4722195990420005,1.0001434566931031,9.732900909985203e-05
-0.4720491778651194,-0.4720491778651194,0.9999237398469264,9.471473508084819e-05
-0.47187723365495915,-0.47187723365495915,1.0000678915367556,9.618336175086196e-05
-0.47166226633853514,-0.47166226633853514,0.999892162459944,9.621863789222352e-05
-0.4714378617376497,-0.4714378617376497,1.0002113316122756,9.595282281550654e-05
-0.4712797095744463,-0.4712797095744463,0.9999262242411865,9.381963759967678e-05
-0.4711515007154958,-0.4711515007154958,1.0000115049923792,9.518856076851846e-05
-0.47096051004555195,-0.47096051004555195,1.0000973157022899,9.853538002129634e-05
-0.47087117495102576,-0.47087117495102576,1.0000146049397796,9.526701347117957e-05
-0.4707128511261544,-0.4707128511261544,1.0001972240014467,9.60188299271267e-05
-0.47052929307610614,-0.47052929307610614,1.000042208831008,9.579024832735795e-05
-0.47033711623007546,-0.47033711623007546,1.0000029777693082,9.562115276746278e-05
-0.47015405119600473,-0.47015405119600473,1.000041887458581,9.52006930545157e-05
-0.46998700466429,-0.46998700466429,1.000161735221989,9.497244071060727e-05
-0.4698248893568234,-0.4698248893568234,0.9999831088531452,9.626216087746789e-05
-0.46967446902926896,-0.46967446902926896,1.000072526492549,9.478676469076261e-05
-0.4695444976678118,-0.4695444976678118,1.0000185989191854,9.683273489788392e-05
-0.4693296941681183,-0.4693296941681183,0.9998901222625118,9.57001958212233e-05
-0.4691492380967247,-0.4691492380967247,0.9999240626034538,9.572329152058333e-05
-0.4689456757005246,-0.4689456757005246,0.999882087915968,9.63514757325854e-05
-0.4687386418605456,-0.4687386418605456,1.000052829967457,9.738458796391509e-05
-0.46858125238795767,-0.46858125238795767,0.999972767225378,9.53719184925779e-05
-0.4684290132623573,-0.4684290132623573,1.000150908804044,9.874146186135996e-05
-0.4682361483712157,-0.4682361483712157,1.0001225605151247,9.578455157391361e-05
-0.46805294598452746,-0.46805294598452746,0.9999736390309995,9.573477272644133e-05
-0.4678728734717879,-0.4678728734717879,0.9999995018656289,9.65122751435074e-05
-0.4676487115990312,-0.4676487115990312,0.9999502904914335,9.660158730701132e-05
-0.4674054160816013,-0.4674054160816013,1.0000557967226107,9.588321145551739e-05
-0.4671904791262932,-0.4671904791262932,0.9999377389154281,9.51386817210854e-05
-0.4669808462051151,-0.4669808462051151,0.9999816907249578,9.690235268332997e-05
-0.46679760098268164,-0.46679760098268164,1.0000211810031003,9.450851378228506e-05
-0.4666126958632958,-0.4666126958632958,1.00006142277228,9.678830261593782e-05
-0.4664484243221523,-0.4664484243221523,1.0000685369683824,9.53972123489535e-05
-0.46627275879727675,-0.46627275879727675,0.999969770802654,9.573837537735651e-05
-0.46609784398169724,-0.46609784398169724,0.99988346053923,9.457438161320214e-05
-0.46595742866484213,-0.46595742866484213,1.00019802676678,9.5878348205137e-05
-0.46576270554360233,-0.46576270554360233,1.0000490094806163,9.542124232549225e-05
-0.4656020443348098,-0.4656020443348098,1.0000259223873675,9.550527678861464e-05
-0.46541189527124516,-0.46541189527124516,1.0000415168400258,9.767218497704258e-05
-0.4652423031104263,-0.4652423031104263,1.0001008906781905,9.490165451201878e-05
-0.46505304726961183,-0.46505304726961183,0.9999519276078722,9.827337490735993e-05
-0.46489039231819335,-0.46489039231819335,0.999984360633065,9.454532356385894e-05
-0.4647158818865137,-0.4647158818865137,0.9998473477714043,9.754500669673816e-05
-0.464562043287151,-0.464562043287151,0.9999356504356293,9.476821765747613e-05
-0.464458251085307,-0.464458251085307,1.0001019697493412,9.479339814845501e-05
-0.4642834914397099,-0.4642834914397099,0.999889281085905,9.683754587012469e-05
-0.464137732580275,-0.464137732580275,1.0000539880016026,9.483315030636905e-05
-0.4639561962532753,-0.4639561962532753,0.9998575361307644,9.747425755389333e-05
-0.4637773432448739,-0.4637773432448739,0.99992453638287,9.481653977558765e-05
-0.4635986902823788,-0.4635986902823788,0.9999397738901813,9.747557450416313e-05
-0.46343065468099665,-0.46343065468099665,0.9998768294970368,9.501793526820778e-05
-0.46327414139159373,-0.46327414139159373,0.9998549455310999,9.712114838400774e-05
-0.46313625724287705,-0.46313625724287705,1.0000057029860636,9.500341592426188e-05
-0.4630030979780713,-0.4630030979780713,0.9999502845465589,9.707921644678848e-05
-0.4628525938387611,-0.4628525938387611,0.9999122471939469,9.493043180933677e-05
-0.46274167902229235,-0.46274167902229235,1.0000669165314544,9.389136996466345e-05
-0.46265755536951475,-0.46265755536951475,1.0001653821767729,9.85957368721431e-05
-0.4625449498213129,-0.4625449498213129,0.9998619856270036,9.457480142148573e-05
-0.46242995913708,-0.46242995913708,1.000082300664978,9.380132838919848e-05
-0.46229443254851504,-0.46229443254851504,1.0000104591317724,9.881199821904177e-05
-0.46216472726300706,-0.46216472726300706,1.000103938043417,9.431867976371874e-05
-0.4620035929401638,-0.4620035929401638,0.9999783629507485,9.705823595179264e-05
-0.46186485849539166,-0.46186485849539166,1.000044013344242,9.591753252429098e-05
-0.4617164571354806,-0.4617164571354806,1.0001400151787139,9.655257814035888e-05
-0.46155228866045944,-0.46155228866045944,1.0000918211899013,9.765141216219701e-05
-0.46141184964290005,-0.46141184964290005,1.0000272384847537,9.430693248910679e-05
-0.4612498880465864,-0.4612498880465864,0.9999210543786861,9.757329154232347e-05
-0.4611014979236643,-0.4611014979236643,0.9998534945928416,9.430221987601531e-05
-0.46097018040309196,-0.46097018040309196,0.9998263361674798,9.58283459164758e-05
-0.46082298440669545,-0.46082298440669545,1.0000753077851305,9.744680751231021e-05
-0.46063502368997433,-0.46063502368997433,1.0000550044656125,9.480828437207427e-05
-0.46047055328454006,-0.46047055328454006,0.9997928389267232,9.733949681934867e-05
-0.4602490574805415,-0.4602490574805415,0.9999947381290173,9.715547924332573e-05
-0.4600286743610923,-0.4600286743610923,0.9997670985978747,9.581019485515737e-05
-0.4598798644663475,-0.4598798644663475,1.000000421007449,9.720167911346217e-05
-0.45970785575627815,-0.45970785575627815,0.9999161308952577,9.59115179448061e-05
-0.4595187908547814,-0.4595187908547814,0.9999174494662715,9.785697124418719e-05
-0.4593835671134002,-0.4593835671134002,0.9998250795083778,9.54601418593693e-05
-0.45919184620215675,-0.45919184620215675,0.9999553097925412,9.812508730962414e-05
-0.4589917985176726,-0.4589917985176726,0.9999664973562098,9.545197716565916e-05
-0.4588117702282034,-0.4588117702282034,1.0001791893680512,9.866823501669703e-05
-0.4586371816745668,-0.4586371816745668,1.0000355989712293,9.526232527191288e-05
-0.45846569390414516,-0.45846569390414516,1.000121726515261,9.83341692855637e-05
-0.4583494313206756,-0.4583494313206756,1.0002061211586106,9.505747646099283e-05
-0.45820474945649037,-0.45820474945649037,0.9999337869731793,9.696382471726072e-05
