time,time,flux,flux_err
-0.4999652340787482,-0.4999652340787482,1.0000099663301467,0.0001233119946998016
-0.4997814064590784,-0.4997814064590784,1.0000378949590936,0.00012007515842508455
-0.49968388895831595,-0.49968388895831595,1.000048297778494,0.00011789886719201156
-0.4995389227248476,-0.4995389227248476,1.000002442123139,0.00012301445908391564
-0.4994261591506074,-0.4994261591506074,0.9999728867694921,0.00011071725043910437
-0.4992647940700408,-0.4992647940700408,0.9999665235364159,0.00011183660670388679
-0.49915032239296125,-0.49915032239296125,0.9998447046172585,0.00011316098036914259
-0.49903729651414325,-0.49903729651414325,0.9999002545687221,0.0001176395657970027
-0.49892945785904885,-0.49892945785904885,1.0000191664583657,0.00010896712585815199
-0.49879033092074676,-0.49879033092074676,1.0001643644845035,0.00011299254157283388
-0.4986633084277855,-0.4986633084277855,1.0001413194724258,0.00010880575220388426
-0.4985211664235976,-0.4985211664235976,0.9999886817788521,0.00010789083205017572
-0.4984311331390927,-0.4984311331390927,0.9999740550307287,0.0001125504558695857
-0.49827077011577786,-0.49827077011577786,0.999975311526834,0.00010709072324716446
-0.4982160762869171,-0.4982160762869171,0.9999646615255019,0.0001104267025922695
-0.4981504457558913,-0.4981504457558913,1.000031428440962,0.00011316414254451566
-0.498042574361898,-0.498042574361898,0.9998322837900941,0.00010758606953224128
-0.4978989035844279,-0.4978989035844279,0.999863038220527,0.00010736150416906323
-0.4977306749155105,-0.4977306749155105,1.0000822798864752,0.00011332066773515672
-0.4976184437022312,-0.4976184437022312,1.0000751874950167,0.00010807957969737312
-0.49751677170570474,-0.49751677170570474,0.9999887177414053,0.00010918736728994223
-0.4974344146248768,-0.4974344146248768,0.9999764799882094,0.00010780030997390043
-0.49737335673198685,-0.49737335673198685,1.0000383337487957,0.0001136698793372665
-0.4972269485311699,-0.4972269485311699,0.9999578627325324,0.0001098266908513128
-0.49711984873574694,-0.49711984873574694,0.9999584752774705,0.00010812541834376698
-0.49705275251180864,-0.49705275251180864,0.9998150277320906,0.0001110272097890748
-0.49687618208408824,-0.49687618208408824,1.0000218842500967,0.00010961094080106368
-0.49679448268725535,-0.49679448268725535,1.000064398691556,0.00011722153527710352
-0.4966596841928549,-0.4966596841928549,1.000171006488289,0.00011251658108265344
-0.49656993302123736,-0.49656993302123736,1.0001044009960325,0.00010936396424475192
-0.4965077561668295,-0.4965077561668295,1.0000889675015332,0.0001059050069009419
-0.4964174673004891,-0.4964174673004891,0.9999127932080121,0.00011265173805133095
-0.4963111702018068,-0.4963111702018068,1.000008143754099,0.00010875715958951809
-0.49613103907104233,-0.49613103907104233,1.0000904092149923,0.00011262719404619099
-0.4959281521041703,-0.4959281521041703,0.9999511215445365,0.00010931176664957408
-0.4958715067252342,-0.4958715067252342,1.0000376877291823,0.00011291698877675786
-0.49579368965205506,-0.49579368965205506,0.9998590260127276,0.00010856530974855131
-0.49561585428236865,-0.49561585428236865,0.9998992972507412,0.00010793031887857856
-0.49548235112306427,-0.49548235112306427,0.9998352408862841,0.00010668313315633856
-0.4953672700357856,-0.4953672700357856,1.000053155681443,0.00011314233295301593
-0.49532271540374495,-0.49532271540374495,1.0001174863159519,0.00010926759080510133
-0.49521247588127154,-0.49521247588127154,0.999960546398124,0.00011059150623377681
-0.4951363276486518,-0.4951363276486518,1.0000043577375817,0.00010819861626605453
-0.49502882706947277,-0.49502882706947277,1.0000264709747864,0.0001136302133532214
-0.49494501284498255,-0.49494501284498255,1.0000602779080063,0.00011403148166394619
-0.4948659617788508,-0.4948659617788508,1.000007307532071,0.00011185343908268037
-0.494802066066768,-0.494802066066768,1.0000900981904415,0.00011147228622985295
-0.4946654458079138,-0.4946654458079138,0.9998977512949437,0.00010817971557843858
-0.4945807549775054,-0.4945807549775054,1.000017484519153,0.00011067192667824031
-0.4945003392655053,-0.4945003392655053,1.0000944493913888,0.00011185803002086024
-0.4943512362537149,-0.4943512362537149,1.000070916879451,0.00011361177305986422
-0.49427478004145087,-0.49427478004145087,0.9998888024943934,0.00010753134332182779
-0.4941684156663541,-0.4941684156663541,0.9999628624549153,0.0001139771271351126
-0.49408322338640576,-0.49408322338640576,1.0000038457058043,0.00010750800688896196
-0.49394975832183263,-0.49394975832183263,0.9999961303759284,0.00010720577283590878
-0.49374586550475213,-0.49374586550475213,0.9999313350300809,0.00011349365846622114
-0.49361114415150953,-0.49361114415150953,0.9998796398271054,0.00011365982489610459
-0.49355040766604363,-0.49355040766604363,1.000053032542161,0.00010884114821684248
-0.493492624614737,-0.493492624614737,0.9998740378178261,0.00010659467864251298
-0.4933576195500791,-0.4933576195500791,0.9998048833310221,0.00011189303788659143
-0.49319271951098925,-0.49319271951098925,0.9999346566421439,0.00010936050054046773
-0.49311810442086423,-0.49311810442086423,1.0001615998917481,0.00010733559901373068
-0.4930369124711433,-0.4930369124711433,0.9999479377970124,0.00011820477401258685
-0.4929617150315607,-0.4929617150315607,0.9997557521834386,0.00011230190338897576
-0.49288349016496796,-0.49288349016496796,1.0000889321119695,0.00010966300515595011
-0.49281758622673805,-0.49281758622673805,0.9999182528483704,0.00011221681678911721
-0.49277762186684415,-0.49277762186684415,0.9998641081487918,0.00011504024702422456
-0.49269090957022854,-0.49269090957022854,1.0000195912341907,0.00011036089266199178
-0.49260161585189055,-0.49260161585189055,0.9998247975184311,0.00010662713831086846
-0.4925013111846056,-0.4925013111846056,1.0000444179682346,0.00010921476523452936
-0.49240527375950477,-0.49240527375950477,0.999935655182575,0.00010890769331556385
-0.49231491055106746,-0.49231491055106746,0.9999917218475851,0.00010819618500545953
-0.49220941417152064,-0.49220941417152064,0.9999734610472014,0.00011342147110117002
-0.49210397480856044,-0.49210397480856044,0.9999145198697026,0.00011256789147837741
-0.4919791494372475,-0.4919791494372475,0.9996939147788291,0.00010773751197854092
-0.4919001233240124,-0.4919001233240124,0.9999420708809122,0.00011368846016280977
-0.491783585032681,-0.491783585032681,0.9999411808253156,0.00010948517987299893
-0.4916582664976886,-0.4916582664976886,1.0000967116605752,0.00011213494721811993
-0.49145102360780585,-0.49145102360780585,1.0000893375621578,0.00011373257944313842
-0.49134342993129393,-0.49134342993129393,1.0002698792122173,0.00010874692994866562
-0.4912321293464629,-0.4912321293464629,1.0000915933042032,0.00011050699881717868
-0.4911088634711632,-0.4911088634711632,1.00004619009585,0.0001093145889880456
-0.49101317462263977,-0.49101317462263977,1.0001544990670328,0.00011197910818820872
-0.49090879600553305,-0.49090879600553305,0.9999225386282811,0.00011031598810440613
-0.4907984004552418,-0.4907984004552418,0.9999616944440903,0.00011360591678330247
-0.49070635866883094,-0.49070635866883094,1.0000735085900896,0.00011894234919550357
-0.49063814824767177,-0.49063814824767177,0.9999094588537357,0.00011070971684459443
-0.49057746209655306,-0.49057746209655306,1.000012029285801,0.00011062708088041963
-0.4904094515557517,-0.4904094515557517,1.0000254981342411,0.00011581715233151268
-0.49028732453807605,-0.49028732453807605,1.0002644432886387,0.00010738843497349506
-0.4901937346992781,-0.4901937346992781,1.0000666233763273,0.00011386518610459358
-0.49001098221269784,-0.49001098221269784,1.00003934701953,0.00010953773764137541
-0.48988627971339155,-0.48988627971339155,0.9999371213579014,0.00010901659494827104
-0.4897281586709141,-0.4897281586709141,1.0001612581369845,0.00011324877467046543
-0.4895549619956,-0.4895549619956,1.0000532404557294,0.00010752143997307675
-0.48940610654171907,-0.48940610654171907,0.9999781696417644,0.00010917920312344957
-0.4892918841025676,-0.4892918841025676,1.000096331810891,0.0001124623353374337
-0.48912871782231376,-0.48912871782231376,0.9999902291441918,0.00011290746589222438
-0.48897225711261855,-0.48897225711261855,1.0001104436226496,0.00011070501106694313
-0.48890404139092425,-0.48890404139092425,0.999854013810678,0.00010837773446810699
-0.48880295677445246,-0.48880295677445246,0.9999811521040705,0.00010998334272279244
-0.4886498455918627,-0.4886498455918627,0.999937763268132,0.00010982561339266926
-0.48858341668674254,-0.48858341668674254,0.9998995333643445,0.00011128747506441749
-0.48845768143219176,-0.48845768143219176,1.000210335254168,0.00011306026420058832
-0.48837486642732986,-0.48837486642732986,1.0000804369243892,0.00011438693469035961
-0.48831306569336447,-0.48831306569336447,1.0000261406279525,0.00010809347551036423
-0.48824875370628434,-0.48824875370628434,1.000036039639879,0.00010816398347408623
-0.4880400386013207,-0.4880400386013207,1.0000718577534304,0.00011065561591358934
-0.48787669792072846,-0.48787669792072846,0.999974048364991,0.00010862511062563528
-0.4877062218627543,-0.4877062218627543,1.0001010700904813,0.0001079208823203361
-0.48757975552653077,-0.48757975552653077,0.9999257837008034,0.00010895722463329324
-0.4874575781919702,-0.4874575781919702,1.0001544790614016,0.00011253963579157939
-0.4874015839144704,-0.4874015839144704,1.000151949592107,0.00011285251118290401
-0.4872822267767333,-0.4872822267767333,1.0001864350534904,0.00010617272029955908
-0.48712356905671184,-0.48712356905671184,0.9998942773639774,0.00010924616037700599
-0.48694035804655866,-0.48694035804655866,0.9999412544415482,0.00011392829452000358
-0.4868157851808064,-0.4868157851808064,1.0000296491967384,0.00011455894385604955
-0.486692563129327,-0.486692563129327,0.9999273215811041,0.00011072213262388194
-0.4866010070989432,-0.4866010070989432,0.9998951715738424,0.00010984701668021704
-0.48650852887003565,-0.48650852887003565,1.0001240173968662,0.00010754478725301997
-0.48633136158096024,-0.48633136158096024,0.9999841490115076,0.00011263086400570009
-0.48614685628199367,-0.48614685628199367,1.0001350178663033,0.00010989581088716616
-0.4860700101497059,-0.4860700101497059,0.9998822306290917,0.00011285369176919518
-0.48599336855186265,-0.48599336855186265,0.9999854454317545,0.00011067616465922597
-0.48576072603245846,-0.48576072603245846,1.0001190955378518,0.00010815622634473255
-0.48556972325604875,-0.48556972325604875,0.9999412591741162,0.00010842887552285226
-0.4854061638448911,-0.4854061638448911,0.9999904224959328,0.00010906219381254921
-0.48529972219621414,-0.48529972219621414,1.0000033414508562,0.00010882982052682461
-0.4851778749740333,-0.4851778749740333,0.9999485612533032,0.00011373347570204048
-0.48506930298099177,-0.48506930298099177,1.0000246987355554,0.00010708623761875426
-0.4849137421282649,-0.4849137421282649,0.9998338159894814,0.00010823386614420114
-0.48473870858360896,-0.48473870858360896,0.9999384727814462,0.00011293435818704778
-0.4846233468342689,-0.4846233468342689,1.0000120907479473,0.00010731052081024603
-0.48453574755913,-0.48453574755913,1.000015013550778,0.0001128727833072173
-0.48443996641944975,-0.48443996641944975,0.9998519747993759,0.00011495555608257982
-0.48434919473947957,-0.48434919473947957,1.0001037321086552,0.00010692497531111884
-0.4842960412264802,-0.4842960412264802,1.0000692604769559,0.0001097498679586723
-0.48422138786118013,-0.48422138786118013,0.9999650143864498,0.00010860266258499283
-0.48412014209534393,-0.48412014209534393,1.000087284789568,0.00011556025425394155
-0.48399603342622866,-0.48399603342622866,1.0000337718606498,0.00011133637318356741
-0.4838970202952623,-0.4838970202952623,0.9998507304324915,0.00011234615862770732
-0.48381562134454725,-0.48381562134454725,1.0000781116754576,0.00010936445282309207
-0.4837012640906323,-0.4837012640906323,0.9998253276047155,0.00011458676362208306
-0.4835776646657905,-0.4835776646657905,0.9999088727317188,0.00011328361802597875
-0.4834453206123726,-0.4834453206123726,0.9999645883760616,0.0001066143991168519
-0.48331834949494806,-0.48331834949494806,1.0000871336481203,0.00010828908292926616
-0.48321016340196365,-0.48321016340196365,1.0000027328652668,0.00010748728007806368
-0.4830768751569849,-0.4830768751569849,0.9999980207480748,0.0001084972542546946
-0.48295926861828775,-0.48295926861828775,0.9997965423094556,0.00010903712222325283
-0.48283625762414883,-0.48283625762414883,0.999852753411381,0.0001073838730325547
-0.48265966183389536,-0.48265966183389536,1.0000272472144363,0.00010592965877947625
-0.4825285798746336,-0.4825285798746336,1.0000678182173224,0.00010763352815236205
-0.48240345479134705,-0.48240345479134705,0.9999312662146768,0.0001114195689521597
-0.48233916004610367,-0.48233916004610367,1.0001072948222027,0.00010746086636085879
-0.48222125028332813,-0.48222125028332813,1.000019595026658,0.00011465580433850076
-0.48213719641935315,-0.48213719641935315,1.0000208523682412,0.000112375229319292
-0.4820578957842372,-0.4820578957842372,0.9999680166746808,0.00010996217558393751
-0.48196900787079355,-0.48196900787079355,1.0000966741695845,0.00011372744584883248
-0.4818619870864495,-0.4818619870864495,1.0001367718537213,0.00011391417195351353
-0.4817341510264669,-0.4817341510264669,1.0000275881880278,0.00011135351501858463
-0.48167736339673867,-0.48167736339673867,0.9999482822721774,0.00011021339157633277
-0.48158114423786175,-0.48158114423786175,1.0001020451983398,0.00011506192274323425
-0.48148464041150874,-0.48148464041150874,0.99998724768669,0.00011190164717244747
-0.4813289976409578,-0.4813289976409578,1.0000720684601112,0.00010949768889316422
-0.4811607386516698,-0.4811607386516698,1.0000802495767904,0.00011409825244545072
-0.4810265307096415,-0.4810265307096415,1.0000173489768878,0.00010797437922976175
-0.4809381969171227,-0.4809381969171227,1.0002331681397787,0.00010863961571724787
-0.4807919918966945,-0.4807919918966945,1.0001235696342512,0.00010930392068326257
-0.48067462459148375,-0.48067462459148375,1.000007640002752,0.00010909423103390458
-0.48052720493506057,-0.48052720493506057,1.000183228346089,0.00010771410986432884
-0.48044058120867705,-0.48044058120867705,0.9999418249459613,0.00011634966090476046
-0.48036573816789313,-0.48036573816789313,0.9999021190077887,0.00010730569186906485
-0.4802415101104998,-0.4802415101104998,1.0001508350634345,0.00010717591343806952
-0.4801017129946558,-0.4801017129946558,1.0001168068141406,0.00011286034539870953
-0.48001224089384775,-0.48001224089384775,1.0002435518386226,0.00010690985112809394
-0.4799506101102452,-0.4799506101102452,1.0000754182030025,0.00011393536147531078
-0.4798179013625486,-0.4798179013625486,0.9999628427403525,0.00011346925945523108
-0.47973059789073885,-0.47973059789073885,0.9999933566675839,0.00011054428828679078
-0.47957390511073755,-0.47957390511073755,1.00009219147648,0.00011604926226987933
-0.4794549678743351,-0.4794549678743351,0.9999600799514473,0.0001095691629590347
-0.4793423546216218,-0.4793423546216218,1.0000357646972984,0.00010787563419860718
-0.4791689658071846,-0.4791689658071846,1.0001161376187078,0.00011345991072092023
-0.4790760632771708,-0.4790760632771708,1.0000217817392882,0.00010740089481017114
-0.4789771125957486,-0.4789771125957486,0.9998906143310012,0.00011409445444792643
-0.4788084789266577,-0.4788084789266577,1.0000975025517822,0.00010871076857471306
-0.47859185389752384,-0.47859185389752384,0.999782294588053,0.00010936701455324468
-0.478476836221671,-0.478476836221671,1.0001082360776279,0.00011322769285422653
-0.478378483641427,-0.478378483641427,1.0000443482812797,0.00011151237401684999
-0.47824433185887755,-0.47824433185887755,0.9999882490572263,0.00010624328340035638
-0.4781479227975069,-0.4781479227975069,1.0000066935817205,0.00010740731774885873
-0.4780365268146852,-0.4780365268146852,1.0000396118559802,0.00010792153818260002
-0.4779435729600664,-0.4779435729600664,1.0001031314709456,0.000106732001656059
-0.47780168086173946,-0.47780168086173946,1.0001034901904369,0.00011351871130811323
-0.47773388441855785,-0.47773388441855785,1.000029480141329,0.00010906766428230258
-0.47766262609948174,-0.47766262609948174,1.000026671864735,0.00011288737939070754
-0.4775940025239834,-0.4775940025239834,1.0000775735062597,0.00011715757756137912
-0.4774324161146069,-0.4774324161146069,1.0000353857138093,0.00011539482981158351
-0.47732957600965165,-0.47732957600965165,1.0000987227044233,0.00011009039915776825
-0.4772019030548108,-0.4772019030548108,1.0000194120355979,0.00011417723911550138
-0.4770683735521743,-0.4770683735521743,1.0000800849646996,0.00011282001864772846
-0.47690424485626864,-0.47690424485626864,0.9999590413229791,0.00010793450054019396
-0.4767376059535309,-0.4767376059535309,0.9998517420181162,0.00011376440057485518
-0.4766517350952199,-0.4766517350952199,1.0000045059050577,0.00011279769937231388
-0.4765077204021509,-0.4765077204021509,0.9999943673276798,0.00010670026902188092
-0.47642649136832915,-0.47642649136832915,1.0000341432065563,0.00011166099869829172
-0.47629418817377883,-0.47629418817377883,1.000048894500281,0.00010673890227520344
-0.47619166665681406,-0.47619166665681406,0.9999575115626687,0.00010610358337280381
-0.4761525310452271,-0.4761525310452271,0.9999679759621584,0.0001139590372519881
-0.47598684054173646,-0.47598684054173646,1.0000167898957872,0.0001087999908079542
-0.475856282296445,-0.475856282296445,1.0002167362357162,0.00010820719199653567
-0.4758106932873488,-0.4758106932873488,0.9999767984885392,0.00010783319864898812
-0.47567101509921483,-0.47567101509921483,0.9999052325534155,0.00011119432968354742
-0.4755934879096458,-0.4755934879096458,1.0001378375347934,0.00010869650546133248
-0.47545685384247915,-0.47545685384247915,0.999978828560254,0.00011041223174676482
-0.4753745625712327,-0.4753745625712327,1.0000578750787672,0.00010799944126536059
-0.47527079438150394,-0.47527079438150394,1.000107445318976,0.00011372693843282029
-0.4751424774978659,-0.4751424774978659,0.9999726706092649,0.00011465958157957388
-0.47501616467197894,-0.47501616467197894,1.0000610575776985,0.00011005437587431271
-0.4749242106307065,-0.4749242106307065,0.999979842533526,0.00011255931361009857
-0.4747312987790792,-0.4747312987790792,0.9998049374284209,0.00010893737729033223
-0.4746302189050766,-0.4746302189050766,1.0000221044831574,0.000112920687819115
-0.47445163441298066,-0.47445163441298066,0.999938350232841,0.00010738362295295076
-0.47439615623879944,-0.47439615623879944,1.000113030134446,0.00010946304417729961
-0.4743324867275078,-0.4743324867275078,0.999819670893501,0.00011406203625186478
-0.4742093037784798,-0.4742093037784798,0.9999448585137536,0.0001081003394945598
-0.47415222837298643,-0.47415222837298643,1.0000737995304823,0.00010628168000626247
-0.4739845236552355,-0.4739845236552355,1.0000908815140819,0.00010806168581075357
-0.4738669987622416,-0.4738669987622416,1.0000409857705366,0.00011469847348912106
-0.47378590995576814,-0.47378590995576814,1.000027561497247,0.00010871560063742384
-0.47368190715351377,-0.47368190715351377,1.0000417338680414,0.00010920647018039979
-0.4736037555121584,-0.4736037555121584,0.9998202130588443,0.00010789418376721894
-0.47354555870842885,-0.47354555870842885,0.9999287643108101,0.00011381550188369498
-0.47340541989615303,-0.47340541989615303,0.9999489296593582,0.00010889861020742346
-0.47330654023971874,-0.47330654023971874,1.000058870784509,0.00010842551458286333
-0.47319394327350894,-0.47319394327350894,1.0000215358369255,0.00011001442392028285
-0.4730261672870256,-0.4730261672870256,1.0002363540771007,0.00011094511926742402
-0.4729008199021337,-0.4729008199021337,1.000094534659644,0.0001191780710609846
-0.47276080967712913,-0.47276080967712913,1.0001355886849108,0.00010974485889405034
-0.4726769304012123,-0.4726769304012123,1.0000822743815978,0.00011279993888489686
-0.472506889590295,-0.472506889590295,1.0001151676095017,0.00010901578438645259
-0.472413111213973,-0.472413111213973,0.9999078897429964,0.00011494063567351318
-0.47225428526217,-0.47225428526217,1.0001247860959963,0.00010659965589581177
