time,time,flux,flux_err
-0.49671958853232356,-0.49671958853232356,1.0002555998407938,1.612126376969058e-05
-0.4892746089633874,-0.4892746089633874,1.000335959702887,1.597131359108857e-05
-0.48064956319158225,-0.48064956319158225,1.0000016021781475,1.6085695408856062e-05
-0.4739949549231824,-0.4739949549231824,1.0000622867502202,1.61084582040184e-05
-0.4677875620775012,-0.4677875620775012,0.9999112211652428,1.6187764146082703e-05
-0.45918311063414874,-0.45918311063414874,1.0001076669295312,1.616252230543441e-05
-0.4537298252133041,-0.4537298252133041,0.9998799683505147,1.6106788805721294e-05
-0.4484078699666497,-0.4484078699666497,1.0001381575803552,1.603173546426421e-05
-0.44138060773930193,-0.44138060773930193,1.000066696140744,1.61040459946056e-05
-0.432429917385889,-0.432429917385889,0.9998900100114637,1.6235513871875515e-05
-0.42441322073464105,-0.42441322073464105,0.999986163147206,1.644259668844981e-05
-0.4191588636040251,-0.4191588636040251,0.9999604353227669,1.610532248300761e-05
-0.412376098139066,-0.412376098139066,1.00014517727146,1.604855570364428e-05
-0.4034960990513355,-0.4034960990513355,0.9998914889644098,1.6268982774121866e-05
-0.39825270410947267,-0.39825270410947267,1.0000149463289287,1.6079780041317413e-05
-0.3908280415997069,-0.3908280415997069,1.0000335153537794,1.604426215488547e-05
-0.38455655486905016,-0.38455655486905016,1.000038452111886,1.6079587695968164e-05
-0.37868337010058895,-0.37868337010058895,0.999958510712813,1.607300077538003e-05
-0.3659371181252936,-0.3659371181252936,1.0009490459847359,1.607007111386334e-05
-0.3537219696256216,-0.3537219696256216,0.9998202224424226,1.6140719892544944e-05
-0.34844821922979463,-0.34844821922979463,0.9998408816911363,1.6206961603849018e-05
-0.3404169084467867,-0.3404169084467867,1.000081205169204,1.6097023429632375e-05
-0.3336757045051854,-0.3336757045051854,0.9998996139330156,1.6216073145552585e-05
-0.32736641605806654,-0.32736641605806654,1.0000331383641399,1.611285073297383e-05
-0.3205582565484292,-0.3205582565484292,1.00027345642871,1.6050283855735172e-05
-0.31684504494423893,-0.31684504494423893,0.9999135053552504,1.6080498718474736e-05
-0.31261053916678067,-0.31261053916678067,0.9999574358301608,1.6058241311507158e-05
-0.30526769557563965,-0.30526769557563965,0.9999670296278058,1.6185320274648868e-05
-0.2958204534588731,-0.2958204534588731,0.9997127761410247,1.6119023727975977e-05
-0.2886596300189922,-0.2886596300189922,1.0000400224977652,1.604979287478408e-05
-0.2807456655691567,-0.2807456655691567,1.000153924358186,1.608767081667741e-05
-0.2721007096586618,-0.2721007096586618,1.0000141258968605,1.6119915105692926e-05
-0.2618945973643349,-0.2618945973643349,1.000356708788131,1.6097930857602044e-05
-0.2569609936736015,-0.2569609936736015,1.00016586171582,1.6102429978927473e-05
-0.2513239761312434,-0.2513239761312434,0.9999355882396092,1.6151360486729526e-05
-0.24512288022015127,-0.24512288022015127,1.0000556170008146,1.6012797090867745e-05
-0.2385624192440446,-0.2385624192440446,1.0001316705963466,1.615077016455316e-05
-0.23033107450391982,-0.23033107450391982,0.9998980762326829,1.6108024968463077e-05
-0.21859123844951683,-0.21859123844951683,1.0001639804621765,1.6108820183066424e-05
-0.2107744485312651,-0.2107744485312651,0.9999238916898247,1.6130086924059428e-05
-0.20495196801930432,-0.20495196801930432,1.0000597119406651,1.6091219274794054e-05
-0.1974967821073733,-0.1974967821073733,1.000028402080615,1.6183683216671217e-05
-0.18983004260262532,-0.18983004260262532,1.0001888685947273,1.60526373980215e-05
-0.1820544371057622,-0.1820544371057622,0.9999835923404866,1.6128987047222916e-05
-0.17373668177224316,-0.17373668177224316,0.9998958623368621,1.6078407259656304e-05
-0.16880404380717665,-0.16880404380717665,0.9999739681992162,1.618379227312247e-05
-0.15921399653052504,-0.15921399653052504,0.9997408715910151,1.5971147868790194e-05
-0.15486268495733385,-0.15486268495733385,1.0002390317621528,1.605434167390124e-05
-0.14702325566686342,-0.14702325566686342,1.000299741004593,1.6103389162599672e-05
-0.1416477189741272,-0.1416477189741272,0.9999575150071927,1.614856057326154e-05
-0.1358740835028584,-0.1358740835028584,0.9999654832915942,1.6124333825232414e-05
-0.1320599175773168,-0.1320599175773168,0.9998486020341879,1.6131724369795404e-05
-0.12415606200465845,-0.12415606200465845,1.0002002621426163,1.6048511296016362e-05
-0.11595154821225151,-0.11595154821225151,0.9997700890999504,1.61618255548918e-05
-0.1086679886042475,-0.1086679886042475,0.9997824742482866,1.609220747914812e-05
-0.10386049141980039,-0.10386049141980039,1.0000488106119276,1.6058601824325734e-05
-0.09033647151227342,-0.09033647151227342,0.9999288598492605,1.6104562057876654e-05
-0.08551333174182218,-0.08551333174182218,1.0002594304885073,1.6050063134119942e-05
-0.08090867588980473,-0.08090867588980473,0.9998098580675151,1.6149664091515998e-05
-0.0734105830804765,-0.0734105830804765,0.9999335800160377,1.6048573242360016e-05
-0.06679910962793656,-0.06679910962793656,0.9999620939894968,1.6104905703827553e-05
-0.059834084262729445,-0.059834084262729445,1.0000322607062455,1.611156284412106e-05
-0.053991691793635256,-0.053991691793635256,0.9999340561741725,1.6181156084929073e-05
-0.04678504994244577,-0.04678504994244577,0.999818172324232,1.616374563932352e-05
-0.039937025537983575,-0.039937025537983575,1.000072702149133,1.6096331149659204e-05
-0.030537890013874858,-0.030537890013874858,0.9999290939274461,1.610992920780157e-05
-0.02266049169211328,-0.02266049169211328,0.9999284979019007,1.6076633264381454e-05
-0.01595648935872305,-0.01595648935872305,0.9999884256624089,1.613931982624697e-05
-0.007675000890958472,-0.007675000890958472,0.9998718330850466,1.5981111949919832e-05
0.00017090102646761808,0.00017090102646761808,0.9999398777786043,1.61825129321615e-05
0.005174524557878613,0.005174524557878613,1.000231661619314,1.6065953695174207e-05
0.01203758410320006,0.01203758410320006,0.9998860241331963,1.6200792383783534e-05
0.021701092540752143,0.021701092540752143,0.9997605540525478,1.6021792800810638e-05
0.02620517056220706,0.02620517056220706,0.9999400095884399,1.616679276452547e-05
0.03223199579260836,0.03223199579260836,1.0000518075917046,1.6022987539099584e-05
0.04253658986672235,0.04253658986672235,0.9999363588899838,1.619318929404762e-05
0.05016600211110926,0.05016600211110926,0.9997206163576037,1.6094907748534887e-05
0.05492650313262857,0.05492650313262857,0.9997613912607886,1.602216343556011e-05
0.06377274881906488,0.06377274881906488,0.999960668760832,1.6147577858374364e-05
0.07317453698287864,0.07317453698287864,0.9998773098659999,1.607437462655476e-05
0.07910055348420428,0.07910055348420428,0.9999981173894101,1.614011251918902e-05
0.08287611096202455,0.08287611096202455,0.9998292568523143,1.6085118712196458e-05
0.08771142623700143,0.08771142623700143,0.9998618639900101,1.601431941355438e-05
0.09603737915840611,0.09603737915840611,0.9997629906626722,1.6214478296577286e-05
0.10412764984939712,0.10412764984939712,1.0000246519178877,1.6129733382993373e-05
0.11453784649293083,0.11453784649293083,0.9999480534657422,1.612167179126151e-05
0.12112990455843828,0.12112990455843828,1.0001257537875152,1.6172134797755484e-05
0.12893270344357005,0.12893270344357005,1.0002510170413503,1.6074889843679145e-05
0.1342393938837631,0.1342393938837631,1.0000247113273102,1.6135501234587643e-05
0.13926507779906389,0.13926507779906389,1.0002602807373564,1.6110678376969477e-05
0.14570611401977657,0.14570611401977657,1.000273696174234,1.6013530392139446e-05
0.15039310969859798,0.15039310969859798,0.9998615872732074,1.6139077641992274e-05
0.1578704305255087,0.1578704305255087,1.000070585020212,1.606478885105722e-05
0.1659837646626329,0.1659837646626329,1.000061590540086,1.608216858457176e-05
0.1715134789705189,0.1715134789705189,1.0000031394091093,1.608905709233749e-05
0.17947824334205506,0.17947824334205506,1.0000381454608402,1.6035081696941484e-05
0.19093525542066345,0.19093525542066345,0.9999666172817848,1.6130713188688234e-05
0.19899452947029203,0.19899452947029203,1.000025755824146,1.6041963989092392e-05
0.20471050584219483,0.20471050584219483,1.0000321046367506,1.624795779915645e-05
0.21354023177063935,0.21354023177063935,0.9999014367023321,1.612846197414733e-05
0.22338703440036625,0.22338703440036625,1.0000808405888364,1.6180187364133646e-05
0.23031151451996265,0.23031151451996265,1.0000259756664183,1.6002934435495226e-05
0.23759443829840166,0.23759443829840166,1.0000078106849584,1.6074041424799462e-05
0.24427613740335802,0.24427613740335802,1.0002404536941483,1.6023082445011107e-05
0.25014891608934703,0.25014891608934703,0.9999801602129661,1.611748860254678e-05
0.2556344464492213,0.2556344464492213,1.0001679393404768,1.6112601456528832e-05
0.2615628280716919,0.2615628280716919,0.9998695505808162,1.610642777448939e-05
0.26950419422082633,0.26950419422082633,0.9999888907305259,1.6113512258706668e-05
0.2775649130160673,0.2775649130160673,1.0001649533372703,1.6114785527403624e-05
0.28494031959253335,0.28494031959253335,1.000043790883021,1.6059830632431987e-05
0.2914184867462609,0.2914184867462609,1.000027112047378,1.5980381837699574e-05
0.2989786778938651,0.2989786778938651,1.0001640844601614,1.606975692029592e-05
0.30779751431546176,0.30779751431546176,1.0001110118084775,1.620197087057915e-05
0.3125546396666323,0.3125546396666323,0.9999872809832242,1.6105313389078827e-05
0.31858586218149865,0.31858586218149865,1.000075132670141,1.6106291865151166e-05
0.3249109550892172,0.3249109550892172,1.0000400403723242,1.614043021906121e-05
0.3362772559050427,0.3362772559050427,1.0001223661483385,1.6139565081583396e-05
0.3421056444638452,0.3421056444638452,1.000426867416186,1.605854647390838e-05
0.34697822477955925,0.34697822477955925,0.9998841035157945,1.607646578174579e-05
0.3515852847487622,0.3515852847487622,1.000062480021814,1.601724586554278e-05
0.3590855785072563,0.3590855785072563,1.0000393200143476,1.609638199954758e-05
0.3676096046483508,0.3676096046483508,0.9999215983411638,1.6122234390539078e-05
0.3731862970727889,0.3731862970727889,0.9999169018330972,1.61061128522742e-05
0.3775950534218282,0.3775950534218282,0.9999810261801709,1.6105908172456406e-05
0.38767300003037236,0.38767300003037236,1.0001710264520767,1.609755910516387e-05
0.3950077200390297,0.3950077200390297,1.0001804092339444,1.6220125202456456e-05
0.4033240089627725,0.4033240089627725,1.0002048680812883,1.607986753228604e-05
0.40926895632492233,0.40926895632492233,0.9999347123612203,1.6169680239522934e-05
0.41639154463791783,0.41639154463791783,1.000251764858166,1.6075754886339467e-05
0.42864304612921844,0.42864304612921844,1.0010246123151574,1.6213138527434568e-05
0.43763905767991673,0.43763905767991673,1.0001266379363956,1.6102215726008037e-05
0.44516020437495174,0.44516020437495174,1.0002949051767256,1.5929630770293452e-05
0.45120444206859245,0.45120444206859245,1.0002220541363083,1.6106353563472497e-05
0.4593628829035879,0.4593628829035879,1.000226532895813,1.607426801478036e-05
0.4656750973521412,0.4656750973521412,0.9999097115751173,1.6212364703310486e-05
0.47103712338266635,0.47103712338266635,1.0004147146847473,1.5989023907684865e-05
0.4775501322195851,0.4775501322195851,1.0003572583521005,1.6105096322473786e-05
0.48288086313314127,0.48288086313314127,0.9999388640953326,1.6126060762653438e-05
0.49092413605139884,0.49092413605139884,0.9999978042561166,1.608975453078411e-05
0.49607067101533175,0.49607067101533175,0.9999870977914241,1.6145197431884828e-05
