time,time,flux,flux_err
-0.499858412499331,-0.499858412499331,0.999921651395066,0.00015893914854403943
-0.4997334782589557,-0.4997334782589557,0.9999855772390038,0.0001676321650503243
-0.4996494787719712,-0.4996494787719712,0.9999682467461178,0.00014824940902905283
-0.4995066090777982,-0.4995066090777982,1.000001298324722,0.00012453522831046588
-0.4993867947065155,-0.4993867947065155,0.9998918213750272,0.00012835743986825998
-0.4992948302315199,-0.4992948302315199,1.0001621670237513,0.0001253843033815968
-0.4992252429379732,-0.4992252429379732,1.0000103836118208,0.00012689578252540423
-0.4990901069024403,-0.4990901069024403,0.9999872011686426,0.00012751206562103954
-0.4988721857764176,-0.4988721857764176,0.9999669399062017,0.00012753074916541486
-0.49879447138591787,-0.49879447138591787,1.0000620535915834,0.0001314503971252579
-0.4986618216156785,-0.4986618216156785,0.9998654796344626,0.0001361922003304051
-0.49843854181672215,-0.49843854181672215,0.9998947716289944,0.0001282584941130458
-0.49819235788527294,-0.49819235788527294,1.0001202818306276,0.00012528908484366605
-0.4981079799996223,-0.4981079799996223,0.9998036364742662,0.00012475906272103903
-0.4979624932369916,-0.4979624932369916,1.0000659488998398,0.00012716427240943987
-0.4978579009504756,-0.4978579009504756,0.9998203882051484,0.00012723977543053233
-0.4977708826583694,-0.4977708826583694,1.0000725873095724,0.00012919990997593315
-0.49762796708528184,-0.49762796708528184,1.0000741662442192,0.00013483651012199526
-0.4974893459424493,-0.4974893459424493,0.9998092701718665,0.00013354707420592428
-0.4973697441950208,-0.4973697441950208,0.9999775125616599,0.00014286618400841502
-0.49721968116573406,-0.49721968116573406,1.0001536803195568,0.00012852519230446846
-0.4970980417856481,-0.4970980417856481,1.0002678084092231,0.00012480524176691768
-0.4968881907443574,-0.4968881907443574,1.000127892035358,0.00012851311731474426
-0.49666273257753346,-0.49666273257753346,1.00005515326716,0.00012985092868099052
-0.49658107070572444,-0.49658107070572444,0.9999493212950782,0.0001298268687875015
-0.4964617925339553,-0.4964617925339553,1.0000507530071623,0.0001360880798698248
-0.4963668333883106,-0.4963668333883106,1.0000774206613556,0.00012574580209109872
-0.4962708178500179,-0.4962708178500179,0.9997818495222027,0.00013528990357477002
-0.4961677557810617,-0.4961677557810617,0.999976183974811,0.0001422768778849873
-0.4960499728396826,-0.4960499728396826,0.9999782730601874,0.00012560208447691772
-0.4959525672005839,-0.4959525672005839,1.0000055921784707,0.00012595970045615096
-0.4957633590951446,-0.4957633590951446,1.0000371523674514,0.0001249558689044252
-0.49554309135710356,-0.49554309135710356,0.9998093671359125,0.0001275811510266791
-0.4953728522981692,-0.4953728522981692,1.000169063804586,0.00013115351388513733
-0.4952584019563801,-0.4952584019563801,0.9998394492079117,0.00013143476732639658
-0.49514147505542494,-0.49514147505542494,0.9999655535087486,0.00013984716830331916
-0.495059941544605,-0.495059941544605,0.9999326040015257,0.00014969641591077956
-0.49496821179127437,-0.49496821179127437,0.9999523084588187,0.00012813458869245157
-0.49481480251342874,-0.49481480251342874,0.9999974394085169,0.00012674531840446975
-0.49469665209398955,-0.49469665209398955,1.000127674392964,0.00012945257379615765
-0.49460389192099685,-0.49460389192099685,0.9999484709436712,0.00013055784005034515
-0.4945190680846281,-0.4945190680846281,0.999724261128007,0.00012739259430842166
-0.4944563796299917,-0.4944563796299917,1.000033820729438,0.00012537921613867887
-0.49431071813232846,-0.49431071813232846,1.0000313393768128,0.0001268796546498611
-0.4941570667724591,-0.4941570667724591,1.000041601437201,0.0001285211796670515
-0.4940274832122668,-0.4940274832122668,0.999872924228012,0.00013735546707317514
-0.49389619091016357,-0.49389619091016357,1.0000931527792958,0.0001281603276491044
-0.4937322335434146,-0.4937322335434146,1.0001037924992118,0.00012668383398150483
-0.49360113693255697,-0.49360113693255697,1.0002390939169148,0.00013053377318260397
-0.49346677515422926,-0.49346677515422926,1.000331927332804,0.000124658810471452
-0.4933653932028392,-0.4933653932028392,1.0000256906022147,0.00012854727630839832
-0.49318567227601307,-0.49318567227601307,0.9999386803272019,0.00012751491093175831
-0.4931046700316074,-0.4931046700316074,0.9999520260515963,0.00012714444587293337
-0.4930035553879861,-0.4930035553879861,0.999988297049201,0.00012705993121431313
-0.4929080923786387,-0.4929080923786387,0.999984755425104,0.0001330449858144578
-0.492785540332261,-0.492785540332261,1.000078478825283,0.00015087300832275052
-0.4926599403115688,-0.4926599403115688,0.9998997734734782,0.00012726097019255913
-0.4925197642318381,-0.4925197642318381,1.0000392559935085,0.0001286443678263843
-0.49236602161327025,-0.49236602161327025,1.0003445392950847,0.0001252155166201801
-0.4922299315396231,-0.4922299315396231,0.9998320877411537,0.0001286508453160943
-0.49199341211424324,-0.49199341211424324,0.999878980718349,0.00013140572414887494
-0.4919207788145286,-0.4919207788145286,0.9998568103792065,0.0001255625084225621
-0.4918147413744009,-0.4918147413744009,1.0000478864001565,0.00013643432827861968
-0.4916463085617579,-0.4916463085617579,0.9999606537835115,0.0001321547401612556
-0.4915443861224048,-0.4915443861224048,1.0001185949342586,0.00014297514809661797
-0.4914390261990775,-0.4914390261990775,1.0002175172680563,0.00012635437691275086
-0.49132017705924225,-0.49132017705924225,1.0000115061036987,0.00012612104290003
-0.49113578489195786,-0.49113578489195786,1.0000058056887553,0.00012798300670714672
-0.49085483595117696,-0.49085483595117696,1.0001646494222007,0.00012885609551925218
-0.4906895882653771,-0.4906895882653771,1.000084407431984,0.0001290919639267294
-0.4905481304835121,-0.4905481304835121,0.999965830828941,0.00013380426983733342
-0.49041923709592083,-0.49041923709592083,1.0001393927311777,0.00014885385228831596
-0.490390015009325,-0.490390015009325,1.0003431279232708,0.0001414281859003487
-0.4903048507774656,-0.4903048507774656,1.0000902510777068,0.00012613006775129954
-0.49015162822470304,-0.49015162822470304,1.000029866759393,0.0001283172735011599
-0.4900319068285171,-0.4900319068285171,1.0001348119449245,0.00012654126946956998
-0.4899783634988125,-0.4899783634988125,1.0001947959547395,0.00012875140057225703
-0.4898591731427587,-0.4898591731427587,1.0001362153236086,0.00012975369022086115
-0.4897666033626592,-0.4897666033626592,0.9999109271830576,0.00012862085130658157
-0.489549838390667,-0.489549838390667,0.9996831272328119,0.00012997885112417087
-0.4894509445548465,-0.4894509445548465,1.0000990648860708,0.00012379133376991358
-0.48930816805004723,-0.48930816805004723,1.0003096339025976,0.0001362981224553502
-0.48915677743934793,-0.48915677743934793,1.0001286035292904,0.0001289186408617581
-0.48898697506010647,-0.48898697506010647,0.9999657229862107,0.0001285231044583993
-0.48888651429733726,-0.48888651429733726,0.9998974566593256,0.00012851708382889926
-0.4887671147676883,-0.4887671147676883,1.0000171086997807,0.0001245139745701355
-0.48862328247414555,-0.48862328247414555,0.9999935032966858,0.00012897357381871588
-0.4884688128775451,-0.4884688128775451,1.0000485805114476,0.00012898108423778837
-0.4883722749691515,-0.4883722749691515,1.0000869388370175,0.00012730789993364717
-0.48825990018376614,-0.48825990018376614,0.9997853631046146,0.00014755213980063197
-0.48815160313024536,-0.48815160313024536,1.0000829905913917,0.00013340569940579127
-0.4879912744385365,-0.4879912744385365,1.000034025415696,0.00013327662242482367
-0.48779496605566236,-0.48779496605566236,1.0000093125866045,0.00012642868504831315
-0.4876077408735,-0.4876077408735,0.9999213175561911,0.00012865446042897418
-0.48732911767438053,-0.48732911767438053,1.0001535280175804,0.0001303937781301822
-0.48720624547859187,-0.48720624547859187,1.0001503272069836,0.0001267912277778972
-0.487042172778456,-0.487042172778456,1.0000433377418128,0.00013406161966783136
-0.48690443039813547,-0.48690443039813547,1.0001040532076635,0.00014382660238004968
-0.4867965977726271,-0.4867965977726271,0.9998982179918663,0.0001426463212961705
-0.4866407970803266,-0.4866407970803266,0.9999276336438394,0.00012610464580109165
-0.4865386523095367,-0.4865386523095367,0.9999864919941285,0.00012549236500567995
-0.48626744175562636,-0.48626744175562636,1.0000422875989186,0.00012889250921523635
-0.48610286365510547,-0.48610286365510547,0.9999680676218576,0.00012954559589359823
-0.4859378930632374,-0.4859378930632374,0.9998369404799952,0.0001362733571868129
-0.4857839262476773,-0.4857839262476773,1.0001449387811228,0.00015655797477282416
-0.4857220592217345,-0.4857220592217345,1.000003498056253,0.00015895687588914623
-0.4856621506827651,-0.4856621506827651,1.0000726512774099,0.00012271489109264615
-0.4855885295452026,-0.4855885295452026,1.000020900487241,0.00012488177545534013
-0.4854868458969577,-0.4854868458969577,0.9999828966644912,0.00012916291524979899
-0.48534455280459954,-0.48534455280459954,0.9999665238528099,0.0001245531149592222
-0.4852914938965114,-0.4852914938965114,0.9998848445069802,0.00012869155403942432
-0.485223074847454,-0.485223074847454,1.0000644366573384,0.000128519789929603
-0.4851170081870805,-0.4851170081870805,1.000141037884821,0.00013068770927143162
-0.48502731648477493,-0.48502731648477493,0.9999401763107245,0.00012953089348077262
-0.48485985442021046,-0.48485985442021046,0.999781519921006,0.0001283147711114846
-0.48474864649251687,-0.48474864649251687,0.9998539517928,0.00012544476102994276
-0.4846250405709725,-0.4846250405709725,1.0003079814634654,0.00013637606620298944
-0.4844909483457741,-0.4844909483457741,1.000067442947984,0.00012910825313525753
-0.48433695321582493,-0.48433695321582493,0.9999053214722868,0.00012766431831680587
-0.48422989226237406,-0.48422989226237406,1.0001504998828632,0.00012901840428955578
-0.484150802889053,-0.484150802889053,1.000200731193388,0.00012596352440648624
-0.48406513994341366,-0.48406513994341366,0.9998216617448531,0.00012928819790062975
-0.48393774703145026,-0.48393774703145026,1.0001044248499997,0.0001264897773114089
-0.4838082278743968,-0.4838082278743968,1.0000917857642648,0.00012931608094413988
-0.48368959386571075,-0.48368959386571075,1.000151556410003,0.0001364955705124252
-0.4835572851508914,-0.4835572851508914,1.0002143517679751,0.00014018813041802495
-0.4834298535635753,-0.4834298535635753,0.9999710501688599,0.00013449762482878024
-0.4832379928586306,-0.4832379928586306,1.0000604803357969,0.00012422515879467695
-0.48311039713735227,-0.48311039713735227,1.0002043000882455,0.0001261780099126432
-0.48291694491927045,-0.48291694491927045,0.9999825637369455,0.00012916093593745432
-0.48267878498954814,-0.48267878498954814,0.9999189672432893,0.0001309865706663942
-0.48257270041649464,-0.48257270041649464,0.9999701576663348,0.0001296817288591878
-0.4824580914937542,-0.4824580914937542,1.0000681267916676,0.00013427496507122322
-0.48232549397580443,-0.48232549397580443,0.99975629806453,0.00015466302397287016
-0.4822278554907825,-0.4822278554907825,1.0000860981041977,0.0001342355822797154
-0.4821512393602461,-0.4821512393602461,1.000043250842944,0.0001425162163611043
-0.4819589955564879,-0.4819589955564879,1.0001889522365657,0.00012882768693120564
-0.48163997952215143,-0.48163997952215143,0.999938261134228,0.00012888307312677175
-0.48145258182048567,-0.48145258182048567,0.9998046062315524,0.00013100726081266898
-0.4812899029122491,-0.4812899029122491,0.9999727796550999,0.0001337646875758838
-0.4811889850832813,-0.4811889850832813,1.0000194269579796,0.0001374899102280047
-0.4810953150765272,-0.4810953150765272,1.0001851707505884,0.00014881224744174666
-0.48103891798018594,-0.48103891798018594,1.0000788263575804,0.00015380622378332478
-0.48091768995000167,-0.48091768995000167,0.9999766376074131,0.00012592312417348162
-0.4808548470020469,-0.4808548470020469,0.999980837066292,0.0001253803484803821
-0.4807259422392235,-0.4807259422392235,1.0000952072076863,0.00012981174708104494
-0.4806191227631643,-0.4806191227631643,1.0000347420595912,0.00012567165698937463
-0.4805560519627761,-0.4805560519627761,0.999927329393951,0.00012606544966040596
-0.4804610917744867,-0.4804610917744867,1.0000460387729961,0.00013281134189411435
-0.4803618756006472,-0.4803618756006472,1.0000577385125031,0.00012735307994267658
-0.4801991430707858,-0.4801991430707858,0.9999891603685679,0.000129064359166523
-0.4800868432284915,-0.4800868432284915,0.9998845397293389,0.00012721978080270196
-0.4799804083864728,-0.4799804083864728,1.0000318743122873,0.00013348839512225294
-0.4798070473676489,-0.4798070473676489,1.0000170783705133,0.00012893975845522295
-0.4796195229580917,-0.4796195229580917,0.9999245684394843,0.00012895897458472538
-0.479497922812152,-0.479497922812152,0.9998032743098383,0.00012767331936526738
-0.4793694586864149,-0.4793694586864149,0.9999594438164167,0.00012653568440947153
-0.4792245674325386,-0.4792245674325386,1.000269338352706,0.00012832340075427803
-0.4791292656562291,-0.4791292656562291,1.000007664024546,0.0001293904206919161
-0.4790268068187288,-0.4790268068187288,0.9999432700239701,0.00012873703586669842
-0.4788874782854691,-0.4788874782854691,0.9998975907666363,0.00015042975674058723
-0.47878750748714083,-0.47878750748714083,1.0000246948704015,0.0001350091950577409
-0.4786126959850662,-0.4786126959850662,0.9999910595542506,0.0001242918395494455
-0.47847810098319316,-0.47847810098319316,1.000109797967335,0.0001281830099353185
-0.478330089924566,-0.478330089924566,0.9999635619656994,0.00012621328938391098
-0.478107493983407,-0.478107493983407,1.0000289016490354,0.00013416286254588227
-0.4779165616411774,-0.4779165616411774,0.999994767215686,0.00012856860739787594
-0.47778641554832574,-0.47778641554832574,1.0000144042991492,0.00013525461370519866
-0.4776532949828834,-0.4776532949828834,1.0000661670921442,0.00013909633216059524
-0.477561088391667,-0.477561088391667,1.0002828197120297,0.00014816661974867334
-0.4774834573698172,-0.4774834573698172,1.0000927057173168,0.00013542506986246352
-0.4773204377699585,-0.4773204377699585,0.9999748818777894,0.00012795244490458057
-0.4772215063778276,-0.4772215063778276,0.9999300952519479,0.00012712559970819992
-0.477059898222069,-0.477059898222069,0.9998954795957656,0.0001274801451121889
-0.47688281575683505,-0.47688281575683505,1.0000190664787003,0.0001283830666845117
-0.4766944446550042,-0.4766944446550042,1.0001382236705134,0.00012752283801726247
-0.47654576080676636,-0.47654576080676636,0.9998430960598604,0.00012535563847533186
-0.47645606513906386,-0.47645606513906386,1.0000407566083056,0.00015140693760469476
-0.47637860184186137,-0.47637860184186137,1.000020559904708,0.00015028564105209476
-0.47625867102397024,-0.47625867102397024,1.0000042176498396,0.00012590623669488907
-0.476186769400374,-0.476186769400374,1.0000879113057217,0.00012659508443975216
-0.4760715553988121,-0.4760715553988121,0.9998368820160317,0.0001265731673283505
-0.476004561962327,-0.476004561962327,1.00007373256777,0.0001289460522388422
-0.4758937491038523,-0.4758937491038523,1.0000099677953733,0.0001260596203880037
-0.4758082089974778,-0.4758082089974778,0.9999181525853293,0.0001271538127706554
-0.475709981120599,-0.475709981120599,1.0000380008540142,0.00013123975702237947
-0.47556105552430383,-0.47556105552430383,1.0001365712568906,0.00012537400416211478
-0.4753447892180702,-0.4753447892180702,0.9999503944103638,0.00013483337047575937
-0.475178936321754,-0.475178936321754,0.9998999246576382,0.00013013534941949944
-0.47499736577519797,-0.47499736577519797,0.9998729989212485,0.0001293178227157581
-0.4748975186434109,-0.4748975186434109,0.9998816114645115,0.00012881180412748725
-0.47478770331435954,-0.47478770331435954,0.9997901138851291,0.00012529143010400412
-0.474697392359667,-0.474697392359667,1.0001030808919336,0.00012914035631509245
-0.4745299174726824,-0.4745299174726824,0.999885173638491,0.00013017912936193245
-0.4744249829862383,-0.4744249829862383,1.0000501637724075,0.00013008098097565805
-0.47428173742155194,-0.47428173742155194,1.0001639929376538,0.00013834774721734148
-0.4741282822396897,-0.4741282822396897,1.0002179402316838,0.00012747157006232654
-0.47399460457309034,-0.47399460457309034,1.0000846232209748,0.00013319732848000239
-0.47384153474195045,-0.47384153474195045,0.9999558322252426,0.00013012046822895667
-0.47368263923344783,-0.47368263923344783,1.0000125669825422,0.00012427203691443392
-0.4734771093804738,-0.4734771093804738,0.9999586369480369,0.00012649542591478528
-0.47327244588304895,-0.47327244588304895,1.0001080693452487,0.00013081973787367932
-0.47309259843095786,-0.47309259843095786,0.999896183932312,0.0001359100335475729
-0.4729313924406597,-0.4729313924406597,0.9999824386883013,0.0001490851424429
-0.4728528167805052,-0.4728528167805052,1.0002339116253858,0.000136621185906994
-0.47280381146629225,-0.47280381146629225,0.9999704931859809,0.00013303771627259787
-0.4726444461324718,-0.4726444461324718,0.9999220052940737,0.00012986797547975045
-0.47253094289335423,-0.47253094289335423,0.9999605350500598,0.00012694608356269898
-0.47239790268504295,-0.47239790268504295,1.0000394753936266,0.0001278211023363455
-0.4722416057709779,-0.4722416057709779,0.9998509587079358,0.00012695484184228602
-0.4720951846386015,-0.4720951846386015,1.0000861463063049,0.00012657228382946935
-0.47187613413188956,-0.47187613413188956,1.0002489853940961,0.00013546721974523469
-0.47177388092604816,-0.47177388092604816,1.0002451147029146,0.0001441245882559637
-0.47162807996646733,-0.47162807996646733,0.9999682559096691,0.00013230452446526497
-0.4715319752052892,-0.4715319752052892,0.999914690923988,0.00012682268026336456
-0.4714502554299543,-0.4714502554299543,1.0003187158789941,0.00012626340786849166
-0.4713562128148624,-0.4713562128148624,1.0000138083969932,0.0001284827537685696
-0.47130500697967365,-0.47130500697967365,1.0000463343033046,0.00012714568157988116
-0.47119640014352626,-0.47119640014352626,0.999962809952935,0.00012764744612901377
-0.4711058525041153,-0.4711058525041153,1.0003228592196298,0.00013121046915944487
-0.4709838614864566,-0.4709838614864566,0.9999348849932679,0.00012507608928305649
-0.4708270110488229,-0.4708270110488229,1.000065757228524,0.000134474614528789
-0.4706691878192942,-0.4706691878192942,0.9999137923636313,0.00014282015653945945
-0.47054796082593386,-0.47054796082593386,1.0000504572726723,0.00012639390705465164
-0.47041357556227015,-0.47041357556227015,0.9999586328693028,0.00012929936128880148
-0.4702483951899922,-0.4702483951899922,1.000085393081251,0.00013044022826123338
-0.47012853661362897,-0.47012853661362897,0.9999932090210611,0.0001284927161942126
-0.47004666299253584,-0.47004666299253584,1.0000051979265305,0.00012708734930014245
-0.46992903595019014,-0.46992903595019014,0.9999107536882542,0.00012726256904212863
-0.46981921838159907,-0.46981921838159907,1.0000666307013835,0.00012644235327920238
-0.4697383931466902,-0.4697383931466902,1.0001148532832818,0.00012943578763616642
-0.4696300655392406,-0.4696300655392406,0.9999288146085734,0.00013680262050949076
-0.46947300992542296,-0.46947300992542296,0.9998566223809627,0.00012781634442100975
-0.46930754151835574,-0.46930754151835574,1.0000294980168491,0.00013252003764573962
-0.4691784093520255,-0.4691784093520255,1.0002087756346931,0.0001260886372328361
-0.4690961510197667,-0.4690961510197667,0.9998603531967417,0.00012675515091691386
-0.4689624551188899,-0.4689624551188899,0.9998281354709654,0.00012350809303053974
-0.46880233112970016,-0.46880233112970016,0.9998391071261041,0.00012818367145521467
-0.4686243525466125,-0.4686243525466125,1.0000865489777073,0.00012716569133207537
-0.46854659531163634,-0.46854659531163634,1.0000473718400698,0.000128481329078232
-0.4683909290622978,-0.4683909290622978,1.000096157727083,0.00013725114506246992
-0.46827321103119174,-0.46827321103119174,1.0003542774352232,0.00014087986884844637
-0.4681784546293784,-0.4681784546293784,1.0000043582036917,0.00014355162953134628
