time,time,flux,flux_err
-0.4998892828261887,-0.4998892828261887,1.000389062493636,0.00019336251780732605
-0.4997142218526278,-0.4997142218526278,0.9999915137320198,0.00017302793339709214
-0.49954356000380357,-0.49954356000380357,0.9997713384138421,0.00017475515173587017
-0.4994039534816693,-0.4994039534816693,1.0001064427571111,0.00017642209677896334
-0.49926834580910506,-0.49926834580910506,0.9999805744842243,0.00019415167244045227
-0.49914009918866215,-0.49914009918866215,1.0000023720226192,0.00017938972997994985
-0.49898365205081063,-0.49898365205081063,0.9997311544238932,0.00019489409212016516
-0.49892377231371937,-0.49892377231371937,1.0000771285886594,0.00017157234643676967
-0.4988644524411939,-0.4988644524411939,0.9997180621413652,0.0002065821561979334
-0.4988179596584814,-0.4988179596584814,0.9999019331142576,0.000182338047980095
-0.4986855371200363,-0.4986855371200363,1.0000217287615591,0.00019141677138286074
-0.4985828818542359,-0.4985828818542359,0.9999701617306821,0.00020587288823046735
-0.4985032134973153,-0.4985032134973153,1.000067356670993,0.0001735127451357887
-0.4983971969370032,-0.4983971969370032,1.000180124481071,0.0001913480361142316
-0.49832292019273156,-0.49832292019273156,0.9999545842558824,0.00021320496354725467
-0.49817882907154853,-0.49817882907154853,0.9999397886921735,0.00019289802064099108
-0.4979832086930401,-0.4979832086930401,1.000055290186909,0.0001740145730351454
-0.49789072479325114,-0.49789072479325114,0.9999050502465134,0.00017568210744473567
-0.4977092641340278,-0.4977092641340278,0.999962004817089,0.00017329759050176816
-0.4974557691210066,-0.4974557691210066,0.9998613525510442,0.00020060263651565133
-0.49735870534350396,-0.49735870534350396,1.0000899251073947,0.00017375384396987873
-0.4972072723037854,-0.4972072723037854,1.0000008001672758,0.00017898729799731178
-0.4970580881039496,-0.4970580881039496,1.0002032794702194,0.00019576256433865392
-0.4969825662119547,-0.4969825662119547,1.0000988862704543,0.00018895329788987377
-0.4968368860703777,-0.4968368860703777,0.9999123652603972,0.0001958787439657993
-0.49673195005962045,-0.49673195005962045,1.0000363402082915,0.00020407783426244783
-0.49661876592217596,-0.49661876592217596,1.000301585634931,0.0001761739866175135
-0.49651257889781847,-0.49651257889781847,1.0001772516408385,0.0002063091773171431
-0.4963985747672268,-0.4963985747672268,1.000132554303542,0.00020672708490530309
-0.49629834350489543,-0.49629834350489543,1.0002454418792994,0.00019590058872541368
-0.4961986999522196,-0.4961986999522196,0.999744809332938,0.000185182535767218
-0.4961175311007537,-0.4961175311007537,1.0000634194028013,0.00018033319724344835
-0.49592093963728984,-0.49592093963728984,0.9998750763849051,0.00017631310647496837
-0.4958230827076477,-0.4958230827076477,1.0000075242515993,0.0001662337346895332
-0.4956382670716266,-0.4956382670716266,1.000144902316224,0.00018877699263553685
-0.49547668917293775,-0.49547668917293775,0.9998398125796036,0.00017270725410535804
-0.49528823456785176,-0.49528823456785176,1.0003462053463161,0.0001801237063701361
-0.495168013512739,-0.495168013512739,1.0001680994516482,0.00019154959713975226
-0.4950333914195653,-0.4950333914195653,0.9999033405129787,0.00019921194922011806
-0.49485130053944887,-0.49485130053944887,1.0004053109542725,0.00021686235360308766
-0.4947329271068156,-0.4947329271068156,1.0000966776615088,0.00017549649793919744
-0.49467160216590855,-0.49467160216590855,0.9998729265596458,0.0001941975414938676
-0.4945642093058268,-0.4945642093058268,1.0000111971140138,0.00019209262149913386
-0.49442080162043567,-0.49442080162043567,0.9997846742882077,0.0002215356011802496
-0.49425036860993715,-0.49425036860993715,1.0001252617500898,0.0001815830984421523
-0.494203198778996,-0.494203198778996,1.0002401892116455,0.0001713704088748944
-0.49412443899855135,-0.49412443899855135,1.0000664577054788,0.00017708530943707083
-0.4939814137025678,-0.4939814137025678,1.0000026054726794,0.00017190294471775098
-0.49384768202362467,-0.49384768202362467,1.0000333331588265,0.0001755751515270756
-0.4937731333797274,-0.4937731333797274,1.0001227094229637,0.00019996127505778524
-0.4936376993668091,-0.4936376993668091,1.0000467880859,0.00019237412170557768
-0.49341646027532987,-0.49341646027532987,1.0002988333666332,0.00019110105249575291
-0.49330822006377273,-0.49330822006377273,1.0000436039848632,0.00017892594357535015
-0.49320608312627884,-0.49320608312627884,1.0000194394334097,0.00017600527370568203
-0.4931063334675855,-0.4931063334675855,1.0003993936117153,0.000169760935413605
-0.4929406593517342,-0.4929406593517342,0.9999595865094193,0.0002051682958466862
-0.4927911960920028,-0.4927911960920028,0.9998713691285118,0.00019041866650455422
-0.49267536400948303,-0.49267536400948303,1.0000424010218762,0.000189744837513511
-0.4925450514405384,-0.4925450514405384,0.9999305405607541,0.0002196041322955151
-0.49243463311358937,-0.49243463311358937,1.0000529935385956,0.00018303940920521596
-0.4922623865837522,-0.4922623865837522,1.0001782954524494,0.00018981089934317876
-0.49211393674777354,-0.49211393674777354,0.9998308417287379,0.00017069436877195103
-0.49202703888440735,-0.49202703888440735,0.999838659732491,0.00018197463078026122
-0.49194097130239245,-0.49194097130239245,1.0000127690722507,0.00019151283089887484
-0.4918722519963922,-0.4918722519963922,1.0000610164868415,0.00019571207883458693
-0.491786985793442,-0.491786985793442,1.0001089550231037,0.00017439669494448304
-0.491663381052058,-0.491663381052058,0.999880065955994,0.0001811595389620412
-0.4915547011696617,-0.4915547011696617,0.9998552473487086,0.00020418821560077397
-0.49141880160605067,-0.49141880160605067,1.0001709417112055,0.0001756653435749814
-0.4913084681582404,-0.4913084681582404,0.9999351745607445,0.0001900592584829837
-0.4911869646770356,-0.4911869646770356,1.0000728079104217,0.00017082280888467392
-0.49102345135252107,-0.49102345135252107,1.0001356379618784,0.00018967665801291415
-0.490890943006525,-0.490890943006525,0.9999455016967189,0.0001888238568540738
-0.4907484761126398,-0.4907484761126398,1.0000869414094982,0.00017366043966061563
-0.49063060745684195,-0.49063060745684195,1.0001895892394441,0.000202380369754155
-0.49045983174073626,-0.49045983174073626,1.0001889439517817,0.0001800552711853773
-0.4902487093284435,-0.4902487093284435,1.0002542181905543,0.0001799280058023029
-0.49006932727716046,-0.49006932727716046,0.9999176026671124,0.00017031309603255821
-0.48995495867493444,-0.48995495867493444,0.9998851519264574,0.00019406213748684645
-0.48982591199019226,-0.48982591199019226,1.0000232430106795,0.00017692465726007798
-0.4897405542782508,-0.4897405542782508,0.999899074896876,0.00017883937690162138
-0.48965118918931694,-0.48965118918931694,1.0000754827347316,0.00019454465703676487
-0.4895246606269211,-0.4895246606269211,0.999919440905894,0.00018556490673521685
-0.48943148787584506,-0.48943148787584506,1.0001311630034302,0.00018174718425998157
-0.4893338970054174,-0.4893338970054174,1.000184545101119,0.00019036508057518727
-0.4892041688086465,-0.4892041688086465,0.9999316801549124,0.00020998903779597034
-0.48906936875209794,-0.48906936875209794,1.000019527390491,0.00018564293002336195
-0.4889340659232403,-0.4889340659232403,0.9998716251374263,0.0002100618279095833
-0.48887678590181166,-0.48887678590181166,0.9999217278883752,0.00026245180806117675
-0.48874289641607904,-0.48874289641607904,1.0001872488342805,0.00020407372814255754
-0.4885621557135892,-0.4885621557135892,0.9997724800291652,0.00017722904090280062
-0.48837187217432076,-0.48837187217432076,1.0002541771332318,0.00017504887013949124
-0.48825781638515764,-0.48825781638515764,0.9999844878733724,0.00017507696826513978
-0.4880828483910591,-0.4880828483910591,1.0003288271959538,0.0001910571418872255
-0.4879566005001834,-0.4879566005001834,1.000171098897345,0.00017646450583905284
-0.48782457201959917,-0.48782457201959917,0.9999659611017903,0.00017240857498575913
-0.4877493367544957,-0.4877493367544957,1.0001548350697784,0.00018078078747668847
-0.48767992629655055,-0.48767992629655055,0.9997592374076213,0.00020812747039710002
-0.4875449816536275,-0.4875449816536275,1.0001614654375222,0.0001792225735445537
-0.48742124779382723,-0.48742124779382723,1.0004188179587108,0.00020663958097773808
-0.4873291814154072,-0.4873291814154072,1.0000663706078212,0.00019121061142333024
-0.4872008181780984,-0.4872008181780984,1.000029033244727,0.00019975403567237712
-0.48709503973077517,-0.48709503973077517,0.9998801249271285,0.00021820578810729797
-0.48695283860579364,-0.48695283860579364,1.0001730731772143,0.00017103370544188
-0.48678450937222806,-0.48678450937222806,1.000095332009347,0.00017496275798358234
-0.48669465221319114,-0.48669465221319114,0.9997242692560281,0.00017568867606736994
-0.4864671087969327,-0.4864671087969327,0.9999650676827005,0.00017866158544311184
-0.48628248748282205,-0.48628248748282205,1.0000618269311707,0.00017308804731589307
-0.48611521016136977,-0.48611521016136977,1.000446152672676,0.0001848561636965565
-0.48593666310116534,-0.48593666310116534,1.0000163188279032,0.00019920185757627673
-0.48580525081342785,-0.48580525081342785,1.0000312726565836,0.00019444715642325533
-0.4857039653594256,-0.4857039653594256,1.0000690126224954,0.0001764291309107445
-0.485675145337882,-0.485675145337882,1.000179386754656,0.0001719325372441503
-0.4856079413330008,-0.4856079413330008,1.0000456521676366,0.00019668882580610474
-0.4855083430564264,-0.4855083430564264,0.9996546250669394,0.00020362197553647332
-0.485363278141449,-0.485363278141449,0.999990620000335,0.00017067597284805948
-0.48528715225402264,-0.48528715225402264,0.9996912355208754,0.00020859310941780256
-0.48520960570094757,-0.48520960570094757,0.999967441751257,0.00019075108820065565
-0.4851267870661104,-0.4851267870661104,1.000181015413716,0.0002109810118557967
-0.48504226758741426,-0.48504226758741426,0.9997441510488068,0.0001841425511314187
-0.48484638399168034,-0.48484638399168034,1.0000390172374165,0.00017662669776169455
-0.4847677151556127,-0.4847677151556127,1.000207835101231,0.00017122020284295573
-0.48461192148388366,-0.48461192148388366,0.9998343872684841,0.00018362853803162243
-0.48440191011177375,-0.48440191011177375,0.9999869832704033,0.00018533167244172544
-0.48429899894545086,-0.48429899894545086,0.9999206348386354,0.0001798601613267331
-0.4840727883442014,-0.4840727883442014,1.0001533971105159,0.0001913345149591559
-0.48392394081820383,-0.48392394081820383,1.00018230442527,0.00018329692404950087
-0.48373976738221247,-0.48373976738221247,0.9999653763579293,0.00021897744918539388
-0.48359765596906074,-0.48359765596906074,1.0001026967837567,0.000193499653125633
-0.48349980094790224,-0.48349980094790224,0.9998649945256719,0.00017696933281654783
-0.48345184849094947,-0.48345184849094947,0.9998838346416463,0.0002010769563014582
-0.48329650176965516,-0.48329650176965516,0.999703194132014,0.00020580976488342515
-0.4831733271057601,-0.4831733271057601,1.0000943788216152,0.0002185922079344336
-0.48305276688406595,-0.48305276688406595,1.0002058363295094,0.00017892059928816033
-0.48301001530489884,-0.48301001530489884,1.0000889944705684,0.00017564526291203388
-0.48283005440462146,-0.48283005440462146,1.0002440599564502,0.00017504621725537327
-0.48267426459060514,-0.48267426459060514,1.0002158041434417,0.0001725478406385155
-0.482566389508429,-0.482566389508429,0.9999503586774449,0.00019108212968706404
-0.4823822258898872,-0.4823822258898872,1.0000258645683808,0.0001790744860775798
-0.4821598724513024,-0.4821598724513024,0.9998903818195004,0.00018636428835868305
-0.48209426132088995,-0.48209426132088995,1.000035327706542,0.0001775438868863633
-0.481981650950911,-0.481981650950911,1.0000910733868895,0.00018258339124391161
-0.4818020281214558,-0.4818020281214558,1.0000255709612138,0.00019278375467756995
-0.48169019151464454,-0.48169019151464454,1.0000910464395674,0.00018991509499852272
-0.4815946123053436,-0.4815946123053436,0.999904964244123,0.00019523372650230494
-0.4814974795277521,-0.4814974795277521,1.0001465129115705,0.00017683584753037956
-0.48140142523261603,-0.48140142523261603,0.9998554588171308,0.00020824399723583866
-0.4812750967896136,-0.4812750967896136,1.0001042259585236,0.00020279385172968463
-0.4811726841966447,-0.4811726841966447,0.999942936959852,0.0001817159171512859
-0.48107348576086223,-0.48107348576086223,1.000093741496185,0.00018939126443207968
-0.4809564623203187,-0.4809564623203187,0.9998179087621818,0.0001772620870092767
-0.48084780931458226,-0.48084780931458226,0.9998239329600569,0.00018381368207466247
-0.4807448865416518,-0.4807448865416518,1.0001376508126545,0.00019055757245838972
-0.4806644698503078,-0.4806644698503078,0.9999012047224092,0.00019170866055746562
-0.48056223730527564,-0.48056223730527564,1.000128967226614,0.00018047543264110456
-0.4803403368183353,-0.4803403368183353,0.9999458543190272,0.00022121766022531177
-0.4802070908306632,-0.4802070908306632,1.0001254782810238,0.00017947953060701765
-0.48008197529561586,-0.48008197529561586,0.9999046184047433,0.000174954799566813
-0.4798514557594899,-0.4798514557594899,1.0002234739373392,0.00018844643858416895
-0.4797306691740232,-0.4797306691740232,0.999956695105239,0.00017851558201073577
-0.47963560098578456,-0.47963560098578456,1.0000368742291752,0.0002174769643265558
-0.47954602200697993,-0.47954602200697993,1.000043477709791,0.00018944887283786407
-0.4794484293204732,-0.4794484293204732,0.9998724092628656,0.00020504338895564216
-0.47934294778242476,-0.47934294778242476,1.0001662159275637,0.00017675006442859512
-0.4791017336974619,-0.4791017336974619,1.000044813799077,0.0002077464836328527
-0.47896554945982645,-0.47896554945982645,1.0000908584946582,0.0001719292372358889
-0.478862899755768,-0.478862899755768,1.0001493072896774,0.00017639993722362875
-0.47878209764894564,-0.47878209764894564,0.9997883047562043,0.00019700247849299923
-0.4787148257506487,-0.4787148257506487,0.9998040550659182,0.00017376123093564336
-0.47861634820947074,-0.47861634820947074,1.0002430256855324,0.00018100975652540215
-0.47850059049815175,-0.47850059049815175,0.9999119099542643,0.0002110301569799086
-0.4783910157071659,-0.4783910157071659,1.0002717441156368,0.00019099405840584878
-0.47821933417362744,-0.47821933417362744,1.000100428434688,0.00017987165954234631
-0.4781011369166663,-0.4781011369166663,0.9999961197743943,0.0002202515458633569
-0.47795592532274894,-0.47795592532274894,1.0000092002916694,0.00018532857359244778
-0.4778258895734325,-0.4778258895734325,1.0000685183938984,0.00017214819830424413
-0.4777420362814155,-0.4777420362814155,1.0000322459278477,0.0002043953853532511
-0.477590820012847,-0.477590820012847,1.0003029951052334,0.00020516569195269457
-0.477490378836228,-0.477490378836228,1.0000977006033547,0.00018862039456031684
-0.4772903604345629,-0.4772903604345629,0.9999491406385358,0.00017332044328753244
-0.4770958113243978,-0.4770958113243978,1.000071407486669,0.00017274834275791232
-0.4768975195438543,-0.4768975195438543,1.0000932846472668,0.00019737426182080708
-0.4767650430541835,-0.4767650430541835,0.9999287611400774,0.00017573502499605996
-0.4766382063084166,-0.4766382063084166,1.0001516033533613,0.0001794984576751992
-0.4765924035098578,-0.4765924035098578,1.0004891979372943,0.00018443571967699735
-0.4765525888426055,-0.4765525888426055,1.0000455804105568,0.00018369749768085386
-0.47638118332324664,-0.47638118332324664,1.0000569357554554,0.00019353874527470316
-0.4763032430993917,-0.4763032430993917,0.9999143206340243,0.0001747238875255766
-0.4762404448920279,-0.4762404448920279,1.0000816106212986,0.0002045202668876631
-0.4761887012376974,-0.4761887012376974,1.0001760784597404,0.000203135606739907
-0.4760821969110111,-0.4760821969110111,0.9999238736969678,0.0001769165684227276
-0.47599052397054037,-0.47599052397054037,1.00010901438834,0.00019829332792343544
-0.47586684259877077,-0.47586684259877077,1.0000189611070072,0.0002243340975766882
-0.47579162825568344,-0.47579162825568344,1.0001027562544744,0.0001917978723699531
-0.4756612272896746,-0.4756612272896746,1.000002238858973,0.00017040761294795227
-0.4755352938795113,-0.4755352938795113,1.0000275447724598,0.00018058399313521952
-0.47540824326933945,-0.47540824326933945,1.0000666147898631,0.0001730344432351242
-0.47523352259231616,-0.47523352259231616,0.999979255367812,0.00017620307931431536
-0.47510806684804263,-0.47510806684804263,0.9999270743552842,0.00017449993561660247
-0.47499195013806456,-0.47499195013806456,1.0000834206481957,0.0001927067136499315
-0.4748652979717008,-0.4748652979717008,1.0001806352177915,0.00018671299119229695
-0.47476045735675143,-0.47476045735675143,0.9998577112990292,0.00017227211981906467
-0.4746727032732451,-0.4746727032732451,1.0000143100144627,0.00019496708781169871
-0.4746016172823147,-0.4746016172823147,0.9999335764631233,0.00017158631160531002
-0.4745507078274386,-0.4745507078274386,0.999957559702,0.0002071469396908944
-0.47445960264230963,-0.47445960264230963,1.0000348444878022,0.00017581953899376115
-0.474354807491909,-0.474354807491909,1.0000322313658732,0.00021865783060868497
-0.47427202610560926,-0.47427202610560926,0.9996312306747818,0.00020898106276011618
-0.4741488582774764,-0.4741488582774764,1.0001603573677482,0.00017995413068452426
-0.47409012214047835,-0.47409012214047835,1.0001995402035155,0.00020514197315924125
-0.47398662029736444,-0.47398662029736444,0.9997579230330524,0.00019422238875458747
-0.4739364897759515,-0.4739364897759515,0.9999703657074693,0.0002057693457850232
-0.4737315432612377,-0.4737315432612377,1.0000704949656662,0.00017452628295923565
-0.473600229476142,-0.473600229476142,0.9997756666423465,0.00017831456515506175
-0.4734259512995777,-0.4734259512995777,0.9998429343664759,0.00017094689048446037
-0.4731475770160614,-0.4731475770160614,1.0000720446914948,0.00019395413251534736
-0.47306277908282934,-0.47306277908282934,1.0004498484437712,0.00018415176193740967
-0.4729238421015907,-0.4729238421015907,0.9997838733669212,0.0001922093368593479
-0.4727311597162043,-0.4727311597162043,0.9998651640235419,0.0001834634515638418
-0.4726397726451978,-0.4726397726451978,0.9999058900532898,0.00020507189857401834
-0.472447523529263,-0.472447523529263,1.0000068539867049,0.00020707802577527202
-0.47235673016984947,-0.47235673016984947,0.9999955533832516,0.00017459763788671
-0.47225744910319917,-0.47225744910319917,0.9998416453497068,0.00018265546110872699
-0.4721590838453267,-0.4721590838453267,0.9998314914237538,0.00020372572969546153
-0.4720465478727419,-0.4720465478727419,1.0000184100220764,0.00021533305518719943
-0.4719695998268435,-0.4719695998268435,1.0000798535651283,0.00020269778418888752
-0.4718552688122145,-0.4718552688122145,0.9998732243491475,0.0001843164755050942
-0.47173564389013334,-0.47173564389013334,1.0000633923646212,0.00017943136624469085
-0.4715280838216131,-0.4715280838216131,0.9997651902474004,0.00017256292751004215
-0.4713287800870603,-0.4713287800870603,1.0002434467666388,0.00019087646782966087
-0.47116674527351277,-0.47116674527351277,1.0000202284920738,0.00017788158819904631
-0.4710081882083614,-0.4710081882083614,0.9998875241289366,0.0001723090572758004
-0.47090695114529807,-0.47090695114529807,1.000371994197748,0.00018820890100971203
-0.4708395840098092,-0.4708395840098092,0.9999166688072195,0.0001929034548370123
-0.4707499746509711,-0.4707499746509711,1.000412016537254,0.0001782227585292928
-0.47056535606097893,-0.47056535606097893,0.9999032859984721,0.0002006362274992656
-0.4704535467782989,-0.4704535467782989,1.0002455066436011,0.0001905759270195582
-0.47037797071461684,-0.47037797071461684,1.0000312699526934,0.0001931343505079299
-0.4702986405834963,-0.4702986405834963,0.9999679479083834,0.00017818036174996755
-0.4701598243380431,-0.4701598243380431,1.0001576336492621,0.00023108547075398502
-0.4699855645681964,-0.4699855645681964,1.0005291636134543,0.00017693396783290304
-0.46991693639793086,-0.46991693639793086,0.9999695176799047,0.00017277398557295396
