time,time,flux,flux_err
-0.49997197766642787,-0.49997197766642787,1.0000712140174073,0.00019486537652254032
-0.49988105377560715,-0.49988105377560715,1.000123514501038,0.0001818219546963219
-0.4996985155143193,-0.4996985155143193,1.0000493977917007,0.00018763056990988729
-0.4995554635854205,-0.4995554635854205,0.9999810939242563,0.00017941804610754918
-0.49940651096549116,-0.49940651096549116,0.9999166865896161,0.00019195208388584644
-0.4993523985118372,-0.4993523985118372,1.000061432665861,0.0001952983589648987
-0.499273910500051,-0.499273910500051,1.0002521611160229,0.00018441308512172182
-0.4991413986252155,-0.4991413986252155,0.9999959186714733,0.0001826658755102869
-0.4990204952773638,-0.4990204952773638,0.9998935177787865,0.00019717449118531166
-0.49883986721979456,-0.49883986721979456,1.0002413180213108,0.00017995868865198253
-0.4987476041103946,-0.4987476041103946,0.9999889758937812,0.00019207921619615126
-0.4985742010991089,-0.4985742010991089,1.0000147368372152,0.00018195539182707518
-0.49831965162302366,-0.49831965162302366,1.0001531973836086,0.00018642561441639666
-0.4981829707598081,-0.4981829707598081,0.9998727230943627,0.00018557954411714086
-0.49800382941321003,-0.49800382941321003,0.9999965690393637,0.00018141094739825627
-0.497836054302752,-0.497836054302752,0.9998801565968234,0.00017743088403524568
-0.4976669368930743,-0.4976669368930743,0.9998880958799073,0.0001816951321855904
-0.4975783573856461,-0.4975783573856461,0.9997656610688697,0.00019667121408181495
-0.49750902855594176,-0.49750902855594176,0.9999706031057167,0.00017620049831880294
-0.49738977563829395,-0.49738977563829395,1.0003248845243788,0.0001816138276177381
-0.4972799433366163,-0.4972799433366163,0.9998842492384761,0.0001865409405246647
-0.49722247943573167,-0.49722247943573167,1.0000932264467652,0.0001912786594630421
-0.4970103437328362,-0.4970103437328362,0.9998725327852471,0.0001867997704279272
-0.49690167503722477,-0.49690167503722477,1.000353129880023,0.0001997639803735531
-0.4966786766512087,-0.4966786766512087,0.9997597517134441,0.00018864390051372436
-0.4964503330513253,-0.4964503330513253,1.0000727872622515,0.00018386863675089936
-0.4963346413598629,-0.4963346413598629,0.9999785833301095,0.00019166154094821236
-0.4961683219691622,-0.4961683219691622,1.0002303750802997,0.00018343289121587448
-0.4960901356957038,-0.4960901356957038,1.000102705137821,0.00017624730429578
-0.4959660810505738,-0.4959660810505738,1.000315443277764,0.00018502411712967547
-0.4958065113925841,-0.4958065113925841,1.000158084831965,0.00019745990841803598
-0.49563242485164666,-0.49563242485164666,0.9997776314261418,0.0001790851606369823
-0.49552111324010184,-0.49552111324010184,0.9999635571250807,0.00018330770584141278
-0.49534487270866523,-0.49534487270866523,1.0000649508009174,0.00018305709480293577
-0.4952847608947195,-0.4952847608947195,1.0000628494166146,0.000195729197038751
-0.49517960227967706,-0.49517960227967706,1.0002221273132834,0.00018832250318720815
-0.49511033840099117,-0.49511033840099117,0.9999014983901411,0.00019720872161786834
-0.4948650667327456,-0.4948650667327456,0.9998810906430112,0.0001765872681634021
-0.49468914199387654,-0.49468914199387654,1.0000712976366082,0.00019591127252127074
-0.4945281503794831,-0.4945281503794831,0.9998825381695167,0.0001981550151725343
-0.49438790582935327,-0.49438790582935327,1.0000412436239317,0.00017984959931838368
-0.49424362608842787,-0.49424362608842787,1.000136166742313,0.00019654446488037383
-0.4941404324519681,-0.4941404324519681,1.0001266069260484,0.0001816983796744042
-0.49404243251337904,-0.49404243251337904,0.99998490221665,0.0001883244302676487
-0.4939405763783725,-0.4939405763783725,0.9998628581871861,0.0001962370565068388
-0.4938462127815001,-0.4938462127815001,0.9999565237096448,0.00019049696520794145
-0.4936385573353618,-0.4936385573353618,1.0000486371314445,0.00018281297999831695
-0.49354112607834394,-0.49354112607834394,1.0001768801625144,0.00018490214597833052
-0.4933658736961661,-0.4933658736961661,1.0001305800489206,0.00018342504425583427
-0.4932541888745618,-0.4932541888745618,1.0001978074772842,0.0001870073072963789
-0.4931603884338983,-0.4931603884338983,1.000092880233688,0.00017978026400618306
-0.4930653585586697,-0.4930653585586697,1.0000127944179973,0.00019625541550596652
-0.4929284695812385,-0.4929284695812385,1.0000610554787905,0.0002038015246070096
-0.4927442144442466,-0.4927442144442466,1.0002273421860888,0.0001815906106833347
-0.492619684926467,-0.492619684926467,1.0002282903838704,0.00019129536978630278
-0.4924794792983448,-0.4924794792983448,1.000311483647653,0.00018738776740957237
-0.4923106205489603,-0.4923106205489603,1.0002459629542562,0.00018089794642940947
-0.4921860504779033,-0.4921860504779033,0.9999010657024149,0.00018215061191451202
-0.49205266528006175,-0.49205266528006175,1.0000000496053694,0.00020479490790922803
-0.4919674886376015,-0.4919674886376015,0.9998730991506972,0.00018233953515837812
-0.49186489299318054,-0.49186489299318054,0.9996941830500304,0.0001785048813936812
-0.4917187571292743,-0.4917187571292743,1.0001224321889355,0.00020435951900386228
-0.49157441824354464,-0.49157441824354464,0.9998478015576904,0.00018101051295819226
-0.49143246162566356,-0.49143246162566356,0.9998966004179923,0.00018558856698014386
-0.4912778276950121,-0.4912778276950121,0.9998948064833459,0.00018846221866390976
-0.4911060498532606,-0.4911060498532606,1.0001547832892868,0.00018896975805930092
-0.49091663471772334,-0.49091663471772334,0.9999312105123982,0.0001815538861661491
-0.4908091934397817,-0.4908091934397817,0.9999243236294715,0.00017865578336557258
-0.4906537454022327,-0.4906537454022327,0.999869909636832,0.00017851148145549132
-0.49050543264311275,-0.49050543264311275,1.0001700017190305,0.00017914038729088079
-0.49041319330281113,-0.49041319330281113,0.9999929463784734,0.00017888672543085808
-0.4902970126553555,-0.4902970126553555,1.0000838043038365,0.00018824745850227367
-0.49012606133910597,-0.49012606133910597,0.9999130290750307,0.00018606923593458236
-0.4900425568659557,-0.4900425568659557,0.9999380612731832,0.0001824038649269558
-0.4899357575181057,-0.4899357575181057,1.0000067326960052,0.0001917580710713656
-0.4898593282065121,-0.4898593282065121,1.0000853546412993,0.00018762954307150256
-0.4897268228887697,-0.4897268228887697,0.9998698861815181,0.00019689646857651782
-0.48960166920005577,-0.48960166920005577,0.9997498679359698,0.0001818354088831646
-0.4894057396799326,-0.4894057396799326,1.0000208862609312,0.0001854715137219411
-0.4892130215463112,-0.4892130215463112,1.0000343196407233,0.00017876296456464924
-0.4890594557917211,-0.4890594557917211,1.0000023003251812,0.00018996335676102596
-0.48890460158581844,-0.48890460158581844,1.0000315563662565,0.00019081474943782281
-0.4887909839613712,-0.4887909839613712,1.0000220075075557,0.00017619026485706624
-0.4886647779640043,-0.4886647779640043,1.0000621087918906,0.0001871621594641976
-0.48846671263163444,-0.48846671263163444,1.0001207753342203,0.00019180364477726217
-0.4883024812646909,-0.4883024812646909,0.9999440566239695,0.00018915035191470985
-0.48813780896889514,-0.48813780896889514,0.9999649056177542,0.00017763956933091032
-0.48800260699063075,-0.48800260699063075,0.9998604388039635,0.0001951075130457333
-0.4879152484063525,-0.4879152484063525,0.9999327536479404,0.00018750345123529863
-0.4878222111598006,-0.4878222111598006,1.0003826584033757,0.0001966267223496547
-0.4877436871291138,-0.4877436871291138,1.0000878553748906,0.00018166736812019927
-0.4875079184086644,-0.4875079184086644,0.9999685610554778,0.00017567644472195774
-0.4873272851196816,-0.4873272851196816,1.0000703454411977,0.00019804342647755744
-0.4871888905952801,-0.4871888905952801,1.0001298451122522,0.00019521242955019912
-0.48700337555201256,-0.48700337555201256,1.0001017519207511,0.00019084571171743136
-0.48687178116233554,-0.48687178116233554,0.9999620655599883,0.0001915425771579487
-0.4867472868747427,-0.4867472868747427,0.999938057058816,0.00018580624633035352
-0.48661910888768034,-0.48661910888768034,1.0002993787647108,0.00019596672388310165
-0.48648359539656666,-0.48648359539656666,1.0000797052101222,0.0001851502015835916
-0.4863030008942587,-0.4863030008942587,1.00014655919374,0.00019078192532643806
-0.48615957351139516,-0.48615957351139516,1.0000970075813922,0.00017924494941494193
-0.4859629447106272,-0.4859629447106272,1.000061173809406,0.00018816579038269848
-0.4858690583598218,-0.4858690583598218,1.000099694333563,0.00017599327364672252
-0.4857875822664937,-0.4857875822664937,1.0000900423112558,0.0001900155457546955
-0.48564847189700233,-0.48564847189700233,1.0000161671946441,0.00020368238328719924
-0.4854763334107702,-0.4854763334107702,1.0002135389157087,0.00019022589691785333
-0.4853519457115908,-0.4853519457115908,0.9999712211848951,0.00019111256754618513
-0.4852039487828733,-0.4852039487828733,1.0000225601692578,0.00018596298694430633
-0.48511501827451864,-0.48511501827451864,1.0002560640119773,0.00018151793581420197
-0.48500208632904107,-0.48500208632904107,1.0002346933365618,0.0001764529595868239
-0.4848423627525335,-0.4848423627525335,1.0000805856855113,0.00019025485260552207
-0.4847143884180696,-0.4847143884180696,1.0000760793043602,0.0002009724774188068
-0.4845812231695163,-0.4845812231695163,1.000152469955552,0.00018302934285815633
-0.484476588848338,-0.484476588848338,1.000030129554944,0.00020774527988183885
-0.48430220578447913,-0.48430220578447913,0.9999051371164756,0.00019207757876182015
-0.48421882026159435,-0.48421882026159435,1.000218768829456,0.00018171876148199382
-0.48405455468164293,-0.48405455468164293,0.9998070913444721,0.00018175789869854863
-0.4838749265400111,-0.4838749265400111,0.9999492661751181,0.00018543833221098708
-0.48371444031217836,-0.48371444031217836,0.9998165451447456,0.000191370071928055
-0.48353044683171903,-0.48353044683171903,1.0000545520536228,0.00018132954422313085
-0.4834120355299092,-0.4834120355299092,0.9998986674323342,0.0001850140386834839
-0.4832405160355847,-0.4832405160355847,1.0000565233653727,0.00018178055537585862
-0.48307978434168036,-0.48307978434168036,0.9999437439814225,0.00017712350982090804
-0.4829916260481696,-0.4829916260481696,1.0000218110476649,0.00019228023659349482
-0.48277305608353344,-0.48277305608353344,0.9997069312637988,0.00019084778116692608
-0.48272025178885086,-0.48272025178885086,1.000027413270654,0.00018784906625357074
-0.4826327000308083,-0.4826327000308083,0.9998627143284292,0.00019115292549603136
-0.4825013983892859,-0.4825013983892859,0.999794202271478,0.00018700622124729984
-0.4823995271886815,-0.4823995271886815,0.9999671572162878,0.00019091602794885776
-0.48223083652119386,-0.48223083652119386,0.9997896251252506,0.00017331550534110704
-0.48205415156990056,-0.48205415156990056,1.0000061764028385,0.000185464485039106
-0.48185144808812763,-0.48185144808812763,0.9998907960717391,0.00018474079334174874
-0.4817084180205711,-0.4817084180205711,1.0000322025943373,0.00019791545294432978
-0.48155287497647803,-0.48155287497647803,0.9997006953795516,0.0001840912820663483
-0.4814522089174716,-0.4814522089174716,0.9999837005726506,0.00017938090308758283
-0.4813202826786437,-0.4813202826786437,0.9999047760446448,0.0001917194654981219
-0.4811514289278421,-0.4811514289278421,1.0000185958999288,0.00019172305628804823
-0.4809931843148661,-0.4809931843148661,1.0000749931024804,0.0001933996271672921
-0.4807697466254467,-0.4807697466254467,0.9998793958347594,0.000176341501734801
-0.480675866335514,-0.480675866335514,1.0001769448790738,0.00019199844277746706
-0.4805580145199201,-0.4805580145199201,0.9999064331698092,0.00018546879404580114
-0.48050198574055686,-0.48050198574055686,1.0000077382534656,0.0001994483609679486
-0.48043011832778576,-0.48043011832778576,1.0000239942577038,0.00018233594426135595
-0.48030407099431616,-0.48030407099431616,1.0002006834639512,0.00017912851140437186
-0.4801542294968385,-0.4801542294968385,0.999804127146566,0.00017516612802471868
-0.4800375717924908,-0.4800375717924908,0.9998411249525592,0.00018237239119741022
-0.47991057090985123,-0.47991057090985123,0.9999170497675716,0.00019982387081441292
-0.47974268589459823,-0.47974268589459823,1.000093028076988,0.00019559944089533868
-0.47958884946419855,-0.47958884946419855,0.9999911830369337,0.00018844065492356867
-0.47950668566918464,-0.47950668566918464,0.9999853596677906,0.00018230408697722484
-0.47936190134496426,-0.47936190134496426,0.9999496673875201,0.00019393086386837338
-0.47923547292302826,-0.47923547292302826,0.9998237331665811,0.00018549068010130027
-0.479088509354915,-0.479088509354915,0.9999520685804054,0.00018515826570447878
-0.47892928247601957,-0.47892928247601957,1.0004886017593617,0.0001858126797574517
-0.47870926104078537,-0.47870926104078537,1.0003743834873362,0.00018839079742298258
-0.478581910279172,-0.478581910279172,0.9998724267862672,0.00018305303923602727
-0.4784779703884851,-0.4784779703884851,1.0001794743843047,0.0001891539268798675
-0.4783113050463726,-0.4783113050463726,0.999735299475177,0.0001895270495834808
-0.47815483695594596,-0.47815483695594596,1.0002194546021348,0.0001990619867451754
-0.4780751287820749,-0.4780751287820749,1.0002081518356427,0.00018801893867537108
-0.4780020075457287,-0.4780020075457287,1.000026517873544,0.0001845776686078865
-0.4777941025313339,-0.4777941025313339,1.000258204923672,0.00018083947156691656
-0.4777016702457331,-0.4777016702457331,0.9998725719009016,0.00018105515077357896
-0.47755663380521585,-0.47755663380521585,1.0000603857094257,0.00019006636036499681
-0.4774332938119187,-0.4774332938119187,0.9999321837497934,0.00019499175546646848
-0.4772639988863375,-0.4772639988863375,1.000105511094104,0.00018519492942481138
-0.477168191227247,-0.477168191227247,1.0000478870297331,0.00021375333494529853
-0.47698628772050145,-0.47698628772050145,1.0000450299852295,0.00018275276696620057
-0.4768795209674863,-0.4768795209674863,1.0002239263011918,0.00018522520390850102
-0.4767908068664838,-0.4767908068664838,1.0000616816721601,0.00018321222465567257
-0.47661030391609527,-0.47661030391609527,0.9999520320764862,0.00018677254326387855
-0.47648625776200787,-0.47648625776200787,0.9999651221341395,0.0001926196026086669
-0.4762733551746351,-0.4762733551746351,1.0001978502504296,0.00019061509769213334
-0.47600176533742344,-0.47600176533742344,0.9998233707571185,0.00018402306917246998
-0.4758037256615353,-0.4758037256615353,0.9999946063770574,0.00018304415078513806
-0.4756942826177692,-0.4756942826177692,0.9999195365224305,0.00018889216068309798
-0.47549953331326833,-0.47549953331326833,0.9998851538901861,0.00018063948982936697
-0.47538206005847317,-0.47538206005847317,0.9999415971030914,0.0001824613637610607
-0.4753410302189877,-0.4753410302189877,0.9999007946624255,0.00020206460610580732
-0.4752241806461825,-0.4752241806461825,0.9997682297404161,0.00018356387621199795
-0.4750997208611807,-0.4750997208611807,1.000248477920244,0.00019116460734995404
-0.4748808639124036,-0.4748808639124036,1.0003907438835686,0.00017995970079074983
-0.4746582222229335,-0.4746582222229335,0.9999254802962092,0.0001873318568079364
-0.4744408770275186,-0.4744408770275186,1.0000800769010199,0.00019635667926750814
-0.47426796442014163,-0.47426796442014163,0.9998619829024697,0.00018512908424279261
-0.4741698625060963,-0.4741698625060963,1.0000086085324362,0.00017634203213645288
-0.47407143297896254,-0.47407143297896254,0.9998452540860632,0.00019523535275172034
-0.4739757550196373,-0.4739757550196373,0.9999396116634838,0.00018035730665493687
-0.4738260384867317,-0.4738260384867317,0.999822808969849,0.00019878336040386426
-0.4737518473455566,-0.4737518473455566,0.9998621066074372,0.0001934747928047138
-0.47355198944278526,-0.47355198944278526,0.9998486927232128,0.00018424401794628958
-0.47339207919576437,-0.47339207919576437,0.9999530914893444,0.00019006542660988192
-0.47329986825498055,-0.47329986825498055,1.0002414429007112,0.00018043870474865437
-0.47322274594043845,-0.47322274594043845,1.0000025118151732,0.0002246777271478666
-0.4730889059195761,-0.4730889059195761,1.0000448417954073,0.00018754318692835965
-0.47301132203283486,-0.47301132203283486,0.9997171257967624,0.00018059064422195958
-0.4728492079913849,-0.4728492079913849,1.0001865960498868,0.00017440004876915043
-0.47263061501289483,-0.47263061501289483,0.9999037493683207,0.00019740506105664826
-0.4724488107240177,-0.4724488107240177,1.0000588675270734,0.00018990466666009097
-0.47233579135936454,-0.47233579135936454,0.9999867591195152,0.00019031647358204733
-0.4721931573745678,-0.4721931573745678,0.9999436156847242,0.00018181968667241308
-0.47204750528617295,-0.47204750528617295,0.9999654555398736,0.00019651921650490475
-0.47190851505583853,-0.47190851505583853,1.0003679913326997,0.00018496342540644082
-0.4717394247156335,-0.4717394247156335,1.0000913962739841,0.00018479840372452784
-0.47158973198675086,-0.47158973198675086,1.0001498428845716,0.00019571936457155108
-0.4714549609954702,-0.4714549609954702,1.0000599807302186,0.00017534795315230327
-0.4712954966889811,-0.4712954966889811,0.9999305996161766,0.00018133982803503234
-0.47118663820292567,-0.47118663820292567,0.9997882473515425,0.00019664434686296502
-0.4710276652636821,-0.4710276652636821,1.0000495084549879,0.00019041432091773165
-0.4708194806618849,-0.4708194806618849,0.9999282074631237,0.00020058403704096493
-0.4707257600661251,-0.4707257600661251,0.999899218131515,0.00018327393910257057
-0.4705921485525323,-0.4705921485525323,1.0001072555303776,0.0001877277472504585
-0.4703889481010265,-0.4703889481010265,1.0000983544070372,0.00017810155690329036
-0.4702858265955001,-0.4702858265955001,1.000355849179242,0.00018929422643249434
-0.4701465635938803,-0.4701465635938803,0.9999008106536029,0.00019074442096221828
-0.4699952201903216,-0.4699952201903216,0.9997520255042959,0.00022427987667606903
-0.46985710602457403,-0.46985710602457403,1.0000803686720274,0.0001846236533053686
-0.46968732251552864,-0.46968732251552864,1.0001612830620852,0.00018329017041116892
-0.46956496235361556,-0.46956496235361556,0.9998579443864374,0.00018542155243486642
-0.4693970364824054,-0.4693970364824054,1.0000430938600346,0.00019270043669454643
-0.4692451939699822,-0.4692451939699822,1.0002592674829511,0.00018658486961057967
-0.46907942915422607,-0.46907942915422607,0.9997118773292195,0.00019392635185907923
-0.468878833821509,-0.468878833821509,0.9997123723418481,0.00018866681610554486
-0.46864314574195304,-0.46864314574195304,0.9998618313321144,0.00018167140030412562
-0.4684723344616941,-0.4684723344616941,0.9999101602047352,0.0001948461685755579
-0.46836509120621483,-0.46836509120621483,0.9999658970976123,0.00017709418161424348
-0.46822980960714633,-0.46822980960714633,0.9998609481932477,0.00018074225836129082
-0.4680988207095652,-0.4680988207095652,1.0002180757856116,0.00019339597742628874
-0.46801434822555166,-0.46801434822555166,0.9999755470207624,0.0001854851913280862
-0.4679526661609998,-0.4679526661609998,0.9996038741842247,0.00018980680121683693
-0.46785059456015005,-0.46785059456015005,0.9999902170531116,0.00018726361392444943
-0.46772495222685395,-0.46772495222685395,1.00046274732352,0.00018796305618198412
-0.46759645456040744,-0.46759645456040744,1.0000950864199136,0.00019194648734079258
-0.4674432380372309,-0.4674432380372309,1.0001829416693755,0.00017571591563686893
-0.4673023483264842,-0.4673023483264842,0.9999847642255417,0.00018451249329382298
-0.4670754040504107,-0.4670754040504107,0.9999869098660776,0.00019968063638575582
-0.4669208760271431,-0.4669208760271431,1.000063501029686,0.00018509444945050742
-0.46679596595786277,-0.46679596595786277,0.9999820724646545,0.00019013662178385274
-0.46667056523583594,-0.46667056523583594,0.9997142735014242,0.00018627383196168583
-0.46655067834217334,-0.46655067834217334,1.000332700316711,0.000174541004692839
-0.46643320915318326,-0.46643320915318326,1.0001536570446705,0.00019619565980854553
-0.4662323218915844,-0.4662323218915844,1.0002977203062184,0.0001891846300145057
