time,time,flux,flux_err
-0.49995900811579,-0.49995900811579,1.000014337074003,7.93008541967068e-05
-0.49984982015157586,-0.49984982015157586,0.9999180233627019,7.271064957459831e-05
-0.4997406975599006,-0.4997406975599006,0.9999984853168915,7.402884576361212e-05
-0.4996503199719882,-0.4996503199719882,0.9999748800698661,7.087570040991178e-05
-0.4995313769846689,-0.4995313769846689,0.9999453227325551,7.433794424357458e-05
-0.49945963271165966,-0.49945963271165966,1.0001881541926105,7.153241549840054e-05
-0.4993571294537105,-0.4993571294537105,1.0000184759420527,7.447522638677882e-05
-0.49925201748046677,-0.49925201748046677,1.000083938717501,7.082898115405327e-05
-0.4991830046099494,-0.4991830046099494,0.9998479587663706,7.16706278156901e-05
-0.49910653376282427,-0.49910653376282427,1.0000375412270617,7.091489053615253e-05
-0.4989465936901979,-0.4989465936901979,0.9999549280697106,7.644165156059008e-05
-0.4987525575190375,-0.4987525575190375,0.9999970918168849,7.060448019889138e-05
-0.4985597862461873,-0.4985597862461873,1.0000372420196673,7.555974153488436e-05
-0.49837459565751485,-0.49837459565751485,0.9999279720676973,7.195655176370005e-05
-0.498230378653534,-0.498230378653534,0.9999987748941311,7.164364555301418e-05
-0.4981344934014487,-0.4981344934014487,0.9999034911254533,7.138662247283719e-05
-0.4979968764600926,-0.4979968764600926,1.0000961297260396,7.108389590418653e-05
-0.4978714814475097,-0.4978714814475097,1.0000115213827259,7.109096862014064e-05
-0.49776696986882596,-0.49776696986882596,0.9999290836790731,7.448775252586066e-05
-0.49767376372037686,-0.49767376372037686,1.000024074536442,7.135439479636328e-05
-0.49763656851791893,-0.49763656851791893,0.9999122028942402,7.136575064456676e-05
-0.49755257626165983,-0.49755257626165983,1.0000256335561646,7.409187802058943e-05
-0.49739745976912675,-0.49739745976912675,0.9999655066033544,7.175310991635396e-05
-0.4972949386610708,-0.4972949386610708,1.0000171069125519,7.497241913771266e-05
-0.49713997830695006,-0.49713997830695006,1.0000048292791577,7.148105971175965e-05
-0.4970373337411729,-0.4970373337411729,1.0000675728969342,7.180387726967681e-05
-0.4969059481336444,-0.4969059481336444,1.0000556327469545,7.444561803680885e-05
-0.49674956577000556,-0.49674956577000556,0.9999194049796275,7.159637688701548e-05
-0.4965811702088104,-0.4965811702088104,1.0001746721319833,7.321044639104862e-05
-0.4964153025553969,-0.4964153025553969,0.9999317197597637,7.124891825976467e-05
-0.4962291487136099,-0.4962291487136099,1.0001012429939011,7.142222317271575e-05
-0.49609450434727476,-0.49609450434727476,1.0001764382862774,7.100935203412666e-05
-0.49604121092925196,-0.49604121092925196,0.9999313505952043,7.095437543629423e-05
-0.49596943277865646,-0.49596943277865646,1.0000868595252936,7.063797754673721e-05
-0.4958883768078522,-0.4958883768078522,0.9999683973863916,7.133886666914365e-05
-0.4957887323238538,-0.4957887323238538,0.9999480088043459,7.452874184642522e-05
-0.4957311622216366,-0.4957311622216366,1.0000016202355646,7.097924087824676e-05
-0.4955722020524263,-0.4955722020524263,0.9999678191463375,7.151235190046049e-05
-0.49542870395089267,-0.49542870395089267,0.9998322610117214,7.639400653198844e-05
-0.4953454942704411,-0.4953454942704411,0.9998987596167812,7.377156984563804e-05
-0.4951805653196061,-0.4951805653196061,1.0000865258901166,6.93743088806594e-05
-0.4950599293595587,-0.4950599293595587,1.0000554315558534,7.130770076523825e-05
-0.4949812524508161,-0.4949812524508161,0.9999584733080173,7.612416979039017e-05
-0.49488138896995226,-0.49488138896995226,0.9999710763326215,7.083656873175776e-05
-0.4947598386388563,-0.4947598386388563,0.9999473740288037,7.375829538225515e-05
-0.4945924564053712,-0.4945924564053712,0.9999792587681563,7.165610652631912e-05
-0.4945016012163251,-0.4945016012163251,1.0000093050250016,7.127821404744064e-05
-0.49433958632798747,-0.49433958632798747,1.0000763934419334,7.100733022296797e-05
-0.4942002588417381,-0.4942002588417381,0.999956276920912,7.080172092845581e-05
-0.4941119574577897,-0.4941119574577897,1.000005281282368,7.05582668685299e-05
-0.49404156355230955,-0.49404156355230955,1.0000154647893837,7.092185692217647e-05
-0.49398569414479426,-0.49398569414479426,1.0000286186878922,7.136565499540201e-05
-0.4938814182380156,-0.4938814182380156,0.9999388097732309,7.296648747257665e-05
-0.49377288452888024,-0.49377288452888024,1.0000569824137184,7.096024598053166e-05
-0.4935879723423568,-0.4935879723423568,0.99995402169393,7.156329294530538e-05
-0.493465522556653,-0.493465522556653,1.000021779330165,7.343149479297848e-05
-0.4933741851404193,-0.4933741851404193,1.0000398366036407,7.133624443028498e-05
-0.4932526889431756,-0.4932526889431756,0.9999475885517345,7.041698619683253e-05
-0.4931109254794137,-0.4931109254794137,0.9999924316517455,7.360065670293296e-05
-0.49300468614092097,-0.49300468614092097,1.0000873651523718,7.040470607714425e-05
-0.49287192027186394,-0.49287192027186394,1.0000482455399693,7.140904576023862e-05
-0.4927192085975548,-0.4927192085975548,1.0000115475024791,6.96640964646596e-05
-0.4926352515576582,-0.4926352515576582,0.9999953382029837,7.044796539974029e-05
-0.4924139370850753,-0.4924139370850753,1.0000297276705363,7.197096892526869e-05
-0.4923231495115033,-0.4923231495115033,1.000001409108333,7.203491260917185e-05
-0.4922185681440169,-0.4922185681440169,0.9998834894195415,7.073745553145062e-05
-0.49209137707657646,-0.49209137707657646,0.9999979997744584,7.11213907062993e-05
-0.4919340465472487,-0.4919340465472487,0.9999263594119266,7.610199492547805e-05
-0.4918350466410629,-0.4918350466410629,0.9999634677550177,7.357489440731345e-05
-0.4916809051312157,-0.4916809051312157,1.0000284595206737,7.12928692619682e-05
-0.491541920772579,-0.491541920772579,0.9999710333192265,7.076903333792427e-05
-0.4914442357410735,-0.4914442357410735,0.999967816345911,7.005106146296429e-05
-0.49135413678959594,-0.49135413678959594,0.9999536231699475,7.077062689965013e-05
-0.49120988209178906,-0.49120988209178906,1.0000882931922592,7.358115505670143e-05
-0.4911508613018668,-0.4911508613018668,1.0000533687017037,7.154958851562275e-05
-0.4910214129318774,-0.4910214129318774,1.0000367782000643,7.117732915540326e-05
-0.4908537690331286,-0.4908537690331286,0.9999659228679875,7.062590342546047e-05
-0.4907467063560034,-0.4907467063560034,1.0000816574393547,6.992213812494071e-05
-0.49051560552907175,-0.49051560552907175,1.0000563199920036,7.191826765336843e-05
-0.49029083435088977,-0.49029083435088977,1.0000398971827527,7.028631279190789e-05
-0.49015664800535885,-0.49015664800535885,0.99994933368846,7.346851884436346e-05
-0.49011219898384295,-0.49011219898384295,0.9999470077023279,7.353351202678051e-05
-0.49002093522140056,-0.49002093522140056,1.0000999059770628,7.323687399793926e-05
-0.48994403212200266,-0.48994403212200266,1.0000497742231236,7.341339079024078e-05
-0.48980696065700613,-0.48980696065700613,0.9999455347047498,7.515775498690246e-05
-0.48967778304649984,-0.48967778304649984,0.9999898030476372,7.122128092175222e-05
-0.489556894927955,-0.489556894927955,1.0000372671714595,6.960879880172248e-05
-0.4894228275050409,-0.4894228275050409,1.0000317500395717,7.175634138803817e-05
-0.4892519148415886,-0.4892519148415886,0.9999796881183315,7.081216141483321e-05
-0.48909286464404433,-0.48909286464404433,1.0001124451885708,7.11030313401807e-05
-0.4889024407384568,-0.4889024407384568,1.0000662618155491,7.034085429824912e-05
-0.4887979124956473,-0.4887979124956473,1.000010910950856,7.201706834414718e-05
-0.4885799102288729,-0.4885799102288729,0.9999886168062846,7.046085288579815e-05
-0.4884566272143275,-0.4884566272143275,1.0000038828972377,7.126706775262691e-05
-0.4883387036090426,-0.4883387036090426,0.9999890313575694,7.130890524214278e-05
-0.4882124158779334,-0.4882124158779334,0.999894262273483,7.322485273142585e-05
-0.4881353016178764,-0.4881353016178764,0.9999770187834371,7.360912735676303e-05
-0.48802883800817654,-0.48802883800817654,0.9999503164807301,7.393046923175097e-05
-0.48789509026973976,-0.48789509026973976,1.0000090576338398,7.072218063394508e-05
-0.48778328662301645,-0.48778328662301645,0.9998824123227822,7.090674437468438e-05
-0.4876713310521154,-0.4876713310521154,1.0000230001316683,7.063011085275324e-05
-0.4875461218121927,-0.4875461218121927,0.9999484277681161,7.093616068180079e-05
-0.48742892297232177,-0.48742892297232177,0.9998896262972272,7.082129092791375e-05
-0.4873473658990406,-0.4873473658990406,0.9999747707512935,7.071199837387846e-05
-0.48724658601204285,-0.48724658601204285,1.0000428440476012,7.055399242053098e-05
-0.4871150906568801,-0.4871150906568801,1.0000728209001124,7.307932100591497e-05
-0.48701723401172786,-0.48701723401172786,1.0001487978641235,7.06462327577855e-05
-0.48681863179590434,-0.48681863179590434,1.0002305361182855,7.17189839751882e-05
-0.48673048833879873,-0.48673048833879873,0.9999650791188813,7.222802936050943e-05
-0.48665993635731863,-0.48665993635731863,0.9999920198441631,7.405745786033368e-05
-0.4865655578199949,-0.4865655578199949,1.000021683280939,7.075939432906237e-05
-0.4864822405943414,-0.4864822405943414,1.0000236684593045,7.030842811697509e-05
-0.4863456471292011,-0.4863456471292011,1.0000388003169198,7.02550488880029e-05
-0.48624854771478565,-0.48624854771478565,1.0000518033186332,7.554970827181237e-05
-0.48615055665068213,-0.48615055665068213,0.9999423117426349,7.05362042502178e-05
-0.4860556821135106,-0.4860556821135106,1.0001440519094213,7.088318047367884e-05
-0.4859194415221282,-0.4859194415221282,1.0001229137332612,7.139897663296368e-05
-0.48574111068446657,-0.48574111068446657,0.9999986867927401,7.224334208367754e-05
-0.48564272477378834,-0.48564272477378834,1.0000414484353384,7.028360407471151e-05
-0.4855552651140897,-0.4855552651140897,0.9999318071494037,7.441440413504949e-05
-0.4854964457997994,-0.4854964457997994,0.9999544234449687,6.976352542131829e-05
-0.48541204962602935,-0.48541204962602935,0.9999865998289345,7.367104452799321e-05
-0.4853040915011661,-0.4853040915011661,0.9999333870619604,7.10185763084065e-05
-0.48510435882853925,-0.48510435882853925,1.0000847916636189,7.38482513575562e-05
-0.48498579260049157,-0.48498579260049157,1.0000328364618891,7.42361396630981e-05
-0.4848965331839281,-0.4848965331839281,1.0000507151010487,7.24021179545137e-05
-0.4848059231582738,-0.4848059231582738,0.9999665859064679,7.0237816727318e-05
-0.4847027411640738,-0.4847027411640738,0.9999599335854766,7.120630774134523e-05
-0.48465046971978154,-0.48465046971978154,1.0000155780684035,7.20113601608289e-05
-0.4844778713762935,-0.4844778713762935,1.0000587157738496,7.05061895884553e-05
-0.48434051052172433,-0.48434051052172433,0.9999430579125212,7.256714912378744e-05
-0.48427329941696373,-0.48427329941696373,1.00002733490208,7.34230940587735e-05
-0.48414488503185565,-0.48414488503185565,1.0000473102902023,7.100100280195816e-05
-0.4838674357633863,-0.4838674357633863,0.9999997111321249,7.139075971960497e-05
-0.48374762341336464,-0.48374762341336464,0.9999689372667715,7.366546031198759e-05
-0.4836716157391493,-0.4836716157391493,0.9999862833738176,7.107569184910115e-05
-0.48357314795212003,-0.48357314795212003,1.000002806576344,7.370848170238232e-05
-0.4834525196434697,-0.4834525196434697,0.9999407053025031,7.365643762340087e-05
-0.4833218100873637,-0.4833218100873637,0.9999173186727839,7.154724731303198e-05
-0.4832473793059762,-0.4832473793059762,1.0000588180711194,7.193010351772244e-05
-0.48315004650721677,-0.48315004650721677,1.0000923041194256,7.380184780366383e-05
-0.4830781879449205,-0.4830781879449205,0.9999735947211006,7.040541470969309e-05
-0.48299551379677724,-0.48299551379677724,1.0000524395649255,7.098587212028945e-05
-0.4829266984081187,-0.4829266984081187,1.0000537208776297,7.19118768630223e-05
-0.48284267464478037,-0.48284267464478037,1.0000169377624686,7.105121979640813e-05
-0.48267876245445224,-0.48267876245445224,1.0000681575694257,7.529511261224274e-05
-0.4825449459196534,-0.4825449459196534,1.000027951867374,7.101404821415055e-05
-0.4823851190965797,-0.4823851190965797,0.9999376262470149,7.517359711531117e-05
-0.48223528597591214,-0.48223528597591214,0.9998518980683151,7.248249766539409e-05
-0.4819709935087303,-0.4819709935087303,1.0000415558447482,7.886666460510492e-05
-0.4818709825791302,-0.4818709825791302,0.9999381698735389,6.990461756463127e-05
-0.4817303139112482,-0.4817303139112482,1.0000092556732165,7.165224279812703e-05
-0.48159532483768996,-0.48159532483768996,0.9999049882168268,7.412058317421755e-05
-0.4814930435633869,-0.4814930435633869,1.000059837996743,7.197299645074874e-05
-0.4814107171543583,-0.4814107171543583,1.0001303850810068,7.18027991494908e-05
-0.48127590102667456,-0.48127590102667456,1.0000642354835958,7.168267476316881e-05
-0.4811913605008158,-0.4811913605008158,1.0000734482303906,7.343488385849498e-05
-0.4811126754320867,-0.4811126754320867,0.9999180600316595,7.117439018703834e-05
-0.4809774503366498,-0.4809774503366498,1.0000024824703497,7.172714872538007e-05
-0.4808662834795541,-0.4808662834795541,1.0000377610951232,7.365127425048025e-05
-0.48076253359831755,-0.48076253359831755,0.9999140360945278,7.140449945342496e-05
-0.4805975602939725,-0.4805975602939725,1.0001173566307755,7.037002225017449e-05
-0.4804874562389159,-0.4804874562389159,0.9999713289521104,7.562831728203379e-05
-0.4802980856184149,-0.4802980856184149,1.0000036398441174,7.200513750572519e-05
-0.480133783868223,-0.480133783868223,1.0001021936947858,7.209056605978038e-05
-0.479971709203528,-0.479971709203528,1.0000107351421013,7.17506765684219e-05
-0.4798718426922278,-0.4798718426922278,1.0001513554238295,7.061820296817498e-05
-0.47980730295093965,-0.47980730295093965,1.0001339133414835,7.184233132091601e-05
-0.4796989908798423,-0.4796989908798423,1.0001148504020534,7.357303613736402e-05
-0.47960855609271674,-0.47960855609271674,1.0000737945668354,7.17215803464816e-05
-0.4795420216090861,-0.4795420216090861,1.0000361550911787,7.165269278748509e-05
-0.4794587450749532,-0.4794587450749532,0.9998700737695374,6.979237918414903e-05
-0.4793169922173547,-0.4793169922173547,1.0000042897044397,7.212508344314373e-05
-0.47920149011697505,-0.47920149011697505,0.9999652172154333,7.411782667773753e-05
-0.4790395194417215,-0.4790395194417215,0.9999846131082781,7.01023391879974e-05
-0.47891599416761893,-0.47891599416761893,1.000071710509563,7.129645923660307e-05
-0.4787979927590641,-0.4787979927590641,1.0000775066371501,7.596098323910047e-05
-0.4786964376253309,-0.4786964376253309,0.9999675271231979,7.361727212639716e-05
-0.4786138988471066,-0.4786138988471066,1.0001122287242437,7.228610310252491e-05
-0.47846811659110244,-0.47846811659110244,0.9999692887568361,7.115091762744438e-05
-0.4782943790138233,-0.4782943790138233,1.0000775150712635,7.152387697103796e-05
-0.47815574180640397,-0.47815574180640397,1.0000541897463737,7.106479694924588e-05
-0.4780348819207575,-0.4780348819207575,1.0000788387691606,7.094763080939762e-05
-0.4779726894288615,-0.4779726894288615,1.0000142479624174,7.099179551369201e-05
-0.47791167915347615,-0.47791167915347615,0.9999235440764327,7.061958820606882e-05
-0.4778440657122701,-0.4778440657122701,1.0000047802056014,7.089997997261292e-05
-0.4777590484743996,-0.4777590484743996,1.0000210929117908,7.359164368723393e-05
-0.47767346818509393,-0.47767346818509393,1.000042298194935,7.030367512455601e-05
-0.4774983399482153,-0.4774983399482153,0.9999657622631769,7.114914225004674e-05
-0.47733824079623444,-0.47733824079623444,1.0000952621855608,7.187008046132715e-05
-0.4772663738098345,-0.4772663738098345,0.9999816171932494,7.360094178117875e-05
-0.47717323510878484,-0.47717323510878484,1.0000143506332104,7.116602169586165e-05
-0.47704757880128457,-0.47704757880128457,1.0001699037924336,6.983020330381873e-05
-0.4769788847195741,-0.4769788847195741,0.9999402231797545,7.181228803869149e-05
-0.47690974278812065,-0.47690974278812065,1.0000714598550398,7.572018531713172e-05
-0.47678275080979804,-0.47678275080979804,1.00004465066897,7.022608753647197e-05
-0.476722803471057,-0.476722803471057,1.0001188215194836,7.113013461271139e-05
-0.47657079448981676,-0.47657079448981676,0.9998884383847197,7.083685866089706e-05
-0.47649015098431846,-0.47649015098431846,1.0001270834473384,7.05839361657853e-05
-0.47642374195493176,-0.47642374195493176,1.0000183494224735,6.992685258744374e-05
-0.4762851938779932,-0.4762851938779932,1.000067640242458,7.106072294694951e-05
-0.47616199168624007,-0.47616199168624007,0.9999595444766326,6.97595582976082e-05
-0.4760630278404278,-0.4760630278404278,1.0000440635589674,7.143124842192553e-05
-0.47596493087112324,-0.47596493087112324,0.999976101940371,7.107223832226656e-05
-0.47582495763927,-0.47582495763927,1.0000871544278354,7.323651412222384e-05
-0.4757346053374931,-0.4757346053374931,1.0000078109100958,7.333768814939423e-05
-0.4756428060951293,-0.4756428060951293,1.0000538106390178,7.24637222768313e-05
-0.4754892435092188,-0.4754892435092188,1.000005220155974,7.156009537120708e-05
-0.47535534578419175,-0.47535534578419175,1.0001742392088482,7.025500805790463e-05
-0.47525367153284603,-0.47525367153284603,1.0000350789199515,7.041739868906954e-05
-0.47514515895600196,-0.47514515895600196,0.9999919078548626,7.010522060760501e-05
-0.4750535879014933,-0.4750535879014933,0.9999849082347285,7.52946711166982e-05
-0.4749930302379653,-0.4749930302379653,1.0000163128130894,7.263818554219554e-05
-0.47487189991079504,-0.47487189991079504,1.000161870093864,7.156008420328834e-05
-0.4747221933226683,-0.4747221933226683,0.9999397668835813,6.965772815249589e-05
-0.47462271608019363,-0.47462271608019363,1.000065818876235,7.033884114266486e-05
-0.47445942138001557,-0.47445942138001557,0.9999793497544163,7.048676193443555e-05
-0.4743190264554869,-0.4743190264554869,0.9999660908405552,7.188702371203716e-05
-0.4741811995038006,-0.4741811995038006,1.000031469124148,7.076866167355899e-05
-0.47407872303228943,-0.47407872303228943,1.0000501786144982,7.123220845119714e-05
-0.4739872104037204,-0.4739872104037204,1.0000893788539287,8.19760718291331e-05
-0.47391068410142906,-0.47391068410142906,0.9999909248379714,7.42010010754263e-05
-0.47382467858842575,-0.47382467858842575,1.0000158123656804,7.615117694012329e-05
-0.4737275261199102,-0.4737275261199102,0.999961468903854,7.04298249132269e-05
-0.4736330982785148,-0.4736330982785148,0.9999294350821885,7.076791697371862e-05
-0.47348851199494674,-0.47348851199494674,1.0000858337954948,7.035018476802516e-05
-0.4733678663513274,-0.4733678663513274,1.0000940411610033,7.038046737368897e-05
-0.4732816881143663,-0.4732816881143663,1.0000290821387636,6.961720431061918e-05
-0.47314745530311486,-0.47314745530311486,0.9999980901921935,7.075194038637698e-05
-0.47306522687431424,-0.47306522687431424,1.000061642034514,7.213855171453283e-05
-0.47289705369912555,-0.47289705369912555,1.0000852248733754,7.015362846211563e-05
-0.4727978577051545,-0.4727978577051545,1.0000904282631968,6.970938367055856e-05
-0.4727053322865686,-0.4727053322865686,0.9999870547116639,7.533189783900411e-05
-0.4724617736894288,-0.4724617736894288,0.9999446811706818,7.144463053021523e-05
-0.47228173234689164,-0.47228173234689164,1.0000602941765562,7.096892830640581e-05
-0.4721896552204271,-0.4721896552204271,1.0000395931250181,7.116697861035066e-05
-0.47207319616281895,-0.47207319616281895,1.0000853819226312,7.282770904909109e-05
-0.47198817470125504,-0.47198817470125504,0.9999822826540647,7.332375563421869e-05
-0.4718825355943409,-0.4718825355943409,0.9999522017460544,7.355777023263692e-05
-0.4717306883801939,-0.4717306883801939,1.0000132463882727,7.124272483049363e-05
-0.4716263376612915,-0.4716263376612915,1.0000258309979861,7.092214079292103e-05
-0.47147605359568845,-0.47147605359568845,1.00007731181158,6.97308748212037e-05
-0.47134254029151634,-0.47134254029151634,0.9999942326560181,7.140412120296435e-05
-0.4712136423615448,-0.4712136423615448,0.9999954269340513,6.999939175470855e-05
-0.471097438805009,-0.471097438805009,1.0000935073408725,7.117734021421998e-05
