time,time,flux,flux_err
-0.49994489006530785,-0.49994489006530785,1.0000603902707799,5.570084528560488e-05
-0.4998414598727929,-0.4998414598727929,1.000043863875333,5.592970851349757e-05
-0.49969082193274517,-0.49969082193274517,1.0000040901937608,5.6289113440145084e-05
-0.4993988273701689,-0.4993988273701689,0.999977248010899,5.171178805068271e-05
-0.4990072985601728,-0.4990072985601728,1.0000096614333527,5.093134339594172e-05
-0.4988765441295982,-0.4988765441295982,1.0000331497857635,5.21283852986182e-05
-0.4987732962537848,-0.4987732962537848,0.9999165493864455,5.146321951434808e-05
-0.4986864086968126,-0.4986864086968126,0.9999805543007284,5.0996024276839766e-05
-0.49854151231338617,-0.49854151231338617,1.0000585892808902,5.177658771442062e-05
-0.49838522183999884,-0.49838522183999884,1.000102816183959,5.093400284269174e-05
-0.4983159722927667,-0.4983159722927667,1.0001220906014086,5.128010379925906e-05
-0.4981850474978273,-0.4981850474978273,1.0000046934799325,5.09190676814596e-05
-0.49803527466356173,-0.49803527466356173,1.0000024657864475,5.084853046461071e-05
-0.4978717752499506,-0.4978717752499506,1.0000415994008438,5.126210022303432e-05
-0.4976650102827989,-0.4976650102827989,0.9999132860735289,5.160774482765076e-05
-0.4973965842786129,-0.4973965842786129,0.999925406723316,5.1259046969179365e-05
-0.49723457370128016,-0.49723457370128016,1.0000155189832427,5.115695647693721e-05
-0.4971293016147683,-0.4971293016147683,0.9999879371924383,5.173223399837429e-05
-0.4970175849295629,-0.4970175849295629,1.0000058238779883,5.143938967223945e-05
-0.49686988759131057,-0.49686988759131057,1.00008515505024,5.1815267623618976e-05
-0.4967034872461227,-0.4967034872461227,0.9999484355251553,5.1224170890820466e-05
-0.4965957077234634,-0.4965957077234634,0.999879923044347,5.0886729866450325e-05
-0.49651750580014775,-0.49651750580014775,0.9998890760661366,5.130886852601724e-05
-0.4964275903563248,-0.4964275903563248,1.0001306633072664,5.127998127172191e-05
-0.4963095506871468,-0.4963095506871468,1.0000198070510657,5.0552094928840274e-05
-0.4961736491859483,-0.4961736491859483,0.9999163211725601,5.16118180174699e-05
-0.4960833628065302,-0.4960833628065302,0.9999454828455713,5.110842867444726e-05
-0.49587465144577436,-0.49587465144577436,1.0000580314294065,5.1201236002913765e-05
-0.49568726134602914,-0.49568726134602914,1.0000619961882802,5.158676917349284e-05
-0.4955714399860881,-0.4955714399860881,1.0000459572908345,5.111245029258444e-05
-0.4954594040616939,-0.4954594040616939,0.9999998327040988,5.0688546066290635e-05
-0.4953737246876699,-0.4953737246876699,1.0000554916672129,5.1270927612828816e-05
-0.4952623039680475,-0.4952623039680475,1.0000796753637657,5.106177671101144e-05
-0.49512305634852966,-0.49512305634852966,0.9999895456121237,5.1321141649317213e-05
-0.49498665531355074,-0.49498665531355074,0.9999416213700194,5.1754693535155926e-05
-0.4948890922314604,-0.4948890922314604,0.9999423937853678,5.114818844599399e-05
-0.4947964006554685,-0.4947964006554685,0.9999140299869872,5.1526971354357294e-05
-0.49460676717935714,-0.49460676717935714,0.9999750539813688,5.081484794712312e-05
-0.4944832641755056,-0.4944832641755056,1.000022135724775,5.037254405425968e-05
-0.49435902690529476,-0.49435902690529476,1.0000670778211629,5.11569283560082e-05
-0.49414822416583776,-0.49414822416583776,1.0000324525622992,5.1401498029309725e-05
-0.4939930879045278,-0.4939930879045278,0.9999803138555861,5.0695831969816283e-05
-0.4938639510786743,-0.4938639510786743,1.0000475629264458,5.075937454823823e-05
-0.4936928613751661,-0.4936928613751661,1.0000461333613486,5.125242533228907e-05
-0.4935541453312908,-0.4935541453312908,1.0000003416579317,5.1247264009271305e-05
-0.4934099954625708,-0.4934099954625708,0.9999610107211254,5.0920266722823746e-05
-0.49331900391771344,-0.49331900391771344,0.9999853538423821,5.1034172642211616e-05
-0.4932215270353481,-0.4932215270353481,0.9998811247206675,5.185631958549797e-05
-0.49310195696598386,-0.49310195696598386,1.0001043084461938,5.09630299064793e-05
-0.49299335583200443,-0.49299335583200443,1.000108417882783,5.0668372269365e-05
-0.49291540048070603,-0.49291540048070603,0.9999214942907744,5.1028104696329365e-05
-0.49273226887598864,-0.49273226887598864,1.0000711188666283,5.271990172478632e-05
-0.49258025136368816,-0.49258025136368816,1.000062998074044,5.112962080374308e-05
-0.49241493467707187,-0.49241493467707187,1.0001058471848743,5.058289937869896e-05
-0.49211381716668257,-0.49211381716668257,0.9999838690630727,5.118250513745641e-05
-0.49193370671346204,-0.49193370671346204,1.0000746293848939,5.1131513527858375e-05
-0.49175700106716247,-0.49175700106716247,1.000091908466114,5.0883792880673125e-05
-0.4916804233769653,-0.4916804233769653,1.0000760462402996,5.1088418018499504e-05
-0.49161629358350184,-0.49161629358350184,1.0000201058546063,5.171358925173833e-05
-0.49150090472830926,-0.49150090472830926,1.0000423234661024,5.1343831623791796e-05
-0.491378721295041,-0.491378721295041,1.0000222393549691,5.138710656693922e-05
-0.49126061454226144,-0.49126061454226144,1.0000498931763362,5.0631367015034626e-05
-0.4911939090678061,-0.4911939090678061,1.0000953864869984,5.143250665278872e-05
-0.4911288922376116,-0.4911288922376116,0.9999596375232169,5.047078156833095e-05
-0.49102531204480326,-0.49102531204480326,0.9999856743440925,5.132455565621853e-05
-0.4908737485704478,-0.4908737485704478,0.9999990076893027,5.106478628445171e-05
-0.4905690777028212,-0.4905690777028212,1.0000129272438594,5.140563592178714e-05
-0.49034020244507703,-0.49034020244507703,1.0000135340665663,5.109770497330352e-05
-0.4901146663702093,-0.4901146663702093,1.0001358658654345,5.1217817516506396e-05
-0.49007357894224696,-0.49007357894224696,0.9999564923624356,5.130182819968052e-05
-0.48999292661392246,-0.48999292661392246,1.000003450817338,5.152357972486171e-05
-0.4899053146436927,-0.4899053146436927,0.9999663998908851,5.126009364408449e-05
-0.4898116175703763,-0.4898116175703763,0.9999894249364838,5.158722045836007e-05
-0.4896136591749382,-0.4896136591749382,0.9998858440603314,5.1767689314611935e-05
-0.4895252662790881,-0.4895252662790881,1.0000269087780234,5.108758074574888e-05
-0.4893942852009786,-0.4893942852009786,1.000068652543012,5.0721324241537764e-05
-0.4892190793594636,-0.4892190793594636,0.999962396673838,5.121501856575021e-05
-0.48884558311256116,-0.48884558311256116,1.00000133643923,5.154553648484251e-05
-0.4885806793878146,-0.4885806793878146,1.0000571387452726,5.127315288239019e-05
-0.4884378027592902,-0.4884378027592902,1.0000472548015167,5.165117829826303e-05
-0.48833703861819233,-0.48833703861819233,0.9999724376387359,5.1090023240619445e-05
-0.48820242737274383,-0.48820242737274383,1.000016208085241,5.150089290973312e-05
-0.48801218442240496,-0.48801218442240496,1.0000679872959508,5.110205301915492e-05
-0.4878989039818407,-0.4878989039818407,1.0000452323421605,5.0921994153042585e-05
-0.4877600601714221,-0.4877600601714221,0.9999783672185499,5.093385694189829e-05
-0.487625512440718,-0.487625512440718,1.0000840843386902,5.101402771331997e-05
-0.48738074711945956,-0.48738074711945956,1.0001031118804338,5.113791055592934e-05
-0.48723351439111867,-0.48723351439111867,0.9999829231719681,5.1393491651237084e-05
-0.48700800501246705,-0.48700800501246705,0.9999985246873319,5.126158520424252e-05
-0.48684956865909046,-0.48684956865909046,1.0000950947621186,5.1157076174761436e-05
-0.4867230809119064,-0.4867230809119064,0.99995380595471,5.124783549415705e-05
-0.4865826729932451,-0.4865826729932451,0.9998928298062987,5.1643219987315724e-05
-0.4864364237371774,-0.4864364237371774,1.0000735357796096,5.10508934486173e-05
-0.48630645146477036,-0.48630645146477036,1.0000148799544668,5.101903814086878e-05
-0.4861707994401513,-0.4861707994401513,1.0000708315316025,5.10748713532403e-05
-0.4861086073615297,-0.4861086073615297,1.0000627264233737,5.155526207884153e-05
-0.48602096873146367,-0.48602096873146367,0.9999697842626001,5.1208126055446675e-05
-0.4859145615977468,-0.4859145615977468,1.0000238833930248,5.0848774379179106e-05
-0.4857835958689975,-0.4857835958689975,1.0001990201918538,5.1264705816236074e-05
-0.48566458755885833,-0.48566458755885833,0.9999569773336088,5.103263740915165e-05
-0.48547637070005295,-0.48547637070005295,0.9999773328350606,5.14406996723686e-05
-0.4853192566886719,-0.4853192566886719,0.999943135916886,5.15092488465774e-05
-0.4851985726323619,-0.4851985726323619,1.0000777894807733,5.071115874213059e-05
-0.4850480582237651,-0.4850480582237651,0.9999920548115291,5.0810502611658805e-05
-0.48494968716331643,-0.48494968716331643,0.999973116006133,5.106592917094957e-05
-0.4848139753921714,-0.4848139753921714,0.9999614492520928,5.151184512040473e-05
-0.484654166544351,-0.484654166544351,0.9999792450062032,5.103277916157807e-05
-0.4845428726810496,-0.4845428726810496,0.999968795809162,5.1137764643963146e-05
-0.48442564794022475,-0.48442564794022475,0.9999302390039795,5.158779432786659e-05
-0.48432278914697235,-0.48432278914697235,1.000069709280191,5.0960742450949516e-05
-0.4841878701452515,-0.4841878701452515,0.9999563002991868,5.076629002651987e-05
-0.48405239936837463,-0.48405239936837463,0.9999067520295757,5.093900146246272e-05
-0.4839005068723054,-0.4839005068723054,0.999988358018929,5.126376590449197e-05
-0.4837352191229002,-0.4837352191229002,1.00005400848916,5.103952034012493e-05
-0.48354757757188055,-0.48354757757188055,0.9999953465816575,5.0663591931637345e-05
-0.48337191877217267,-0.48337191877217267,1.0000565001784767,5.1042911279414216e-05
-0.48322551208912046,-0.48322551208912046,0.9999686046396548,5.154861824241111e-05
-0.4831041874364018,-0.4831041874364018,1.0000099282261923,5.105583986269242e-05
-0.4829796700971201,-0.4829796700971201,0.9999767116333012,5.090431613459024e-05
-0.4828854098697775,-0.4828854098697775,1.0000708988853249,5.141613081395653e-05
-0.4827988329649088,-0.4827988329649088,1.0001854771619172,5.159553515891518e-05
-0.4827002251899103,-0.4827002251899103,1.0001110907328201,5.116141794692155e-05
-0.4825926718694973,-0.4825926718694973,1.0000523360076987,5.086165977701908e-05
-0.48253863628342514,-0.48253863628342514,1.0001985682433017,5.1243608840458075e-05
-0.48235612110511283,-0.48235612110511283,1.0000055777273564,5.186178860790753e-05
-0.4821746174355212,-0.4821746174355212,0.9999915563696188,5.1048686587119484e-05
-0.4818441317569523,-0.4818441317569523,0.9999798437249575,5.0538143404019457e-05
-0.48157533813719056,-0.48157533813719056,1.0000687122113376,5.145139845728743e-05
-0.4813455290546699,-0.4813455290546699,1.0000676626119085,5.1129398040561555e-05
-0.4812664077770023,-0.4812664077770023,1.0001076457321854,5.175642692620985e-05
-0.4811890575081634,-0.4811890575081634,1.0000442175228617,5.1671803065266616e-05
-0.4811026337549265,-0.4811026337549265,1.0000033994807036,5.128720837421355e-05
-0.4810186288581463,-0.4810186288581463,0.9998187635031132,5.179699701838893e-05
-0.4808939979309798,-0.4808939979309798,0.9999994366240829,5.077514999048738e-05
-0.4807970194138761,-0.4807970194138761,1.000069974987417,5.082373368999198e-05
-0.4806995422470209,-0.4806995422470209,0.9999174956498722,5.085178291316821e-05
-0.4805578758678166,-0.4805578758678166,0.9999429226164368,5.103178133221201e-05
-0.4803616767159838,-0.4803616767159838,0.9998796565868131,5.090865772546301e-05
-0.4800585654353199,-0.4800585654353199,1.0000008462003147,5.139082322513566e-05
-0.479825873975642,-0.479825873975642,1.0000294821356337,5.118299449234612e-05
-0.4796690441471583,-0.4796690441471583,1.000086046690448,5.143445125988361e-05
-0.4795704903066508,-0.4795704903066508,1.0000976654384772,5.137816426851159e-05
-0.479486310439097,-0.479486310439097,1.000007194780634,5.1241432308176805e-05
-0.4793580383739027,-0.4793580383739027,1.0001896285441754,5.159303136522609e-05
-0.47920572732036815,-0.47920572732036815,1.0000219672371036,5.1148839393297266e-05
-0.479124519888137,-0.479124519888137,1.0000334135566307,5.1618568716952905e-05
-0.47900295795043346,-0.47900295795043346,1.0000165489569248,5.083257971967058e-05
-0.4788962678729149,-0.4788962678729149,1.0000645681035458,5.095349616193645e-05
-0.47871187916898633,-0.47871187916898633,1.0000775202586514,5.0901828575298406e-05
-0.47849122510888265,-0.47849122510888265,1.0000131986807315,5.1963067136911147e-05
-0.4782996858601109,-0.4782996858601109,0.9999282496095929,5.121152917381592e-05
-0.478120190181653,-0.478120190181653,0.9999227954481327,5.1613674426758556e-05
-0.47800602080533283,-0.47800602080533283,1.0000029991312598,5.1359819874501034e-05
-0.4779346082272241,-0.4779346082272241,1.000226296166554,5.1303606489044885e-05
-0.4778334560309304,-0.4778334560309304,1.000081541584332,5.1223191153048035e-05
-0.47767944570514376,-0.47767944570514376,0.9999411028956082,5.155836271463283e-05
-0.47753479407983834,-0.47753479407983834,1.00002618564648,5.07225951775213e-05
-0.47744948417894195,-0.47744948417894195,1.0000275967460082,5.1223629746705664e-05
-0.47734462077351053,-0.47734462077351053,0.9998497067691388,5.066273536170449e-05
-0.47722860786379895,-0.47722860786379895,1.000166171234761,5.0667362590827176e-05
-0.477062699518865,-0.477062699518865,0.9999591302155458,5.1189987154425627e-05
-0.476891518184857,-0.476891518184857,1.000072091613178,5.102002432593531e-05
-0.47674398896706405,-0.47674398896706405,0.9999822842778692,5.1197874073475984e-05
-0.4765729341408587,-0.4765729341408587,1.000020823074559,5.1763096300304874e-05
-0.47644613069060143,-0.47644613069060143,1.000048682155233,5.115068878983534e-05
-0.4763593219140603,-0.4763593219140603,0.9999798584614366,5.095305264186854e-05
-0.47626108016775104,-0.47626108016775104,0.9999682198310561,5.1044256554405326e-05
-0.4761796850456449,-0.4761796850456449,0.9999513646251724,5.1713998457749704e-05
-0.4760350130556617,-0.4760350130556617,1.0001500887338655,5.12627688552167e-05
-0.47590928803183485,-0.47590928803183485,0.9999748309753562,5.081264889714868e-05
-0.4757780879699567,-0.4757780879699567,1.0000072408915444,5.133349756258061e-05
-0.47570234138984235,-0.47570234138984235,1.0000662072370707,5.0989893693766075e-05
-0.47561213924418555,-0.47561213924418555,1.0000422481696623,5.1289861687053175e-05
-0.4754786808203789,-0.4754786808203789,1.0000266534646831,5.086422050572338e-05
-0.47536398301890587,-0.47536398301890587,0.9998901265615714,5.12039926612951e-05
-0.47528055985385437,-0.47528055985385437,1.000025333564548,5.081432470027012e-05
-0.4751206325257954,-0.4751206325257954,0.9999159281728918,5.094449042319704e-05
-0.4749148736191273,-0.4749148736191273,1.0000033008780105,5.1670085029219856e-05
-0.4747640482353745,-0.4747640482353745,1.0001049193593374,5.027139713210939e-05
-0.474594562475977,-0.474594562475977,0.9999594937021916,5.112958888071942e-05
-0.47444623243500245,-0.47444623243500245,0.9999416976928925,5.129068488261277e-05
-0.4743017357046483,-0.4743017357046483,0.9999588213905998,5.1290608997492773e-05
-0.47418977043635097,-0.47418977043635097,1.0000507199255604,5.07965818202874e-05
-0.4740579001889273,-0.4740579001889273,0.9999477693857795,5.142552880661086e-05
-0.4740075357607566,-0.4740075357607566,1.0000295988600123,5.175227981842089e-05
-0.47387470781250157,-0.47387470781250157,1.000050592545586,5.0266785261803664e-05
-0.4737848662727629,-0.4737848662727629,1.000020469484392,5.104909922596121e-05
-0.47372147526912156,-0.47372147526912156,0.9998722877935116,5.1006879518233125e-05
-0.4735620159335667,-0.4735620159335667,0.9999896390877702,5.059847848006242e-05
-0.47343876059894685,-0.47343876059894685,0.9999878704341179,5.147250899733314e-05
-0.47324945428263165,-0.47324945428263165,0.9999473131650053,5.0806448800121484e-05
-0.4730873915315897,-0.4730873915315897,0.999982770034076,5.066806225507819e-05
-0.4729140619674581,-0.4729140619674581,0.999939084580275,5.129989323509076e-05
-0.47279805580183165,-0.47279805580183165,0.9999954438617312,5.1745720885542605e-05
-0.47266719789913625,-0.47266719789913625,1.000073261246398,5.0826535807971306e-05
-0.47252601362706625,-0.47252601362706625,1.0000244147468877,5.101135988457599e-05
-0.47245089935095164,-0.47245089935095164,1.000034136827772,5.1848039766496345e-05
-0.4723575114607229,-0.4723575114607229,0.9999561529179936,5.146225859405482e-05
-0.472278677362192,-0.472278677362192,1.0000561224762947,5.1058955436407994e-05
-0.4721854804207396,-0.4721854804207396,0.9999542991032119,5.122409606427734e-05
-0.4721228962938767,-0.4721228962938767,1.0000539599597709,5.0938815289229315e-05
-0.47203225648627267,-0.47203225648627267,0.9999491184225977,5.109202180732126e-05
-0.4719906545447884,-0.4719906545447884,1.0000102536548956,5.0887558320918675e-05
-0.4718803252551879,-0.4718803252551879,1.0000188890137733,5.0742974992314345e-05
-0.47170662115167944,-0.47170662115167944,0.9999566647714294,5.0983135120167506e-05
-0.47157534814978136,-0.47157534814978136,1.0000762479161511,5.090133971216805e-05
-0.4713496744479926,-0.4713496744479926,1.0002488143947976,5.148633544843147e-05
-0.4712250304488407,-0.4712250304488407,0.9999221347961853,5.095939489504178e-05
-0.47107765267937796,-0.47107765267937796,0.9999308311340895,5.1149182114119894e-05
-0.47092158646992177,-0.47092158646992177,1.0000785542127044,5.1162119658910306e-05
-0.47087155666813485,-0.47087155666813485,0.9998546485230261,5.176961626405011e-05
-0.4707801773562096,-0.4707801773562096,1.0001200559194934,5.1482365919650435e-05
-0.4706822619351442,-0.4706822619351442,0.9999263932702324,5.129538051511269e-05
-0.4705927545983286,-0.4705927545983286,1.0000481388576878,5.22089669202925e-05
-0.47043984439224007,-0.47043984439224007,1.0000167075394935,5.0682163409740126e-05
-0.47034690423461145,-0.47034690423461145,0.9999633083071044,5.107984566818537e-05
-0.47025853804079815,-0.47025853804079815,1.000046245751109,5.0851859347621794e-05
-0.4701543399023649,-0.4701543399023649,0.9999458620870436,5.091272632351213e-05
-0.46994448245677634,-0.46994448245677634,1.0000032387635145,5.1536064734257664e-05
-0.4696726308655343,-0.4696726308655343,0.9998949913608879,5.181765750732305e-05
-0.46943035648364456,-0.46943035648364456,0.9999327180527968,5.0927365403814014e-05
-0.469286316607031,-0.469286316607031,1.0000250833844748,5.193158538520238e-05
-0.46919831054110545,-0.46919831054110545,1.0000242643187707,5.1464402902734234e-05
-0.4691113755652623,-0.4691113755652623,1.0001125053963607,5.09954621001749e-05
-0.46899383705967923,-0.46899383705967923,1.0000069001286804,5.1125389990579844e-05
-0.46885579973168207,-0.46885579973168207,0.999897988552976,5.1301838903590585e-05
-0.4687667674428667,-0.4687667674428667,1.0000507203362563,5.114430689811707e-05
-0.46868022881753857,-0.46868022881753857,0.9999909421680796,5.120540621147297e-05
-0.4685398077701393,-0.4685398077701393,0.9999687372012189,5.064756645824209e-05
-0.46841950098241797,-0.46841950098241797,1.0000764318241333,5.100472389405745e-05
-0.46813953570235756,-0.46813953570235756,1.0001303029414295,5.1755295913486906e-05
-0.4679527840802621,-0.4679527840802621,0.999970763375285,5.192284844630988e-05
-0.4677831804365269,-0.4677831804365269,1.0000422198232815,5.105245065325011e-05
-0.46763293522744787,-0.46763293522744787,1.0000547093093497,5.1361251735437534e-05
-0.46755919263887336,-0.46755919263887336,1.0000035069200381,5.1228514866990444e-05
-0.46744685821759047,-0.46744685821759047,1.0000205902571733,5.1242627855549115e-05
-0.46732383539856526,-0.46732383539856526,0.9999394208642256,5.19604679503308e-05
-0.46715901906209184,-0.46715901906209184,1.0000259954319397,5.1219073707924786e-05
-0.4670589013927383,-0.4670589013927383,0.999987659832035,5.122107027368475e-05
-0.46697037422054566,-0.46697037422054566,0.999899047316324,5.0966371443362545e-05
-0.46687820741863106,-0.46687820741863106,0.9998565474110299,5.118969173137804e-05
-0.4668037047631515,-0.4668037047631515,0.9999740615553024,5.070673451744624e-05
-0.46661478264650214,-0.46661478264650214,0.9999293022126741,5.1198524420286934e-05
