time,time,flux,flux_err
-0.49993667218283616,-0.49993667218283616,1.000005518724462,0.00020997659761148938
-0.49985133241207225,-0.49985133241207225,0.9999565804575544,0.00017657384327363947
-0.4997658184962347,-0.4997658184962347,0.9999726182512244,0.00018349025809911326
-0.49973422685070545,-0.49973422685070545,1.0002748479123893,0.0001949926307760997
-0.4996452775289072,-0.4996452775289072,1.000076431897215,0.00017980027098555112
-0.4995227170205908,-0.4995227170205908,1.0002408254113042,0.00017756772581372637
-0.4994680522788258,-0.4994680522788258,1.0002247002076254,0.0001892958683478374
-0.4993904508846754,-0.4993904508846754,0.999978165826559,0.00018960980630378248
-0.4993096135338419,-0.4993096135338419,1.0000577417719865,0.00019253561518884127
-0.499126235149015,-0.499126235149015,1.0001536212529287,0.00018881652625078643
-0.499023846633645,-0.499023846633645,1.0000777611034233,0.0001806785963950804
-0.49896911755931794,-0.49896911755931794,1.0000516904901555,0.0001791833493187913
-0.49886634930880974,-0.49886634930880974,0.9998568744401721,0.00018023687670176255
-0.4986542545528209,-0.4986542545528209,1.000195452056509,0.00018224422520244764
-0.49846923913137287,-0.49846923913137287,0.9994177354716773,0.00018449632952414102
-0.4983862965236767,-0.4983862965236767,0.9999890003344939,0.00018169367723899245
-0.4982827348409046,-0.4982827348409046,0.9998860389029234,0.00019853171642337112
-0.4981811737787211,-0.4981811737787211,1.000153803807872,0.00018495111748003022
-0.4980905758406152,-0.4980905758406152,1.0000789918124178,0.0001846770848707309
-0.49802198403776854,-0.49802198403776854,0.9998510690812339,0.0001853085203921177
-0.4979411005442671,-0.4979411005442671,1.0003687537770574,0.00018115889207533995
-0.4978246864222456,-0.4978246864222456,1.0002154891064738,0.00018894117794768733
-0.4977373112604255,-0.4977373112604255,1.0001150538536965,0.00017594938223679834
-0.4976593620565836,-0.4976593620565836,0.9998536355672307,0.000204738350079464
-0.4975378046212427,-0.4975378046212427,1.0002781030067331,0.00018300037475983076
-0.4973586774955038,-0.4973586774955038,1.0001951745364064,0.0001843790681093769
-0.49726179878853144,-0.49726179878853144,0.9999124292156545,0.00017359945702840284
-0.49717379524809074,-0.49717379524809074,0.9999127265024652,0.00018011475793920905
-0.4970696880838659,-0.4970696880838659,0.999845197041131,0.00018562710569205524
-0.49683367632824227,-0.49683367632824227,1.0002153844364052,0.00018038031156792042
-0.4967378950146667,-0.4967378950146667,1.0000252354169983,0.0001823350581407077
-0.49662564377431406,-0.49662564377431406,0.9997012849547101,0.00018780892111684312
-0.4965013653432834,-0.4965013653432834,0.9998481406177497,0.00019192651413676949
-0.4963687228395429,-0.4963687228395429,1.0000726620404667,0.00018691620772407017
-0.4962329827423673,-0.4962329827423673,1.0000913100173183,0.00018455865990131673
-0.4961157058736717,-0.4961157058736717,1.0001612200548133,0.00017859476754765094
-0.49600730064412346,-0.49600730064412346,0.9999438977420517,0.00019804154183519605
-0.49593219620146556,-0.49593219620146556,0.9996197498017472,0.00019306313173919268
-0.4958423256248352,-0.4958423256248352,0.9998090186888351,0.00018944614466926882
-0.49570747046600444,-0.49570747046600444,1.000109709684438,0.00019199347375193986
-0.4955530651073786,-0.4955530651073786,1.0000730693169808,0.00018063042327435525
-0.4954140849040414,-0.4954140849040414,0.9999277673644336,0.00018414789343588865
-0.4952445584924135,-0.4952445584924135,1.0001052506700094,0.00017253432963227887
-0.49511301910024486,-0.49511301910024486,1.0000058339127214,0.0001741261336216912
-0.4950315853762731,-0.4950315853762731,1.0002259599458587,0.00017686738932944077
-0.4949693053305964,-0.4949693053305964,1.0000055595797384,0.00019033007804957928
-0.49484158578852655,-0.49484158578852655,1.0001006444979648,0.00017134812553164518
-0.49470820808492133,-0.49470820808492133,0.9998666880965178,0.0001882209585038233
-0.4946041005212464,-0.4946041005212464,0.9998799009978845,0.00017876823935775288
-0.49450700806846726,-0.49450700806846726,0.9998735587033977,0.00019580136530089596
-0.4944144457760558,-0.4944144457760558,1.0000542334665425,0.00020024155060547233
-0.49432129184351653,-0.49432129184351653,1.0003345422105006,0.00017940253137690353
-0.49423030180405475,-0.49423030180405475,0.9997358223569478,0.000204374350730688
-0.49413991635956334,-0.49413991635956334,0.9999713826738473,0.000180168819115726
-0.4940354104328435,-0.4940354104328435,1.0000325373633117,0.00018378194364155107
-0.4939162138107349,-0.4939162138107349,0.9997744628380701,0.00017866867738715504
-0.4937967345191282,-0.4937967345191282,1.0001210473763982,0.00018301941360357162
-0.4936320686880208,-0.4936320686880208,1.000150870300602,0.00017903203737184577
-0.4934540816429944,-0.4934540816429944,0.9999963747935094,0.00018856121112333159
-0.49328909905088947,-0.49328909905088947,1.0001490259248624,0.0001938433001226448
-0.4931418073356326,-0.4931418073356326,1.0001379388273413,0.00017284136772211873
-0.49299209827731827,-0.49299209827731827,1.0000697711441215,0.00019061724521673832
-0.4929155492427526,-0.4929155492427526,1.00001774300127,0.00018143309990702208
-0.4928480272530578,-0.4928480272530578,0.9997965659732946,0.00019122467952433243
-0.4927685567585286,-0.4927685567585286,0.9999321030963196,0.00018763798840173095
-0.49268163954111516,-0.49268163954111516,0.9999441186702063,0.00019776452184853545
-0.49260928259027426,-0.49260928259027426,1.0001047971244272,0.00017413631417268453
-0.49253517881879816,-0.49253517881879816,1.0000405281303044,0.00020118179061876583
-0.49240946767968125,-0.49240946767968125,1.0001372778900823,0.00019312494113560378
-0.4922948358260328,-0.4922948358260328,1.0000759783424553,0.00017937682737840743
-0.49216963977669365,-0.49216963977669365,1.0000233700931616,0.0001745944741068771
-0.4919934688252397,-0.4919934688252397,0.999818921182246,0.00018391613435040337
-0.4918233491611318,-0.4918233491611318,1.0002283515012511,0.0001776636526254941
-0.49169342932000293,-0.49169342932000293,0.9998712485641746,0.0001811525019845568
-0.49157260288266114,-0.49157260288266114,1.0001769655727344,0.0002000255619174076
-0.491414172732766,-0.491414172732766,1.000137854612261,0.0001767796708790787
-0.4912755338358693,-0.4912755338358693,0.999877379352189,0.00018675367107404654
-0.49122001699652174,-0.49122001699652174,1.0002662003799527,0.00019034086728620569
-0.49115152091981146,-0.49115152091981146,1.0001877135187003,0.00018801638379636556
-0.4910559484800615,-0.4910559484800615,0.9999414747092876,0.00017205534679180123
-0.4910158240265446,-0.4910158240265446,1.0001519696254797,0.0002042063666499934
-0.4909388798616419,-0.4909388798616419,0.9997878074780688,0.0001967972454469084
-0.490791225402063,-0.490791225402063,1.0001352480937205,0.00019508524556556949
-0.4906336753461801,-0.4906336753461801,0.9995636035908246,0.0001931622196145366
-0.4905099010677077,-0.4905099010677077,1.0002226993165038,0.00017407001629909079
-0.4903256076562684,-0.4903256076562684,1.000084940311855,0.000179586848914406
-0.4902102442079922,-0.4902102442079922,0.9998448401880136,0.00017997422547329748
-0.49013853625510817,-0.49013853625510817,0.9999886869997378,0.0001842117843285178
-0.4900017428481078,-0.4900017428481078,1.0001408151767677,0.00017460194106921017
-0.48993308080462156,-0.48993308080462156,0.9997963069195149,0.0001889361805489519
-0.4897959568210354,-0.4897959568210354,0.9999792482711664,0.00018277048201111257
-0.48954909555613996,-0.48954909555613996,1.0001199742570348,0.0001806595909083855
-0.4894779905647738,-0.4894779905647738,0.9998495384565178,0.00017525244170811681
-0.4894551320416213,-0.4894551320416213,1.000032346005065,0.00018872680363954652
-0.48937243702675914,-0.48937243702675914,0.9999080275476588,0.00018855153588630844
-0.4892986904109421,-0.4892986904109421,1.0000742377815768,0.00022010234993303344
-0.48924113251559903,-0.48924113251559903,1.000219364784179,0.0001777152613070681
-0.4891208501627261,-0.4891208501627261,1.0000935831180182,0.00020588130702152424
-0.48893142280503527,-0.48893142280503527,0.9999515505255433,0.0001890656348874687
-0.4888030991241976,-0.4888030991241976,1.0003150273839816,0.00017917291675664733
-0.48867592851311203,-0.48867592851311203,0.9997388322427903,0.00018712444816691942
-0.4885798500108649,-0.4885798500108649,1.0000534665952323,0.0001764781155282631
-0.48843739650619683,-0.48843739650619683,0.9999728608281584,0.00018705248414763339
-0.48832073547673643,-0.48832073547673643,1.0001621590094096,0.00018610751987495182
-0.4882388499820081,-0.4882388499820081,0.9999335972643186,0.00018150250729417422
-0.4880862283520401,-0.4880862283520401,1.000051835470737,0.00017907001931333138
-0.4878524887404637,-0.4878524887404637,0.9996075297667897,0.00018824859418473304
-0.48777521130177776,-0.48777521130177776,0.9999916059701125,0.00017988629316454148
-0.4877063635300146,-0.4877063635300146,1.000214399015779,0.00018997547057615584
-0.4876201180137286,-0.4876201180137286,1.0001971589329597,0.000190243107153813
-0.4875387054053135,-0.4875387054053135,0.9998280382004232,0.00018485032531264544
-0.4874810822970176,-0.4874810822970176,1.0000389321659406,0.0001821332854443345
-0.4874168364513025,-0.4874168364513025,0.9998808731245532,0.00019746843112209786
-0.48724691986717517,-0.48724691986717517,0.9999499046068502,0.00018496532322478796
-0.4870412040334486,-0.4870412040334486,1.000092467402742,0.00018103083835381404
-0.48695158217087736,-0.48695158217087736,0.9998358835283184,0.0001888197035399195
-0.48684872838493903,-0.48684872838493903,1.0002495901018678,0.00018404653941889968
-0.48672671332096795,-0.48672671332096795,1.0001513780017972,0.00019027594394207596
-0.48662623563068336,-0.48662623563068336,1.0000094749663373,0.0001893179189897265
-0.48656017213288577,-0.48656017213288577,0.9999989195905119,0.00018106598777961315
-0.4864032920755562,-0.4864032920755562,1.0000437923546983,0.00017064225044884334
-0.48625562575252845,-0.48625562575252845,0.999794925177798,0.00018081998380499743
-0.4861063585813099,-0.4861063585813099,0.9999638505812296,0.00018436321823348805
-0.4859936298154935,-0.4859936298154935,0.9999340157749502,0.0001814320470573292
-0.4859360168135026,-0.4859360168135026,1.000234943293319,0.00019132113368117338
-0.4858412373847386,-0.4858412373847386,1.0002689986617745,0.00019525320273132933
-0.4857476327328186,-0.4857476327328186,0.9999673068455215,0.00018041327460175104
-0.4856272494806035,-0.4856272494806035,1.0004875940539573,0.0001838766596374255
-0.48531258755756423,-0.48531258755756423,1.0000733307750393,0.0001839272282519464
-0.48515168135490966,-0.48515168135490966,1.0002215351107302,0.00018801238306567024
-0.485036651865812,-0.485036651865812,1.0000795377455198,0.00017838783032065678
-0.48493808652492587,-0.48493808652492587,1.0001149385385149,0.00019827787279814491
-0.4848577058481169,-0.4848577058481169,0.9997380339048549,0.0001834442781423547
-0.484741843087977,-0.484741843087977,1.0001132102126868,0.0001779962093987466
-0.48450975326632034,-0.48450975326632034,0.9995491029460009,0.00018140373198904475
-0.48434603417554173,-0.48434603417554173,0.9998235068345508,0.00019220300522529744
-0.4842433488847746,-0.4842433488847746,0.9999291627185105,0.00018224308123167027
-0.4841529269135208,-0.4841529269135208,1.0002405208449219,0.00018935531936220006
-0.4840385066367162,-0.4840385066367162,1.0000323325108424,0.00019831554803311874
-0.4839008200600802,-0.4839008200600802,0.9996969896904442,0.00019084612971465058
-0.483663384988904,-0.483663384988904,1.0000940466535135,0.00018732400158828685
-0.4834876276705472,-0.4834876276705472,1.0002507666830907,0.00018943824908058181
-0.48336211853529676,-0.48336211853529676,1.0002161749840153,0.0002020954049186784
-0.48325680727430154,-0.48325680727430154,0.9996798931198398,0.00017963169242480304
-0.4831927036437264,-0.4831927036437264,0.9999890187079739,0.00018351909569671606
-0.4831277865792799,-0.4831277865792799,1.0000655698611076,0.00019100758272740277
-0.48294666435176625,-0.48294666435176625,1.0000668413544156,0.00017846601568285734
-0.4827442970141419,-0.4827442970141419,1.0001956501157927,0.00018303910330564436
-0.4826016833510948,-0.4826016833510948,0.9999015482037118,0.0001919727599402936
-0.48251041252151483,-0.48251041252151483,1.000114798505012,0.0001783662771405032
-0.48241627634488393,-0.48241627634488393,1.0000542413173417,0.00020167490545735443
-0.4823410444252659,-0.4823410444252659,0.9999306935520936,0.00019529161248002568
-0.4822095656178135,-0.4822095656178135,1.0000996903813475,0.00017748089166563227
-0.4820851539661817,-0.4820851539661817,0.9998464770076041,0.00019519143550915342
-0.4819355919877125,-0.4819355919877125,1.0001663371182203,0.0001825865893760115
-0.4818165950178809,-0.4818165950178809,1.0002327519742724,0.0001923987436414482
-0.4816275290104386,-0.4816275290104386,1.0000552534603684,0.00020193063223083955
-0.48154232047018014,-0.48154232047018014,0.9999861436137929,0.0001846502247213237
-0.4814326045903726,-0.4814326045903726,1.0000808492334012,0.00018567735952286233
-0.48128962004120696,-0.48128962004120696,0.999766030841801,0.00017762184356708
-0.4811635131685762,-0.4811635131685762,0.9999181779544013,0.00017626984139714423
-0.48100723093084524,-0.48100723093084524,1.0001147483052137,0.00018811925723308956
-0.4808978747809306,-0.4808978747809306,0.99982473958396,0.00018021982133119583
-0.4807907032183721,-0.4807907032183721,1.0001064224345142,0.0002107258293801898
-0.48072683365389823,-0.48072683365389823,0.9999827744727675,0.00018998333313087444
-0.4805990395921981,-0.4805990395921981,1.0001027231412603,0.00019475805821481796
-0.48042990953763365,-0.48042990953763365,0.9999526774070947,0.00016891680555209312
-0.4803506457777985,-0.4803506457777985,0.9998205176122419,0.0001947383227495051
-0.4802081577872741,-0.4802081577872741,0.999820726455952,0.00018804341916994576
-0.4800048771969159,-0.4800048771969159,0.999731046667718,0.00019569581164462961
-0.47987678321587734,-0.47987678321587734,1.0001004253481516,0.00019103741849539228
-0.47973622740973954,-0.47973622740973954,0.9999961388915839,0.00018728921019214704
-0.4795841645973269,-0.4795841645973269,1.0000200678752993,0.00018118271464360116
-0.47951805570701256,-0.47951805570701256,1.0001522773782812,0.0001870555285172579
-0.4793629746942315,-0.4793629746942315,0.9997790881249726,0.00018738239001238953
-0.47920122510549845,-0.47920122510549845,0.9999988200036395,0.0001841662623641054
-0.4790876068022044,-0.4790876068022044,1.0000842647041606,0.00018905570066565992
-0.4789651611048612,-0.4789651611048612,0.9999236462976351,0.00019741296590118602
-0.47879479160837946,-0.47879479160837946,0.9996945928928088,0.00018655225162629178
-0.47865360777432214,-0.47865360777432214,0.9997458482371864,0.0001863765776655449
-0.4785883355580154,-0.4785883355580154,1.000009761696547,0.00020263474060891262
-0.47838937929700476,-0.47838937929700476,1.000265603624572,0.0001974338337829628
-0.4781841256590269,-0.4781841256590269,1.0002755250713165,0.00019483342085192655
-0.4779673692763026,-0.4779673692763026,1.0002707784002935,0.00019176153888500098
-0.477883862703311,-0.477883862703311,0.9999247446160506,0.0001947040325421512
-0.4778329427113931,-0.4778329427113931,1.000179122141552,0.0001738857126070409
-0.4777351280557923,-0.4777351280557923,1.0001626119054496,0.0001820365784855713
-0.47758090871793685,-0.47758090871793685,0.9996719114394914,0.00019415496948918198
-0.4774525560103939,-0.4774525560103939,1.0000904445242103,0.00020041342637659148
-0.47734379927569537,-0.47734379927569537,1.0002203068522761,0.00018630103104752286
-0.47712488132819997,-0.47712488132819997,0.9998632427997187,0.00019746665070304509
-0.4769786829354416,-0.4769786829354416,1.0000468141423673,0.00018445541157759783
-0.476882552371535,-0.476882552371535,1.0001562261938557,0.00019142929850592385
-0.4768173456017394,-0.4768173456017394,1.000025191436905,0.00019551011847321968
-0.47659328812587776,-0.47659328812587776,1.0001130865431036,0.00019634688788761176
-0.47647616257600023,-0.47647616257600023,1.000273024913485,0.00019058683560263745
-0.476372124000045,-0.476372124000045,1.000268132688181,0.0001903359050515661
-0.47625796965730843,-0.47625796965730843,0.9999791121372901,0.0001784949653790546
-0.4761882292361406,-0.4761882292361406,1.0000230104128114,0.0001812726107061785
-0.4761232642456889,-0.4761232642456889,0.9999451989333007,0.00019144191012434493
-0.47597194984409724,-0.47597194984409724,0.9998719045824427,0.00018583757362025153
-0.47581461293593746,-0.47581461293593746,0.9996283633989332,0.00019796000942693746
-0.47570429371044154,-0.47570429371044154,1.0000634890999773,0.00019377977849472644
-0.47555101028483476,-0.47555101028483476,0.9999775492241232,0.0001849549888887009
-0.47537077526940263,-0.47537077526940263,0.9999633590410895,0.0001856223073159801
-0.47527589678866206,-0.47527589678866206,1.000129000798252,0.0001873073809302294
-0.47519471394771245,-0.47519471394771245,0.9999195310418681,0.0002031135999889057
-0.47509571066548234,-0.47509571066548234,0.9999274465667982,0.00018240977906810207
-0.4749548159757978,-0.4749548159757978,0.9998126364716471,0.00019379756371233647
-0.4748467782614171,-0.4748467782614171,1.0001701682701643,0.00019464704326609242
-0.474738080498355,-0.474738080498355,0.9998090246994871,0.00019344953716933592
-0.4746307989822526,-0.4746307989822526,1.0001535442452365,0.0001851956863716875
-0.4745485411185655,-0.4745485411185655,0.999913473573508,0.00018512978870733154
-0.47444414882629643,-0.47444414882629643,0.9999243591380249,0.00018708127550511158
-0.4743503973426414,-0.4743503973426414,1.0000875315795088,0.00017669328624054232
-0.4742267369896581,-0.4742267369896581,1.000187047876443,0.00017573212901901526
-0.47415444657672196,-0.47415444657672196,1.0004142547487676,0.0002033115091744143
-0.4740613091897103,-0.4740613091897103,0.9999099254752973,0.00018597922179064294
-0.47394947365828555,-0.47394947365828555,0.9999500936491346,0.00018703200059881885
-0.4738185020003584,-0.4738185020003584,1.0000674817219166,0.00018065079344102992
-0.47365805364825064,-0.47365805364825064,0.999870706585704,0.00018298663756802013
-0.4735495291388361,-0.4735495291388361,0.9997164986292459,0.00019942334071336776
-0.4734567921535927,-0.4734567921535927,1.0002312724005735,0.00019038996991799787
-0.47329367729471417,-0.47329367729471417,0.9999651025234698,0.00020263725378634394
-0.47316888622008263,-0.47316888622008263,0.9996750764947228,0.00018214279876321653
-0.47307613503653556,-0.47307613503653556,0.9999829524708177,0.00018704627198380542
-0.47295560940765424,-0.47295560940765424,1.000067294196864,0.00018271683088174075
-0.47289012680994347,-0.47289012680994347,0.9999116052331161,0.0001904820276565188
-0.4727706875572039,-0.4727706875572039,1.0000373390322423,0.0001917820609415399
-0.47259292280577936,-0.47259292280577936,1.000003521901243,0.00018156387480582802
-0.47248316518453065,-0.47248316518453065,1.0001929515149655,0.00017954085432822297
-0.4724112744515878,-0.4724112744515878,1.0002221830784326,0.00020587291122642774
-0.47228697600439773,-0.47228697600439773,1.0001042004724585,0.0001808386219481993
-0.4721893613495922,-0.4721893613495922,1.0001131531029142,0.00017833889802915676
-0.47201528427758604,-0.47201528427758604,0.999808953388022,0.00017931849833385943
-0.47190523982280863,-0.47190523982280863,0.9999706574732681,0.000171324671216201
-0.47184636571328153,-0.47184636571328153,0.9999365159110501,0.00018793883101361148
-0.47174286776571533,-0.47174286776571533,1.0002663394467313,0.00020802792724708527
-0.47159851896285543,-0.47159851896285543,1.000128904100698,0.00019237341998370474
-0.47145162077358693,-0.47145162077358693,1.0000015281183292,0.00018911588012405096
-0.4713504765823018,-0.4713504765823018,0.999939064770782,0.0001815574869308356
-0.47126258411299204,-0.47126258411299204,0.999646610859573,0.00018132771006132377
