time,time,flux,flux_err
-0.4999811466463143,-0.4999811466463143,0.9999047981760107,8.249685074325311e-05
-0.4998070297704544,-0.4998070297704544,1.0000158759570157,7.990502112540445e-05
-0.4996996859990759,-0.4996996859990759,0.9999822705691315,7.938724712889544e-05
-0.49957667604030576,-0.49957667604030576,1.000043779694908,8.076541424993595e-05
-0.4994096422888106,-0.4994096422888106,1.0001626617029096,8.230619449969792e-05
-0.49927888762613293,-0.49927888762613293,0.9999906812944037,8.10873958257255e-05
-0.4991418736317428,-0.4991418736317428,0.9998948466185421,8.030571766821932e-05
-0.49903328863729257,-0.49903328863729257,1.0001339841784105,8.31048281769613e-05
-0.4989059472369263,-0.4989059472369263,1.0000097089466358,8.221606414060266e-05
-0.4987736602866789,-0.4987736602866789,1.0000060639679995,8.100413811762416e-05
-0.49860186568112114,-0.49860186568112114,0.9998880520723358,8.039179412581865e-05
-0.49847101762425156,-0.49847101762425156,1.000005771571836,8.095234680747904e-05
-0.49819074070546776,-0.49819074070546776,1.0000191888800292,8.063552586963477e-05
-0.49803726353857203,-0.49803726353857203,1.000039962072968,8.01248287358147e-05
-0.4978784923412604,-0.4978784923412604,1.0001243943680023,8.039886708380548e-05
-0.49781972079945264,-0.49781972079945264,0.9999625090462491,8.299812885819046e-05
-0.4977098735340405,-0.4977098735340405,0.9999486089728187,8.03342273041309e-05
-0.49752642788225787,-0.49752642788225787,0.9999698493221743,8.283412108835884e-05
-0.4973996430548141,-0.4973996430548141,0.9998404028510463,8.051125680602835e-05
-0.4973197714920389,-0.4973197714920389,0.9999910238980216,8.063490445938426e-05
-0.49721534227428493,-0.49721534227428493,1.0001378906521337,8.027950633840021e-05
-0.4971297049109126,-0.4971297049109126,0.9999473725828546,8.391154911550238e-05
-0.4969474806333892,-0.4969474806333892,1.0001364960877333,8.114930776856579e-05
-0.49677778645127546,-0.49677778645127546,1.0001475660326076,7.978175627070886e-05
-0.4966415422706632,-0.4966415422706632,1.000070310778052,8.019256513475153e-05
-0.4965504029445583,-0.4965504029445583,0.9998925127228266,8.41538186810985e-05
-0.49647017908282576,-0.49647017908282576,1.0000559873076182,8.172989014000434e-05
-0.4963020401366521,-0.4963020401366521,0.9999466256890525,7.88052966461893e-05
-0.4962090388085926,-0.4962090388085926,1.000009910940804,8.197882737146303e-05
-0.4960790026234463,-0.4960790026234463,1.0000277749739195,8.016382064218432e-05
-0.49597315351711585,-0.49597315351711585,0.9998713293597099,8.069706267909786e-05
-0.495920680440031,-0.495920680440031,1.0000454854975247,8.037095057840694e-05
-0.4957875787076773,-0.4957875787076773,0.9999335738691452,8.267219174075484e-05
-0.49568735976354217,-0.49568735976354217,0.9998748405099374,8.042715531872812e-05
-0.49563373352284545,-0.49563373352284545,1.0000322910470882,8.066971539498712e-05
-0.49548596593667754,-0.49548596593667754,0.9998628544675846,7.951187197621491e-05
-0.4953773500572424,-0.4953773500572424,0.9998933894707231,8.152835204409568e-05
-0.49532335057738236,-0.49532335057738236,1.0000333521415141,8.006507710786489e-05
-0.49518207142536996,-0.49518207142536996,0.9999808259372054,8.147846677368942e-05
-0.49506685881060547,-0.49506685881060547,0.9999861500837,8.172771962637677e-05
-0.49499246931809465,-0.49499246931809465,1.0002392928260773,8.024129935062395e-05
-0.4949579633888789,-0.4949579633888789,1.000143733756369,8.113783710788082e-05
-0.49491093328688296,-0.49491093328688296,0.9999850466760869,8.04733761056013e-05
-0.494820839757449,-0.494820839757449,0.999895230315324,8.076412780701728e-05
-0.4947054801537888,-0.4947054801537888,1.0000560657554904,8.106141641922125e-05
-0.4946033276908565,-0.4946033276908565,1.0001618525065343,8.237086010818873e-05
-0.494455719308462,-0.494455719308462,0.9998070105861988,7.993021870697589e-05
-0.49433896988339254,-0.49433896988339254,0.9999935367270648,8.126671765528824e-05
-0.49421845001343173,-0.49421845001343173,1.0000617468835429,8.024901996086292e-05
-0.4941150914237369,-0.4941150914237369,0.9999372590934319,8.346157268504379e-05
-0.4939524940302363,-0.4939524940302363,1.0001180120362976,7.997135653970715e-05
-0.49374757179175505,-0.49374757179175505,1.0000784589556768,8.155334275836917e-05
-0.49358357827877625,-0.49358357827877625,0.999924077309557,7.995291697529054e-05
-0.49346588022308424,-0.49346588022308424,1.0000606202680362,8.276008913191306e-05
-0.49335711687162986,-0.49335711687162986,1.000016171647903,8.362233943231843e-05
-0.4932705430313945,-0.4932705430313945,1.0000911167420297,8.077981394021004e-05
-0.4931903961027274,-0.4931903961027274,1.0000256811713875,7.950736616296395e-05
-0.4931337400164921,-0.4931337400164921,1.0000187039227697,8.18433095347475e-05
-0.4930006613751175,-0.4930006613751175,0.9999456191075623,8.227086989968328e-05
-0.4928101936267922,-0.4928101936267922,0.9999911134115089,8.13469115448253e-05
-0.4926517695392249,-0.4926517695392249,1.0001063755381845,8.306580465590243e-05
-0.49258217454189435,-0.49258217454189435,1.000002708174639,8.008683712582704e-05
-0.4924872026109369,-0.4924872026109369,0.9999434252291677,8.05546994005722e-05
-0.49237057598365935,-0.49237057598365935,0.9998385666767655,7.955443783474153e-05
-0.4922135405009612,-0.4922135405009612,1.0000054291853433,8.121508780105838e-05
-0.4920846395834815,-0.4920846395834815,0.9999051187486391,8.157214393443474e-05
-0.49192049652629066,-0.49192049652629066,1.0000946997498028,8.05714355623828e-05
-0.4918718973116484,-0.4918718973116484,0.9997912929881325,8.089605398002673e-05
-0.49177288243954537,-0.49177288243954537,1.0000348701548827,8.175144157108406e-05
-0.49169558685680387,-0.49169558685680387,1.0000057699442513,7.978696612232023e-05
-0.4916247611574363,-0.4916247611574363,1.0000195291477951,7.92648660188493e-05
-0.4915050256968243,-0.4915050256968243,1.0000328237149798,8.171409291993598e-05
-0.4914003637240967,-0.4914003637240967,0.9998631030643544,8.21057870672666e-05
-0.4912561733770417,-0.4912561733770417,1.0000585764548668,8.087711405638527e-05
-0.49112847521319053,-0.49112847521319053,1.0000601983354303,8.084050393165302e-05
-0.4910516198753612,-0.4910516198753612,0.9999431714222531,8.021892719520937e-05
-0.49096068971557544,-0.49096068971557544,0.9999288337457444,8.061554920484859e-05
-0.4908803308731876,-0.4908803308731876,1.0000805630196201,7.919754497204493e-05
-0.4908146924106404,-0.4908146924106404,0.99991219959779,7.8696738439427e-05
-0.4907387395185651,-0.4907387395185651,1.000034257814641,8.160540906162565e-05
-0.4906069986318471,-0.4906069986318471,1.0000112625716975,8.61995460702727e-05
-0.4905654356407467,-0.4905654356407467,1.0001829076411712,8.129231991222186e-05
-0.49049039620440454,-0.49049039620440454,1.00010499305215,8.086930819915417e-05
-0.49043553211085966,-0.49043553211085966,0.9999055734672664,8.076928101676339e-05
-0.4903364565660013,-0.4903364565660013,1.0000833753493816,8.289373951856763e-05
-0.4901880153483944,-0.4901880153483944,0.999918617651488,7.96956270834991e-05
-0.49009481717366726,-0.49009481717366726,0.9999717529292784,8.004714252318575e-05
-0.48997283295029775,-0.48997283295029775,1.000053012020329,8.196749937894802e-05
-0.48988785982946864,-0.48988785982946864,0.9999797122709472,8.093566655480913e-05
-0.4897085536358645,-0.4897085536358645,0.9999227290809725,8.011358623581798e-05
-0.4895650471647969,-0.4895650471647969,0.9999226163765833,8.005768195966132e-05
-0.4894180812494596,-0.4894180812494596,1.0000966599816248,8.099270328123167e-05
-0.4892051553877536,-0.4892051553877536,1.0000698195384516,7.928566314645227e-05
-0.48913550709257836,-0.48913550709257836,1.000071046264169,8.359219810495969e-05
-0.48903934957634193,-0.48903934957634193,0.9998828991821022,8.104848465079984e-05
-0.4888687505736016,-0.4888687505736016,1.0000184018134568,7.967832397082867e-05
-0.4887407130736392,-0.4887407130736392,0.9999581073710313,8.139260990930092e-05
-0.48867424074560406,-0.48867424074560406,0.9999406192467569,8.264491880961662e-05
-0.4885947244183626,-0.4885947244183626,0.9999969521974519,8.144587119880864e-05
-0.4885233809822239,-0.4885233809822239,1.0000246482166806,8.015904114176141e-05
-0.48842871450469827,-0.48842871450469827,1.0000370722438356,7.994805658615423e-05
-0.4882303555379622,-0.4882303555379622,1.0000564485985663,8.175350719306847e-05
-0.48809101040533276,-0.48809101040533276,0.9999037100313941,7.951463546798421e-05
-0.4879519800771959,-0.4879519800771959,1.0000024488659183,8.009631003883675e-05
-0.48788763548363934,-0.48788763548363934,1.0000289230784745,8.012709569437767e-05
-0.48776723521586973,-0.48776723521586973,1.0000595034972846,8.348952502299945e-05
-0.48752746789250523,-0.48752746789250523,1.0000227270169408,8.163619720179094e-05
-0.487395107554039,-0.487395107554039,1.0000655358657338,8.117395072515461e-05
-0.48729266502487006,-0.48729266502487006,1.000041094090049,7.982697313298452e-05
-0.4871637886593817,-0.4871637886593817,1.000022758166408,8.15777592375087e-05
-0.48701320837135426,-0.48701320837135426,1.0001653879187642,8.107024440266554e-05
-0.4869199971522903,-0.4869199971522903,0.9999419152835356,8.257118940196051e-05
-0.48684860990033485,-0.48684860990033485,1.0000982914562857,8.03348305824104e-05
-0.48669038199004716,-0.48669038199004716,0.9998659810294876,7.881721025297013e-05
-0.486519821031834,-0.486519821031834,1.000051736219212,7.987239972898954e-05
-0.48643985349335706,-0.48643985349335706,1.0001219314521168,8.058095414755267e-05
-0.48631824934273027,-0.48631824934273027,0.9999308150338688,8.229358836586352e-05
-0.4862562041671481,-0.4862562041671481,0.9998622699393506,8.182632019488145e-05
-0.48619988103746437,-0.48619988103746437,0.9999338817376684,8.058200506072595e-05
-0.48610607026494107,-0.48610607026494107,1.0000055330263216,8.209501025714997e-05
-0.48589904793479943,-0.48589904793479943,0.9999608905087015,8.139564887732457e-05
-0.4857960654073395,-0.4857960654073395,1.0000566076589612,8.192120590556181e-05
-0.48575292621098926,-0.48575292621098926,0.9999311994703047,8.028276658680429e-05
-0.48565600776928475,-0.48565600776928475,1.0000314886755786,8.141446978253113e-05
-0.48557111231493766,-0.48557111231493766,1.000052887787848,8.23037854367412e-05
-0.48552229193155655,-0.48552229193155655,1.0000068645051123,7.996806088962089e-05
-0.4854536988626933,-0.4854536988626933,0.9999222642764097,8.290411499411829e-05
-0.48535940988222137,-0.48535940988222137,0.9999987809979535,8.011082439895286e-05
-0.4851682788459584,-0.4851682788459584,1.000109226102083,8.003735769897234e-05
-0.48507312780420764,-0.48507312780420764,0.9999760545763904,7.964145963206196e-05
-0.4849162234837422,-0.4849162234837422,0.9999857509108102,8.351252544877685e-05
-0.48473037634103094,-0.48473037634103094,1.000046278905523,7.97278069842254e-05
-0.4845879613130819,-0.4845879613130819,0.9999961100999235,8.07252084495314e-05
-0.48450505011714995,-0.48450505011714995,1.0000682748041732,8.015493266383007e-05
-0.48443147466750813,-0.48443147466750813,1.0000039205038491,8.144269485531551e-05
-0.48432676630327476,-0.48432676630327476,0.9999920886282438,8.373819147842528e-05
-0.48418711066187825,-0.48418711066187825,0.999999635080847,8.219547235084104e-05
-0.48402219295385296,-0.48402219295385296,1.0000666593018086,8.012130871050088e-05
-0.48386374532128684,-0.48386374532128684,0.9999813525912362,8.023609422537172e-05
-0.4836211756279226,-0.4836211756279226,0.9999875495757167,8.093619040658427e-05
-0.48344844912353435,-0.48344844912353435,1.0001225449265658,8.22763613381463e-05
-0.4832924993854249,-0.4832924993854249,1.0000651871050397,8.001368206010994e-05
-0.483245372879901,-0.483245372879901,0.9999694760834942,8.071553773077164e-05
-0.48313511749147436,-0.48313511749147436,1.000147633142206,8.30768055969916e-05
-0.4829464326030575,-0.4829464326030575,1.0000328440355326,8.111516364394056e-05
-0.4827957944391528,-0.4827957944391528,1.00020655385032,8.25259895220362e-05
-0.4827170734119136,-0.4827170734119136,0.9998588403351658,8.03470303646744e-05
-0.4826150081353262,-0.4826150081353262,1.0001148413829264,7.993287678346459e-05
-0.48249764448555654,-0.48249764448555654,0.999989909089814,8.101827559923257e-05
-0.48230131254822484,-0.48230131254822484,0.9998549147047976,8.07260653881865e-05
-0.48216680269979406,-0.48216680269979406,0.9999587196267214,7.905840319986519e-05
-0.48206076032365675,-0.48206076032365675,1.0000122338068607,8.05394212607357e-05
-0.4819684712623712,-0.4819684712623712,0.9999885183448832,8.345503994946394e-05
-0.4819261871802155,-0.4819261871802155,0.9999362100577052,8.184106449958734e-05
-0.4818174496496795,-0.4818174496496795,0.9999620008036949,8.222579845469832e-05
-0.4816867788525997,-0.4816867788525997,0.9999795117430178,7.934628381285533e-05
-0.48156789478089196,-0.48156789478089196,0.9999199610959794,8.198428799643118e-05
-0.4814534673147136,-0.4814534673147136,1.0000204508462205,8.025519153538175e-05
-0.4813606452633394,-0.4813606452633394,1.0000073718734763,8.034389975698323e-05
-0.4813070192263694,-0.4813070192263694,1.000080365937379,8.128904983659656e-05
-0.4811952658928931,-0.4811952658928931,1.00010861402531,8.42969125711057e-05
-0.48108051635790616,-0.48108051635790616,0.9999123667050265,8.106596143810058e-05
-0.4810421639325796,-0.4810421639325796,1.0000412119373014,8.008898442847638e-05
-0.4808870433771517,-0.4808870433771517,1.0000517660765373,8.015813696763302e-05
-0.48078184835321736,-0.48078184835321736,1.0000583131230296,8.190053770399759e-05
-0.4807093296432868,-0.4807093296432868,0.9999588477095644,7.97986370490076e-05
-0.4806028955732472,-0.4806028955732472,0.9999330934619121,8.179378445465257e-05
-0.4804874085442862,-0.4804874085442862,0.9999575470118985,8.24494925146716e-05
-0.4803733301407192,-0.4803733301407192,0.9998426540710419,8.169812782787291e-05
-0.48034555654448924,-0.48034555654448924,0.9998312997151683,7.983437497670174e-05
-0.4802739813370863,-0.4802739813370863,1.0000979632192788,8.005468270659341e-05
-0.4801595090160845,-0.4801595090160845,0.9998825145841259,8.047646192833753e-05
-0.48003436614526435,-0.48003436614526435,0.9999968021979496,8.318906827087338e-05
-0.47985377107397653,-0.47985377107397653,1.0001191168306318,8.129343027146112e-05
-0.4797012573137181,-0.4797012573137181,0.9998305251485524,8.052095945801851e-05
-0.479592396368389,-0.479592396368389,0.9999536694604612,8.025951421720063e-05
-0.4794458288088208,-0.4794458288088208,0.9997434236021823,8.304804981693539e-05
-0.47933829661633354,-0.47933829661633354,1.0000396350982643,8.078886735811033e-05
-0.4791980210109614,-0.4791980210109614,0.9998986724085253,8.095251612667644e-05
-0.47900660972518383,-0.47900660972518383,1.0000589663880344,8.052505624876775e-05
-0.47889257746282965,-0.47889257746282965,0.9999373201563779,8.201698233954075e-05
-0.47877083160565237,-0.47877083160565237,1.0001329546510003,8.407988612785269e-05
-0.478677828880609,-0.478677828880609,0.9999518610008623,7.993596278727799e-05
-0.4786119067895925,-0.4786119067895925,0.9999021168018818,8.155513161381886e-05
-0.4785558659757953,-0.4785558659757953,1.000131318019185,8.082090471131432e-05
-0.47845896022918166,-0.47845896022918166,1.0000329970367576,8.22352333585568e-05
-0.4782935865630861,-0.4782935865630861,0.9999725647758672,8.11785979409254e-05
-0.47807810120284555,-0.47807810120284555,0.9999780409358573,8.090964607241103e-05
-0.4779785531951347,-0.4779785531951347,1.0000817179556682,8.122084663152803e-05
-0.4778831752424594,-0.4778831752424594,0.999918420455937,7.944305180960145e-05
-0.4777315293351421,-0.4777315293351421,0.9999295671820125,7.958579831383098e-05
-0.47759188576601447,-0.47759188576601447,1.000026678074528,8.193500692732732e-05
-0.47750826584233436,-0.47750826584233436,1.000147923934085,8.165969631808323e-05
-0.47740598042437343,-0.47740598042437343,0.9999532846564779,8.518857956987229e-05
-0.4773137072392274,-0.4773137072392274,0.9999439192524411,8.141316084088221e-05
-0.4772098073473899,-0.4772098073473899,1.0000365642337816,7.99878842461285e-05
-0.47712187057477423,-0.47712187057477423,0.999944403766964,8.17001970235115e-05
-0.4770104821305722,-0.4770104821305722,1.0000432340089709,7.975115378097522e-05
-0.4768900247552665,-0.4768900247552665,1.000052148036778,8.197250521555511e-05
-0.47677314035245216,-0.47677314035245216,1.0000327463172265,8.184929005760082e-05
-0.47661801644426305,-0.47661801644426305,0.9999870458201903,8.049910278774909e-05
-0.4765208427241305,-0.4765208427241305,0.9998973687538799,8.143849006376529e-05
-0.47644238428911195,-0.47644238428911195,1.0000726426702073,7.959939926501352e-05
-0.4763751449499978,-0.4763751449499978,0.9998607044408931,8.292706011198908e-05
-0.4762700743303867,-0.4762700743303867,0.9999654520177019,7.91781434970237e-05
-0.47620561301882847,-0.47620561301882847,0.9999630576144714,7.900034706747716e-05
-0.47612261764879804,-0.47612261764879804,0.9999195657208478,8.33205615050802e-05
-0.4760098805563757,-0.4760098805563757,0.9999879985670498,8.277072714596163e-05
-0.47592516024305953,-0.47592516024305953,0.9999689680936157,8.077841636912714e-05
-0.47585308145498856,-0.47585308145498856,1.000114445545647,8.083511266100884e-05
-0.47575172258657406,-0.47575172258657406,0.999979759958139,8.119561346145543e-05
-0.4755757987819379,-0.4755757987819379,1.000094640163646,7.969382729187358e-05
-0.4754985481267795,-0.4754985481267795,0.9999002317521508,7.935923298375051e-05
-0.47540414418326693,-0.47540414418326693,0.9999524006812388,8.193610179419307e-05
-0.4753174732933985,-0.4753174732933985,1.0000335151603916,8.139749964303919e-05
-0.47516058043693193,-0.47516058043693193,0.9999522596367442,7.986037022810852e-05
-0.47501469919516237,-0.47501469919516237,0.999954315145408,8.085201757476095e-05
-0.47484867374587336,-0.47484867374587336,1.000075729925166,7.889526353200565e-05
-0.47471079929964616,-0.47471079929964616,0.9998551006806775,8.179858922075726e-05
-0.4745545800484251,-0.4745545800484251,1.0001012566350411,8.112691359788443e-05
-0.47450110804638823,-0.47450110804638823,0.9999772871896372,7.904868019628782e-05
-0.47436515701410825,-0.47436515701410825,0.999978019224591,8.035016121925973e-05
-0.4742011882859515,-0.4742011882859515,1.0000321166508424,8.07107911920582e-05
-0.474128762082546,-0.474128762082546,1.0000361668329316,8.28084116041243e-05
-0.4740564608189743,-0.4740564608189743,1.0000139130100227,8.074492339476767e-05
-0.4739912036631722,-0.4739912036631722,1.0000595300220745,8.174569413588924e-05
-0.4738652407017071,-0.4738652407017071,1.0000376293903954,8.068390317012666e-05
-0.4736635585548356,-0.4736635585548356,1.0000131381786481,7.985109906991286e-05
-0.47349574690160806,-0.47349574690160806,1.0000214705901755,7.978833389020702e-05
-0.47336489270383025,-0.47336489270383025,0.9999933871557463,8.055748544744406e-05
-0.4732895737688523,-0.4732895737688523,1.000041055870431,7.966550964082142e-05
-0.47320051850692835,-0.47320051850692835,1.0001159957210015,8.399951800404213e-05
-0.47301445906050504,-0.47301445906050504,0.9999422022819153,8.031303027042488e-05
-0.4728553131775698,-0.4728553131775698,1.0000757187517078,8.254635468268598e-05
-0.47274024053185715,-0.47274024053185715,1.0000507434155632,7.963511708993586e-05
-0.47260268047684806,-0.47260268047684806,0.9999867312636764,8.042968584431504e-05
-0.47247284251789096,-0.47247284251789096,1.0001584452676326,8.142266865894163e-05
-0.4723504383378895,-0.4723504383378895,1.0000613563706255,8.097693391044723e-05
-0.4722842424293049,-0.4722842424293049,0.9997839928219179,8.283526560010272e-05
-0.4721459119551582,-0.4721459119551582,1.0000520470656122,7.866377082778274e-05
-0.4719246688357089,-0.4719246688357089,0.9999727143585023,8.079843039813679e-05
-0.4718739389296388,-0.4718739389296388,0.9998449228396831,8.1672804214946e-05
-0.47174067700107114,-0.47174067700107114,0.9999921898250091,8.345683344733907e-05
-0.4716812131955521,-0.4716812131955521,1.0000318242569446,8.075550685374456e-05
-0.4716231516969856,-0.4716231516969856,1.0000228715887631,8.208480025932404e-05
