time,time,flux,flux_err
-0.4999723052746958,-0.4999723052746958,0.9997551875096491,0.00016460763365669013
-0.49988886927520565,-0.49988886927520565,1.0000649882573986,0.00016596339455158214
-0.4997818758693825,-0.4997818758693825,0.9999933293982807,0.00016779539444204211
-0.499577726695793,-0.499577726695793,1.000019964210477,0.0001593708215914298
-0.49946086643217313,-0.49946086643217313,1.0001121520126062,0.00016775749215976486
-0.49936629871452853,-0.49936629871452853,1.0000059274641084,0.00015964563902568069
-0.49928737347290736,-0.49928737347290736,1.0000110266430493,0.00015014086123607881
-0.4991688118249499,-0.4991688118249499,0.9998681000943362,0.00016542114470194386
-0.4990328798226528,-0.4990328798226528,0.9997517163035958,0.00014630810365633698
-0.49880059132719906,-0.49880059132719906,0.9999826663686381,0.0001598765986687356
-0.4986586778560991,-0.4986586778560991,0.999900165010865,0.00015087765920748376
-0.4985619922231194,-0.4985619922231194,1.00000807591958,0.0001469579700982961
-0.49848684516929326,-0.49848684516929326,1.000134634508424,0.00015663041762833493
-0.4984154619207629,-0.4984154619207629,1.0000778510373258,0.00016228202845252043
-0.4982102789635974,-0.4982102789635974,1.000120642578724,0.00016658156625703953
-0.4980132358236119,-0.4980132358236119,1.0001868639322986,0.00016732068308503614
-0.4979555863414816,-0.4979555863414816,1.0000930948330768,0.00015671132581312298
-0.497892451013297,-0.497892451013297,1.0001546031537778,0.00015128937620695495
-0.4977664046891732,-0.4977664046891732,0.9999382120234195,0.0001674755986232046
-0.49766950167457935,-0.49766950167457935,0.9998812708580669,0.00014661718904344573
-0.49744747560990843,-0.49744747560990843,1.0000662362669401,0.00015267492884963956
-0.49728272795068734,-0.49728272795068734,0.9999040569309097,0.00015715358884607592
-0.49716834534233384,-0.49716834534233384,0.9999301606530894,0.00014874372941709246
-0.49709961068462005,-0.49709961068462005,1.0000220023532775,0.00015282651085654094
-0.4970302631974164,-0.4970302631974164,1.0000562769542025,0.00015999363580836026
-0.4968935785597296,-0.4968935785597296,0.9999059155822027,0.00016179834637320187
-0.4966414804291503,-0.4966414804291503,0.9997892568116769,0.00017774098490507215
-0.4965266928190431,-0.4965266928190431,1.0000712315959985,0.00015961426870318948
-0.49647983783853533,-0.49647983783853533,0.9997684478057469,0.0001453947110902744
-0.4963668167688297,-0.4963668167688297,0.9997490186179986,0.00015319379336779348
-0.4962955943663701,-0.4962955943663701,1.0001464430916716,0.00016094796098774252
-0.49612105604019235,-0.49612105604019235,1.0000963947130432,0.00015230977055372886
-0.495913863805481,-0.495913863805481,1.0002515460470192,0.0001587596350414724
-0.49577045087336274,-0.49577045087336274,0.9998579825319762,0.00014763131738141836
-0.4956932916138612,-0.4956932916138612,0.9999782002075266,0.0001486280947404301
-0.4956301845266921,-0.4956301845266921,1.000220232029143,0.00015284512801069095
-0.49554918563516137,-0.49554918563516137,1.0000527549874323,0.0001671899536549266
-0.49532103056304777,-0.49532103056304777,1.000137479635058,0.0001731411407627339
-0.4951305947898049,-0.4951305947898049,1.0002384477403978,0.00016913082252518276
-0.4950873105560504,-0.4950873105560504,1.0001298176467992,0.00014724063527785127
-0.49499273048481884,-0.49499273048481884,1.0002816066942886,0.0001478892572524014
-0.4948982336917993,-0.4948982336917993,1.0000402969845346,0.00016579455966947472
-0.4947919926365216,-0.4947919926365216,0.999728272096014,0.00014769651093494486
-0.4945712276570703,-0.4945712276570703,0.9998789727777236,0.00015784748628609697
-0.4943992756980151,-0.4943992756980151,1.0001706612290655,0.00015087645393947177
-0.494302605372377,-0.494302605372377,1.0001089123840827,0.00014694414355010966
-0.4942274838469757,-0.4942274838469757,1.0001154512030148,0.00015658049533460699
-0.4941736374596303,-0.4941736374596303,0.9999438578549071,0.00016334583954467948
-0.49400088446144536,-0.49400088446144536,0.9999084731049406,0.0001624499078325885
-0.49376761192127105,-0.49376761192127105,0.9999828892529958,0.0001739012273243758
-0.4936815014667218,-0.4936815014667218,0.9999050900572012,0.00015962789860305446
-0.4936183727874891,-0.4936183727874891,0.9996567379702441,0.0001455323952391407
-0.49350946221204595,-0.49350946221204595,0.9999066072709899,0.00016337772841943564
-0.49336395786317555,-0.49336395786317555,1.0000399243364897,0.00014562456566165593
-0.4931279117954773,-0.4931279117954773,1.0001095954970485,0.00015887905503021694
-0.4929794749828261,-0.4929794749828261,0.9999230200958437,0.00015085709315384793
-0.49288280977161775,-0.49288280977161775,1.0000383537299784,0.00014695205553983957
-0.4928076967370771,-0.4928076967370771,0.9999215760606992,0.00015653788353624145
-0.4927538393174927,-0.4927538393174927,1.0000655489236148,0.0001633359100061281
-0.4925811054931387,-0.4925811054931387,0.9999744160527761,0.000162437690153644
-0.4923478228051977,-0.4923478228051977,1.000147028744671,0.0001738759441446776
-0.4922625978839733,-0.4922625978839733,0.9999627361012644,0.0001585134670420625
-0.4922204263888375,-0.4922204263888375,1.0000337154973962,0.00014543566051824168
-0.4921041020456073,-0.4921041020456073,1.000035793967362,0.0001651189858890673
-0.4919758429574358,-0.4919758429574358,1.0002026604128846,0.00014603121827677358
-0.4917316419696817,-0.4917316419696817,1.0002242212610004,0.00015786174268979595
-0.4915596742715934,-0.4915596742715934,0.9998680103691322,0.00015084846243670268
-0.49146301417756605,-0.49146301417756605,0.9998488285270437,0.00014693143666807707
-0.4913879096254504,-0.4913879096254504,0.999990535115067,0.00015656616738974103
-0.4913340411790955,-0.4913340411790955,1.0002301366643702,0.00016332636560006025
-0.4911613265273672,-0.4911613265273672,1.0001495226418897,0.00016242397289330924
-0.49092803369239846,-0.49092803369239846,1.0001566699233462,0.00017381853506705626
-0.49084190718441506,-0.49084190718441506,0.9999736212823868,0.0001596031485555741
-0.4907846035586886,-0.4907846035586886,0.9998671779201617,0.00014831237628526204
-0.49068430741413066,-0.49068430741413066,0.9996865504683997,0.0001650620229264973
-0.4905243558182292,-0.4905243558182292,1.0000893455634856,0.00014562267341199472
-0.4903094629153998,-0.4903094629153998,0.9998433629126604,0.00015823635697901218
-0.49013987356109967,-0.49013987356109967,1.0002731301494794,0.00015085836829868818
-0.49004512853226745,-0.49004512853226745,1.000082967144024,0.00014797598317902062
-0.4899853119697696,-0.4899853119697696,1.0002182042572758,0.00015549945440295016
-0.4899279527293629,-0.4899279527293629,0.9999181007096143,0.00015888997691064792
-0.4897946922784399,-0.4897946922784399,0.9998480424099621,0.0001617238913735675
-0.48956624801255655,-0.48956624801255655,0.9997913627921907,0.0001724806182688379
-0.48943734515082726,-0.48943734515082726,1.0000758261532385,0.00016306342449068847
-0.4893967929759128,-0.4893967929759128,1.0000792923659632,0.00014678226772899523
-0.4892882580042965,-0.4892882580042965,1.0000758371206842,0.0001548789522975996
-0.48915561261093216,-0.48915561261093216,1.0001620851737592,0.00015838925845278656
-0.4889157394572067,-0.4889157394572067,1.000008447318955,0.0001519023024016635
-0.4887664614482219,-0.4887664614482219,1.000004142324402,0.00015988451270741887
-0.488649833863974,-0.488649833863974,0.9999617502090175,0.00014877198049047328
-0.4885943079430149,-0.4885943079430149,1.0000491392813504,0.00014861996177973429
-0.488531213327758,-0.488531213327758,0.9997770705959915,0.00015275546224006577
-0.488450248340223,-0.488450248340223,0.9998848723957033,0.00016703591206248912
-0.48822822505097746,-0.48822822505097746,0.9998610669358001,0.00016246066395549373
-0.4880549080234914,-0.4880549080234914,1.0000289113240106,0.0001691897105749953
-0.48799603353360227,-0.48799603353360227,1.0000937518095798,0.00015977793283479706
-0.4879152130392754,-0.4879152130392754,0.9999199746906215,0.00014782319273335995
-0.4877986199089605,-0.4877986199089605,1.0001660353125186,0.00016195277245583707
-0.4875893428983318,-0.4875893428983318,1.0000137713293165,0.0001515526675775135
-0.4873951530099703,-0.4873951530099703,0.999823624413023,0.00015875159909078653
-0.4872516207058766,-0.4872516207058766,0.9999445953280427,0.00014760293021937916
-0.48718792083466267,-0.48718792083466267,1.0001172577556738,0.0001486092567996341
-0.4871201628118683,-0.4871201628118683,1.000064091465818,0.00015360576119970794
-0.48705709812728626,-0.48705709812728626,0.9999454296005101,0.0001622062022218049
-0.486887947570483,-0.486887947570483,0.9996788234080463,0.00016608195357396862
-0.48669652397302343,-0.48669652397302343,1.0001603447132603,0.0001729891109234646
-0.4865880723152031,-0.4865880723152031,0.9999314106007418,0.0001595779679391936
-0.4865412112010631,-0.4865412112010631,1.0005713965480831,0.00014545952089430934
-0.48642492354475736,-0.48642492354475736,1.0000286333088586,0.00016512805599127545
-0.48626495273369985,-0.48626495273369985,1.0000720663166003,0.00014560829031612203
-0.4860120251220678,-0.4860120251220678,0.999735528329086,0.0001594260743994452
-0.48585658310424834,-0.48585658310424834,0.9999263123493793,0.00015122597336373407
-0.4857807609855399,-0.4857807609855399,1.0000467822557926,0.00014584684348756158
-0.48570876123700374,-0.48570876123700374,1.0000593523199526,0.00015649735651206788
-0.48566181202610326,-0.48566181202610326,1.0000403831100158,0.00015838291110901358
-0.48556103367511694,-0.48556103367511694,1.0002244693407432,0.00016019029067634687
-0.4853302986343692,-0.4853302986343692,0.999981791904864,0.0001719072663517928
-0.4851920215846235,-0.4851920215846235,1.0000094449643946,0.00016911340541959574
-0.48513739457924887,-0.48513739457924887,1.000836187957908,0.00014685169343646494
-0.4850288860151977,-0.4850288860151977,0.9998640420703981,0.00015491758135630497
-0.48489620596950544,-0.48489620596950544,0.9999138525243516,0.00015833999215542093
-0.48463267785733705,-0.48463267785733705,1.0001551429374782,0.00015783595915479226
-0.48446067074639815,-0.48446067074639815,0.9999716446209505,0.00015085593315299772
-0.4843659681295776,-0.4843659681295776,1.0001063280812905,0.00014800191939476424
-0.4843061359321723,-0.4843061359321723,0.9999902834271392,0.00015541431191833745
-0.4842487585058393,-0.4842487585058393,1.0001252215605934,0.00015890678293979714
-0.48414422088784476,-0.48414422088784476,1.0002123417833517,0.00015840042619055643
-0.4839627597203844,-0.4839627597203844,1.0002327471664871,0.00017301817673702634
-0.4837722254286291,-0.4837722254286291,0.9999241066272433,0.0001691011021122772
-0.4837175951186964,-0.4837175951186964,0.9999913905743592,0.00014679113711598915
-0.4836220056090156,-0.4836220056090156,1.0000014808915658,0.00014915342741284873
-0.48351233485051354,-0.48351233485051354,0.9999085255413249,0.00016362148851741624
-0.48325743073264676,-0.48325743073264676,0.9999882911390623,0.00015280266871779547
-0.48307430096278947,-0.48307430096278947,1.0001486307517098,0.0001572347783413823
-0.48295485262646026,-0.48295485262646026,0.9999361815661441,0.0001475881219318549
-0.4829016252352858,-0.4829016252352858,1.0001888516755428,0.00015281728849098934
-0.48284095112073827,-0.48284095112073827,0.9999491222496987,0.00014937966357441663
-0.48274739002565636,-0.48274739002565636,1.0001021853833285,0.00016575601549564164
-0.4825905463231834,-0.4825905463231834,1.0000926078282775,0.0001659188568945818
-0.4823757199980491,-0.4823757199980491,1.0000943896333174,0.00016923360245932494
-0.4823128183317181,-0.4823128183317181,0.9998685486526023,0.0001595314516523693
-0.48221456787536,-0.48221456787536,1.0001313999259502,0.00014787565753278186
-0.4820925359998455,-0.4820925359998455,1.0000857176358653,0.00016369761856400023
-0.48184665113478786,-0.48184665113478786,1.0001782191807411,0.00015051203890886276
-0.48168521493854544,-0.48168521493854544,1.0002524885943402,0.000158521631744076
-0.481550837769953,-0.481550837769953,0.9999754531943958,0.00014875907868771584
-0.4814953243749301,-0.4814953243749301,0.9998745046769276,0.00014858545326892607
-0.48143224234843274,-0.48143224234843274,1.0000375142108715,0.00015274572574795718
-0.48135131110025214,-0.48135131110025214,1.0000260425022174,0.0001668863258162167
-0.4811863500717095,-0.4811863500717095,0.9999113690686576,0.00016151577969305322
-0.48098950998198686,-0.48098950998198686,0.9999033788303084,0.00017377748909339422
-0.48090213247301106,-0.48090213247301106,0.9999355777892689,0.00015942319545332755
-0.4808162367835848,-0.4808162367835848,1.0001835248819684,0.00014782850695207
-0.4806995792117391,-0.4806995792117391,0.9998914887653381,0.0001620166663824794
-0.48047770768096143,-0.48047770768096143,0.9997360716294571,0.00015111614376542211
-0.48026542945071926,-0.48026542945071926,0.9999574611423151,0.00015849269048613348
-0.4801310385679699,-0.4801310385679699,1.0000747752590713,0.00014881061310070706
-0.4800755276777977,-0.4800755276777977,0.9996594792388868,0.00014857838532647072
-0.4800124481770581,-0.4800124481770581,0.99989751824723,0.00015271643525434922
-0.47990539929764964,-0.47990539929764964,0.9999237895117176,0.0001697627797147525
-0.47968761588192593,-0.47968761588192593,0.9999511255754342,0.00016830548789067832
-0.4795128369940699,-0.4795128369940699,1.000147986378868,0.00016914292182208904
-0.47945058183528316,-0.47945058183528316,1.0000990507102714,0.00015114632237103807
-0.4793497234703068,-0.4793497234703068,1.0000292794560164,0.00015491815834186884
-0.47921699709208954,-0.47921699709208954,1.000323402024508,0.00015837892014302393
-0.4789535066761118,-0.4789535066761118,0.9999986249092847,0.0001577733038571711
-0.47878146797095267,-0.47878146797095267,1.000072189043471,0.00015089631793685894
-0.47868680786252754,-0.47868680786252754,1.0000614054223682,0.00014802048562364124
-0.4786269599526122,-0.4786269599526122,0.9998257341654314,0.00015543365417799824
-0.47856161223810434,-0.47856161223810434,1.0001668959296488,0.0001624823609458862
-0.47843601843277384,-0.47843601843277384,0.9998300125086473,0.00015639730874280822
-0.4782079112183169,-0.4782079112183169,1.0000847953124956,0.00017249467500988618
-0.47807871765805887,-0.47807871765805887,1.0000747231734062,0.00016585960646167789
-0.47801477465289965,-0.47801477465289965,0.9997747659228233,0.0001498170748553298
-0.4779118029106826,-0.4779118029106826,0.9999307820254801,0.0001549823213696422
-0.4777971948705044,-0.4777971948705044,0.9997180937252439,0.0001583612339185956
-0.4775337138970599,-0.4775337138970599,0.9999211521974243,0.00015778631120460466
-0.4773616672823778,-0.4773616672823778,1.0000405638524397,0.00015086856369503327
-0.47726701781376735,-0.47726701781376735,0.9998747804448211,0.00014799014573927565
-0.47720716596809326,-0.47720716596809326,1.000181706782363,0.00015545084564973417
-0.4771418122004434,-0.4771418122004434,1.0002789527125835,0.00016258306546915088
-0.47695331195542395,-0.47695331195542395,1.0001540286100523,0.00016100237577238452
-0.4767245614086278,-0.4767245614086278,1.0001739496059117,0.00017033878551102127
-0.4766404631991463,-0.4766404631991463,1.00005889156284,0.00015776232340916353
-0.4765832990132367,-0.4765832990132367,0.9999539274986784,0.0001515183720018919
-0.4765100681412946,-0.4765100681412946,1.0000547955595733,0.00015769813135278312
-0.47637739264604306,-0.47637739264604306,1.0002632125843303,0.00015836302909303306
-0.47611711339105794,-0.47611711339105794,0.9999712729914879,0.00015358719260304382
-0.47597534476090003,-0.47597534476090003,0.9997438652862138,0.0001572390968818974
-0.4758558843014612,-0.4758558843014612,0.9998925707467736,0.00014754611213597173
-0.47580263267528833,-0.47580263267528833,1.0001058727326146,0.00015279186152344085
-0.4757387818937332,-0.4757387818937332,0.9998808501947198,0.0001601700710944862
-0.47558759506496245,-0.47558759506496245,0.9997096359177948,0.00016143444470049156
-0.4753382085211001,-0.4753382085211001,0.9997330972055956,0.00017304032154997839
-0.47522844168677236,-0.47522844168677236,0.9997781425344157,0.00015934660891466312
-0.47514926172858624,-0.47514926172858624,1.0000329003595276,0.00014729612198550361
-0.4750496837909509,-0.4750496837909509,0.9997534451609734,0.00016753185171977024
-0.4749442838936943,-0.4749442838936943,0.9996847649014523,0.00015209891440062527
-0.474697319999018,-0.474697319999018,1.000254854489119,0.00015358909611210515
-0.47455555352975126,-0.47455555352975126,0.9999874603969398,0.00015722396871006728
-0.4744364203037435,-0.4744364203037435,0.9999859322623561,0.00014796274507003347
-0.474393135525338,-0.474393135525338,1.0000673859965534,0.00014772607882216227
-0.4743332715921724,-0.4743332715921724,0.9998626402369769,0.0001527033355255166
-0.47422570703613476,-0.47422570703613476,1.0000981852113557,0.00016729231011084736
-0.47394853494145084,-0.47394853494145084,1.0003494191845432,0.00017248865865518816
-0.473819328905347,-0.473819328905347,0.999976199553785,0.00016584840780686918
-0.4737503676626261,-0.4737503676626261,1.0001129908142323,0.00014503868464226175
-0.4736477782855218,-0.4736477782855218,1.0002621551999344,0.00015766508576486467
-0.47354565670718785,-0.47354565670718785,1.0001449786624708,0.00016313673610880418
-0.47331883825605703,-0.47331883825605703,0.9999316865675197,0.00015275745745900983
-0.4731648501452582,-0.4731648501452582,0.9997760425127623,0.0001572995911348159
-0.4730323768298376,-0.4730323768298376,0.9999338005769112,0.00014918519987044374
-0.4729762223894454,-0.4729762223894454,1.0001516617560664,0.00015281054048721458
-0.47289918154449423,-0.47289918154449423,0.9999400837992166,0.000160178619779395
-0.4728004066690801,-0.4728004066690801,0.9999726869742664,0.00015396112556816973
-0.4725886613195712,-0.4725886613195712,0.9999042990019247,0.00016826146043064444
-0.47241385636019684,-0.47241385636019684,0.9996897808126878,0.0001691528251449607
-0.47234659083061387,-0.47234659083061387,0.9999223507118371,0.0001463871045474275
-0.4722507704667237,-0.4722507704667237,1.0000990753257175,0.0001548855973526778
-0.47215152112300984,-0.47215152112300984,0.9999284129346313,0.00016171666751495039
-0.47194656941924223,-0.47194656941924223,1.0000702434532558,0.00015566481656636617
-0.47176976856926556,-0.47176976856926556,0.9998584230787723,0.00016077634733435855
-0.4716341045448644,-0.4716341045448644,0.9999900885894746,0.00014807373533186707
-0.47157019975312553,-0.47157019975312553,0.9997215039906946,0.00014857147214774504
-0.4714936833531624,-0.4714936833531624,1.0002645814304731,0.00015270775490507495
-0.47138870849285014,-0.47138870849285014,1.0001029972770445,0.00016519658735970893
-0.47119721609075216,-0.47119721609075216,1.0002190382293432,0.00015723085515696316
-0.47101734413752183,-0.47101734413752183,1.000038496772159,0.00016917842534011873
-0.4709433247865945,-0.4709433247865945,0.9999983230141261,0.0001574149623904287
-0.4708546921411994,-0.4708546921411994,1.0001530529962015,0.0001497057227539944
-0.47074745238570587,-0.47074745238570587,0.9998800462035906,0.00016649125849960004
-0.470580565174464,-0.470580565174464,1.000184078964875,0.00015730242645339176
-0.47037592114940024,-0.47037592114940024,1.000030835218284,0.00015519390022448114
-0.4702390334074494,-0.4702390334074494,1.0000567438268182,0.0001516431847695097
-0.47016306162995536,-0.47016306162995536,0.9999859924652752,0.00014580978413149815
-0.4700851280280176,-0.4700851280280176,1.0000916963857736,0.00015752099584927736
-0.4699955979567676,-0.4699955979567676,1.0001055079179266,0.00016531849901242672
-0.4698209608859202,-0.4698209608859202,0.9999326026986175,0.00015608186075229434
-0.469614233417235,-0.469614233417235,0.9999559128489507,0.00017025673106939597
-0.46953991954159163,-0.46953991954159163,0.9999556581878076,0.00015738470946568785
-0.4694490793999876,-0.4694490793999876,1.0001140319391486,0.0001495767215630709
-0.4693529403743469,-0.4693529403743469,0.9998054316431488,0.00016548833124271854
