time,time,flux,flux_err
-0.49992963153878617,-0.49992963153878617,1.0002283131088097,8.24771768672419e-05
-0.49982676359286415,-0.49982676359286415,1.0000387586863921,8.069651651132055e-05
-0.4996963866477017,-0.4996963866477017,0.9999346871785872,7.374021285919785e-05
-0.4996018254983937,-0.4996018254983937,1.0000759994767896,7.571882459562e-05
-0.49947939193225466,-0.49947939193225466,1.0000754816029582,7.412259282600859e-05
-0.49934171689674256,-0.49934171689674256,1.0000410280976093,7.39107486153802e-05
-0.49922595346433807,-0.49922595346433807,1.0000913982056003,7.484147399530274e-05
-0.4991080589912599,-0.4991080589912599,1.0000812842592743,7.516170805120551e-05
-0.4990044292906532,-0.4990044292906532,1.0001345935789234,7.352253462095015e-05
-0.49885192416695645,-0.49885192416695645,0.9999312398384174,7.332941941377174e-05
-0.49879606015601896,-0.49879606015601896,1.0001149894583208,7.286096012526466e-05
-0.4987345908739371,-0.4987345908739371,1.0000743021235803,7.347697729024921e-05
-0.49863708983029936,-0.49863708983029936,1.0000818783357077,7.70532429116116e-05
-0.4985277729574591,-0.4985277729574591,1.0000880318182266,7.320380133763211e-05
-0.498411870097334,-0.498411870097334,0.9998739874094656,7.30668231047723e-05
-0.49831194580328886,-0.49831194580328886,0.9999851430664093,7.746753861516672e-05
-0.4982114000042202,-0.4982114000042202,0.9999177875852141,7.329594987738463e-05
-0.49805559301021274,-0.49805559301021274,1.0000005945657686,7.388053022364569e-05
-0.49790754565474343,-0.49790754565474343,1.0000480918612515,7.55972314398783e-05
-0.4977608162400429,-0.4977608162400429,0.9999244753218388,7.341534722511051e-05
-0.4976732990340679,-0.4976732990340679,0.9999478958184301,7.304557015184742e-05
-0.49760033765633127,-0.49760033765633127,1.0001142809002723,7.562952355231759e-05
-0.4975376825692365,-0.4975376825692365,1.0001574173359524,7.284101897309705e-05
-0.4973579666679143,-0.4973579666679143,1.0000382892169895,7.554302842242681e-05
-0.49720728762767974,-0.49720728762767974,1.0000073923634427,7.415396113330227e-05
-0.4971122989256401,-0.4971122989256401,0.9998629082380572,7.314210071049153e-05
-0.4969472892276826,-0.4969472892276826,0.9999531710050711,7.397279286612198e-05
-0.49679841208999276,-0.49679841208999276,1.0001476338672586,7.375027516663964e-05
-0.49669178589538204,-0.49669178589538204,1.000058388820084,7.303103757771724e-05
-0.49662207212095383,-0.49662207212095383,0.999998847717546,7.354138237774948e-05
-0.496561126645247,-0.496561126645247,1.0001717266560812,7.555499594762669e-05
-0.49638852704083547,-0.49638852704083547,1.0001254783300393,7.29142525319632e-05
-0.49627700873970754,-0.49627700873970754,1.000176820095876,7.59596004557688e-05
-0.49620136597077363,-0.49620136597077363,1.0000609558732445,7.367088167308058e-05
-0.4961040192109067,-0.4961040192109067,1.0000139439114213,7.776742859316717e-05
-0.4959537687464035,-0.4959537687464035,1.0000953273217188,7.501464624024186e-05
-0.4958417419155012,-0.4958417419155012,1.0000827537791905,7.797134468563317e-05
-0.4957572955769137,-0.4957572955769137,1.000136772239905,7.363265447077327e-05
-0.4956640020434861,-0.4956640020434861,0.9999178014715667,7.296754916569413e-05
-0.49552676175080707,-0.49552676175080707,0.9999716703346,7.584276843770486e-05
-0.49537594383291433,-0.49537594383291433,0.9998522413985071,7.316064695868142e-05
-0.49526291403890355,-0.49526291403890355,1.0000659332396356,7.543862929882168e-05
-0.49514975443453296,-0.49514975443453296,1.000020735012402,7.504054839963857e-05
-0.49505099384550705,-0.49505099384550705,1.000002658446277,7.374156791632651e-05
-0.4948890778410714,-0.4948890778410714,1.0000307998909197,7.478851534015681e-05
-0.49472795316542034,-0.49472795316542034,0.9999896774441677,7.527333329516418e-05
-0.4946549029991729,-0.4946549029991729,1.0000000456663831,7.537157193219799e-05
-0.4945158892965992,-0.4945158892965992,0.9999063295495721,7.364262103132304e-05
-0.49442647753894564,-0.49442647753894564,1.0000760019200627,7.298731423727514e-05
-0.4942938876585686,-0.4942938876585686,1.0000634626601377,7.354740534140876e-05
-0.4942541933152825,-0.4942541933152825,1.000126891851647,7.521905419026583e-05
-0.4941260043618968,-0.4941260043618968,0.9998550662013296,7.316018107517502e-05
-0.4940611502039246,-0.4940611502039246,1.0001335300377014,7.358163277136254e-05
-0.4939842071136809,-0.4939842071136809,1.0000407693108804,7.723347835988953e-05
-0.4939101227733772,-0.4939101227733772,0.9999727266542537,7.32475669485003e-05
-0.4937378203147091,-0.4937378203147091,1.0000283668824221,7.420433939675392e-05
-0.4936016720108455,-0.4936016720108455,0.9999338849519365,7.345032025882239e-05
-0.49343331975105686,-0.49343331975105686,0.9999557445131206,7.382948103402853e-05
-0.4932813003557385,-0.4932813003557385,1.0000170688489969,7.491814322505083e-05
-0.49321757668221833,-0.49321757668221833,0.9999453292327424,7.384018630490617e-05
-0.49314780261483976,-0.49314780261483976,1.0000327952903532,7.334852635599657e-05
-0.49296144410182025,-0.49296144410182025,0.9999832921173842,7.552074290777056e-05
-0.4928499915564316,-0.4928499915564316,1.0000713163628754,7.456733888517168e-05
-0.49274663477408465,-0.49274663477408465,0.9999753327801066,7.520676948629228e-05
-0.492653952226101,-0.492653952226101,1.0000217632948232,7.304556600037863e-05
-0.49254994966468074,-0.49254994966468074,0.999855657626201,7.585134650640057e-05
-0.49243046797637363,-0.49243046797637363,0.9999895969550344,7.547695269884881e-05
-0.4923096754020662,-0.4923096754020662,0.99997053734825,7.349192558662367e-05
-0.4922273793534259,-0.4922273793534259,0.9999975956320162,7.554028458659787e-05
-0.49216318530234276,-0.49216318530234276,0.9998967512957242,7.30685896689093e-05
-0.49200733898615,-0.49200733898615,1.0001169510417824,7.350276045526256e-05
-0.4918324535479769,-0.4918324535479769,0.9999047838754633,7.554344645740549e-05
-0.49176635031326443,-0.49176635031326443,1.0000113786233809,7.4190409385708e-05
-0.49167876003484706,-0.49167876003484706,1.000139711576611,7.384965384031244e-05
-0.4915842199960025,-0.4915842199960025,1.0000251247315464,7.328550525523083e-05
-0.49149623119010355,-0.49149623119010355,1.000098736028574,7.793148126197311e-05
-0.491366598760942,-0.491366598760942,1.0000422348784181,7.371666488732696e-05
-0.4912907193574938,-0.4912907193574938,0.9999440275841052,7.342933058159399e-05
-0.49118794521637027,-0.49118794521637027,0.9999955130192266,7.567737440374687e-05
-0.49103336063417374,-0.49103336063417374,0.9999845275442342,7.794885216468834e-05
-0.49092552177171456,-0.49092552177171456,0.9998890089835939,7.46527866401821e-05
-0.4908338724344503,-0.4908338724344503,0.9998573526713936,7.344883772264068e-05
-0.49075505849614276,-0.49075505849614276,1.0000180190896049,7.401478085388937e-05
-0.4906234360241797,-0.4906234360241797,1.0000155652729998,7.533001512484848e-05
-0.49039259643031985,-0.49039259643031985,0.9999996870009504,7.491472713937238e-05
-0.49030239889252697,-0.49030239889252697,1.0000080462415246,7.36865091990226e-05
-0.4901834985241294,-0.4901834985241294,1.0000025539843669,7.318692491884549e-05
-0.4900579344073776,-0.4900579344073776,1.0000090516941615,7.315533758124102e-05
-0.48992023229948245,-0.48992023229948245,1.0001626749418044,7.512045991170637e-05
-0.4898290155048016,-0.4898290155048016,0.9999506663628971,7.344184239036069e-05
-0.4897112702165032,-0.4897112702165032,0.9999342399366556,7.552579901404456e-05
-0.489616464242863,-0.489616464242863,0.9999668353057043,7.54837515981852e-05
-0.489534345267748,-0.489534345267748,0.9999553301681312,7.422745788306708e-05
-0.48931479238090103,-0.48931479238090103,1.000062921430812,7.376612924293946e-05
-0.4891512876041816,-0.4891512876041816,0.9999961424470726,7.622249486052356e-05
-0.48900982772465795,-0.48900982772465795,1.0000241568579042,7.751220948526517e-05
-0.48887225261569256,-0.48887225261569256,1.0001634105934967,7.270477962768969e-05
-0.48883327581570485,-0.48883327581570485,1.0000179523062567,7.353219310407032e-05
-0.48877579998079457,-0.48877579998079457,1.0001396219307508,7.31694987527468e-05
-0.4886279645987088,-0.4886279645987088,0.9997939121994458,7.530365006517082e-05
-0.4884462161178817,-0.4884462161178817,1.0000388409394811,7.601586227566733e-05
-0.48837119899544634,-0.48837119899544634,0.9999234640316459,7.578781203760904e-05
-0.4882862457350711,-0.4882862457350711,0.9999057556815701,7.316744521640373e-05
-0.48818897999735783,-0.48818897999735783,1.000057799073243,7.561597182774798e-05
-0.48810667739162455,-0.48810667739162455,1.0000089058799984,7.551497738685263e-05
-0.4879808635552763,-0.4879808635552763,1.0000707540194627,8.118345345861777e-05
-0.48782377509051,-0.48782377509051,0.9999916090270728,7.363796961676641e-05
-0.4877445907477522,-0.4877445907477522,0.9999891194722984,7.32702424026414e-05
-0.4876474046279327,-0.4876474046279327,0.9999974529706135,7.363462257544152e-05
-0.4875382462589187,-0.4875382462589187,1.000066183405991,7.264115198905193e-05
-0.48742536625941285,-0.48742536625941285,1.0000193427173394,7.368450356253871e-05
-0.4873657964679296,-0.4873657964679296,0.9998895458340205,7.416093755599949e-05
-0.4872807434789138,-0.4872807434789138,1.0000331682922796,7.389911547204929e-05
-0.4871875049357186,-0.4871875049357186,0.9999335585163587,7.559743260508708e-05
-0.48703579292923677,-0.48703579292923677,0.9999691801769348,7.37078831996736e-05
-0.48695361028803746,-0.48695361028803746,0.999888171481756,7.352439794639198e-05
-0.486879547436547,-0.486879547436547,0.999932426028981,7.37911340444499e-05
-0.4867590569279855,-0.4867590569279855,0.9999399800556876,7.778328266476931e-05
-0.4865703038245556,-0.4865703038245556,0.9999845768965228,7.510401552378544e-05
-0.48646021305030446,-0.48646021305030446,0.999966238910871,7.265228916492827e-05
-0.48636845782893945,-0.48636845782893945,0.9999160514040065,7.428175427859435e-05
-0.4862652136318502,-0.4862652136318502,1.0000611766455099,7.519578854975825e-05
-0.4861482294101734,-0.4861482294101734,1.0000181254102647,7.486297213390238e-05
-0.4859705843919073,-0.4859705843919073,0.999991320105331,7.369999975232083e-05
-0.48588560454227264,-0.48588560454227264,0.9998955052032257,7.30284306898566e-05
-0.48578748720465226,-0.48578748720465226,0.9999556802410263,7.325554421668085e-05
-0.48566261430096347,-0.48566261430096347,1.0000676579400198,7.700625219934686e-05
-0.48551610310387333,-0.48551610310387333,0.9999600144609045,7.296314702020841e-05
-0.48542700352700197,-0.48542700352700197,0.9999553159561106,7.330563998934839e-05
-0.48535623442294307,-0.48535623442294307,1.0000460818014603,7.768496271138261e-05
-0.4852982541662641,-0.4852982541662641,0.9999653309970424,7.536790316455901e-05
-0.4852159007554292,-0.4852159007554292,0.9999241632789954,7.356374507050776e-05
-0.48514009339996844,-0.48514009339996844,0.9999969050311567,7.300004068484594e-05
-0.48495426345907616,-0.48495426345907616,0.9998541476191238,7.486926560660782e-05
-0.4847297953965608,-0.4847297953965608,0.9999784001620713,7.436286024031318e-05
-0.48454574254428734,-0.48454574254428734,0.9999689698733825,7.513434325685685e-05
-0.48444810297369256,-0.48444810297369256,1.0001295991789445,7.285908719449181e-05
-0.4843897029713844,-0.4843897029713844,1.000152788049493,7.325268850545577e-05
-0.484304593403067,-0.484304593403067,1.0000091501267565,7.518335776549529e-05
-0.48413325469591656,-0.48413325469591656,0.9999849363749709,7.711559734510185e-05
-0.4839889600960305,-0.4839889600960305,1.000244963284145,7.6138308801268e-05
-0.48385223448131,-0.48385223448131,0.9999781215308806,7.303646877253282e-05
-0.4837895950040547,-0.4837895950040547,1.0000160489225345,7.332260875155028e-05
-0.4837014874239685,-0.4837014874239685,1.0000583836996566,7.561357982524325e-05
-0.4835202711503371,-0.4835202711503371,1.0001056070263314,7.579909710649512e-05
-0.4833696560992394,-0.4833696560992394,0.9999325339602437,7.35266807619225e-05
-0.483278150834667,-0.483278150834667,0.9999570425091381,7.336525117466691e-05
-0.48318691214808496,-0.48318691214808496,0.999954293013373,7.317636292644407e-05
-0.48306444919726343,-0.48306444919726343,0.9999505129902693,7.352027769601991e-05
-0.482923712253978,-0.482923712253978,1.0000727368996862,7.411045049314331e-05
-0.48281412242358784,-0.48281412242358784,1.000000596282979,7.534926310457716e-05
-0.48262916980311277,-0.48262916980311277,0.999943507219719,7.34698213110102e-05
-0.48257765115995427,-0.48257765115995427,1.0000472090456762,7.55551636105239e-05
-0.4824914491531672,-0.4824914491531672,1.0000298354303285,7.522525021120471e-05
-0.48230241280398334,-0.48230241280398334,1.0001349858968251,7.547850778291321e-05
-0.48211813197121955,-0.48211813197121955,0.9998610766177022,7.246930854949619e-05
-0.4820434647393995,-0.4820434647393995,1.0001400901792272,7.37339639342538e-05
-0.48189399791881443,-0.48189399791881443,1.0000614635128608,7.538643942928595e-05
-0.4817397828926914,-0.4817397828926914,0.9997991470172691,7.512309787149305e-05
-0.4815875486805453,-0.4815875486805453,0.9998876974653802,7.32146400300182e-05
-0.4815091211799881,-0.4815091211799881,1.0000005170769652,7.310351046569208e-05
-0.48130788915004813,-0.48130788915004813,0.9999678007848228,7.689884871156069e-05
-0.48113860385055884,-0.48113860385055884,0.9999284148367714,7.441315794167178e-05
-0.48103490350185896,-0.48103490350185896,0.9999152716886393,7.70654469091491e-05
-0.4809420321325888,-0.4809420321325888,1.0001084883270526,7.499557099804191e-05
-0.4808733069017762,-0.4808733069017762,1.0000239383497385,7.346884088929028e-05
-0.48078683060157346,-0.48078683060157346,0.9999569890240723,7.327002448479284e-05
-0.4807288740805234,-0.4807288740805234,0.9999529037122956,7.48703527221143e-05
-0.4805795174353989,-0.4805795174353989,1.0000418083693057,7.608087545494204e-05
-0.4804352229461074,-0.4804352229461074,1.0000258050858641,7.334017364742435e-05
-0.4803543733272818,-0.4803543733272818,1.000052524580648,7.434799661122093e-05
-0.4803134124915232,-0.4803134124915232,1.0000611026648272,7.331888453476944e-05
-0.4801806781440973,-0.4801806781440973,1.0000381281833426,7.514964350396047e-05
-0.4800683466382907,-0.4800683466382907,0.9999239036645038,7.30727733488417e-05
-0.47999641465139575,-0.47999641465139575,1.000064735886417,7.545803251422124e-05
-0.4799242961962591,-0.4799242961962591,1.0000095671813953,7.357042322309307e-05
-0.47974728943081574,-0.47974728943081574,1.0000217679379795,7.50774416261838e-05
-0.4795385460383841,-0.4795385460383841,1.000013818595845,7.359141154475481e-05
-0.47940230769600023,-0.47940230769600023,1.0000525081452325,7.529872511794126e-05
-0.47933414894505405,-0.47933414894505405,1.0001196375559709,7.370690105159864e-05
-0.4791811521892669,-0.4791811521892669,1.000021895471837,7.374314421857601e-05
-0.47901228146220093,-0.47901228146220093,0.9998886454841832,7.363075296824194e-05
-0.47889995053992607,-0.47889995053992607,0.9998892807758519,7.278066184515015e-05
-0.4787855480768485,-0.4787855480768485,1.0000295086040796,7.318206471637651e-05
-0.4786997388524469,-0.4786997388524469,0.9999284092278128,7.588279340620035e-05
-0.47857869481958915,-0.47857869481958915,1.0000455646236608,7.388009179442376e-05
-0.4785170760427718,-0.4785170760427718,1.0000511946339237,7.549113449705616e-05
-0.4783851850661449,-0.4783851850661449,0.9998368079447031,7.343422467862906e-05
-0.47824643993517385,-0.47824643993517385,1.0001252519170383,7.384053837469793e-05
-0.4781664484296925,-0.4781664484296925,0.9999723471858418,7.49925984060505e-05
-0.47804154747427674,-0.47804154747427674,1.000072136313996,7.326742579208815e-05
-0.4778840542116086,-0.4778840542116086,1.0000580905134753,7.548597361397721e-05
-0.4777202630211832,-0.4777202630211832,1.0000825114943983,7.337858575014792e-05
-0.477641255663184,-0.477641255663184,1.0000665374277045,7.298343348158367e-05
-0.47747239087620985,-0.47747239087620985,0.999980666913719,7.789044071970345e-05
-0.4774024505037232,-0.4774024505037232,0.9999279553981448,7.264171294883418e-05
-0.4772624298959272,-0.4772624298959272,0.9998777938204517,7.310885319900712e-05
-0.47718739226984325,-0.47718739226984325,1.000056192061609,7.367747625409507e-05
-0.476944698265288,-0.476944698265288,1.0001310981041205,7.349927855803141e-05
-0.4767184465395985,-0.4767184465395985,0.9999478959492805,7.711161896659295e-05
-0.4766270019841613,-0.4766270019841613,0.9999677688148905,7.296222879923058e-05
-0.47654337474232306,-0.47654337474232306,1.0000102830596107,7.494402765386628e-05
-0.4764864255397697,-0.4764864255397697,0.9998776480554639,7.339500468335536e-05
-0.47641100537293823,-0.47641100537293823,1.0000549357562183,7.496655769436985e-05
-0.4763066786035779,-0.4763066786035779,1.0000458188816046,7.317150904379138e-05
-0.47614703078579623,-0.47614703078579623,1.0000908462673002,7.547660980516556e-05
-0.4760192847068538,-0.4760192847068538,1.0000833847629393,7.354869870482809e-05
-0.47593600074906134,-0.47593600074906134,0.9999851482888182,7.56370691835319e-05
-0.47579203519562724,-0.47579203519562724,0.9999274496652525,7.342444378346616e-05
-0.4756141455683974,-0.4756141455683974,1.0000028948687978,7.529810196749698e-05
-0.4755181852786336,-0.4755181852786336,0.9999209235459416,7.350449400008936e-05
-0.4753907101374352,-0.4753907101374352,0.9999530013377583,7.492267193418003e-05
-0.47521037964033896,-0.47521037964033896,0.9997708839381471,7.39082823516835e-05
-0.47512340266548564,-0.47512340266548564,1.0000524428205744,7.336621657080553e-05
-0.4749798383592861,-0.4749798383592861,0.9998863929668316,7.483357371449049e-05
-0.4748684141639387,-0.4748684141639387,0.9999742333185679,7.531379588301896e-05
-0.474745731119765,-0.474745731119765,0.9999186541953822,7.380331455682252e-05
-0.4745634298204095,-0.4745634298204095,0.9999909229963426,7.538473793521751e-05
-0.4744856868084753,-0.4744856868084753,0.9999172655979971,7.313352803907596e-05
-0.4743423269508639,-0.4743423269508639,0.9999071650369047,7.455083643883857e-05
-0.4742719403337105,-0.4742719403337105,1.0000150377480472,7.551836028442391e-05
-0.4741572699713288,-0.4741572699713288,0.9998460478805653,7.373721593587059e-05
-0.4739830354126752,-0.4739830354126752,1.0000458598414725,7.350525669847839e-05
-0.4738897745439317,-0.4738897745439317,0.9999532678127228,7.365075489571712e-05
-0.4737932018440915,-0.4737932018440915,0.9999069835677348,7.546816570857505e-05
-0.47366558197682024,-0.47366558197682024,1.0000513121789087,7.283058945609259e-05
-0.47359546058723934,-0.47359546058723934,0.9999524758203933,7.703290798607202e-05
-0.47343202986085087,-0.47343202986085087,1.0001950935127724,7.340345721857622e-05
-0.4733329561815481,-0.4733329561815481,0.9999137964998696,7.311017613432376e-05
-0.4732586169615388,-0.4732586169615388,1.0001559048971704,7.512962178252365e-05
-0.47311825633223636,-0.47311825633223636,1.0000736870057052,7.5328579403605e-05
-0.47301188186102083,-0.47301188186102083,1.0000012299714292,7.3687087853438e-05
-0.47292616549966626,-0.47292616549966626,0.9999339071106444,7.29333316414173e-05
-0.47285861311829647,-0.47285861311829647,1.0000944349315302,7.313409464662624e-05
-0.4727444557123818,-0.4727444557123818,0.999984824649857,7.392490458324822e-05
-0.4725080239324598,-0.4725080239324598,1.0000296076668367,7.361587067075517e-05
-0.4723461311630672,-0.4723461311630672,0.9999198973482709,7.516965643388481e-05
-0.47223466288269267,-0.47223466288269267,1.000039315634274,7.566447068384594e-05
-0.47216960964142346,-0.47216960964142346,0.999966139625913,7.33120351955499e-05
-0.4720785265788436,-0.4720785265788436,1.0000673078642757,7.485755344212183e-05
-0.4720149484157446,-0.4720149484157446,1.0001202451501583,7.32851466240972e-05
-0.4719523118154029,-0.4719523118154029,0.9998203514144806,7.368253252507908e-05
-0.4718575495062396,-0.4718575495062396,1.000273153851375,7.543199274727026e-05
-0.47177225859923055,-0.47177225859923055,1.0000647580049136,7.34256502395892e-05
-0.4715959188848501,-0.4715959188848501,1.0000856202010202,7.481751959241697e-05
