time,time,flux,flux_err
-0.498866168543221,-0.498866168543221,1.0003690483566596,0.005616279555131607
-0.4972199567579689,-0.4972199567579689,0.9903943029729505,0.005522046685843539
-0.49540219821101344,-0.49540219821101344,0.9999674146766642,0.005213401449052209
-0.49425918739325425,-0.49425918739325425,0.9906920000240774,0.0051568160248281715
-0.4927982775898272,-0.4927982775898272,1.007243668692205,0.005202578481573414
-0.4914509541242296,-0.4914509541242296,1.0029967899521555,0.005097079150154895
-0.49014782096855924,-0.49014782096855924,1.0063308295089466,0.004986719833668056
-0.4884823858625168,-0.4884823858625168,1.00088251581595,0.005256191054522946
-0.48723093234148107,-0.48723093234148107,0.9893896360808571,0.00513981130701008
-0.4859296014190477,-0.4859296014190477,1.0028134212908568,0.005430040215542849
-0.4843318953193375,-0.4843318953193375,0.9959277055750189,0.005071455678881935
-0.4828950123086543,-0.4828950123086543,1.0063399036626326,0.004985831796414898
-0.48124631988866895,-0.48124631988866895,0.9995691341025035,0.005400610962967285
-0.4799973571589362,-0.4799973571589362,1.0002741270148934,0.0051563203990619855
-0.4785885711087758,-0.4785885711087758,0.9965760758259428,0.005041710467973351
-0.4768699779680901,-0.4768699779680901,1.0065014510404438,0.005045927688669771
-0.4753072677322052,-0.4753072677322052,0.9909298729151725,0.00497576516774646
-0.47351454616946287,-0.47351454616946287,0.99894671175689,0.005119809487549643
-0.4725174915194657,-0.4725174915194657,0.9993562226130038,0.005161769353776484
-0.4710170321377518,-0.4710170321377518,0.9942168518015085,0.005063920004231922
-0.4693146367997542,-0.4693146367997542,1.0010448279564517,0.004984077787848769
-0.46771873719553697,-0.46771873719553697,1.0005944108028835,0.005018246228972605
-0.4659824031175958,-0.4659824031175958,0.9987997732703299,0.005176247320228627
-0.4648863116170105,-0.4648863116170105,0.996322011383781,0.005129971037310322
-0.46334495482187776,-0.46334495482187776,0.9971463350660598,0.005070206722623481
-0.4615426885899069,-0.4615426885899069,1.002742252115506,0.004985695056858079
-0.46007655580542633,-0.46007655580542633,0.9929533472239107,0.005039704649953642
-0.45829832924355285,-0.45829832924355285,1.0042551514103575,0.005172803591996672
-0.45713417598781236,-0.45713417598781236,1.0059264569227837,0.005132039169831225
-0.4552320208564197,-0.4552320208564197,1.001696276990476,0.0050385343681413385
-0.4538051660223573,-0.4538051660223573,0.9970368797988023,0.005044808788948172
-0.45193933352311433,-0.45193933352311433,0.9989546508093913,0.005146677312333156
-0.4504147720406763,-0.4504147720406763,1.010241148969861,0.005114115926287946
-0.44914674705432844,-0.44914674705432844,1.0017594118037525,0.005080665403439295
-0.4473080572726758,-0.4473080572726758,0.9964462610437363,0.005068129225566864
-0.4459709113369172,-0.4459709113369172,1.0057782296491458,0.005067350077985494
-0.4439787430375873,-0.4439787430375873,1.004821292004775,0.005148195110067261
-0.4426587485435448,-0.4426587485435448,1.0043135545350332,0.0051344507988951215
-0.44114967055611487,-0.44114967055611487,1.0013247505841905,0.005101362783018391
-0.4395749614905071,-0.4395749614905071,0.9928957953241498,0.005058948491456173
-0.4378862598732667,-0.4378862598732667,0.9997384811517136,0.0051342319604449575
-0.43617266665023635,-0.43617266665023635,1.0011482630168966,0.005158791787867702
-0.43475639210737427,-0.43475639210737427,1.0045113038631712,0.005124140473642971
-0.43280757048014495,-0.43280757048014495,0.9936213127270639,0.0051425203013559205
-0.43153473906131695,-0.43153473906131695,1.0034633083107805,0.005009149189094013
-0.4297777994714124,-0.4297777994714124,0.9936994860395613,0.005186154074875024
-0.4285026915560593,-0.4285026915560593,1.0008600173846627,0.0051528033265326924
-0.4273597798335686,-0.4273597798335686,0.9950887410766114,0.005071233664780125
-0.4256704874387651,-0.4256704874387651,0.9997059314880581,0.005283028739968684
-0.4245381374315912,-0.4245381374315912,1.0004345736084392,0.004995407321149472
-0.4227321421276429,-0.4227321421276429,1.0035728300694218,0.005240730870979051
-0.4212640689314867,-0.4212640689314867,0.9935606999302374,0.00511302054286187
-0.42011595673902774,-0.42011595673902774,0.9988049791294309,0.005092770181644415
-0.4184279605990014,-0.4184279605990014,1.006093558049138,0.005459639807886007
-0.41702750826007107,-0.41702750826007107,0.993439266982153,0.004954607629758273
-0.4153280963626457,-0.4153280963626457,1.0002313705346275,0.005376420237633831
-0.41402573318227953,-0.41402573318227953,1.0022971003743077,0.005121166498853224
-0.4128724368478288,-0.4128724368478288,0.9958628684855141,0.005112285600596138
-0.410903788889118,-0.410903788889118,0.9969288782845387,0.005051282935658259
-0.40945929130903097,-0.40945929130903097,1.005353934107696,0.004986937031263297
-0.40770094124418393,-0.40770094124418393,0.9937497294912723,0.005074141485917532
-0.4063725620133482,-0.4063725620133482,0.9900625582837463,0.005134362680782312
-0.404833666763443,-0.404833666763443,0.9934890808880242,0.005063428938347243
-0.4031312900628109,-0.4031312900628109,1.011611694714301,0.00498639968705916
-0.40153538140693856,-0.40153538140693856,1.0078944211924725,0.005015345369988274
-0.3997979767045763,-0.3997979767045763,1.0002390089385238,0.005170956981325353
-0.3987023788875376,-0.3987023788875376,0.9965392294521032,0.005130272114161756
-0.3971612187837309,-0.3971612187837309,1.0065172355299161,0.005071726357039468
-0.39535956748368334,-0.39535956748368334,1.0036428572602347,0.0049848476377681175
-0.39394888956267093,-0.39394888956267093,1.0011323009978432,0.005084016323537839
-0.3923124599547009,-0.3923124599547009,1.0019369827044347,0.005134422828685594
-0.3912224736497592,-0.3912224736497592,0.9992638528855176,0.005200164321318334
-0.38948328654805664,-0.38948328654805664,0.9954527907972915,0.0050257541795601475
-0.38790126090316335,-0.38790126090316335,0.9969445797653919,0.005012384322893632
-0.386187590290865,-0.386187590290865,1.0086850237985154,0.005132177067348883
-0.38445412487453723,-0.38445412487453723,0.9984780331707229,0.005116133976520313
-0.3832394168653991,-0.3832394168653991,0.9939686701788839,0.0050963147712862755
-0.3814466128071217,-0.3814466128071217,0.9963108619886245,0.005090390160848878
-0.38011744237046513,-0.38011744237046513,1.0020522871719786,0.005055322999057264
-0.3781196124436974,-0.3781196124436974,0.9983097686734366,0.005158595967549556
-0.3767563972840435,-0.3767563972840435,1.0041400845975583,0.005160022485753251
-0.3753612987973611,-0.3753612987973611,0.9997977883976326,0.005067553081897282
-0.373601176658849,-0.373601176658849,0.9935240925774098,0.005060018224506314
-0.3721512538242678,-0.3721512538242678,0.9982852069998746,0.0050874194240106115
-0.37026648936298445,-0.37026648936298445,0.998176568977248,0.005178598084642115
-0.36887123308442826,-0.36887123308442826,0.9964715650444205,0.005127612254218695
-0.36696118828513136,-0.36696118828513136,0.9989425595714232,0.0051420467888095515
-0.3656089238334971,-0.3656089238334971,0.995994726626131,0.00502754208020177
-0.3639658389878605,-0.3639658389878605,1.0028217025322204,0.00512079013336162
-0.362530481765134,-0.362530481765134,0.9937806393930442,0.005187424888143797
-0.36144230974678065,-0.36144230974678065,0.9991930673560379,0.005060963707146718
-0.3598183140395122,-0.3598183140395122,1.0013179350028816,0.005298729507957902
-0.35861327071907,-0.35861327071907,0.9966554050695867,0.0050221162020658945
-0.3569236781950167,-0.3569236781950167,1.0036423570630397,0.005068341103924167
-0.3552977423514676,-0.3552977423514676,1.00328145587025,0.005255984154674797
-0.35419359400657413,-0.35419359400657413,0.9990171622651518,0.005057032745200899
-0.35257954300250277,-0.35257954300250277,0.9943159387122575,0.005490235421842807
-0.35111806429486025,-0.35111806429486025,0.996198969962234,0.0049898914863015405
-0.34949924532120347,-0.34949924532120347,0.9977998513586919,0.005047341071926171
-0.3480652676218597,-0.3480652676218597,1.0013714931854831,0.005405315836590608
-0.3469528738867666,-0.3469528738867666,1.0028377895919205,0.005139249467919929
-0.3451298367810523,-0.3451298367810523,0.9901063387720221,0.005054911855338392
-0.34359115297629617,-0.34359115297629617,0.9999996253848107,0.004950812283423083
-0.3418728676322644,-0.3418728676322644,1.0025732490718213,0.0050797054179831805
-0.3403951530013728,-0.3403951530013728,1.0023442960947981,0.005139723009958063
-0.3390331273567426,-0.3390331273567426,0.9995873372659103,0.005039762402861058
-0.3372566482328693,-0.3372566482328693,1.001908294737603,0.005018937931023651
-0.33568916606382115,-0.33568916606382115,1.0025229460118121,0.0050055597681789715
-0.3339109229113092,-0.3339109229113092,1.0009692418608682,0.00515465102356533
-0.3327412811759132,-0.3327412811759132,0.9939400834866758,0.005097179058292696
-0.33136903713893845,-0.33136903713893845,1.0001568084054457,0.005114833339312671
-0.3297044991129951,-0.3297044991129951,1.0030672421419196,0.004968541597878014
-0.32843775112087314,-0.32843775112087314,0.9891666551263857,0.005037322069875534
-0.3266762233150075,-0.3266762233150075,0.9978782403754403,0.005154420048421677
-0.3255030922136939,-0.3255030922136939,0.9920985905989745,0.005151758210448386
-0.32412723369598095,-0.32412723369598095,1.0009425174084157,0.005087839828897554
-0.3221921403823217,-0.3221921403823217,0.9966180994128016,0.005033503005422544
-0.32085315497715783,-0.32085315497715783,0.9954363611708231,0.0050679687750821495
-0.3188445413386944,-0.3188445413386944,1.0044959040921424,0.005150647769823439
-0.3175280248338822,-0.3175280248338822,0.9942002044976987,0.005094364016883157
-0.31602660703501895,-0.31602660703501895,0.989457481176877,0.0051113582634777135
-0.3144634378812043,-0.3144634378812043,0.9994078840938135,0.005040134198848899
-0.3127610430285131,-0.3127610430285131,1.0033055520946745,0.005111879989731358
-0.3110365434684354,-0.3110365434684354,0.992608241928895,0.00515103772191667
-0.30981106261679087,-0.30981106261679087,0.99716527176508,0.005074645861979072
-0.30801994962093887,-0.30801994962093887,0.9981648955059675,0.005103246391997152
-0.3066800045689888,-0.3066800045689888,0.9919234869879597,0.005056467056129594
-0.30470309669290147,-0.30470309669290147,1.0013114900149087,0.00518813276433366
-0.30333815905178196,-0.30333815905178196,0.9992602868534661,0.0051573157464514735
-0.3015381398159661,-0.3015381398159661,1.0041151713051488,0.005124203039913745
-0.299954590042762,-0.299954590042762,0.9945811101481,0.005060622017647473
-0.29848999839960016,-0.29848999839960016,1.006788751671388,0.00506117933502972
-0.29684881209504965,-0.29684881209504965,0.9938290826204635,0.00520118704878862
-0.2957060906373954,-0.2957060906373954,1.0054761966561885,0.005169536127407862
-0.29424813531040855,-0.29424813531040855,1.0053150863837625,0.00516545263761583
-0.2929004319499654,-0.2929004319499654,1.001874334493912,0.005109477584211198
-0.29159841415457777,-0.29159841415457777,1.0013558073324835,0.004987365065100885
-0.2896158513143746,-0.2896158513143746,0.9970895548780072,0.005274303021404257
-0.28847168377469645,-0.28847168377469645,0.9969404379211018,0.0051485595761139764
-0.2869989548184094,-0.2869989548184094,0.9995000976148487,0.005375818693220227
-0.2855656789666682,-0.2855656789666682,1.0013322780031204,0.0050750918059614975
-0.2840095751638728,-0.2840095751638728,0.9974436947746705,0.004973101689029289
-0.28238315823327864,-0.28238315823327864,0.9930552978872594,0.005402972497149124
-0.2812375591656746,-0.2812375591656746,1.0033977758056427,0.005157582419253958
-0.2796523789103958,-0.2796523789103958,0.9919075033641735,0.005077607319164663
-0.2780145764601912,-0.2780145764601912,0.9999863988587467,0.004990841853238318
-0.2764185059026204,-0.2764185059026204,0.9940135282480966,0.004993751668524568
-0.27466289965159374,-0.27466289965159374,1.0011750185716424,0.005133954970107115
-0.27352906558844553,-0.27352906558844553,0.998486088567558,0.005127622749886622
-0.27175963106747075,-0.27175963106747075,1.0030293442103158,0.005015716231915936
-0.2701550213729206,-0.2701550213729206,1.00314619842065,0.004970909093698721
-0.26844755396050457,-0.26844755396050457,1.0011957133777085,0.005088094737547363
-0.26697763390257023,-0.26697763390257023,0.9941673398429323,0.00516521460983743
-0.26582488920648756,-0.26582488920648756,0.99468814755033,0.005092554224940109
-0.26410471571871313,-0.26410471571871313,1.0006184998137113,0.005012678129791744
-0.26279035541920165,-0.26279035541920165,1.0021057614492306,0.004981963946820449
-0.2612064045046282,-0.2612064045046282,0.9982364364384215,0.005113265381727539
-0.25974485117621954,-0.25974485117621954,0.9919826442297864,0.005170901598108542
-0.2585817784849496,-0.2585817784849496,1.00162994817187,0.005131604853033005
-0.2566815876198234,-0.2566815876198234,1.002371026981514,0.005036587290458505
-0.25525571181278794,-0.25525571181278794,1.0034899696423192,0.005047119571544285
-0.25338719573301205,-0.25338719573301205,0.9974824650476386,0.005143650192956253
-0.2518615155167936,-0.2518615155167936,0.9941323372784948,0.005128997413382538
-0.25059546154043344,-0.25059546154043344,0.9980423951430477,0.005085261233101241
-0.24875816440908238,-0.24875816440908238,0.9942173273004105,0.005059610558347057
-0.24742069627245655,-0.24742069627245655,0.9873823767438654,0.005058296575401659
-0.24542562142669339,-0.24542562142669339,1.0042678696182306,0.005145586660449885
-0.2441062427529687,-0.2441062427529687,0.9902154770748405,0.00513168510809295
-0.24259851534261542,-0.24259851534261542,0.9919892740504531,0.005101076143930498
-0.24102584474603644,-0.24102584474603644,0.9903653368919653,0.005056012785913068
-0.23933472672033532,-0.23933472672033532,0.9929492674854765,0.005133621534010816
-0.23761920704055228,-0.23761920704055228,0.9993088716506591,0.0051531027791509015
-0.2362036837665073,-0.2362036837665073,0.9959345277096034,0.00512202388867832
-0.23425757145851095,-0.23425757145851095,0.9998715212071229,0.005119782706887443
-0.2329855191783281,-0.2329855191783281,0.9909978631960554,0.005018550943626446
-0.23095735392707867,-0.23095735392707867,1.0031087568403059,0.005210491495442884
-0.22972719506724387,-0.22972719506724387,1.0005466207814915,0.005168739218106998
-0.22844326915874263,-0.22844326915874263,0.9998075539676963,0.0051861282701406615
-0.22690421337501904,-0.22690421337501904,0.9918399033627748,0.0051087924963842245
-0.22573172297379643,-0.22573172297379643,1.0019523923177902,0.004989295588109001
-0.2237913194210705,-0.2237913194210705,0.9971156958543347,0.005248309891266005
-0.22249326591081625,-0.22249326591081625,1.0086918970927805,0.005150688786447073
-0.22119559830352956,-0.22119559830352956,0.9990360269211538,0.005374523415565371
-0.21959711058188985,-0.21959711058188985,1.0023436856883403,0.005092383247315516
-0.21816240202351764,-0.21816240202351764,1.0009267328394122,0.004979862573962615
-0.21650924548957845,-0.21650924548957845,1.000889627097457,0.005356872353316952
-0.21525961581573938,-0.21525961581573938,0.9964348390858417,0.005162790642208141
-0.21394821112626233,-0.21394821112626233,0.9989018004591778,0.005566247684646407
-0.21235264983261004,-0.21235264983261004,1.0084308902962658,0.005064539279231868
-0.21090978348802308,-0.21090978348802308,1.0020508896998142,0.004985883207762454
-0.20914887517246825,-0.20914887517246825,1.0051192074618736,0.005084425382422072
-0.20781929998629495,-0.20781929998629495,1.000227196561449,0.00513197458529083
-0.20628357915957168,-0.20628357915957168,1.0018787670816174,0.005066611839916265
-0.2045812576689059,-0.2045812576689059,1.0029696764248868,0.004984669872734598
-0.20298532060915023,-0.20298532060915023,0.9942774416414017,0.005010005989071535
-0.20124470295813807,-0.20124470295813807,1.0069265125836635,0.0051638483769490245
-0.20015058832796057,-0.20015058832796057,0.9937849361235124,0.00513642551419699
-0.1986718731248402,-0.1986718731248402,0.998643782771698,0.005030639008967217
-0.19707657036451565,-0.19707657036451565,1.0035919188059328,0.004981874169230579
-0.19573572418703405,-0.19573572418703405,1.0021443794378662,0.005049284906146468
-0.19401117943780263,-0.19401117943780263,0.9978204585780054,0.00518530932390402
-0.19291100813788944,-0.19291100813788944,0.9937157025700273,0.005165047249048913
-0.1913661383994622,-0.1913661383994622,0.998071517842552,0.005077943818496442
-0.18955709975671198,-0.18955709975671198,0.9953910657208661,0.005008856444066161
-0.18809501551222638,-0.18809501551222638,0.9993841229406344,0.0050707878074384444
-0.18618055379702128,-0.18618055379702128,1.0027775216565975,0.005128026691761183
-0.18482093042184716,-0.18482093042184716,1.0054433252962802,0.005083674837662295
-0.18289521332771982,-0.18289521332771982,0.9946055606741743,0.005079297984517418
-0.18156835065710766,-0.18156835065710766,0.9918659604144112,0.005040387574456054
-0.17956603957572953,-0.17956603957572953,0.9894661296588463,0.005150345611734544
-0.17820319383863534,-0.17820319383863534,0.9930647643331367,0.005148042332809527
-0.17688844452131888,-0.17688844452131888,0.989195468869244,0.00503518905857815
-0.1753244217004976,-0.1753244217004976,0.9995979313576069,0.005089230661901775
-0.17398845716415962,-0.17398845716415962,1.0014204396178088,0.005068299920512992
-0.17200695448409534,-0.17200695448409534,0.9960167986867935,0.0051695067120104046
-0.17066849103030107,-0.17066849103030107,1.003886895979452,0.005183893096811008
-0.16875572217941226,-0.16875572217941226,0.9983288804294105,0.005095398420891609
-0.16731544554349967,-0.16731544554349967,0.9982033875949095,0.00504439177131291
-0.16584949453135778,-0.16584949453135778,0.9954482003563226,0.005157492495520111
-0.16420211257354822,-0.16420211257354822,0.99450372895361,0.0051758981904900594
-0.16289780189254088,-0.16289780189254088,1.0023268374244614,0.005058575430515299
-0.16126609849488888,-0.16126609849488888,0.9929835222131164,0.005267988168760462
-0.16006360614628648,-0.16006360614628648,0.9983833253387748,0.005031933456300366
-0.15837266038179224,-0.15837266038179224,0.9975095286106382,0.005063941857790388
-0.15674426836339989,-0.15674426836339989,1.001590127099088,0.0052386865347027415
-0.15564331254936406,-0.15564331254936406,1.002957381979776,0.005054382161929417
-0.15402727704349672,-0.15402727704349672,0.9907585527763274,0.005466230233787517
-0.15256801130599343,-0.15256801130599343,0.9972690797324644,0.004998500552991681
-0.15094826532185834,-0.15094826532185834,1.003346453186542,0.005049288035626053
-0.14951174215275387,-0.14951174215275387,0.9986016094211514,0.005369447202143645
-0.14840086870426603,-0.14840086870426603,1.004947254195604,0.00513752848406076
-0.14678268394891347,-0.14678268394891347,1.0001371199302036,0.005550390665243302
-0.1453183818655816,-0.1453183818655816,0.9989019532856549,0.004990134306674709
-0.14370326792741253,-0.14370326792741253,1.0018941385276579,0.005044608775304044
-0.14205113767347938,-0.14205113767347938,1.000257343453842,0.0051104992767584
-0.14089404825244856,-0.14089404825244856,1.0016595737254803,0.005100776649135183
-0.13898560948910016,-0.13898560948910016,1.000656439667808,0.005016460751816627
-0.1374742407191661,-0.1374742407191661,0.9957267602620454,0.005002754182629823
-0.13572527688193076,-0.13572527688193076,0.9997008070591029,0.005088518593446053
-0.13440129004484333,-0.13440129004484333,0.9981152903629434,0.005148587046567932
-0.1331299897559802,-0.1331299897559802,0.9973441750964408,0.005069168476842559
-0.1314599021741742,-0.1314599021741742,1.0002454349365342,0.005014768944397811
-0.13014233843932743,-0.13014233843932743,0.9992898654392034,0.005029407970841162
-0.12848596619005548,-0.12848596619005548,0.9918927502327419,0.0051042614688441715
-0.12716798487381312,-0.12716798487381312,0.9985973369683754,0.005153907825413623
-0.12588050657323038,-0.12588050657323038,0.9985839896985477,0.005106494945651808
-0.12395783134525118,-0.12395783134525118,0.9979751861101359,0.005040636472407227
