time,time,flux,flux_err
-0.4996240993757965,-0.4996240993757965,0.9999034763184019,0.00014819731122158808
-0.4993199955759337,-0.4993199955759337,0.9999305701317898,0.00017938255899682646
-0.4988733360922197,-0.4988733360922197,1.0000832459237632,0.00016689765337035467
-0.49859880124568007,-0.49859880124568007,0.9999676011448401,0.0001682814622461916
-0.49852658206655176,-0.49852658206655176,0.9998969417712811,0.00014672169637706798
-0.4982454750919715,-0.4982454750919715,1.0001480661825664,0.00015094772148758066
-0.49788031668576876,-0.49788031668576876,0.9998058185247446,0.00016045295159866193
-0.49730900534486866,-0.49730900534486866,0.9998465109315212,0.00015481143059359052
-0.4967943065072177,-0.4967943065072177,0.9997564666205653,0.0001545279345928482
-0.4965104405884631,-0.4965104405884631,1.0000921777154215,0.00018591976732206338
-0.4961108682764461,-0.4961108682764461,0.9998537611557055,0.00015903196523851167
-0.4959152444207575,-0.4959152444207575,1.000200746008273,0.00015990266192337255
-0.49585560100094883,-0.49585560100094883,0.9997754792177039,0.00015599337679668022
-0.49549506155599377,-0.49549506155599377,1.0000724443619695,0.00014916185646176227
-0.49512450643524064,-0.49512450643524064,1.0002765033579362,0.0001583563174991429
-0.4946390927158063,-0.4946390927158063,0.9999240371085858,0.0001570107375094904
-0.49420643983175977,-0.49420643983175977,0.999940224587848,0.00015461801904460333
-0.4938676836696686,-0.4938676836696686,0.9997261500003782,0.00017885145508384376
-0.49343679180310573,-0.49343679180310573,1.0000444700421174,0.0001587870200616324
-0.49322208791272715,-0.49322208791272715,1.0000602065369981,0.0001563018825782296
-0.49303959360404404,-0.49303959360404404,0.9998145916654261,0.00015886946673151077
-0.4926969886990264,-0.4926969886990264,1.0000207520549311,0.0001490883272062916
-0.4921145352040185,-0.4921145352040185,1.0000276174324505,0.00016559194277911154
-0.4916975225263741,-0.4916975225263741,1.000082315081084,0.00015226869596812867
-0.49147467032598796,-0.49147467032598796,0.9999457617731331,0.00016803640021498712
-0.4911633691255702,-0.4911633691255702,0.9999339758408897,0.00016981465275710215
-0.4907957025658106,-0.4907957025658106,0.9998577115861194,0.0001568609877903173
-0.490517758319038,-0.490517758319038,1.0001111898688329,0.0001581591173188819
-0.4901499002269702,-0.4901499002269702,0.9998416040292468,0.00015716793744428436
-0.48975006559630857,-0.48975006559630857,1.0001567489877285,0.00016040667439522232
-0.4890510452503804,-0.4890510452503804,0.999924114675782,0.0001625400136057233
-0.4887250931817107,-0.4887250931817107,1.0003420678420372,0.0001593012394581105
-0.4883719467383344,-0.4883719467383344,1.0000669244866611,0.00017483929468673794
-0.4879552362952381,-0.4879552362952381,0.9999921007202985,0.00014613313750115662
-0.4878472546377452,-0.4878472546377452,0.9998951195261837,0.00016796191043639473
-0.4875382816651836,-0.4875382816651836,0.9998482038660483,0.0001507581557371637
-0.4872658678184962,-0.4872658678184962,1.0002313841157644,0.00015451542511093355
-0.4867614331858931,-0.4867614331858931,1.0001976166772593,0.0001641823335686798
-0.48638337611046156,-0.48638337611046156,0.99994825533875,0.00015932296647195327
-0.4860755817499012,-0.4860755817499012,0.9998438367180948,0.000159277804088679
-0.4857250329660019,-0.4857250329660019,1.0000235878147425,0.00017513462165923266
-0.4852994568587746,-0.4852994568587746,0.999749356684085,0.00014828826857518404
-0.485069456032943,-0.485069456032943,1.000162667292686,0.0001608527525370494
-0.4847810897830641,-0.4847810897830641,1.0001441872080812,0.00014676119031627297
-0.48445093164045827,-0.48445093164045827,1.0001011936006914,0.00016558337494625635
-0.48397147496580145,-0.48397147496580145,1.0000687977672116,0.0001586758504632306
-0.483599717807374,-0.483599717807374,0.9998524490820863,0.00016024434028065628
-0.4833465904928744,-0.4833465904928744,0.9999257059715558,0.00016698946900395968
-0.4829015503200935,-0.4829015503200935,1.0002473308345743,0.00017163135711874294
-0.4825700940156821,-0.4825700940156821,0.9999374821741803,0.00014742785568955312
-0.4821615980617935,-0.4821615980617935,1.000147514133849,0.00015489968904827846
-0.48166890475549734,-0.48166890475549734,0.9999357998567163,0.00016801537384073537
-0.48129185698053334,-0.48129185698053334,1.0000116805925248,0.00015563724851746572
-0.48092764312168584,-0.48092764312168584,0.9998622319482099,0.0001677785320040957
-0.48056887135317083,-0.48056887135317083,1.0000487639758906,0.0001556438481090107
-0.4803119117539609,-0.4803119117539609,1.0001612049199284,0.00017338591802335256
-0.47997810279775877,-0.47997810279775877,1.0000104310188982,0.00016065764412146716
-0.47935683780233374,-0.47935683780233374,1.0002041699937707,0.00014484215774674227
-0.479076354848803,-0.479076354848803,0.9997503350025821,0.0001599790732450509
-0.47875901995867026,-0.47875901995867026,0.99972827576879,0.0001600503092797285
-0.47847314908576666,-0.47847314908576666,1.0002625784017296,0.0001506449685841486
-0.4780964178033173,-0.4780964178033173,0.9997918546953418,0.00016732629026758997
-0.47770525788073426,-0.47770525788073426,0.9999797618434956,0.00017426640199606332
-0.4774099512898829,-0.4774099512898829,0.9999188093535416,0.00015957416731380748
-0.476685911489767,-0.476685911489767,0.9999931900380702,0.00015657766538735776
-0.47630807645909956,-0.47630807645909956,0.9999569596320905,0.00016258899751374345
-0.4759880963305477,-0.4759880963305477,0.999813321782226,0.00016233564195226128
-0.4756232301471755,-0.4756232301471755,0.9997904326431115,0.00015427056179477156
-0.47532749018573667,-0.47532749018573667,0.99980846773552,0.00016040360053133274
-0.47497396104445216,-0.47497396104445216,1.0000731283295905,0.00015967027547730212
-0.4746293309348403,-0.4746293309348403,1.0000052866545184,0.00016613274661077268
-0.4741183757723775,-0.4741183757723775,1.0001359798851508,0.0001514139080237333
-0.4738472328841453,-0.4738472328841453,0.9999556909403118,0.00014703379136379554
-0.47353858707356267,-0.47353858707356267,1.0000720301530124,0.00016265779618539599
-0.47314485698007047,-0.47314485698007047,0.9999181385656641,0.00015752144138487907
-0.4727917068725219,-0.4727917068725219,0.9997138694165575,0.000157926473303691
-0.47253617488895544,-0.47253617488895544,0.9998508779501464,0.00016583698567728325
-0.4720357342186617,-0.4720357342186617,1.0002103121454025,0.00015739497098571037
-0.4716143890982494,-0.4716143890982494,0.9998856314320671,0.0001621584575409941
-0.47124159857048653,-0.47124159857048653,0.9998527784553864,0.0001600537970004603
-0.47093147106061223,-0.47093147106061223,1.0000835384591191,0.0001596954450112272
-0.47064823827531654,-0.47064823827531654,1.0001139773930912,0.00016063783612267672
-0.4703541272756411,-0.4703541272756411,1.0001609048007258,0.00014857899394967177
-0.47004678326193244,-0.47004678326193244,0.9999410139711273,0.0001652282592960774
-0.4696925372845726,-0.4696925372845726,0.9995524916723169,0.00015842051960947808
-0.46923791837471074,-0.46923791837471074,0.9998699295046747,0.00016493447349161534
-0.4686884601629572,-0.4686884601629572,1.000041757196754,0.00015294854704112843
-0.46841331247705964,-0.46841331247705964,0.9998264785085688,0.00014858864213355884
-0.46810263605439106,-0.46810263605439106,0.9999978914813792,0.00016258518917272697
-0.4677709028997924,-0.4677709028997924,0.9998918762589873,0.00015759400186662997
-0.467434121624683,-0.467434121624683,0.9998180342056241,0.00016817768277639894
-0.46707943984656597,-0.46707943984656597,1.0000078522580342,0.0001599747569035302
-0.4667532258434221,-0.4667532258434221,0.9999062940977643,0.00015612964724178257
-0.4663620172301307,-0.4663620172301307,1.000234910542623,0.00015759142588959958
-0.46599263994721696,-0.46599263994721696,0.9999193768505414,0.0001536898069172695
-0.4656739616853883,-0.4656739616853883,0.9999358844127574,0.0001568289364977195
-0.4654091279517161,-0.4654091279517161,0.9999158623773134,0.00015985852487582718
-0.4650964858068619,-0.4650964858068619,0.9998753377444798,0.00014907822089435343
-0.4647687161457725,-0.4647687161457725,1.000014076778212,0.00015896726283010646
-0.46441514585749244,-0.46441514585749244,0.9999348526066655,0.00016798753474006866
-0.46401703455776444,-0.46401703455776444,1.0001835706567528,0.00016025798772877054
-0.46376825592305976,-0.46376825592305976,0.9997933648541857,0.00015896063757025113
-0.4634161243593553,-0.4634161243593553,0.9997239542915117,0.0001508917485942642
-0.46306472607539034,-0.46306472607539034,0.9998949403812775,0.00014513320298862302
-0.46285699248837775,-0.46285699248837775,1.0001205308823553,0.00016017170615130455
-0.4626633233827306,-0.4626633233827306,0.9998627107181866,0.0001607686086403453
-0.46218677377328277,-0.46218677377328277,0.9998602546303742,0.00014654148627192917
-0.46182589187519624,-0.46182589187519624,0.99987770369445,0.0001702923328451371
-0.46135960311512464,-0.46135960311512464,1.00010994688292,0.0001578639155826404
-0.46092769902898,-0.46092769902898,1.0000293760556802,0.0001681906085210548
-0.4606314625794766,-0.4606314625794766,0.9999725514098866,0.0001484553667041598
-0.46029878355038817,-0.46029878355038817,0.9999658133301628,0.00015216955036488603
-0.4600913902744651,-0.4600913902744651,1.0000591062866249,0.00015807419784957707
-0.45952759685751515,-0.45952759685751515,1.0001695323496291,0.00015740084180402688
-0.45902445356186944,-0.45902445356186944,1.0002418457047584,0.00016496135128690807
-0.45867700507224074,-0.45867700507224074,1.0000836410025356,0.00015877285965509676
-0.45830833033833185,-0.45830833033833185,0.9998210450382133,0.00016848015838902465
-0.4580715273710666,-0.4580715273710666,1.0001677385769596,0.000148045054644987
-0.4577759444917319,-0.4577759444917319,0.9998993007968189,0.00015444876022525916
-0.45758077180653345,-0.45758077180653345,0.9997718245810242,0.0001475555575734099
-0.4571883495576913,-0.4571883495576913,1.0000180754511079,0.00016588127698430815
-0.45680499244190287,-0.45680499244190287,0.9999014298854625,0.00014628492881519828
-0.45633881804242266,-0.45633881804242266,0.9998151091838954,0.0001690008359244915
-0.4560233352938667,-0.4560233352938667,1.000212627961941,0.00015872252175061055
-0.4557455000845948,-0.4557455000845948,1.000081102135158,0.00015197628623689588
-0.4553965449362295,-0.4553965449362295,1.0002360467964633,0.0001660226224135619
-0.4551752669241978,-0.4551752669241978,1.0000903223355635,0.00015332057545376865
-0.4547062549914699,-0.4547062549914699,0.999765010393509,0.00015533752173858302
-0.4540517236717278,-0.4540517236717278,0.9998804674799023,0.00017039021148180247
-0.45347439260222017,-0.45347439260222017,1.0000562497560932,0.0001583810351778308
-0.45322831874946135,-0.45322831874946135,1.000149508953839,0.00016116853362233284
-0.4529418634978356,-0.4529418634978356,0.9997701880856082,0.00016003307824244805
-0.45269750341249165,-0.45269750341249165,1.0000908702239546,0.00015845056635672064
-0.45238283850776495,-0.45238283850776495,0.999813454555974,0.0001516472108893857
-0.45182588868483436,-0.45182588868483436,0.9999269365780222,0.0001548568200373842
-0.451316766711534,-0.451316766711534,1.0004069261815527,0.00016925224208825645
-0.45093143967387733,-0.45093143967387733,0.9998881642630686,0.00015912584744970715
-0.4507138117362047,-0.4507138117362047,0.999900992922267,0.00015286440062910487
-0.4504291342687793,-0.4504291342687793,1.0001977879272073,0.00015825538449431336
-0.45008224700868593,-0.45008224700868593,0.9999256495821542,0.00014998704296133444
-0.4499034957465483,-0.4499034957465483,0.9999421800761453,0.0001586764087959108
-0.4495500774733955,-0.4495500774733955,0.9996956147716626,0.00014494258668214965
-0.44884537414473014,-0.44884537414473014,0.9998680765910646,0.000157803647616007
-0.448409401794197,-0.448409401794197,1.0000303034297624,0.00016673512311794137
-0.4482324120326666,-0.4482324120326666,1.0002481774750391,0.00016034081365087603
-0.44802772952825765,-0.44802772952825765,0.9998357558938306,0.00015742721972560102
-0.4476616576517699,-0.4476616576517699,0.9998530027056258,0.00016917414372310096
-0.4474072332115611,-0.4474072332115611,0.9999898450563138,0.00014809107615500186
-0.4471223398548318,-0.4471223398548318,0.9998222156133074,0.00016190121226016316
-0.44645323982986157,-0.44645323982986157,0.999946439350355,0.0001495465101792705
-0.44611766658490526,-0.44611766658490526,0.9999507442948671,0.0001646698713787323
-0.4457623472670093,-0.4457623472670093,0.9999049880542079,0.00016179332818001948
-0.44557702481106387,-0.44557702481106387,0.9996820217777269,0.00017113038030624268
-0.44524890593311284,-0.44524890593311284,1.000026901079791,0.00016803316446398865
-0.4449480031704297,-0.4449480031704297,1.0001447503020233,0.0001608415335997662
-0.4447510657744715,-0.4447510657744715,0.9999349792433507,0.00014706598488309114
-0.4445337559096515,-0.4445337559096515,0.9998202119685422,0.00015054080393873918
-0.44389550095947927,-0.44389550095947927,0.999764270424506,0.0001464414503269663
-0.4435052386572352,-0.4435052386572352,1.0000323373550233,0.00015544781492695352
-0.4431675639934838,-0.4431675639934838,0.999869425130316,0.0001601550276258367
-0.4429136306018336,-0.4429136306018336,0.9999936657146391,0.0001685006982806792
-0.44257640827272554,-0.44257640827272554,1.000001606398345,0.00017761496575528275
-0.44235400859324725,-0.44235400859324725,1.000046474943653,0.00015533245523316775
-0.44202849268040156,-0.44202849268040156,0.9998920353849027,0.00015989464118068
-0.4413695940456819,-0.4413695940456819,0.9998823035772597,0.00015564124157998267
-0.4410359608795261,-0.4410359608795261,0.9999072736453634,0.00014570903017323408
-0.44075990612327587,-0.44075990612327587,1.0000724813643298,0.0001596380449411334
-0.4403814796591178,-0.4403814796591178,0.9999296883738114,0.0001677450928716631
-0.44013728931895457,-0.44013728931895457,1.0001770713776206,0.0001694167470301898
-0.43984953800973015,-0.43984953800973015,0.9999736217318752,0.0001730129623886731
-0.43953436680021696,-0.43953436680021696,1.0000371054548596,0.00015620428869385396
-0.4392521146306535,-0.4392521146306535,0.9998881805899845,0.00015602764783465987
-0.43881769514118785,-0.43881769514118785,0.9999225408924867,0.00014644680134067665
-0.43843011269927956,-0.43843011269927956,0.9999359043992733,0.0001571744915274948
-0.43803797304572073,-0.43803797304572073,0.999923188862415,0.00016208268510755074
-0.43755551281210503,-0.43755551281210503,0.9999090623867544,0.00016402994421754212
-0.43738565476378427,-0.43738565476378427,1.0000716869268271,0.00016476006382858344
-0.43696588336024433,-0.43696588336024433,0.9999868641857359,0.00017712932464867417
-0.43669447107822634,-0.43669447107822634,1.0001056322331736,0.00014948662775086146
-0.4362397076882189,-0.4362397076882189,0.9998225072099487,0.00014552626947435412
-0.43593988530628847,-0.43593988530628847,1.0000395216599522,0.00014531465065061359
-0.4356358883873327,-0.4356358883873327,0.9998383332601914,0.0001584597605217877
-0.43527732508664485,-0.43527732508664485,1.000002241740995,0.00016285305026998004
-0.4349361713218968,-0.4349361713218968,1.0000412554325822,0.0001578304594008988
-0.4347197684750427,-0.4347197684750427,0.9999102225636018,0.00018003118122369725
-0.43425496383570134,-0.43425496383570134,1.000270885013218,0.00015948467480464298
-0.4339966118801385,-0.4339966118801385,0.9999882441169392,0.0001581011872304394
-0.4334974782337667,-0.4334974782337667,0.9998851925126686,0.0001453992739290798
-0.4330464593338547,-0.4330464593338547,0.9999866793682191,0.0001564787401426879
-0.4328749699576292,-0.4328749699576292,1.0000977406012044,0.00015285270523989324
-0.4325783551612403,-0.4325783551612403,1.0000465583534521,0.000160877609022126
-0.43233823180489706,-0.43233823180489706,1.0001354410699672,0.0001581995422358892
-0.432137471268652,-0.432137471268652,1.000179242442781,0.00017656682267280574
-0.43182320598280055,-0.43182320598280055,1.000168473906352,0.00017029940543209006
-0.4313780173048144,-0.4313780173048144,0.9997700403470959,0.00016501820634748002
-0.43076673879113514,-0.43076673879113514,0.9999489019995587,0.0001555129064715717
-0.4304160337953363,-0.4304160337953363,1.0000323857164282,0.00015004723243115326
-0.43020153694960755,-0.43020153694960755,1.0001093523365912,0.00016305514572586158
-0.4297922961035511,-0.4297922961035511,0.9998928543622252,0.00015005591486187269
-0.42951590576558374,-0.42951590576558374,0.9999350712974145,0.0001740626229515147
-0.4292662409337936,-0.4292662409337936,1.000253136697011,0.00016305394426639977
-0.4289812795439502,-0.4289812795439502,0.9998836530180538,0.00017338733912187988
-0.42868073911231475,-0.42868073911231475,0.9999387565724313,0.00015538440491521776
-0.42820828655094373,-0.42820828655094373,1.0000395165956997,0.00015682049603505467
-0.4278542188229039,-0.4278542188229039,1.0001933563560441,0.0001511876477237996
-0.42756503181008154,-0.42756503181008154,0.999843297679161,0.0001581909909788719
-0.42702501846069935,-0.42702501846069935,0.9999315738789101,0.00014981794140556695
-0.426691780865076,-0.426691780865076,0.9998214593958548,0.0001857619321850515
-0.4263593854295323,-0.4263593854295323,0.9999282477714726,0.00016183473667596564
-0.4260579767433228,-0.4260579767433228,0.9999366457531986,0.00016574549668670112
-0.42594921523414087,-0.42594921523414087,0.9998331113741301,0.00014502499338340735
-0.4255485718516866,-0.4255485718516866,0.9999781892931654,0.00015747463302660488
-0.4251597962458618,-0.4251597962458618,0.9998349170467344,0.00015140339351173856
-0.4248756416112883,-0.4248756416112883,1.000012495939583,0.00016057757329105207
-0.4243441772850929,-0.4243441772850929,0.9998645903577797,0.0001601348950810125
-0.42405403283773924,-0.42405403283773924,0.9999731239435704,0.00017233537670571642
-0.42379711378598584,-0.42379711378598584,1.000321278466883,0.00016866454028177804
-0.4234052819025237,-0.4234052819025237,1.000247587360747,0.0001451053608678219
-0.4232722615473904,-0.4232722615473904,0.9998016295278163,0.00016657791835886018
-0.42303119437710845,-0.42303119437710845,0.999739254487117,0.00014939799991059655
-0.4226405001070816,-0.4226405001070816,1.000119608093371,0.0001492549530514332
-0.42235467918217184,-0.42235467918217184,0.9997040517021644,0.00015980243844466757
-0.4217096755892271,-0.4217096755892271,0.9999249013970666,0.0001592675690098215
-0.42137192959489767,-0.42137192959489767,1.0001698046033964,0.0001701374268548033
-0.4211001929157646,-0.4211001929157646,1.0000797243088535,0.00017737952404527768
-0.4207591765065445,-0.4207591765065445,0.9999377614069926,0.00014575885000157776
-0.4206239072693279,-0.4206239072693279,1.0000869276340523,0.00017021256089324932
-0.42055646423250437,-0.42055646423250437,0.9998176201733653,0.00014860850656311567
-0.4202308213134529,-0.4202308213134529,0.9997825058899084,0.00014957250762344658
-0.4199025117326528,-0.4199025117326528,0.9998628038279993,0.00015738620648367247
-0.4193807028961601,-0.4193807028961601,1.000138524134074,0.00015870989841357204
-0.41895867240964435,-0.41895867240964435,1.000159565354886,0.00015463701948942096
-0.4186335385253187,-0.4186335385253187,1.0000784390492985,0.00018343651658902463
-0.41825750518764837,-0.41825750518764837,0.99977518653215,0.00016174867625185296
-0.41797452632745263,-0.41797452632745263,1.0001063625946913,0.00015719522153767406
-0.41787972902529874,-0.41787972902529874,0.9999746864578455,0.0001570867249533518
-0.4175028088997351,-0.4175028088997351,1.0001342280285697,0.00014864120160931602
-0.41710062259517144,-0.41710062259517144,0.9999382373455047,0.00015511629342774031
-0.41654363061243205,-0.41654363061243205,1.0000037099263868,0.00015934672141939432
-0.4162018501432613,-0.4162018501432613,0.9996617516369655,0.00016996110621685
-0.4158505352883367,-0.4158505352883367,0.9999089214196747,0.00017891762584879405
-0.415370250021806,-0.415370250021806,1.000099295172714,0.0001489363560809941
