time,time,flux,flux_err
-0.49976520413990144,-0.49976520413990144,1.0001058580691287,0.00015015802106986158
-0.49924008182182905,-0.49924008182182905,0.9999634436157111,0.00015014724800992198
-0.4987587197071804,-0.4987587197071804,1.0000337841128901,0.0001370689291886374
-0.4983197174666465,-0.4983197174666465,1.0000290145127242,0.00013705863219807486
-0.4978660118101388,-0.4978660118101388,1.0000819352973518,0.000137060858378907
-0.4974284099118442,-0.4974284099118442,0.9998701189430685,0.00013705182881048385
-0.4969908080211198,-0.4969908080211198,0.9999987866986728,0.0001370618434320248
-0.4965532061387862,-0.4965532061387862,1.0000102995296356,0.0001370613230445758
-0.49611000296027113,-0.49611000296027113,1.0000927368955848,0.00013705903227340672
-0.4956604983226754,-0.4956604983226754,0.9998782169278607,0.00013705578632543827
-0.4952440999430635,-0.4952440999430635,1.0001369841840988,0.00014371319761685453
-0.4949889386080223,-0.4949889386080223,1.0000539033858302,0.00015607966443546297
-0.4947751907986365,-0.4947751907986365,1.0000449851467246,0.00015002340382795526
-0.49455133917554334,-0.49455133917554334,1.0000571363348008,0.00015607902988360259
-0.49433759056381205,-0.49433759056381205,0.999908782934137,0.00015005369854941643
-0.49411373974587675,-0.49411373974587675,1.0001286809392576,0.00015608945216194828
-0.4938689822535771,-0.4938689822535771,1.0000021395621643,0.0001436701592760586
-0.49362012747749445,-0.49362012747749445,0.9999702053546262,0.00015604003994406423
-0.4933958747585841,-0.4933958747585841,1.0000373000334333,0.00014996012393360996
-0.4931825280541112,-0.4931825280541112,1.0000470621347533,0.00015604150277848306
-0.49295827453827884,-0.49295827453827884,1.0000071544441826,0.0001499936416359583
-0.4927449286335744,-0.4927449286335744,1.000102812167206,0.00015605209464956358
-0.49249917289197853,-0.49249917289197853,0.9997445382878049,0.00015596986818308808
-0.49227351777859807,-0.49227351777859807,1.0002667686730518,0.00014997688298206503
-0.49205177119543464,-0.49205177119543464,0.9999572214342356,0.00015602892402762046
-0.49183101642971466,-0.49183101642971466,1.0000017001227424,0.00014993900111979504
-0.491614171782291,-0.491614171782291,0.9997954025855826,0.00015598080818615183
-0.4913934162257256,-0.4913934162257256,1.0001238487818747,0.00014998685505257997
-0.49117657237202506,-0.49117657237202506,1.000067569442332,0.0001560481844906967
-0.49095581602616817,-0.49095581602616817,0.999897864568269,0.0001499790273718505
-0.49073897296460417,-0.49073897296460417,1.0000220359295706,0.00015610515937499196
-0.4905182158316272,-0.4905182158316272,1.0000098368562669,0.00014997241888287474
-0.4903013735601185,-0.4903013735601185,1.0000587618295382,0.0001560665874486311
-0.49008061564146316,-0.49008061564146316,1.000082554271781,0.00015000439123282426
-0.48986377415856525,-0.48986377415856525,0.9999278909205346,0.00015604905866674755
-0.48964301545605055,-0.48964301545605055,0.999937497951402,0.00015001213044102545
-0.4894261747600034,-0.4894261747600034,1.0000932863825527,0.00015607622506020287
-0.48920261462410225,-0.48920261462410225,1.0000198822198245,0.00014998674563253652
-0.48897457210863704,-0.48897457210863704,1.0000052103941584,0.00015606065407112397
-0.48874702061170155,-0.48874702061170155,0.9999954130508037,0.00015610873190052943
-0.4885367623204594,-0.4885367623204594,1.0000489592759778,0.00015000287485340363
-0.48830942122036375,-0.48830942122036375,0.9999153127278785,0.00015604171897952473
-0.4880991621513296,-0.4880991621513296,0.9999386229745004,0.00015001338655875647
-0.48787182183216016,-0.48787182183216016,1.0001174975771905,0.0001560768139380517
-0.48765806117329336,-0.48765806117329336,1.000109149854968,0.00015001961368076066
-0.4874272208195073,-0.4874272208195073,0.9998113846826093,0.00015604861692287972
-0.4872134593862597,-0.4872134593862597,1.000140591395509,0.00015002051607798558
-0.48698962143734975,-0.48698962143734975,0.9997990892955434,0.00015610641022935435
-0.486775859231539,-0.486775859231539,1.0000572945814437,0.00015005259726057083
-0.48653941920360283,-0.48653941920360283,1.0000495086727885,0.0001560787189814204
-0.48632075507578565,-0.48632075507578565,0.9999984751196036,0.0001500086437689757
-0.4860969187071532,-0.4860969187071532,1.0000044883737709,0.00015612012828498652
-0.4858831549308114,-0.4858831549308114,1.0000753490110443,0.00015002104609642737
-0.48565931933432793,-0.48565931933432793,0.9999628861470052,0.0001560472136833031
-0.4854371528386537,-0.4854371528386537,1.0001510155473257,0.00015007338974346726
-0.48521471833760543,-0.48521471833760543,0.9999689777316825,0.0001560727131737638
-0.4849974522153282,-0.4849974522153282,1.0000689966893859,0.00015000161330616971
-0.48477711897135267,-0.48477711897135267,0.9999912392867187,0.00015604363266930263
-0.48455985208505153,-0.48455985208505153,0.9999609111901557,0.00015003100773765954
-0.48433951960782906,-0.48433951960782906,0.9999740901943831,0.00015608421304341252
-0.48412225195964637,-0.48412225195964637,0.9999149252729819,0.0001500232259774474
-0.48390192024732814,-0.48390192024732814,1.0001469837699017,0.0001561207119852874
-0.483675549724893,-0.483675549724893,0.9999890141952527,0.0001499753768275959
-0.48345731926387286,-0.48345731926387286,0.9999491200449079,0.00015605933953775694
-0.48322626696862303,-0.48322626696862303,1.0001183901440638,0.00015605510427987466
-0.4830054965341482,-0.4830054965341482,1.0000306041522358,0.00015005270193211334
-0.4827767648517998,-0.4827767648517998,0.9998086712164149,0.00015603096689921841
-0.4825468915483029,-0.4825468915483029,1.0000337669432795,0.00015003128662009757
-0.4823230617630173,-0.4823230617630173,1.0000111846620872,0.0001560750359450104
-0.48208898673055034,-0.48208898673055034,1.000085310068859,0.00015003589956439647
-0.4818679583529466,-0.4818679583529466,0.9999147069954695,0.00015605652765440545
-0.4816404068752306,-0.4816404068752306,0.9999281072056874,0.00015609403720110617
-0.4814217342166522,-0.4814217342166522,1.0003742949348386,0.00015004248964147672
-0.48118460330792345,-0.48118460330792345,0.9998042081956953,0.0001561092022124572
-0.48096102876249064,-0.48096102876249064,1.000045396361057,0.0001500274699232384
-0.48074420332019513,-0.48074420332019513,1.0000293660613495,0.00015609122934506076
-0.4805234286775786,-0.4805234286775786,0.9997984938627891,0.00015002215333143352
-0.4803066039859857,-0.4803066039859857,1.0001264315502738,0.00015612158125237393
-0.48008582859759696,-0.48008582859759696,0.9999237207880105,0.0001500464547264833
-0.47986900465491755,-0.47986900465491755,1.0001320368494087,0.0001561023215926514
-0.4796482285225146,-0.4796482285225146,1.0000097426912085,0.00015002822760613364
-0.47943140532722167,-0.47943140532722167,0.9999298494008567,0.00015609714422277305
-0.4792106284525971,-0.4792106284525971,0.9999607871200663,0.00014999662211739325
-0.4789938060025783,-0.4789938060025783,1.0000954591106592,0.00015613486664722566
-0.4787730283876705,-0.4787730283876705,0.9999882683820008,0.00015003127815012255
-0.4785137249850905,-0.4785137249850905,1.000133521368791,0.00016200960554755179
-0.47822013047567397,-0.47822013047567397,1.000032776609048,0.00015613025343844852
-0.47800635315709245,-0.47800635315709245,0.9999673436478472,0.00015003917169622563
-0.4777825311600964,-0.4777825311600964,1.0000111831041323,0.0001560895118221696
-0.47756875310575,-0.47756875310575,0.9998651349592036,0.00015003947753858819
-0.47734493184771765,-0.47734493184771765,1.0000897488196103,0.00015613465724456763
-0.47713115305983606,-0.47713115305983606,0.9999248699068819,0.00015000011318742226
-0.47690733253874384,-0.47690733253874384,1.000168828949899,0.00015613397047329708
-0.47669355301876165,-0.47669355301876165,0.9998620693595595,0.00015006788677893418
-0.476469733233175,-0.476469733233175,1.0002777939685479,0.0001560994653368887
-0.4762559529830014,-0.4762559529830014,0.9998945536075233,0.0001500515889762793
-0.4760321339308028,-0.4760321339308028,0.9999429103654304,0.00015606699497950198
-0.4758183529523727,-0.4758183529523727,1.000157470238745,0.00015006351099140298
-0.4755945346318356,-0.4755945346318356,1.0000065629123305,0.00015610152865283317
-0.47538075292688264,-0.47538075292688264,0.9997940078188579,0.00015006825206826343
-0.4751569353362427,-0.4751569353362427,1.000203795250295,0.00015611867615282835
-0.4749375516077052,-0.4749375516077052,0.9999216292840629,0.00015001647814251557
-0.4747123344205697,-0.4747123344205697,0.9999694615188186,0.0001561220632618579
-0.47449505045647766,-0.47449505045647766,1.0000011734450123,0.00015002654396294805
-0.47427473513195795,-0.47427473513195795,1.00010376465222,0.0001561316006642667
-0.47405745044659753,-0.47405745044659753,0.9998384917181078,0.00015000874653219447
-0.47383713584660614,-0.47383713584660614,1.0000620460676326,0.00015609535357346128
-0.4736198504423186,-0.4736198504423186,0.9999394332897398,0.00015005830463301527
-0.4733995365648923,-0.4733995365648923,1.0000790600481884,0.00015610409967540533
-0.4731717480086445,-0.4731717480086445,1.0000775578788623,0.00015009680724236871
-0.4729549356637747,-0.4729549356637747,0.9999309557848781,0.00015612792674496635
-0.472734148014932,-0.472734148014932,1.0000003240866069,0.00015005713515261603
-0.47251733638907323,-0.47251733638907323,1.0001292123903214,0.00015611608463446668
-0.4722965480266204,-0.4722965480266204,1.0000317137638812,0.0001500459160603358
-0.47207973711768575,-0.47207973711768575,0.999711664363164,0.00015607357277764542
-0.471858948043473,-0.471858948043473,1.000107761487247,0.00015005843085548058
-0.471642137850057,-0.471642137850057,1.0002073317839577,0.00015614011457383857
-0.4714213480656376,-0.4714213480656376,0.99986080693925,0.0001500074435497744
-0.47120453858594613,-0.47120453858594613,0.9998966067334243,0.0001560869992350017
-0.4709837480932286,-0.4709837480932286,0.9999562367649977,0.00015006108641573551
-0.47076693932515284,-0.47076693932515284,1.0001324417384654,0.00015617378856017659
-0.4705461481262496,-0.4705461481262496,1.0000150459562729,0.00015007321823201
-0.470329340067795,-0.470329340067795,0.9999056964371965,0.00015611099781448
-0.47010854816463804,-0.47010854816463804,1.0000061615667069,0.00015007692475828716
-0.4698917408144574,-0.4698917408144574,1.000061538237567,0.00015618391402849412
-0.46967094820833566,-0.46967094820833566,0.9998526523621226,0.00014999313744537817
-0.4694541415643762,-0.4694541415643762,1.0000764598477265,0.0001560928600637372
-0.46923334825755275,-0.46923334825755275,1.0000255130951785,0.0001500694705228838
-0.4690165423180808,-0.4690165423180808,1.0000049466745868,0.00015617743395750886
-0.46879574831220056,-0.46879574831220056,1.0000442400165874,0.00015005340993589532
-0.4685789430750688,-0.4685789430750688,1.0000227231655785,0.00015611696189537786
-0.46835814837236567,-0.46835814837236567,1.0000313737881021,0.00015002888983245248
-0.4681413438361332,-0.4681413438361332,0.999833421999224,0.00015606624120164905
-0.4679205484379295,-0.4679205484379295,1.0000147199606622,0.0001500344500431633
-0.467703744600518,-0.467703744600518,1.0001518902429927,0.00015613487631581098
-0.46747734721217993,-0.46747734721217993,1.000055245865112,0.0001500570328531311
-0.4672591437478168,-0.4672591437478168,0.9998189993152862,0.00015609122348254624
-0.46703484615432417,-0.46703484615432417,0.9999989045830364,0.00015003967510070654
-0.46682154451989033,-0.46682154451989033,1.0000339615185982,0.0001560835885897535
-0.4665972462368444,-0.4665972462368444,1.0000451057570507,0.00015004133168589962
-0.46638394529539723,-0.46638394529539723,0.9997880018425054,0.00015607650353385285
-0.46615964632488127,-0.46615964632488127,1.0000206611914142,0.0001500675958535934
-0.4659428452645457,-0.4659428452645457,1.0001059757521735,0.00015606305475971625
-0.4657117930260405,-0.4657117930260405,1.0001117539568876,0.00015613821401770018
-0.46549659506529223,-0.46549659506529223,0.9997843242364433,0.0001500367425854874
-0.4652671921905345,-0.4652671921905345,1.0001372801815342,0.00015617250315037683
-0.4650533938711149,-0.4650533938711149,0.9999776106691499,0.00015005833444516913
-0.4648295929792745,-0.4648295929792745,0.9999776476782385,0.0001561332018506152
-0.46461579397870023,-0.46461579397870023,0.9999664782966347,0.00014999903048223406
-0.46439199377176904,-0.46439199377176904,1.0000142322932704,0.00015616728890158307
-0.46417819409215255,-0.46417819409215255,1.0000578659949866,0.00015003610967359533
-0.4639543945680174,-0.4639543945680174,0.9999880772324874,0.00015612658789224202
-0.4637405942112956,-0.4637405942112956,0.999956281676053,0.00015002466112258768
-0.46351679536823126,-0.46351679536823126,1.0001159997415574,0.00015609053177771865
-0.46330299433618904,-0.46330299433618904,0.9998369153902885,0.0001500417791304149
-0.46307919617220106,-0.46307919617220106,1.0000210141592427,0.0001561493196149594
-0.4628653944667171,-0.4628653944667171,1.0000401597967277,0.00015003826597774787
-0.46264159698004265,-0.46264159698004265,0.9999100093637731,0.00015609666119192252
-0.46242779460311284,-0.46242779460311284,1.0001293679362377,0.0001500347334756463
-0.46219979682032886,-0.46219979682032886,0.9999819710950961,0.0001561150738566914
-0.4619796923168032,-0.4619796923168032,0.9999606909168179,0.00015003139433437121
-0.46175939698832236,-0.46175939698832236,1.0001716021942284,0.00015607731197010054
-0.4615420924650856,-0.4615420924650856,1.0001146695224976,0.00015000663730067336
-0.46132179780828153,-0.46132179780828153,0.9999143564870628,0.0001560584671131382
-0.4611044926194111,-0.4611044926194111,0.9998626346056512,0.00015000284663932843
-0.4608841986320016,-0.4608841986320016,1.0000221708714705,0.00015606224751474237
-0.46066689277945727,-0.46066689277945727,1.0001347338911617,0.00015003436599771635
-0.46044659945965166,-0.46044659945965166,1.0000890129514537,0.00015607917202931963
-0.4602292929455508,-0.4602292929455508,0.9998468284195834,0.0001499997552069746
-0.46000900029143565,-0.46000900029143565,0.9998867605001376,0.00015606072490042156
-0.45979169311763146,-0.45979169311763146,1.000320180710025,0.0001501152233538263
-0.4595714011271227,-0.4595714011271227,1.0000227806596649,0.00015620192093540258
-0.4593540932957289,-0.4593540932957289,0.9997724875622385,0.0001499700681325253
-0.45913380196680365,-0.45913380196680365,1.0000665995715479,0.0001561019408731679
-0.4589024902438418,-0.4589024902438418,1.0001601663688926,0.00015003172031022107
-0.45867519795684186,-0.45867519795684186,0.9997176858325745,0.00015604995866893466
-0.458447646554621,-0.458447646554621,1.0002382186321008,0.00015600794380538416
-0.4582282365372272,-0.4582282365372272,1.0001797216272301,0.00014998064198843328
-0.45800304578707907,-0.45800304578707907,0.9999353895202278,0.00015604388632226994
-0.45778923641325164,-0.45778923641325164,0.999816081474529,0.00014998110247703276
-0.4575654466414868,-0.4575654466414868,1.0001864860256044,0.00015611760778787046
-0.45734323467815513,-0.45734323467815513,1.0000306824414036,0.00015002217468927588
-0.45712084588267954,-0.45712084588267954,0.9998514841347033,0.00015605539589475157
-0.4569035344049553,-0.4569035344049553,1.0000143420199894,0.00014995952146544102
-0.4566832467455718,-0.4566832467455718,0.9999684586638674,0.00015601706556502476
-0.4564659346236283,-0.4564659346236283,1.0001442842621417,0.00014997609691359874
-0.4562456476126897,-0.4562456476126897,0.9998752574432153,0.000156111514025358
-0.45602833484826133,-0.45602833484826133,0.9999637049818058,0.0001499847414160431
-0.45580804848403106,-0.45580804848403106,1.0002822748463767,0.000156078200539022
-0.4555893347558353,-0.4555893347558353,0.9999943561864668,0.00015004699699414133
-0.4553634477430954,-0.4553634477430954,0.9998259746303713,0.00015609240051567803
-0.4551356312748432,-0.4551356312748432,0.9999959497604388,0.00014998733177331113
-0.45491884700659496,-0.45491884700659496,0.9999346992621179,0.00015606331969150784
-0.45469059545728996,-0.45469059545728996,1.0001458227950488,0.00015606363711325084
-0.4544317050673463,-0.4544317050673463,0.999981049352753,0.00014364102817552508
-0.454176678980523,-0.454176678980523,0.999988193441764,0.00015606749140649446
-0.4539558624284609,-0.4539558624284609,1.0001257809152941,0.00015002209864619438
-0.4537320783068132,-0.4537320783068132,0.9997098115601352,0.00015603413861270214
-0.4535182626895349,-0.4535182626895349,1.000001499812131,0.00014996270548762458
-0.45327207407756165,-0.45327207407756165,1.0002601035796275,0.00015604547626603423
-0.4530053136784858,-0.4530053136784858,0.9999811236964113,0.00015605269734285916
-0.45274458624640773,-0.45274458624640773,0.9997933216253114,0.0001499659892336019
-0.45251870340334505,-0.45251870340334505,1.000038812143745,0.00015605986535823424
-0.4522729478702601,-0.4522729478702601,0.9999511855548702,0.0001559756884749049
-0.4520479276142851,-0.4520479276142851,1.000119126461105,0.00014995708234966356
-0.451824146246777,-0.451824146246777,1.0001174451014427,0.0001560835478926602
-0.4516040264502578,-0.4516040264502578,0.9998266022127454,0.00014992381491325072
-0.45137254393219167,-0.45137254393219167,1.0001917028471863,0.00015604725248484396
-0.45115172335507836,-0.45115172335507836,0.9998706442960337,0.00014995590368611407
-0.4509321442267705,-0.4509321442267705,1.0001793387393065,0.00015607020942918413
-0.45070712209311736,-0.45070712209311736,0.9998725675558882,0.0001499234481993555
-0.450480541976647,-0.450480541976647,0.9999716760306567,0.00015603386235620665
-0.4502590199812772,-0.4502590199812772,0.9999664284826448,0.00014995227742468613
-0.4500422427452705,-0.4500422427452705,1.0001640583441382,0.00015605571255385711
-0.4498214202985508,-0.4498214202985508,0.9999752728033832,0.00014994346763151317
-0.4496046436801649,-0.4496046436801649,0.9998942449048457,0.00015606917803836655
-0.44938382062263144,-0.44938382062263144,1.0000275522237063,0.00014996554411414836
-0.44916704461952933,-0.44916704461952933,0.999866641613688,0.00015604875226098717
-0.4489462209537464,-0.4489462209537464,1.000163710391756,0.00014999491725188472
-0.4487294455637027,-0.4487294455637027,1.0000049899315524,0.00015605284871247313
-0.44850862129173874,-0.44850862129173874,1.0000891858743972,0.00014999077251324315
-0.4482883457301504,-0.4482883457301504,0.9998626220863324,0.00015608084097308737
-0.4480500168435221,-0.4480500168435221,0.9999967855293358,0.0001499381027979161
-0.44782344043886513,-0.44782344043886513,1.0000187647067629,0.0001560500836862104
-0.4475867869842851,-0.4475867869842851,1.0000689568768797,0.00015612534015669232
-0.44736386063789907,-0.44736386063789907,0.9999937586523755,0.0001499878106112034
-0.4471344845575011,-0.4471344845575011,0.9998935070154712,0.00015603034618043917
-0.44682529116757763,-0.44682529116757763,1.0001576467359732,0.0001619144327604688
-0.44659018457082666,-0.44659018457082666,0.9998830992252741,0.0001499528148053871
-0.4463556310568997,-0.4463556310568997,0.9999771177651212,0.00014997610834880341
-0.4461388592529545,-0.4461388592529545,0.9999494518019414,0.00015604029763269142
-0.44591803143688014,-0.44591803143688014,0.9998899832414245,0.00015000839899429556
-0.4457012602310499,-0.4457012602310499,1.0001150331785522,0.00015612973680159223
-0.44548043182407254,-0.44548043182407254,1.000067240510045,0.00015004225974429814
-0.4452636612141319,-0.4452636612141319,0.9998491366899739,0.00015606515349685164
-0.44504283221860846,-0.44504283221860846,0.999878226682581,0.00014999722994241924
-0.44482606220258136,-0.44482606220258136,1.0000763037743163,0.0001561254874348362
-0.4446052326204736,-0.4446052326204736,1.0000804470357119,0.00015001156565998684
-0.4443884631960252,-0.4443884631960252,0.9998437198127048,0.00015603344040876667
-0.4441676330298868,-0.4441676330298868,1.000134700803097,0.00014999090678389514
-0.44395086419450747,-0.44395086419450747,1.0000231339486028,0.00015606497870884785
-0.44373003344669115,-0.44373003344669115,0.9999288199215283,0.0001499993509899559
