time,time,flux,flux_err
-0.49886860289552715,-0.49886860289552715,1.0000042456495135,8.854776558611901e-05
-0.4975309488969894,-0.4975309488969894,1.0000103704025407,8.862279584692541e-05
-0.49612536277224234,-0.49612536277224234,0.9999455745522615,8.84767284037657e-05
-0.4944972009204018,-0.4944972009204018,0.9998641233807711,8.859098583843719e-05
-0.4926197008055169,-0.4926197008055169,1.00013408702956,8.151846562937275e-05
-0.4910076015454251,-0.4910076015454251,0.9999912492382347,8.077109600782362e-05
-0.4895744233363075,-0.4895744233363075,1.0000129951037482,8.12959254698734e-05
-0.4884393641870702,-0.4884393641870702,1.0000328785657817,8.081590348359616e-05
-0.4871272972872248,-0.4871272972872248,1.0001167377743765,8.084050509131969e-05
-0.4849854883941589,-0.4849854883941589,0.9999312463888673,8.079082097822359e-05
-0.4834092098637484,-0.4834092098637484,0.9999393856303731,8.185052167119785e-05
-0.48115129414072727,-0.48115129414072727,1.0000315732482852,8.104518481773344e-05
-0.4789384240197251,-0.4789384240197251,1.000162010952474,8.09544612880855e-05
-0.4772376347944373,-0.4772376347944373,0.9998995060200857,8.085632503217647e-05
-0.47584792990237473,-0.47584792990237473,0.9998789765013185,8.120181342314715e-05
-0.47460138402529994,-0.47460138402529994,0.9999495436139327,8.077105917916869e-05
-0.4733239214576315,-0.4733239214576315,0.9999097080895287,8.100367058340677e-05
-0.47184436559909954,-0.47184436559909954,0.9999300221525488,8.079344397867663e-05
-0.4704268433590187,-0.4704268433590187,0.9999845739825386,8.089483651989773e-05
-0.46899117378343363,-0.46899117378343363,0.999947755462512,8.079667646394763e-05
-0.4674544091016287,-0.4674544091016287,0.9999545610559577,8.086955149593239e-05
-0.4657884054351598,-0.4657884054351598,1.0000748801096253,8.135189243004799e-05
-0.46406711684830954,-0.46406711684830954,1.0000336874674223,8.08099313523257e-05
-0.4633917691215174,-0.4633917691215174,1.0000094572034806,8.081790952541941e-05
-0.4613197673665127,-0.4613197673665127,1.000038192874715,8.07647817292856e-05
-0.4589933376613772,-0.4589933376613772,1.0000456724158835,8.076609192506522e-05
-0.45698418050305917,-0.45698418050305917,1.000039664836752,8.10719651408742e-05
-0.4553878806938883,-0.4553878806938883,0.9999473925708081,8.097489654294802e-05
-0.4534137772774557,-0.4534137772774557,1.0000220511233238,8.087886768819966e-05
-0.45206448365934193,-0.45206448365934193,0.9999835546913516,8.08136483683761e-05
-0.45071277777024077,-0.45071277777024077,0.9999920512302832,8.132566434337671e-05
-0.44953830799495337,-0.44953830799495337,0.9997323604769948,8.083111945828824e-05
-0.44822071316011713,-0.44822071316011713,0.9998860073675498,8.104407482100183e-05
-0.44687735017505475,-0.44687735017505475,0.9999670655007649,8.079975574988232e-05
-0.44585148005280645,-0.44585148005280645,1.0000028350350063,8.093360854778403e-05
-0.4447107040527044,-0.4447107040527044,1.0000722502924109,8.077844304909056e-05
-0.44390617883764205,-0.44390617883764205,1.0000166373989336,8.086471536060753e-05
-0.4419650633557467,-0.4419650633557467,0.9999841959400119,8.078859872896808e-05
-0.4403534099867102,-0.4403534099867102,1.0001429488488756,8.14985623716341e-05
-0.4391637241176795,-0.4391637241176795,0.9998586748273744,8.078329037875899e-05
-0.4373984762729378,-0.4373984762729378,1.0001104726371923,8.081854653762626e-05
-0.4355935163475806,-0.4355935163475806,1.000101598564352,8.077571434851182e-05
-0.43342572641267907,-0.43342572641267907,1.0001516833972022,8.077612966820362e-05
-0.43184047182730867,-0.43184047182730867,1.0000981925783163,8.176698218280793e-05
-0.4296001237409655,-0.4296001237409655,1.0000448652275935,8.105466190054062e-05
-0.427798853936838,-0.427798853936838,1.0000207099224825,8.091446371291195e-05
-0.42592885468620806,-0.42592885468620806,0.9999385251340932,8.085070505537191e-05
-0.4245943806890864,-0.4245943806890864,0.9999295711829795,8.112636332587527e-05
-0.4233560797292739,-0.4233560797292739,0.999955645098321,8.08342046149414e-05
-0.421965290242224,-0.421965290242224,1.0000320338753803,8.098559145335653e-05
-0.4206159633846255,-0.4206159633846255,1.0000742976142702,8.077754872538414e-05
-0.4196309305669274,-0.4196309305669274,1.0000014980856615,8.091344249734838e-05
-0.4181806792737916,-0.4181806792737916,1.000016766739105,8.074668941338478e-05
-0.4170034343813313,-0.4170034343813313,0.9999063527279223,8.088753841685506e-05
-0.4151190933131147,-0.4151190933131147,0.9997775458892288,8.075822516075064e-05
-0.4136344773112796,-0.4136344773112796,1.00020047908852,8.134384309636796e-05
-0.4124188938993029,-0.4124188938993029,0.99987362819281,8.079380146833926e-05
-0.41150714647374115,-0.41150714647374115,1.0002262681466427,8.080318759406487e-05
-0.40934487494814675,-0.40934487494814675,0.9998494035649976,8.075908261119332e-05
-0.4070223982911557,-0.4070223982911557,0.9999686877355483,8.07723301895948e-05
-0.404910468228627,-0.404910468228627,0.9999086039277557,8.107921536917523e-05
-0.40269548506475983,-0.40269548506475983,1.0000679576314735,8.09819162124845e-05
-0.4009678724250989,-0.4009678724250989,1.000066496596029,8.087621735706905e-05
-0.3996211337012937,-0.3996211337012937,1.0001022395873536,8.130739766669363e-05
-0.3983318054641131,-0.3983318054641131,1.0002316691839424,8.081321784888439e-05
-0.39698550938628613,-0.39698550938628613,0.9999382817413099,8.35678882280922e-05
-0.395583934703609,-0.395583934703609,1.0000054152232751,8.080937286990056e-05
-0.3945342876890209,-0.3945342876890209,0.9999397599845669,8.091767224531067e-05
-0.3932557109510526,-0.3932557109510526,0.9999384425571595,8.07178977006116e-05
-0.3923405481560621,-0.3923405481560621,0.9998962442929684,8.088093970070315e-05
-0.39040893769124524,-0.39040893769124524,0.9999437995852765,8.077672979791409e-05
-0.38889925845724066,-0.38889925845724066,0.9999534916212657,8.143583466037715e-05
-0.3877945086598629,-0.3877945086598629,1.000034089690382,8.082008248624393e-05
-0.38658492493850644,-0.38658492493850644,1.0001327433505456,8.083871771337754e-05
-0.3848270728834905,-0.3848270728834905,0.9999058032134748,8.07682978607279e-05
-0.3827338392846286,-0.3827338392846286,1.0000359899607631,8.339988122480072e-05
-0.3811931948643178,-0.3811931948643178,0.9999863704900991,8.16912361746119e-05
-0.3794184532423969,-0.3794184532423969,0.9999855663183468,8.101638515842604e-05
-0.37711993341799827,-0.37711993341799827,0.9999661837666073,8.09025437863905e-05
-0.3751039214694174,-0.3751039214694174,0.9999739280680042,8.139813850890284e-05
-0.3738797199272085,-0.3738797199272085,1.0001176233711369,8.077423880099602e-05
-0.37243072808487343,-0.37243072808487343,0.999989978025706,8.110105829377014e-05
-0.3709111303614918,-0.3709111303614918,1.000147029850598,8.082694089810344e-05
-0.36969797339115756,-0.36969797339115756,0.9998258748468765,8.092796478713482e-05
-0.36834450662136076,-0.36834450662136076,0.9999581487006853,8.077661585797783e-05
-0.3673079588334076,-0.3673079588334076,0.999971207383286,8.086323002412152e-05
-0.36543389845173807,-0.36543389845173807,0.9999467037440557,8.08751538360882e-05
-0.3637527304585092,-0.3637527304585092,1.0000412961296778,8.156643312343681e-05
-0.36244832519732884,-0.36244832519732884,0.9997790411224841,8.131756884489208e-05
-0.36093399426317774,-0.36093399426317774,1.0000584610947538,8.080549508433035e-05
-0.3599392734467983,-0.3599392734467983,0.9999598803145091,8.081860655903046e-05
-0.357794407120673,-0.357794407120673,0.9999949437517278,8.077325870782237e-05
-0.3556483137013856,-0.3556483137013856,0.9999150689049052,8.117427064328876e-05
-0.35375770620885305,-0.35375770620885305,0.9998079602054762,8.107917823221558e-05
-0.35153919936565214,-0.35153919936565214,1.000073619548128,8.095782899704796e-05
-0.349656232711277,-0.349656232711277,0.9999166764998403,8.083500931127522e-05
-0.3483815788582433,-0.3483815788582433,0.9999148197522058,8.1213797260017e-05
-0.34707200168049895,-0.34707200168049895,0.9998833434270553,8.084434168949735e-05
-0.3457405386987375,-0.3457405386987375,0.9998785826601038,8.101885627373543e-05
-0.3443092836649157,-0.3443092836649157,1.00000923089538,8.082129257456239e-05
-0.3431089413643349,-0.3431089413643349,1.0001235828343635,8.091892573831223e-05
-0.34159630079811903,-0.34159630079811903,0.9999304113440635,8.076905565998346e-05
-0.34045820964965967,-0.34045820964965967,1.0001009546421915,8.085820626822848e-05
-0.33852906243118924,-0.33852906243118924,0.9999610356918849,8.085594739615755e-05
-0.3368944662011927,-0.3368944662011927,1.000030094755813,8.134890290061915e-05
-0.3359701201261487,-0.3359701201261487,0.9999240350813541,8.084251159736524e-05
-0.3342805548687465,-0.3342805548687465,1.0000772951924797,8.079860280812589e-05
-0.33248111855064055,-0.33248111855064055,1.0000344999023696,8.077463291086708e-05
-0.33007680214068386,-0.33007680214068386,1.0001237642391119,8.111240544472486e-05
-0.3284668542823056,-0.3284668542823056,0.99991537303606,8.136678836914699e-05
-0.326863008653163,-0.326863008653163,1.0000427914909302,8.099877550342844e-05
-0.32468367321125696,-0.32468367321125696,0.9999545373661111,8.089097272648866e-05
-0.32317731114453635,-0.32317731114453635,0.999864540934221,8.133603716480739e-05
-0.32221906825725455,-0.32221906825725455,0.9998801362123068,8.077950464949269e-05
-0.3208602433500346,-0.3208602433500346,0.9998227806459694,8.107896286978585e-05
-0.31934417960001155,-0.31934417960001155,0.9999692375712073,8.082875422515899e-05
-0.31827790777024345,-0.31827790777024345,0.9999792475192647,8.093589343707683e-05
-0.3169790364918299,-0.3169790364918299,1.000161947429223,8.076967008494612e-05
-0.31609216454962735,-0.31609216454962735,1.0000437381545928,8.087416307772e-05
-0.3141438548307633,-0.3141438548307633,0.999949223973468,8.078314471476306e-05
-0.3125474690401461,-0.3125474690401461,0.9998883627284372,8.156155960791995e-05
-0.3111716573184822,-0.3111716573184822,0.999941143721561,8.082800300312874e-05
-0.3096222344960552,-0.3096222344960552,0.9999239115697783,8.122312130532679e-05
-0.30868648921896236,-0.30868648921896236,1.0001849064046744,8.084881193672942e-05
-0.306660155535792,-0.306660155535792,0.9998300702824782,8.077513975725014e-05
-0.30469765069428834,-0.30469765069428834,0.9999916999533893,8.189211333315068e-05
-0.3027366621012334,-0.3027366621012334,1.0001973999477674,8.106307230120848e-05
-0.3004376514349133,-0.3004376514349133,0.9998865902977518,8.095191556276405e-05
-0.298333294398617,-0.298333294398617,1.0000127643444172,8.084417630185872e-05
-0.29711188680958,-0.29711188680958,0.9999977047588677,8.084828685229575e-05
-0.29579926787992006,-0.29579926787992006,0.9999273793825807,8.119524431289728e-05
-0.2943774127605138,-0.2943774127605138,0.9999679097234553,8.079595970286132e-05
-0.29308448985393626,-0.29308448985393626,0.999960876049024,8.097812505792842e-05
-0.29169633201672696,-0.29169633201672696,1.000000014941421,8.093081887206354e-05
-0.2900412349234102,-0.2900412349234102,1.0000511538373793,8.0778428752833e-05
-0.28890104505117054,-0.28890104505117054,0.9999981313888389,8.084424877266278e-05
-0.28696004155499394,-0.28696004155499394,1.0001239014016092,8.08659858636671e-05
-0.2853360579640139,-0.2853360579640139,0.999798554996838,8.132183470967965e-05
-0.28443585482018535,-0.28443585482018535,1.0000939204010315,8.078182218690276e-05
-0.28337961504876147,-0.28337961504876147,1.0000688363828876,8.078979796522462e-05
-0.28172193266218526,-0.28172193266218526,1.0000863537437161,8.080020214536554e-05
-0.2796162330545485,-0.2796162330545485,1.0000531849841106,8.076608167637843e-05
-0.2776083914388437,-0.2776083914388437,1.0000229990866534,8.108234080513557e-05
-0.2760134551790543,-0.2760134551790543,1.0001355567858923,8.101081553005397e-05
-0.27403617231466343,-0.27403617231466343,0.9999476979993543,8.087686379139203e-05
-0.27260986301116646,-0.27260986301116646,1.0000115404061833,8.079156025276682e-05
-0.27109908870770594,-0.27109908870770594,0.9998532107559652,8.132819064337533e-05
-0.2698610378167359,-0.2698610378167359,0.9999989662895988,8.107134874551625e-05
-0.26839512605802157,-0.26839512605802157,1.0000515025624586,8.078559083988451e-05
-0.2670632360939635,-0.2670632360939635,0.9998461508097009,8.094584221913932e-05
-0.2659625526081072,-0.2659625526081072,0.9999192145931135,8.077339007219489e-05
-0.26493947207345625,-0.26493947207345625,0.9999821223764405,8.077155873231128e-05
-0.2633997777418699,-0.2633997777418699,1.000107832186521,8.08838491543021e-05
-0.26168804957706016,-0.26168804957706016,0.9999297650449078,8.147392135712034e-05
-0.2601163669023663,-0.2601163669023663,0.9998464531809708,8.076587245723457e-05
-0.25895153343153654,-0.25895153343153654,0.9999808371602847,8.126022321573017e-05
-0.25747259391355326,-0.25747259391355326,1.0002069955867159,8.08326501778687e-05
-0.2557740671938518,-0.2557740671938518,0.9999971340913134,8.078121394541092e-05
-0.25364349499868694,-0.25364349499868694,0.9998876443183942,8.111198180183604e-05
-0.2520411673147464,-0.2520411673147464,0.9999109256464476,8.170086559755778e-05
-0.2497850795654813,-0.2497850795654813,1.0000428890772926,8.091760609263006e-05
-0.24757319227792324,-0.24757319227792324,1.0000220786055607,8.089032486636991e-05
-0.2460518035601126,-0.2460518035601126,1.0001126614480904,8.076110599094048e-05
-0.24471737908606883,-0.24471737908606883,0.9999895092896377,8.117988299260266e-05
-0.24337506004376336,-0.24337506004376336,0.9999406105000409,8.081999668503753e-05
-0.24215590517269447,-0.24215590517269447,0.9998436638440398,8.096363624879123e-05
-0.24062953189713882,-0.24062953189713882,1.0000199970423576,8.079365333053465e-05
-0.23948075593507384,-0.23948075593507384,0.9999166087240996,8.087868069975884e-05
-0.2380512454576092,-0.2380512454576092,0.9998155314632087,8.076915397877431e-05
-0.23651582784659694,-0.23651582784659694,1.0000051799249499,8.087153956379296e-05
-0.23491016887128352,-0.23491016887128352,1.000003821158713,8.082799093521609e-05
-0.23337440466566478,-0.23337440466566478,0.9999423831812655,8.128012931394002e-05
-0.23263174846651963,-0.23263174846651963,1.0000343997606735,8.084147221804057e-05
-0.23094157755549533,-0.23094157755549533,0.9998519085519348,8.07808816429149e-05
-0.2284406701597618,-0.2284406701597618,1.0000751028811812,8.077924362048675e-05
-0.22649548275803683,-0.22649548275803683,1.0001880153287073,8.106870637569146e-05
-0.22419564241426998,-0.22419564241426998,1.0000382429834054,8.097109344895568e-05
-0.22221493927645497,-0.22221493927645497,0.9999684738602015,8.136526941362982e-05
-0.22112662657164037,-0.22112662657164037,1.0000911324862356,8.082004986222863e-05
-0.21977444522490258,-0.21977444522490258,0.9998547584065178,8.128249509897497e-05
-0.2183061990624992,-0.2183061990624992,1.0000539288022057,8.081256809496316e-05
-0.21683630022162106,-0.21683630022162106,0.9998389866084372,8.102193967643194e-05
-0.2154913746198872,-0.2154913746198872,0.9998706001157969,8.093409561580798e-05
-0.2144147185521433,-0.2144147185521433,1.000072434719373,8.077024584614206e-05
-0.21337802398193162,-0.21337802398193162,1.0001104143108819,8.081015385769786e-05
-0.2118350390723208,-0.2118350390723208,1.0000998726015147,8.08828495844737e-05
-0.2101353752979776,-0.2101353752979776,1.000002193498032,8.143325615573674e-05
-0.20876189120754135,-0.20876189120754135,1.0000602314521239,8.078619362199723e-05
-0.20791863155318424,-0.20791863155318424,1.0001266486696445,8.088002773060821e-05
-0.2061252003913978,-0.2061252003913978,0.9997999309285752,8.077423645813807e-05
-0.20421323985792697,-0.20421323985792697,0.9998459058586151,8.077621718384418e-05
-0.20208630396518856,-0.20208630396518856,0.9998733004697826,8.109735712957374e-05
-0.20047249749477486,-0.20047249749477486,1.0000303184715151,8.163258912403842e-05
-0.19821905546705237,-0.19821905546705237,0.9998097789911309,8.090782930090761e-05
-0.19609176407102497,-0.19609176407102497,1.0000448556408155,8.134509436197727e-05
-0.19475126385514158,-0.19475126385514158,1.0001543887710238,8.085669016012867e-05
-0.19333268884511198,-0.19333268884511198,0.9999173119994766,8.115315583674158e-05
-0.19211856012407225,-0.19211856012407225,0.9999019633044289,8.077773003972206e-05
-0.19081259660888464,-0.19081259660888464,1.0000134859038057,8.096925484867445e-05
-0.18941620461118874,-0.18941620461118874,0.9998688435971568,8.075218922745482e-05
-0.18851949695672374,-0.18851949695672374,0.9999295642186435,8.091563579215016e-05
-0.18689178929198533,-0.18689178929198533,0.9997777419110445,8.078195399100938e-05
-0.1854148504207842,-0.1854148504207842,0.9998686368927172,8.165133357609589e-05
-0.1838222881196998,-0.1838222881196998,0.9999592769093212,8.085544883956711e-05
-0.18237906094582285,-0.18237906094582285,0.999946959943322,8.127302504505615e-05
-0.18134850677161013,-0.18134850677161013,0.9998757455489782,8.07700962841574e-05
-0.1802639134315541,-0.1802639134315541,1.0000070965277823,8.079624946628604e-05
-0.17790667333756574,-0.17790667333756574,1.0000213773505089,8.079255428133147e-05
-0.17549489514203742,-0.17549489514203742,0.9999828593091813,8.080348843506322e-05
-0.1735420495358994,-0.1735420495358994,0.9999429154771908,8.121446251036315e-05
-0.17132992864062543,-0.17132992864062543,0.9998007384460065,8.088621219941216e-05
-0.17003026315942407,-0.17003026315942407,0.9999982181789685,8.07679156703625e-05
-0.1686777959082974,-0.1686777959082974,1.0000824211275843,8.128675068847573e-05
-0.16739832021994516,-0.16739832021994516,0.9999579145637855,8.0806165676988e-05
-0.16614636687736492,-0.16614636687736492,1.0000934435631739,8.101206409234146e-05
-0.16464727553830016,-0.16464727553830016,1.000150480799866,8.080962418177866e-05
-0.16348865408799612,-0.16348865408799612,1.0000822735069168,8.091676347161377e-05
-0.16200247087108438,-0.16200247087108438,1.0001516570297198,8.078412073228351e-05
-0.1606241856177803,-0.1606241856177803,0.9999881516889294,8.085639532862537e-05
-0.1589261978660943,-0.1589261978660943,0.999974000046372,8.084377444895765e-05
-0.1572178766306024,-0.1572178766306024,0.9999195358771533,8.135753492471199e-05
-0.15636111806961708,-0.15636111806961708,0.9999316693454968,8.084734646824084e-05
-0.15457376750709956,-0.15457376750709956,0.9999087079782436,8.076861057452518e-05
-0.15265259849838914,-0.15265259849838914,0.9997846089004074,8.076594842995246e-05
-0.15027709113492166,-0.15027709113492166,0.9998866042021206,8.169907637239185e-05
-0.1488177763792919,-0.1488177763792919,0.9999367795359436,8.078819376980333e-05
-0.14707957072241698,-0.14707957072241698,0.9999643504939784,8.100461603615451e-05
-0.1448690579709364,-0.1448690579709364,0.9999582064281374,8.092126569681952e-05
-0.14338970715471078,-0.14338970715471078,0.9999683064921634,8.1371162531693e-05
-0.14236384334508329,-0.14236384334508329,1.000003655009229,8.084769181282139e-05
-0.14089496054803022,-0.14089496054803022,0.9998193095183296,8.103115374899265e-05
-0.1394487939629471,-0.1394487939629471,1.000133891871375,8.094917657576162e-05
-0.13840118061343673,-0.13840118061343673,1.0000335710987844,8.07792769393079e-05
-0.13731457364629024,-0.13731457364629024,0.9999843089826512,8.078432847030035e-05
-0.1359189097973285,-0.1359189097973285,1.0000208527449899,8.088255353071516e-05
-0.1342282208672259,-0.1342282208672259,0.9999689762653935,8.086297373309898e-05
-0.13252594823716207,-0.13252594823716207,1.0000500028633126,8.15140900842405e-05
-0.13113678728986997,-0.13113678728986997,0.9998691172749569,8.130394491182374e-05
-0.12987819794507233,-0.12987819794507233,0.9999038172182573,8.079780724923116e-05
-0.12899859564204236,-0.12899859564204236,0.999961137630671,8.082229958412681e-05
-0.1268642367096618,-0.1268642367096618,1.0001289530439252,8.077915327185011e-05
-0.1249333335639676,-0.1249333335639676,1.0000519765313534,8.194186635737056e-05
-0.12289800326689146,-0.12289800326689146,0.9999589812048688,8.105651764847173e-05
-0.12060400018817745,-0.12060400018817745,1.0001254314477905,8.093536920334048e-05
