time,time,flux,flux_err
-0.499875879958078,-0.499875879958078,1.0001323723814541,0.00044986587241015505
-0.4997530079417629,-0.4997530079417629,0.9999099177287105,0.0004164830951794366
-0.4996218963089632,-0.4996218963089632,0.9999477482630296,0.0004171019853357048
-0.49948806056054307,-0.49948806056054307,1.0001381127180973,0.00038489536059391585
-0.49937002880324144,-0.49937002880324144,1.0001268226732545,0.00040140427775821276
-0.49921363016765097,-0.49921363016765097,1.0006025545281905,0.0003988498646020222
-0.4991075343452394,-0.4991075343452394,1.0002086874266822,0.000448182153630288
-0.49901397156645544,-0.49901397156645544,0.9997695815520828,0.0004197176560887271
-0.4988444121496286,-0.4988444121496286,1.0000232908775935,0.0004208092535693381
-0.4987748126819497,-0.4987748126819497,0.9998615622351895,0.0003359307467138249
-0.4985701331519522,-0.4985701331519522,1.0000059909431604,0.000423318309614369
-0.4984744598419638,-0.4984744598419638,0.9998639932093084,0.00043413602913734494
-0.49837373370828575,-0.49837373370828575,1.0005197787303874,0.00040505635444562443
-0.4983022152708145,-0.4983022152708145,1.0004577740753482,0.0005321042349967766
-0.49822276854829395,-0.49822276854829395,1.000092339810241,0.0004424793445282946
-0.498118664562935,-0.498118664562935,0.9997976898503179,0.00041304309607249657
-0.49800059096887705,-0.49800059096887705,1.0005282824781516,0.00042141734401519545
-0.497857649132493,-0.497857649132493,0.9999821648998555,0.0004388905392429364
-0.49772659072768877,-0.49772659072768877,0.999763820149002,0.0004104570451902496
-0.4975160395842977,-0.4975160395842977,0.9998158998802541,0.00047728845533511735
-0.497374102199683,-0.497374102199683,0.9999977372721242,0.00039168482159943703
-0.4973010407149559,-0.4973010407149559,0.999824244117117,0.00044205344643712135
-0.4972139906079974,-0.4972139906079974,0.999840886743824,0.00041438292561557483
-0.49706331248162317,-0.49706331248162317,1.000234503412635,0.00040243392354284756
-0.49692121410917023,-0.49692121410917023,0.9998597429237993,0.0004806686361528904
-0.49678896807599815,-0.49678896807599815,0.999976495067075,0.00044415837876071496
-0.49665308635740074,-0.49665308635740074,1.000034019975011,0.0004136932883527139
-0.4965091443445999,-0.4965091443445999,0.9997481766340692,0.00048699729200829214
-0.4963679672015132,-0.4963679672015132,1.0003385084482779,0.00039040216518606083
-0.496213298800285,-0.496213298800285,1.0001719130157856,0.00037514407486612263
-0.4961116389284143,-0.4961116389284143,0.9998910156328454,0.00041762753435995776
-0.4959797417279333,-0.4959797417279333,1.000499065274236,0.0004930911529568937
-0.49579252540133895,-0.49579252540133895,0.9998166462790795,0.0004645354458079062
-0.49568037254794034,-0.49568037254794034,1.0006344215085812,0.0004335215288062309
-0.49559588785050435,-0.49559588785050435,1.0000231560012796,0.00044734631274755035
-0.4955200381024042,-0.4955200381024042,1.000011529147243,0.0004488047389840156
-0.49541045910737014,-0.49541045910737014,0.9997871003897135,0.00038822819776114834
-0.4953031148004811,-0.4953031148004811,0.9997947424300007,0.00044031950792759007
-0.4952564962790348,-0.4952564962790348,0.9997620120715357,0.00044962241981950517
-0.49508649271447214,-0.49508649271447214,1.0003102786039713,0.00039834158995027773
-0.49499704638437836,-0.49499704638437836,1.0002465416444415,0.0004344287766038106
-0.49485850039927753,-0.49485850039927753,0.9999006907969937,0.0004088620118570462
-0.49472420696984043,-0.49472420696984043,0.9998264841766169,0.00041118036726250814
-0.49460887972963974,-0.49460887972963974,0.9999127067946315,0.0004222096724093628
-0.4944909879384795,-0.4944909879384795,1.0003530359775197,0.0004266813054863842
-0.4942977443366544,-0.4942977443366544,0.9998833882094731,0.00042202568975630743
-0.4941375515976688,-0.4941375515976688,0.9996724658296781,0.00041153711128637726
-0.49402202196361034,-0.49402202196361034,0.9999440170094646,0.0004032552415485425
-0.4938319610606413,-0.4938319610606413,0.9997110896038622,0.0004404062855205377
-0.4937524225038942,-0.4937524225038942,1.0001649241071893,0.00045693930856995096
-0.49368835519708226,-0.49368835519708226,0.9999941896103615,0.00039439894843679575
-0.49365762282395736,-0.49365762282395736,1.0002391718990438,0.00042006365555864397
-0.4935945819102926,-0.4935945819102926,0.9999131535433454,0.0004410595112391367
-0.4934910585783655,-0.4934910585783655,1.0000336496419746,0.0003996312523822288
-0.4933582306199241,-0.4933582306199241,1.0001832941927773,0.00046177071977201463
-0.49321520317171236,-0.49321520317171236,1.0003449278576508,0.0004225550482457427
-0.4930683490820229,-0.4930683490820229,1.0002400138720426,0.0003801221539673972
-0.49293510849238376,-0.49293510849238376,0.9998854491947119,0.0004318492468977854
-0.4928393053880427,-0.4928393053880427,0.9997995707387192,0.000455880401346117
-0.49275037964398505,-0.49275037964398505,0.9996781806028896,0.00042097755977171455
-0.49267171098617835,-0.49267171098617835,1.000360867284463,0.0004010800722295942
-0.4925774752366124,-0.4925774752366124,0.9998824607853551,0.0004436158915336628
-0.49246326690772546,-0.49246326690772546,1.0000953548137754,0.0003821932580252443
-0.49238569008302874,-0.49238569008302874,0.9996759221789159,0.00042460035241970206
-0.4922751471574884,-0.4922751471574884,0.9994908209155303,0.0004618078419947238
-0.49219639182265384,-0.49219639182265384,1.000524083785322,0.0004430865366905351
-0.49196379535424056,-0.49196379535424056,0.9997504023589963,0.0004075037523347702
-0.49181132711528336,-0.49181132711528336,0.9997394501068474,0.00044193200197846445
-0.4917018271778943,-0.4917018271778943,1.0001197835950224,0.00041574529163551557
-0.49146212345804086,-0.49146212345804086,0.9993171230324427,0.0004146644418090768
-0.49131595877406653,-0.49131595877406653,0.9997908377250507,0.0004203777627034695
-0.4911758762638783,-0.4911758762638783,1.0000418174199606,0.00040901058356539725
-0.49105927933997007,-0.49105927933997007,0.9999222291963502,0.0003870173888581779
-0.49093694508483166,-0.49093694508483166,1.0005383731270787,0.0004145869867895156
-0.49083378311188425,-0.49083378311188425,1.0003281125153,0.00048639765416312337
-0.49077279425400777,-0.49077279425400777,0.9999552086425965,0.0004045569933512006
-0.49068041669379453,-0.49068041669379453,1.0000830266833243,0.0004582953297824828
-0.4905816481797956,-0.4905816481797956,1.0002323823334158,0.00038415233269840086
-0.49040041357220615,-0.49040041357220615,0.999995012834866,0.00045241169567646603
-0.4903071059525246,-0.4903071059525246,0.9999362283760934,0.0003909138072868093
-0.4902355285710655,-0.4902355285710655,1.0001742141877457,0.0003736813592137194
-0.49013788062729874,-0.49013788062729874,0.9996992751147801,0.0004209365554764449
-0.4900365725130541,-0.4900365725130541,0.9999619095711397,0.00046717098165613235
-0.4898951643554028,-0.4898951643554028,0.9995794411362777,0.0004182951586949186
-0.4897203157277545,-0.4897203157277545,0.9996310890871317,0.00048397035135044474
-0.4895501101273112,-0.4895501101273112,0.9995993938873159,0.0004131139317545128
-0.4894606838177424,-0.4894606838177424,0.9994259007089108,0.0004168907933898694
-0.4893840469565475,-0.4893840469565475,0.9998690849223764,0.00039733469829789515
-0.48928803283488376,-0.48928803283488376,1.0001428804264658,0.0004769995699577077
-0.48913436341972555,-0.48913436341972555,0.9997057406483354,0.0004642767961856585
-0.4889896967622917,-0.4889896967622917,1.0000669768803796,0.00043568285584807975
-0.48884994903346524,-0.48884994903346524,0.9997561613696375,0.00041202563417979527
-0.4886793732730439,-0.4886793732730439,1.0000617977863206,0.00043263349041930703
-0.48857245858525855,-0.48857245858525855,1.0001542896805127,0.0003699560983429226
-0.4884770834178198,-0.4884770834178198,0.9995372046408961,0.00038577531305024354
-0.4884311513713328,-0.4884311513713328,0.9995586537634928,0.00048225102805557024
-0.4883756723604165,-0.4883756723604165,1.000479794988689,0.000434043998278781
-0.48824240047542844,-0.48824240047542844,1.0001625920192514,0.0003720059011341102
-0.4881341811385937,-0.4881341811385937,1.0000211783773199,0.00041557471283112127
-0.4880718205444282,-0.4880718205444282,1.0002935631609138,0.00042947532424393483
-0.48785729886731133,-0.48785729886731133,0.9994520338486528,0.0004169919299622346
-0.4877397548931185,-0.4877397548931185,1.0000313028306844,0.0004049763622827231
-0.48762653980229514,-0.48762653980229514,0.9995279180634287,0.0004001344274603688
-0.48750828416086733,-0.48750828416086733,0.9990623515486018,0.0003671759980307581
-0.48742162535490935,-0.48742162535490935,1.0002320974745345,0.00044813204083556996
-0.4873288426140789,-0.4873288426140789,1.0001487814849033,0.000426404711135047
-0.48724258788861335,-0.48724258788861335,1.000282638753324,0.0004324709695283385
-0.48710054422554094,-0.48710054422554094,0.9997310914829161,0.0004142593306239543
-0.4869655575806974,-0.4869655575806974,0.9999404283138691,0.0004391291989688101
-0.486830952874152,-0.486830952874152,0.9999656672572452,0.00036597440924894596
-0.48676580751198345,-0.48676580751198345,0.9999869902386941,0.00042689520427598333
-0.4866589711804409,-0.4866589711804409,0.9997069454848674,0.0003881901174368974
-0.4865230985713424,-0.4865230985713424,0.9996375792323953,0.00043236735058184005
-0.48644756663707084,-0.48644756663707084,0.9999266769578498,0.00044884546107813625
-0.48638166280288714,-0.48638166280288714,0.9997025057633406,0.00042390143569120964
-0.48626337603491265,-0.48626337603491265,1.0001614220172965,0.0003677175576327504
-0.4861425304377917,-0.4861425304377917,1.0000049498242674,0.0004159383579715378
-0.48601827790553215,-0.48601827790553215,0.9996400814512147,0.00044756946565281485
-0.4859598151932005,-0.4859598151932005,0.9992361992898005,0.00044013241656564773
-0.4857857857219642,-0.4857857857219642,1.000221939433105,0.00044401946528165053
-0.48565190070657993,-0.48565190070657993,0.9997633918657007,0.00044431852325649567
-0.4855133904784452,-0.4855133904784452,1.0003442976158858,0.0004392196018422081
-0.48541588213120124,-0.48541588213120124,0.9998847883260001,0.0004173241694074804
-0.485345272423001,-0.485345272423001,0.9997478401165495,0.00036512135035644605
-0.4852752308244817,-0.4852752308244817,1.0001865610519867,0.0004252333408925351
-0.48516912513005084,-0.48516912513005084,0.9999743976309572,0.0003860840528482284
-0.48504713118600196,-0.48504713118600196,0.9997150069736543,0.00042337293932397997
-0.48489572627877353,-0.48489572627877353,1.0002451712359748,0.00041894894327201913
-0.4847820826922543,-0.4847820826922543,1.0004726743394012,0.0004909847646979419
-0.4846672055136878,-0.4846672055136878,1.0001424851575695,0.0004244974863145963
-0.48446636535809373,-0.48446636535809373,0.9997847713185065,0.0003980337421952085
-0.4842994584818371,-0.4842994584818371,0.99966974803239,0.0004205886417537094
-0.48423414679127746,-0.48423414679127746,1.0001892554774496,0.00048018982479389215
-0.48417659348924647,-0.48417659348924647,0.999392801586081,0.0003964819011325637
-0.48408380659529937,-0.48408380659529937,0.9996238295637028,0.0004185718290114819
-0.4838487530039856,-0.4838487530039856,1.000089076164656,0.0004702932438190666
-0.4837486651551444,-0.4837486651551444,1.0004703633443979,0.0004291363117671054
-0.4836758463497972,-0.4836758463497972,0.9995960297308116,0.0004102249088261526
-0.48362234647211155,-0.48362234647211155,1.0002132462520388,0.00041170450381549094
-0.48351733063173014,-0.48351733063173014,1.0003708697885083,0.00041225082033030945
-0.4834194701950764,-0.4834194701950764,0.9998662978304239,0.00042969891075744315
-0.48328665432345586,-0.48328665432345586,1.0001363859664782,0.00042215421929964496
-0.48316593789495527,-0.48316593789495527,1.0001919089442308,0.0004295056624513306
-0.48308317143528257,-0.48308317143528257,0.9998477029454141,0.0004291857761304837
-0.482901589688845,-0.482901589688845,0.9995150937785487,0.0004423633105101528
-0.4827362164010992,-0.4827362164010992,1.000223718345264,0.0004754877198219217
-0.4826041390100727,-0.4826041390100727,0.9997970595965875,0.00038146111205608814
-0.4824417076772079,-0.4824417076772079,0.9995722887048315,0.00038658930700924643
-0.4823312905296916,-0.4823312905296916,0.9998974604899722,0.00040101583771509126
-0.4822295290679904,-0.4822295290679904,0.9993246353487149,0.0004219723154148717
-0.48206344290520065,-0.48206344290520065,1.0004547549265668,0.0004414220659731477
-0.48190754334791563,-0.48190754334791563,0.9997814731511241,0.00045197738191329526
-0.4818115133966785,-0.4818115133966785,0.9994186110364618,0.0003877968419715182
-0.4817289932136191,-0.4817289932136191,0.99947935880187,0.0004190999680675564
-0.48167823438707275,-0.48167823438707275,0.9996662002628334,0.00041826295791746364
-0.48160789864195974,-0.48160789864195974,0.9994513520814696,0.0004476712471211374
-0.4814803714019945,-0.4814803714019945,0.9999198759164537,0.00041487492851172044
-0.4813109458249528,-0.4813109458249528,0.999756643043078,0.00047267590983962344
-0.48119381904543845,-0.48119381904543845,1.000404120143217,0.00037918030952909486
-0.4810684783791658,-0.4810684783791658,0.9999733472214866,0.0004383238146832818
-0.4810069847648265,-0.4810069847648265,0.9999097473526077,0.0004664114264819756
-0.4809232954372419,-0.4809232954372419,0.9995937534773208,0.00043690078746671244
-0.4808120787522057,-0.4808120787522057,1.0002794295684445,0.00037062055999195667
-0.4807519391528331,-0.4807519391528331,0.9996843095866452,0.00039938932272946825
-0.48064161427610086,-0.48064161427610086,0.9999227238725397,0.00041309368570622537
-0.48052513145375997,-0.48052513145375997,1.0001305869599235,0.0004646639229011257
-0.48038634038239253,-0.48038634038239253,1.0006699814549527,0.0003858614866943184
-0.48027856537664776,-0.48027856537664776,0.9999754605500524,0.0004387125267600704
-0.48002635457087306,-0.48002635457087306,1.000221124111252,0.00046578841711851775
-0.479871865324094,-0.479871865324094,0.9998359906483655,0.00038980535138506835
-0.4797280579572544,-0.4797280579572544,0.9999792155984544,0.0003942306695761613
-0.4795399836060824,-0.4795399836060824,0.9999417207273801,0.0004238793811344956
-0.47943110406631606,-0.47943110406631606,1.0004107975733725,0.0004553284615155793
-0.4792941250023432,-0.4792941250023432,1.000416228514252,0.0004017019055799591
-0.479151223108056,-0.479151223108056,0.9996664501257643,0.00038779190557744627
-0.4790440999553539,-0.4790440999553539,1.0002086811745212,0.00044830840070571396
-0.47896877296152524,-0.47896877296152524,0.9993228162925583,0.0004631975614558212
-0.4789069760852726,-0.4789069760852726,0.9998820394876337,0.00045725136974082
-0.4788035413977923,-0.4788035413977923,0.9996552960533327,0.00042697895028642903
-0.4786714341142215,-0.4786714341142215,1.0003548034649392,0.00043690921623066697
-0.4786043913569301,-0.4786043913569301,0.9999049580486815,0.00037948019780045025
-0.47846400721173266,-0.47846400721173266,0.999937580572704,0.00040017076784138356
-0.47835451253049543,-0.47835451253049543,0.9995914039809927,0.00047474901865435254
-0.4782956978131551,-0.4782956978131551,1.0004820457297652,0.00038413285936356325
-0.4781847809324972,-0.4781847809324972,1.0005267436452578,0.00039010766896003607
-0.4780695097317221,-0.4780695097317221,1.0002615166139828,0.0004044589985603726
-0.4779460630379617,-0.4779460630379617,1.0000532913407605,0.00042808625987303265
-0.47781055607192685,-0.47781055607192685,1.000248737112792,0.0004425601938143718
-0.4776412740466185,-0.4776412740466185,0.9996438684525206,0.0004405725477123615
-0.47749406458169685,-0.47749406458169685,0.9999181491175687,0.00044889603160886207
-0.47738363851385657,-0.47738363851385657,0.9997036729013349,0.0004452667868570717
-0.4772737546270946,-0.4772737546270946,0.9994103233048477,0.000387295779517667
-0.4771220539027127,-0.4771220539027127,1.0001042978177215,0.00042793668416671717
-0.47696061567112336,-0.47696061567112336,1.0003049299139914,0.0004011323013996747
-0.47683988942008,-0.47683988942008,0.9996786757369766,0.000434148866542124
-0.47671097270504104,-0.47671097270504104,0.9999433984996241,0.0004505332562878538
-0.4766456387704238,-0.4766456387704238,0.9994926102494276,0.00043932897097238567
-0.4766048235731432,-0.4766048235731432,0.9994702440412453,0.00041156397426374074
-0.47652313084690834,-0.47652313084690834,1.0002901504430193,0.0004125116369732452
-0.47638285495340826,-0.47638285495340826,1.0003727227742285,0.0004431013045263851
-0.4762258238362847,-0.4762258238362847,0.9996713794745549,0.00037069178434258907
-0.47610368505120276,-0.47610368505120276,0.9993071937171429,0.00039316806250019995
-0.4759570374677423,-0.4759570374677423,1.0001603909789405,0.0004598541857795649
-0.4758367102040211,-0.4758367102040211,1.0005768460632058,0.00041736266476140327
-0.4757286287203897,-0.4757286287203897,1.000315822614389,0.0004368652735905362
-0.4756751862791134,-0.4756751862791134,0.9999857097064323,0.00038411313925183885
-0.4756098060664954,-0.4756098060664954,1.0001078750987666,0.0004941246869373712
-0.4755201005609706,-0.4755201005609706,0.9998558538729426,0.00041063208286468264
-0.4754417477583047,-0.4754417477583047,1.0004659994136107,0.0004399491732783478
-0.4752661434671609,-0.4752661434671609,0.9999184188792499,0.0004101238571950218
-0.4750328436959535,-0.4750328436959535,0.9998258168122209,0.0003995992008211123
-0.4749115602782695,-0.4749115602782695,0.9998448359295107,0.000433966548774092
-0.4748247434094083,-0.4748247434094083,1.0002740437023707,0.0003537353660005162
-0.47472034227394033,-0.47472034227394033,1.0000888820001923,0.0004425823785214818
-0.4745651437784545,-0.4745651437784545,1.000233598045622,0.0004326067545731414
-0.47439331055793443,-0.47439331055793443,0.9999606532403668,0.00040942041617118467
-0.47427443182386925,-0.47427443182386925,0.9998058530331241,0.00036449724073411757
-0.474202614222304,-0.474202614222304,0.9996189249435311,0.00038349172245746437
-0.4741586925461888,-0.4741586925461888,1.000135718972454,0.0005191624586754279
-0.47406605079013386,-0.47406605079013386,1.0001722104879507,0.00040832880496786457
-0.4738867214386119,-0.4738867214386119,1.00007849264532,0.0004496621415381469
-0.47376033168111464,-0.47376033168111464,1.000247310789748,0.00042388918889140934
-0.4735868968477007,-0.4735868968477007,1.0000805360358336,0.0004387144824615261
-0.47342318375594916,-0.47342318375594916,1.0004901728471172,0.00042339828861077765
-0.4733189804916037,-0.4733189804916037,0.9998115418000054,0.00042311116685401806
-0.4731746975536225,-0.4731746975536225,0.9997959794433822,0.0003733007647450117
-0.4730459588026861,-0.4730459588026861,1.0000467342436061,0.0004890555778802487
-0.47297871904447675,-0.47297871904447675,1.0001423189001688,0.0004524225195864799
-0.47273466755868865,-0.47273466755868865,1.0001271621252676,0.00042724382939825066
-0.47257927134050987,-0.47257927134050987,0.9996098986342888,0.0004196405718164123
-0.4724985687644221,-0.4724985687644221,0.9998323348070081,0.00048310127492799855
-0.47239149917149914,-0.47239149917149914,0.9997093399460519,0.000415946797474863
-0.4723084461176768,-0.4723084461176768,0.9997493000363731,0.00040953258536409844
-0.47224752689071464,-0.47224752689071464,0.9998980046451553,0.0003878591690690761
-0.4721207017370034,-0.4721207017370034,0.9993859276035912,0.0004197950233819279
-0.47194228804437444,-0.47194228804437444,1.0002197129720456,0.0004696766747699031
-0.4718077526515117,-0.4718077526515117,1.000264924403411,0.0003897481731708472
-0.47171491865301507,-0.47171491865301507,1.0005668841648743,0.0004423469447484743
-0.4716428693383932,-0.4716428693383932,1.0003375093552318,0.00040906912472488555
-0.4715905487362761,-0.4715905487362761,1.0002394987039933,0.0003953818059796462
-0.4715269464388257,-0.4715269464388257,1.0005291122777578,0.00042151416272916364
-0.47144784582487775,-0.47144784582487775,1.0000907252530165,0.0004316576834054547
-0.4713686805655016,-0.4713686805655016,0.9996338604171342,0.0004742566779564218
