time,time,flux,flux_err
-0.49988917469609834,-0.49988917469609834,0.9998338299335474,0.002406793171954173
-0.4996706878139321,-0.4996706878139321,1.0025140629950462,0.002600709542842577
-0.49946983160762104,-0.49946983160762104,1.0016639649451409,0.002583972629646129
-0.49928403953981615,-0.49928403953981615,1.000970857190071,0.002226946101648169
-0.49916086516577707,-0.49916086516577707,0.9994219896491959,0.0027334344531662817
-0.499026362699351,-0.499026362699351,1.0014685713408682,0.00269348458270085
-0.49891796974438873,-0.49891796974438873,1.0020913537011154,0.0025668608641485464
-0.49880593017473984,-0.49880593017473984,0.9981188041387089,0.002996329830469105
-0.498731996285278,-0.498731996285278,1.0014885777237645,0.0025650447479348506
-0.49865570905735696,-0.49865570905735696,0.9986786214135387,0.0022155454785758037
-0.4985639543709112,-0.4985639543709112,1.0475839277378955,0.0024277374687560896
-0.49846110253733966,-0.49846110253733966,1.0036410231944082,0.0023090518552028134
-0.49836996700423697,-0.49836996700423697,1.0029560754805629,0.002909076623497683
-0.498302553790927,-0.498302553790927,0.9986227411205592,0.0025515600872493974
-0.4982365456336538,-0.4982365456336538,0.9974484377998556,0.0025728142346119827
-0.4980809054456131,-0.4980809054456131,0.9988433924806561,0.0026070588984941434
-0.49793481894557773,-0.49793481894557773,0.9996282158434966,0.0027868167745548587
-0.49773238761167704,-0.49773238761167704,0.9992984774423462,0.0026512318132883178
-0.4975347047926789,-0.4975347047926789,1.0014766304580125,0.002856301453337555
-0.4974431280802037,-0.4974431280802037,0.9981038368472774,0.0031691123342457396
-0.49730408245932267,-0.49730408245932267,0.998165253051247,0.003137049102097679
-0.4971395514615324,-0.4971395514615324,1.0007865121603878,0.0032912417319318384
-0.4970374268328669,-0.4970374268328669,1.0001571576775472,0.0024492994799662415
-0.49690858139074406,-0.49690858139074406,1.0007953015143598,0.0029359947447207316
-0.4967994980635012,-0.4967994980635012,0.9992532586149814,0.0020557073741113495
-0.49660536398919247,-0.49660536398919247,0.9990752135935628,0.0024371628008549692
-0.49645442383020966,-0.49645442383020966,1.0034113883189897,0.002953671937214031
-0.4963690764544936,-0.4963690764544936,0.999419050509579,0.002411968304968907
-0.49627314614367607,-0.49627314614367607,1.0016429621497251,0.002621187924453361
-0.49619417953490486,-0.49619417953490486,0.9971258672267528,0.002880000616334195
-0.49607902965490214,-0.49607902965490214,1.01734679448564,0.0023852188553939403
-0.49596016083737593,-0.49596016083737593,0.9985197438328571,0.0028727831081252677
-0.4957987034148118,-0.4957987034148118,0.9996286453259138,0.0023798723785639123
-0.49567033084908874,-0.49567033084908874,0.9996250493792374,0.002603701444694644
-0.4955646153548514,-0.4955646153548514,0.9987062117973388,0.00255857421471921
-0.4954214686592877,-0.4954214686592877,1.001728959436855,0.0029281147629521393
-0.49534267529847964,-0.49534267529847964,0.9998816877568297,0.002470279676667994
-0.49527107845087814,-0.49527107845087814,0.9986513946108142,0.002866108401064079
-0.4951632720042653,-0.4951632720042653,0.9970064916355875,0.0027430178502777032
-0.49502070233147605,-0.49502070233147605,0.9990361368043562,0.0030990323696335393
-0.49482621518491215,-0.49482621518491215,0.9995640126004544,0.0031994202413035294
-0.4946753018606159,-0.4946753018606159,0.998672128262635,0.002442181884535485
-0.49457839673468695,-0.49457839673468695,1.0012617618148376,0.002678828396655797
-0.49444505323385785,-0.49444505323385785,0.999047562309127,0.0027104716472043868
-0.49426497224690136,-0.49426497224690136,1.0007359375173168,0.0022208155016172626
-0.4941090739485844,-0.4941090739485844,1.0024745817665537,0.0027371756153451382
-0.4940234522255196,-0.4940234522255196,0.9991838269821066,0.0027973691630258446
-0.49389996710633566,-0.49389996710633566,1.0012360997801224,0.0024375570846534686
-0.4937784926575205,-0.4937784926575205,0.9991311747434013,0.0026527176512367574
-0.4934659670000201,-0.4934659670000201,1.002168096604731,0.0023623022189767193
-0.4933188102155782,-0.4933188102155782,1.0043132806533293,0.003065145803487757
-0.4931309530925773,-0.4931309530925773,0.9993229598211795,0.002558961698797776
-0.4930203203997735,-0.4930203203997735,1.0018347880221419,0.002640581519208494
-0.49293737532002524,-0.49293737532002524,1.0024234369720355,0.0023111477551493544
-0.4927904839286839,-0.4927904839286839,1.0000159878444967,0.0027283497235416347
-0.4926819151526615,-0.4926819151526615,0.9999911127585372,0.0027710086577180464
-0.4925677515441748,-0.4925677515441748,0.9992472331725356,0.002701177778636215
-0.4923789064421726,-0.4923789064421726,0.9993350770161001,0.0029100684275141443
-0.4921781178745732,-0.4921781178745732,1.0017492427694734,0.002522912866118614
-0.49205896489861517,-0.49205896489861517,0.9989992728271382,0.0025499395942518207
-0.4919453514083216,-0.4919453514083216,1.0006178513966275,0.0023579037256664446
-0.4918301681554567,-0.4918301681554567,0.9967268516039006,0.002963957136303519
-0.49172590908924574,-0.49172590908924574,1.0056622166714675,0.0021758914431574496
-0.49155596807240726,-0.49155596807240726,0.997728410666278,0.0025924816692461782
-0.4914385745759319,-0.4914385745759319,1.002391268181823,0.0029824670903856303
-0.49130931884665185,-0.49130931884665185,0.9994590104472122,0.003099993360838183
-0.49122073355142676,-0.49122073355142676,0.9968754638554618,0.0026093876513142663
-0.49113394986884484,-0.49113394986884484,1.0025455061341475,0.002936805702210127
-0.49102449504971446,-0.49102449504971446,0.9988879380512559,0.002610104047860215
-0.490910097280539,-0.490910097280539,0.9998785619411322,0.002353960060197194
-0.4907785655342195,-0.4907785655342195,1.0002536970825306,0.002900684312584224
-0.4906582927765612,-0.4906582927765612,1.0001307793420564,0.0028213194314090353
-0.4905118535778456,-0.4905118535778456,1.055816769566516,0.0024672929138907255
-0.49043991819476107,-0.49043991819476107,0.9991633061643036,0.0028320225115978422
-0.49036834990120043,-0.49036834990120043,0.998262262263799,0.0024198824284216965
-0.49023306444246373,-0.49023306444246373,1.0022359354702877,0.0029385861702196587
-0.49008800414580944,-0.49008800414580944,0.9996975834526284,0.0024544036399192382
-0.4899572917894147,-0.4899572917894147,0.9999155884847986,0.002782936173343397
-0.48979341769031637,-0.48979341769031637,1.002278506402142,0.0021180856464593457
-0.48964201380267697,-0.48964201380267697,1.0127292609715066,0.003033666618112454
-0.4894765171064591,-0.4894765171064591,0.9964573554723162,0.0028674742862359404
-0.4892773821839455,-0.4892773821839455,0.999004623161,0.0025109467268896843
-0.48913286398733363,-0.48913286398733363,1.001485763761767,0.0022418608003721423
-0.48904436404022816,-0.48904436404022816,0.9997963841919375,0.0023260456804958143
-0.4889048599247417,-0.4889048599247417,1.0002329729296653,0.0028656610533471755
-0.4888176359883801,-0.4888176359883801,0.9994839754552736,0.0026623115015678846
-0.48870107273528446,-0.48870107273528446,0.9964181399586112,0.002735387714904411
-0.488617625497227,-0.488617625497227,1.001319736922051,0.0029057797334704713
-0.48853958518789115,-0.48853958518789115,0.9969785635237685,0.002269981177616329
-0.48846783806184246,-0.48846783806184246,0.9985183260328189,0.002512934122743474
-0.48835461191674767,-0.48835461191674767,1.0130750656393985,0.002215404743583111
-0.48827370380536195,-0.48827370380536195,1.0011611393560167,0.002015492138993199
-0.4882066482283335,-0.4882066482283335,0.99529802975935,0.0031842291086806784
-0.48812625690393363,-0.48812625690393363,0.9984173021498297,0.0022921059749510886
-0.4880469670583807,-0.4880469670583807,0.997004433873032,0.002984761184860796
-0.4878711655457664,-0.4878711655457664,1.0040260452915706,0.002206635254842983
-0.48773277547970795,-0.48773277547970795,0.9983817073649621,0.002773270445472266
-0.4874811219413459,-0.4874811219413459,1.0015137507098535,0.002903655947066767
-0.4873394931288658,-0.4873394931288658,1.0022761863208183,0.003113562254856255
-0.48720322857516296,-0.48720322857516296,1.003721309943851,0.002959109013582818
-0.4870035679077773,-0.4870035679077773,0.9989654901479487,0.0032854722032592764
-0.48689455880021343,-0.48689455880021343,1.0009943907656433,0.00245020464797313
-0.48676580620649473,-0.48676580620649473,1.000173438839507,0.0029364371558685738
-0.48666273423900747,-0.48666273423900747,1.004640559570833,0.0025134903758250696
-0.48646021650433796,-0.48646021650433796,1.000218436842566,0.002878241980513511
-0.48629902579536977,-0.48629902579536977,0.9986860914410404,0.0026438422537855533
-0.48620606303093156,-0.48620606303093156,1.0015122367030354,0.002395666023653494
-0.48610331578520344,-0.48610331578520344,1.0011266468866258,0.0030916697419610516
-0.4860007607140687,-0.4860007607140687,1.0014631921141814,0.0026205311199715337
-0.48584514073886564,-0.48584514073886564,1.013748002474333,0.0027401688033594817
-0.4857815072234189,-0.4857815072234189,1.0017738870402437,0.0025076322832779346
-0.48557716185268873,-0.48557716185268873,0.9987451890191321,0.0023108113589954153
-0.4854868534117031,-0.4854868534117031,1.001179780990714,0.00231596473959754
-0.4853847863529154,-0.4853847863529154,0.9986421583619383,0.0028339563342184956
-0.4852646719748918,-0.4852646719748918,0.9995817818562192,0.0029391540332499595
-0.48519989810492914,-0.48519989810492914,1.0004391492465172,0.0024744272311099124
-0.48511664130564897,-0.48511664130564897,0.9991900233991136,0.003236944541471546
-0.48500276116228636,-0.48500276116228636,1.0003574304192306,0.0022538724845121605
-0.484877959788264,-0.484877959788264,1.0010692230994125,0.003100654503690186
-0.4846462464336582,-0.4846462464336582,0.9985141378890356,0.002994762665860412
-0.48449006847940834,-0.48449006847940834,1.0010838755672904,0.0020285460114662134
-0.4844245257203511,-0.4844245257203511,0.9992019204456735,0.003076299039222482
-0.48430219601495994,-0.48430219601495994,0.9983069190426047,0.0027087657482052505
-0.48412217772811345,-0.48412217772811345,1.0035345581904154,0.0022189939433054314
-0.48396617471235004,-0.48396617471235004,1.0005815133537304,0.002738112387117349
-0.48388065762846966,-0.48388065762846966,1.0000261103699244,0.002793492960752803
-0.48375708973217113,-0.48375708973217113,1.0010994184490651,0.002438027658989057
-0.4836356628200974,-0.4836356628200974,0.9964353622283317,0.002652345880341334
-0.4833714191972831,-0.4833714191972831,1.001572050694743,0.0023911797692839284
-0.48321793426553084,-0.48321793426553084,1.0001532623203295,0.002325445918531105
-0.48299642925721853,-0.48299642925721853,1.005438647510309,0.003232028117392337
-0.48288608632387875,-0.48288608632387875,1.0047361450748982,0.0024332030588547684
-0.4828210323462372,-0.4828210323462372,0.9988463001574879,0.002521907541838746
-0.48268032544460765,-0.48268032544460765,0.9984018809569607,0.0021184448578782916
-0.4825933156897008,-0.4825933156897008,0.999513340196527,0.0028571352257608677
-0.4824540379028804,-0.4824540379028804,1.0779198670959722,0.0030691332141990465
-0.4822652175445,-0.4822652175445,0.995436269721129,0.0025358635364157666
-0.4820806830026868,-0.4820806830026868,0.9988111638116897,0.0024367724630108395
-0.4819289238672354,-0.4819289238672354,1.0002526263970564,0.002628819630968568
-0.48182545249173925,-0.48182545249173925,1.000778799261441,0.002722287446030686
-0.481679823603281,-0.481679823603281,1.0006618658391058,0.002942131415964061
-0.48154666002228624,-0.48154666002228624,1.0006577832216212,0.001966090264358413
-0.4813988034637987,-0.4813988034637987,0.996803401145511,0.0029770121861476878
-0.4812957643868231,-0.4812957643868231,0.9971961730701567,0.002980529687615371
-0.4811664754043704,-0.4811664754043704,1.0011095695802248,0.003100213889073695
-0.4810779359199387,-0.4810779359199387,1.0013478694504498,0.0026142306365334656
-0.48099112809836697,-0.48099112809836697,0.9984449796059275,0.00293366076482406
-0.48089377148317,-0.48089377148317,1.000823371573931,0.0023291581635834454
-0.4807872451955518,-0.4807872451955518,1.0005328478207791,0.002718771031898875
-0.48064147919621975,-0.48064147919621975,0.9988911531896527,0.0028372426776577505
-0.4805377862449404,-0.4805377862449404,1.0000678910779137,0.0028012924141949873
-0.48038943328997447,-0.48038943328997447,0.9983730575657107,0.002580224520996469
-0.48029826726524333,-0.48029826726524333,0.9992954090545687,0.00280721323895021
-0.4802476961713637,-0.4802476961713637,1.0008355551458363,0.002318582451391749
-0.48011464589826575,-0.48011464589826575,1.0005229525734212,0.0028590079624731322
-0.4800260227013496,-0.4800260227013496,1.0038192375974977,0.0029518237349660417
-0.47987384453786036,-0.47987384453786036,1.0018501207426838,0.0023580791659386117
-0.4797648428541379,-0.4797648428541379,0.998994476191673,0.0024959592887166915
-0.47958743590238556,-0.47958743590238556,0.997226067752141,0.0024582342452358036
-0.47942988579334267,-0.47942988579334267,1.0024729573941378,0.0032382299222706696
-0.4792759911831581,-0.4792759911831581,0.9991691011971454,0.0023789421154328224
-0.47911608001363676,-0.47911608001363676,1.038053889692147,0.0025046262174082947
-0.47899006265561184,-0.47899006265561184,0.9993768096376423,0.0022401794947598174
-0.4789015622398892,-0.4789015622398892,1.0035771419068609,0.002326146335290769
-0.47876213526242284,-0.47876213526242284,1.0028159914455068,0.0028648113271044235
-0.47865596104438735,-0.47865596104438735,0.9962001113406341,0.002491936360925035
-0.478536201425095,-0.478536201425095,1.000519554950835,0.003056617572560249
-0.47844625345924213,-0.47844625345924213,0.9987236553159347,0.0025616921845302695
-0.4783700389227306,-0.4783700389227306,1.0024058912536722,0.002219050294889491
-0.4782781117839022,-0.4782781117839022,1.005475423934357,0.0024143618130734283
-0.47817561000201747,-0.47817561000201747,0.9968613420833977,0.0023052906277774513
-0.47809195382615144,-0.47809195382615144,1.0003359035140553,0.0027545796315470925
-0.4780339627860485,-0.4780339627860485,1.000208343804274,0.0028329105512760666
-0.4779608378372814,-0.4779608378372814,0.9988305422030898,0.002382641483189519
-0.47785881136428543,-0.47785881136428543,1.003855157392036,0.002914386002695981
-0.477702132464583,-0.477702132464583,1.0004368113274968,0.002270342730634035
-0.477551426251739,-0.477551426251739,0.9999795819512245,0.0029983792113284662
-0.47729074654248504,-0.47729074654248504,0.9983660676425158,0.0028838495237324983
-0.47717779284125755,-0.47717779284125755,1.0009434637165124,0.003219089453069026
-0.4770202060838528,-0.4770202060838528,0.9975870208699963,0.0028839247696135994
-0.4768354032715251,-0.4768354032715251,0.9989234499505324,0.0030684781547073757
-0.47672210984428603,-0.47672210984428603,1.0361761099449978,0.0025446230257605003
-0.47660435606044305,-0.47660435606044305,1.0039838504004437,0.002771296245295417
-0.47649606349932583,-0.47649606349932583,0.9999586840790343,0.0025994449848942124
-0.47626734502473483,-0.47626734502473483,0.9989817053996862,0.0026238851241593003
-0.4761439893660281,-0.4761439893660281,0.9992303796889523,0.0025768876868030146
-0.47604129731485045,-0.47604129731485045,1.0016059003624123,0.0024496987979105963
-0.4759377297278661,-0.4759377297278661,0.9980298611344928,0.002948748890743361
-0.47583125070923415,-0.47583125070923415,1.0100699778169442,0.0026404239788491123
-0.475682456218874,-0.475682456218874,1.0047322358685706,0.002898830437455196
-0.4755595182500656,-0.4755595182500656,0.9969181616175306,0.0023028975226677727
-0.47540203806597675,-0.47540203806597675,0.9983793253161604,0.002295033135867825
-0.4753030721665709,-0.4753030721665709,1.0004602219039924,0.002942221252218355
-0.47519196671601094,-0.47519196671601094,0.996258501061875,0.002576814431530894
-0.4750835456119603,-0.4750835456119603,1.0004061173868615,0.0024621428910867266
-0.4750232067973229,-0.4750232067973229,0.9983228473361414,0.0030853695149694947
-0.47489665967555084,-0.47489665967555084,1.0013624360745745,0.0030397622727666544
-0.4748049858356353,-0.4748049858356353,1.0030620166447313,0.0029580638580578465
-0.47460603576801075,-0.47460603576801075,1.0040875895831918,0.0030133336795521884
-0.4743803794911855,-0.4743803794911855,1.0045104006101337,0.0024656902366360024
-0.47428170523489827,-0.47428170523489827,1.002791641396189,0.0030773527213223237
-0.47415933884117295,-0.47415933884117295,0.9999823908267915,0.0027097616807537058
-0.47400310419384367,-0.47400310419384367,1.0034794355121952,0.0021871183477261153
-0.47384980262695536,-0.47384980262695536,0.9959254861299408,0.0024460791642987893
-0.473754250921138,-0.473754250921138,1.0002109385998104,0.0030347966507794574
-0.4736691063737908,-0.4736691063737908,1.00229085699172,0.0025863195796259728
-0.4735299862155443,-0.4735299862155443,1.001681076762114,0.0026357455779445803
-0.4732892595866815,-0.4732892595866815,1.0018817375962548,0.0022998729768213873
-0.47311704280878075,-0.47311704280878075,0.999125283260365,0.002378080275835726
-0.4729622506346459,-0.4729622506346459,0.9950451101798864,0.0029933508762583698
-0.47279826848316586,-0.47279826848316586,1.0001845153812217,0.00232947878010057
-0.47272200693041666,-0.47272200693041666,1.0004602437273737,0.0026946758891993996
-0.4726515777544137,-0.4726515777544137,1.0016208769725305,0.002313613862011888
-0.47250468291690595,-0.47250468291690595,0.9986825678020919,0.0027267238296778723
-0.47239266690057774,-0.47239266690057774,1.0012952552088872,0.0027848628192236368
-0.472274540944818,-0.472274540944818,1.0332443720511402,0.002577074793452151
-0.4720935531981013,-0.4720935531981013,0.9999259474289911,0.0029087077527979776
-0.4718924503253675,-0.4718924503253675,1.0001143384014164,0.0025224201406666307
-0.47177335983401464,-0.47177335983401464,0.9993057824377722,0.0025488915224543777
-0.4716464796179025,-0.4716464796179025,1.0006172876977966,0.0027851346911262507
-0.47151739521837044,-0.47151739521837044,0.9950631963865492,0.002514547819121158
-0.4713738886708597,-0.4713738886708597,1.0008060137049481,0.0019722214877277507
-0.4712337631720402,-0.4712337631720402,0.9975079548175703,0.002730089348225645
-0.4711384262316642,-0.4711384262316642,0.9968678334581755,0.0031178506886384073
-0.4709972130400274,-0.4709972130400274,1.001374912215729,0.002966042313917832
-0.4709224282575633,-0.4709224282575633,1.0039205528036308,0.0025862972381643563
-0.4708242143968164,-0.4708242143968164,1.0037755864941305,0.003092709918714772
-0.4707262020020607,-0.4707262020020607,0.9983679257549983,0.002548716791906207
-0.470624628574069,-0.470624628574069,1.0037764977399155,0.002354116256449842
-0.4704513827295159,-0.4704513827295159,1.0024989549492713,0.0030152539810657454
-0.470315129771825,-0.470315129771825,0.9982904127128182,0.002659600458828471
-0.4701758652404351,-0.4701758652404351,0.9978597004571128,0.0029009649045548514
-0.47012305467628723,-0.47012305467628723,0.9996183992940247,0.0022019737282704416
-0.47001792749965715,-0.47001792749965715,1.0028491611190626,0.0023271312990739545
-0.4699010795778122,-0.4699010795778122,0.9994880221022509,0.0032558780891433934
-0.4697680373231833,-0.4697680373231833,1.000502807718292,0.0022443328292925287
-0.46966566962400974,-0.46966566962400974,0.9990946760375314,0.0028658256651215358
-0.46952525950578095,-0.46952525950578095,1.0007824714846798,0.0023374330297276933
-0.46938860191130516,-0.46938860191130516,1.000798311141846,0.0028887097053302132
-0.46924712257523427,-0.46924712257523427,1.0019302096853713,0.003312304362595939
-0.46913327498441504,-0.46913327498441504,0.9978158640365619,0.002376586505541926
-0.46894764801686506,-0.46894764801686506,1.0015047348252903,0.0024826777698188896
-0.46881761037248,-0.46881761037248,0.9990961457702031,0.0020114951872343355
-0.46867214703843274,-0.46867214703843274,0.9984955794831972,0.003146507073786346
-0.4685585287990307,-0.4685585287990307,0.9972475232395418,0.002309108259773574
-0.46846611198157007,-0.46846611198157007,1.001883797372044,0.0028074814808929124
