time,time,flux,flux_err
-0.4987821052913205,-0.4987821052913205,1.0010856938562307,0.000741131466051808
-0.49685639269373494,-0.49685639269373494,1.0002517647704616,0.0007397688277737801
-0.4950263001632266,-0.4950263001632266,1.000822318153587,0.0007350685349508085
-0.49288597180202487,-0.49288597180202487,1.0005821069105827,0.0007449389037802645
-0.4915322655633645,-0.4915322655633645,0.9991329116797069,0.0007337554662276954
-0.48966269129814466,-0.48966269129814466,1.0000609575516404,0.0007425666267508585
-0.4883496982143697,-0.4883496982143697,1.000446889703553,0.0007339074668304413
-0.4864738923111872,-0.4864738923111872,0.999582950643483,0.0007413804324247362
-0.48516751550159826,-0.48516751550159826,1.0006449971283644,0.0007345869784436108
-0.4832958607617911,-0.4832958607617911,1.0003942033270423,0.0007406965242462432
-0.48219360237744696,-0.48219360237744696,0.9995803251762198,0.000735226136264204
-0.4801057773656794,-0.4801057773656794,1.001763991324617,0.0007416790249224999
-0.47915583531830636,-0.47915583531830636,1.000700775080268,0.0007347458437213458
-0.47703602620058516,-0.47703602620058516,1.0007333878702684,0.0007388483635633199
-0.4762757250966388,-0.4762757250966388,1.0001530883117382,0.0007346319906359798
-0.47414973395461857,-0.47414973395461857,1.0001280786952083,0.000735374646825264
-0.47317157445395425,-0.47317157445395425,1.0021995496185316,0.0007383341368173062
-0.4716997142535547,-0.4716997142535547,1.0013964965753377,0.0007340569403909481
-0.4702356468027574,-0.4702356468027574,1.000744812997822,0.0007382133256762706
-0.4689919152329821,-0.4689919152329821,1.002458860364463,0.0007352516492077626
-0.46743874598978435,-0.46743874598978435,0.9996165635824511,0.0007371128091201065
-0.4661272253622883,-0.4661272253622883,0.9993649087604373,0.0007512349686404007
-0.4644989847409306,-0.4644989847409306,1.001522834466257,0.0007365695834740808
-0.4633077261980361,-0.4633077261980361,0.9997231522514104,0.0007357238823207338
-0.46156956188133336,-0.46156956188133336,1.0001512223500701,0.000750483029009686
-0.4603635711766401,-0.4603635711766401,1.0013325439298622,0.0007527460506032524
-0.45864083088890767,-0.45864083088890767,1.0012221137282065,0.0007469814997353659
-0.4573944046132965,-0.4573944046132965,1.0002172410887646,0.0007355160273401367
-0.4558599050793418,-0.4558599050793418,1.0006856212570543,0.0007526160403805201
-0.45440257219415797,-0.45440257219415797,1.0005360985959273,0.0007360328101797167
-0.4530269231952843,-0.4530269231952843,0.9994002683205624,0.0007471579710038827
-0.45141642018061245,-0.45141642018061245,0.9992231931654016,0.0007349406278563939
-0.44953291086349056,-0.44953291086349056,1.0014128125046895,0.0007412304100520926
-0.447239444006118,-0.447239444006118,1.0004604137298783,0.0007401542553444803
-0.44541227087174773,-0.44541227087174773,0.9994577060688071,0.0007346985044377899
-0.4431658042823983,-0.4431658042823983,1.0001864245706982,0.0007402010680315553
-0.44143660421650566,-0.44143660421650566,0.9993439209547545,0.0007342302825026588
-0.439560851144779,-0.439560851144779,1.0004329132200536,0.0007443163976202037
-0.43795038183088764,-0.43795038183088764,0.999765678904421,0.0007339828139797505
-0.4363722228092229,-0.4363722228092229,1.000823833559091,0.0007434129134766567
-0.4347675881064788,-0.4347675881064788,0.9999766672413513,0.0007338537435124872
-0.43318377418581805,-0.43318377418581805,0.9997851633142065,0.0007414637290129696
-0.43158516662515467,-0.43158516662515467,0.999626132983362,0.0007348347659959686
-0.43004632490919903,-0.43004632490919903,0.9997441908511819,0.0007402748461193167
-0.4281977318893041,-0.4281977318893041,1.0014323849892466,0.0007370375204525364
-0.4267472149607784,-0.4267472149607784,1.0019033072700256,0.0007393205393243288
-0.425062536911355,-0.425062536911355,1.000821066907779,0.0007345173438125836
-0.42366597415384605,-0.42366597415384605,0.9991915010705654,0.0007385189154536374
-0.4226528903884173,-0.4226528903884173,0.9995185216898935,0.0007348244567600149
-0.42076906025395144,-0.42076906025395144,0.9993249369477677,0.0007391434231998717
-0.4199848889616987,-0.4199848889616987,1.0016605190541028,0.0007338264427434503
-0.41816354902148306,-0.41816354902148306,1.0015099893563086,0.0007353278706390611
-0.4171850883678417,-0.4171850883678417,1.0006531313048856,0.0007371230035760105
-0.41536527960888636,-0.41536527960888636,1.0011766184242252,0.0007357567380297887
-0.4142335035823635,-0.4142335035823635,1.0004879865694145,0.0007364852387735856
-0.4125961413476034,-0.4125961413476034,0.999103734731908,0.0007522425155395975
-0.4112123789822363,-0.4112123789822363,0.999369644534085,0.0007372990865305633
-0.4097868527522223,-0.4097868527522223,0.999245811775673,0.0007487175625025263
-0.40822922947590995,-0.40822922947590995,1.0002051348671672,0.0007376935304004379
-0.4069442183979845,-0.4069442183979845,1.0010748083351486,0.0007607934923708772
-0.4053318516722356,-0.4053318516722356,0.9999422394357319,0.0007365789387481297
-0.4042594503163855,-0.4042594503163855,1.0006371194922614,0.0007443766061035169
-0.4026591718818963,-0.4026591718818963,0.9998236460245498,0.0007433869780607012
-0.4014094281828875,-0.4014094281828875,1.0003810539657618,0.0007353344948132064
-0.39987324771209387,-0.39987324771209387,1.0003785952491473,0.0007478617730654124
-0.39833521963228125,-0.39833521963228125,1.0008880097769355,0.0007352940477681794
-0.3962855845580634,-0.3962855845580634,0.999884966763583,0.0007405936417559302
-0.39392856645281427,-0.39392856645281427,0.9996394489229191,0.0007401512670518992
-0.3923002639727201,-0.3923002639727201,1.0006136167803843,0.0007349292397796772
-0.3899990222937049,-0.3899990222937049,0.9994803362641355,0.0007401225964021239
-0.38811827908684793,-0.38811827908684793,0.9994892571281822,0.0007386477228447364
-0.38657109355735886,-0.38657109355735886,0.9997343582590432,0.0007396859855715945
-0.38470182120690877,-0.38470182120690877,1.0000877384838784,0.0007374874370076176
-0.3833885409439972,-0.3833885409439972,1.0003889125186054,0.0007391777296132092
-0.3815129950231494,-0.3815129950231494,0.9997844963561479,0.0007368833321787376
-0.38020627362166126,-0.38020627362166126,1.000225591312369,0.0007386474619059389
-0.37832443777333535,-0.37832443777333535,0.9997911765320626,0.0007360573715298508
-0.37713565507547175,-0.37713565507547175,0.9995348192741504,0.0007388986471184788
-0.37483934623851384,-0.37483934623851384,1.0012658144646605,0.0007407198475511871
-0.37386370422718757,-0.37386370422718757,1.0007291704342651,0.0007350564636383458
-0.3717381739817938,-0.3717381739817938,1.0005406795973948,0.0007351912960352307
-0.3707602805839997,-0.3707602805839997,1.0001323383834075,0.0007382444642610836
-0.36908022313073163,-0.36908022313073163,1.0002686591283765,0.0007344011982038316
-0.3676765854557743,-0.3676765854557743,1.0004253824956593,0.0007381805684673472
-0.36655363176723765,-0.36655363176723765,1.0005785705137324,0.0007333871554394183
-0.3650234301439923,-0.3650234301439923,0.9995122985183018,0.0007384529862373401
-0.36404925716196884,-0.36404925716196884,1.0000343583903484,0.0007339821738755418
-0.3623605895343644,-0.3623605895343644,0.9993316271085989,0.0007360662873205731
-0.3612599743384635,-0.3612599743384635,0.9996813233862536,0.0007363049796817111
-0.35934865393028304,-0.35934865393028304,1.0003169670083574,0.0007525249650801543
-0.3582479063032224,-0.3582479063032224,1.0006049709681923,0.0007365755623385381
-0.3566090458763938,-0.3566090458763938,1.0006550796739582,0.0007493781697517076
-0.3551724813059991,-0.3551724813059991,1.000227946477294,0.0007367817214750026
-0.3538033474131225,-0.3538033474131225,1.0009957713548647,0.0007603784420294277
-0.3522452006920503,-0.3522452006920503,1.000868865799633,0.0007367658845210632
-0.3509596098960174,-0.3509596098960174,0.9999691489103345,0.0007507854373978469
-0.3493490845692577,-0.3493490845692577,1.000722318593145,0.0007357225457710134
-0.34809376400953623,-0.34809376400953623,1.0005128674939736,0.0007404305349639602
-0.3464280610456626,-0.3464280610456626,0.9992246905055385,0.0007424172589242225
-0.3446640935504547,-0.3446640935504547,0.9989160777477218,0.0007406722358159325
-0.3427280396917922,-0.3427280396917922,1.0003212584206778,0.0007344736425046627
-0.34038450738844406,-0.34038450738844406,1.0011246655044352,0.0007409209183951242
-0.338459245348713,-0.338459245348713,1.0001328152807347,0.000739810011486922
-0.33662866196864344,-0.33662866196864344,1.000590213647424,0.0007346614343243555
-0.3344881123295636,-0.3344881123295636,0.9997255026437127,0.0007444546348867412
-0.33313499245996353,-0.33313499245996353,0.9996038221513993,0.0007342457459005717
-0.3312644486057252,-0.3312644486057252,1.0001067186437724,0.0007425684702266058
-0.3299524860100064,-0.3299524860100064,0.9994294935265862,0.0007342136676791176
-0.32807567645504604,-0.32807567645504604,0.9989240923641803,0.0007414846745234162
-0.32652797059272415,-0.32652797059272415,1.0007228592168587,0.0007346741298902199
-0.32460701265335956,-0.32460701265335956,1.0003329854370409,0.0007413826111384995
-0.32333143410942283,-0.32333143410942283,1.0014344195671658,0.0007343436987293328
-0.3215426099552133,-0.3215426099552133,1.001227122475066,0.0007407605768787953
-0.3207580306519958,-0.3207580306519958,1.0009763730130123,0.0007341946562190889
-0.3186383746950014,-0.3186383746950014,1.0007208395283187,0.0007385018123977922
-0.31787786548229635,-0.31787786548229635,1.0014076286518507,0.0007349480319313523
-0.31575179128012676,-0.31575179128012676,0.9999314318001404,0.0007350728274976481
-0.3147735856109648,-0.3147735856109648,1.0000813307498648,0.0007377983237286137
-0.31339850919030143,-0.31339850919030143,0.99973527934483,0.000734965547606075
-0.3119848086233105,-0.3119848086233105,1.000901121724536,0.0007375466376400412
-0.3109454957892012,-0.3109454957892012,1.0003423058276613,0.0007339774931802028
-0.3092857723484485,-0.3092857723484485,1.0013916013553443,0.0007361462418682175
-0.30809747363709905,-0.30809747363709905,0.9988457799145591,0.0007356498781625031
-0.3063540470498992,-0.3063540470498992,1.0011282543110507,0.0007521650937430583
-0.30527185454375283,-0.30527185454375283,1.0001195079542664,0.0007362324903176642
-0.3033635534473433,-0.3033635534473433,1.0001777986871632,0.0007497218423629698
-0.3021826055788551,-0.3021826055788551,1.000988540734029,0.0007356946870543879
-0.30064933493595164,-0.30064933493595164,0.9996793227706565,0.0007595554367314389
-0.29918909653315495,-0.29918909653315495,1.0004798559610018,0.0007361832887344686
-0.2978163585801667,-0.2978163585801667,1.0008292004631816,0.0007507410820232327
-0.29626142193592386,-0.29626142193592386,1.000252593029454,0.0007366420577837664
-0.29497521304365365,-0.29497521304365365,1.0002085177510858,0.000746252740560433
-0.2933090958573302,-0.2933090958573302,0.9998826480013492,0.0007356031132125602
-0.2915162643243093,-0.2915162643243093,1.001774206180505,0.000741079359592219
-0.28941546178430144,-0.28941546178430144,0.9990726370411563,0.0007346925945607651
-0.28733877536651564,-0.28733877536651564,1.0004208399969552,0.0007404344714547442
-0.285143924652948,-0.285143924652948,1.0004486076829435,0.000740981151766314
-0.28351877120367136,-0.28351877120367136,1.0010768334921831,0.0007337206448617272
-0.2813342224646476,-0.2813342224646476,1.0000191879605789,0.0007437925955233171
-0.28001695078892225,-0.28001695078892225,1.0004044658453908,0.0007342223702957436
-0.27814763783026136,-0.27814763783026136,0.9983775464697047,0.000742078535228009
-0.2768321566254599,-0.2768321566254599,1.0017827169565294,0.000734481906247156
-0.2749612177576637,-0.2749612177576637,1.00171058774029,0.0007412677393050586
-0.2732520938985544,-0.2732520938985544,1.000694652560941,0.000735245550070528
-0.27164785244167433,-0.27164785244167433,1.0001933272379244,0.0007406255449968443
-0.2698556117880798,-0.2698556117880798,1.0006775630971383,0.0007353144083502415
-0.26845762041593846,-0.26845762041593846,0.9992849028885564,0.0007395889754399182
-0.26713520168304966,-0.26713520168304966,0.9986323391271453,0.0007341369678051334
-0.2654148159850592,-0.2654148159850592,1.0012391508780234,0.0007390875901084296
-0.2644695566057635,-0.2644695566057635,0.9991327185703893,0.000733397116165234
-0.26265415812449644,-0.26265415812449644,0.9992482661561024,0.0007380823755289776
-0.2618922783229209,-0.2618922783229209,1.0007077874659518,0.000734550839414253
-0.2601504799535178,-0.2601504799535178,1.0008984174543878,0.0007351016636243604
-0.2590221359128918,-0.2590221359128918,0.999340457283201,0.0007366532311025111
-0.25741791871078024,-0.25741791871078024,1.0002964822034603,0.0007351198595618757
-0.2560000345703884,-0.2560000345703884,1.0001665534770388,0.0007370981294446218
-0.25457605120755034,-0.25457605120755034,0.999619645011434,0.0007507792656200917
-0.2530597287022829,-0.2530597287022829,1.0001913027197449,0.0007371140025182536
-0.2517415490849089,-0.2517415490849089,1.0005811060056053,0.0007486373336428366
-0.25011825237561425,-0.25011825237561425,1.000645689649446,0.0007368840184093781
-0.24886997048706688,-0.24886997048706688,1.0000423767644544,0.0007489335970506487
-0.24719211769261165,-0.24719211769261165,1.0003635934765307,0.0007455267268786
-0.24597395442833658,-0.24597395442833658,1.0009664923786246,0.0007430720631171748
-0.24426194013649366,-0.24426194013649366,1.0003632001981537,0.0007430786066590018
-0.2430117088410043,-0.2430117088410043,1.0000242063702327,0.0007357760287631049
-0.2414752623415552,-0.2414752623415552,1.0004279330642978,0.0007469415085691469
-0.23993828039638174,-0.23993828039638174,0.9994422174428775,0.0007348415090495951
-0.2378885254449415,-0.2378885254449415,1.0004631764800649,0.0007413734983137998
-0.23553074054361786,-0.23553074054361786,1.0006435849988624,0.000740615875965163
-0.23390288118935132,-0.23390288118935132,0.9998915676655986,0.0007341635356524248
-0.23160145894653397,-0.23160145894653397,1.0009190613742107,0.0007404149115996726
-0.2298260167124681,-0.2298260167124681,0.9996530035840079,0.0007339700882345343
-0.22836323085430194,-0.22836323085430194,1.000689690262739,0.0007440586660793297
-0.22675397344246448,-0.22675397344246448,1.0002560963682412,0.0007343315556294007
-0.22517463969124946,-0.22517463969124946,1.0000369434247496,0.0007425932055846246
-0.22357125803137023,-0.22357125803137023,1.0004988841834686,0.0007345186175253581
-0.22198622958967462,-0.22198622958967462,0.999266183691903,0.0007410268465877823
-0.21992626822466263,-0.21992626822466263,1.001074152793444,0.0007368760944567103
-0.2187375686575251,-0.2187375686575251,1.0002765143029897,0.0007392893189049904
-0.21652744381135564,-0.21652744381135564,0.9992731727496571,0.0007363172251597439
-0.21554980929286102,-0.21554980929286102,0.999654817831046,0.0007385807957225452
-0.21386605424340815,-0.21386605424340815,1.00008008645495,0.000734297598052419
-0.21246808131800207,-0.21246808131800207,1.0003684199841214,0.0007388096518754291
-0.21133994523988803,-0.21133994523988803,1.0000123552218239,0.0007336829102677065
-0.20957204156111403,-0.20957204156111403,1.0003354774221083,0.0007386209074476114
-0.20853035025284045,-0.20853035025284045,1.0010132868851813,0.0007339675464319751
-0.2068719010167115,-0.2068719010167115,1.0002311742547163,0.0007362550187847178
-0.20569342265516752,-0.20569342265516752,0.9995644135864417,0.0007358798751300048
-0.20396318911953132,-0.20396318911953132,1.0006263670870639,0.0007360333203035601
-0.2028617414896871,-0.2028617414896871,1.0002820386623346,0.0007361956207088247
-0.20098042850149794,-0.20098042850149794,1.0002279316241016,0.0007512603617785426
-0.20001548824038765,-0.20001548824038765,1.0015021762449108,0.0007368050289104095
-0.19858957581491268,-0.19858957581491268,1.0006355508209133,0.0007481554445073994
-0.19703240402086522,-0.19703240402086522,0.9999183519719119,0.0007367761864262053
-0.19574728071020217,-0.19574728071020217,1.000943827803971,0.0007570765948968046
-0.1941352773766994,-0.1941352773766994,0.9998229698187326,0.0007367618543451062
-0.19288309494950226,-0.19288309494950226,0.9994302076493782,0.0007417501586923729
-0.19121198660759547,-0.19121198660759547,1.0001111592359737,0.0007438953674859735
-0.1899832229653839,-0.1899832229653839,1.0006025559494343,0.000741435053235819
-0.18828051508498903,-0.18828051508498903,0.9998897786184507,0.0007417966612180882
-0.18642645372055994,-0.18642645372055994,1.0008599013005681,0.0007408095299140462
-0.1843305300859356,-0.1843305300859356,1.0002379520345226,0.0007350139775055529
-0.18198691430297914,-0.18198691430297914,1.0009799688917844,0.0007410058357677455
-0.18006210622188518,-0.18006210622188518,0.9999954318606757,0.0007399013723052236
-0.1782310306440195,-0.1782310306440195,1.000332766277366,0.0007338345796240659
-0.17609025958408892,-0.17609025958408892,0.9999093173516933,0.000744011152608912
-0.17473772906087107,-0.17473772906087107,1.0004512851881655,0.0007346958687183071
-0.17286621009043301,-0.17286621009043301,0.9995300796923401,0.0007421993375826501
-0.17155528336115822,-0.17155528336115822,1.0016193726798162,0.000735092833932102
-0.1696774649190047,-0.1696774649190047,1.0007097816527022,0.0007417342498359904
-0.16813002933267854,-0.16813002933267854,1.0020861606917872,0.0007350743690766624
-0.16620868605132272,-0.16620868605132272,1.0005792395746205,0.000741448457769293
-0.16474746238272928,-0.16474746238272928,1.0014206483854546,0.0007353999568868379
-0.16300463481347832,-0.16300463481347832,1.0009170793668432,0.0007400745320587551
-0.1620112517473899,-0.1620112517473899,1.0005462358624224,0.000733638606286063
-0.15995869330872664,-0.15995869330872664,1.0008539239718532,0.0007394168826285449
-0.15917430412337125,-0.15917430412337125,1.000398160625425,0.0007346215701440928
-0.15734996947649052,-0.15734996947649052,0.9998774462202862,0.0007348134232784311
-0.1563756027189811,-0.1563756027189811,0.9992789127618321,0.00073732496907364
-0.15455231856540194,-0.15455231856540194,0.9994468824728763,0.0007357780463805036
-0.15342354924359825,-0.15342354924359825,0.9995525920696064,0.0007368469508427474
-0.1518195856071543,-0.1518195856071543,1.0007370556044524,0.0007354723679692903
-0.15040156940740418,-0.15040156940740418,0.9996679768276386,0.0007371504668245747
-0.14897739365696908,-0.14897739365696908,1.0013767705703371,0.0007509163241448692
-0.14746156773690017,-0.14746156773690017,1.0003797166867545,0.0007370908998261111
-0.14622810415203275,-0.14622810415203275,1.002308907387038,0.0007347958306377573
-0.14477541646338069,-0.14477541646338069,1.0014357313914413,0.000749308800637756
-0.14356625279033325,-0.14356625279033325,1.0008277586866416,0.0007489011418017461
-0.1418463121619425,-0.1418463121619425,1.0006660224295083,0.0007443596862920962
-0.14059887926305237,-0.14059887926305237,1.0012119888333044,0.0007356562602074621
-0.1390638924207451,-0.1390638924207451,0.9995162633917178,0.0007494864740649584
-0.13760766861851154,-0.13760766861851154,1.0006958387324483,0.0007366288771386436
-0.13623092278139665,-0.13623092278139665,1.0012498066260964,0.0007472574989989368
-0.1345959226378909,-0.1345959226378909,0.9993096921228167,0.0007350881806275912
-0.1323725453337829,-0.1323725453337829,1.0008588424548726,0.0007415205999964103
-0.1304450618699775,-0.1304450618699775,1.0007288679917217,0.0007404867121063739
-0.12861692041697098,-0.12861692041697098,1.0012019798569052,0.0007349944968421558
-0.12637109564675483,-0.12637109564675483,1.0003861056790961,0.0007401836406050268
-0.12464224509240011,-0.12464224509240011,0.9998610896395068,0.0007340894035939886
-0.12276442339934875,-0.12276442339934875,1.000602408208885,0.0007439885598763583
-0.1211557750855718,-0.1211557750855718,1.0011468881380563,0.0007347119359840898
-0.11957585093041416,-0.11957585093041416,1.0011887594043596,0.000742124120081882
-0.11797309918874817,-0.11797309918874817,1.000900374932953,0.0007348121938980066
-0.11638746065473242,-0.11638746065473242,1.0003089470372621,0.000741044553248522
