time,time,flux,flux_err
-0.49989652159274556,-0.49989652159274556,0.999731969363647,0.0008446629571108551
-0.4996400919932057,-0.4996400919932057,0.9997187434281163,0.0007985707725206397
-0.49931584398291307,-0.49931584398291307,0.9992601477151482,0.0008284065717365319
-0.49911262701352826,-0.49911262701352826,0.999389672711447,0.0008372188588805301
-0.4988755930608022,-0.4988755930608022,1.0008001457871578,0.0009249497941151725
-0.4986899563475163,-0.4986899563475163,1.0003423101834348,0.0009096294042994155
-0.4984796825287049,-0.4984796825287049,0.9994288204293754,0.0008314838295273785
-0.49836246186750943,-0.49836246186750943,0.999685478195677,0.0008101333055382674
-0.4981885793604306,-0.4981885793604306,0.9991538742317603,0.000880357329402618
-0.4979687924511381,-0.4979687924511381,1.0001835436913022,0.0009039449427786421
-0.49786993833695303,-0.49786993833695303,0.9992733010923978,0.00087281635656797
-0.4977568613292533,-0.4977568613292533,0.9996691261431334,0.0008706382724821815
-0.4975829250150127,-0.4975829250150127,0.9990200602713575,0.0008705469721678634
-0.4975003684521653,-0.4975003684521653,0.9999308333025174,0.0008120033039963845
-0.4973594805022003,-0.4973594805022003,1.0010774677559975,0.0008892917044424732
-0.49703597438056024,-0.49703597438056024,1.0001637323732426,0.0008937401093850073
-0.4965881097014062,-0.4965881097014062,1.0006825138221498,0.0008990520592946428
-0.49633484213700285,-0.49633484213700285,0.9995534776276571,0.0007967543696870118
-0.4959996628866065,-0.4959996628866065,0.999829874752417,0.0008323583635562886
-0.49573586168844486,-0.49573586168844486,1.0005534321826843,0.0008276845390833533
-0.495537103737297,-0.495537103737297,0.9994224656666738,0.0008783507399024124
-0.49528587619861353,-0.49528587619861353,0.999149884158838,0.000864312299824078
-0.49507699267851424,-0.49507699267851424,1.0002574096581354,0.0009290359306857749
-0.49488777496735564,-0.49488777496735564,1.000532940954538,0.0008005154562851374
-0.49472284494841007,-0.49472284494841007,1.0003561267405394,0.0008313578750854334
-0.4944956452498445,-0.4944956452498445,1.0003126977119516,0.0009103944134441942
-0.49432498421374477,-0.49432498421374477,0.9999212373903739,0.0008831762157432493
-0.4942510550477891,-0.4942510550477891,0.9999264165422636,0.0008727503353984038
-0.49406234491907525,-0.49406234491907525,1.0003729016268363,0.0009174091642156972
-0.4939687010832131,-0.4939687010832131,1.0005273989535381,0.0008794608419556843
-0.4938746526822797,-0.4938746526822797,0.9998293844655611,0.000796342799818159
-0.4936367593720206,-0.4936367593720206,1.0003509111098492,0.0008887864249688792
-0.4933328422892373,-0.4933328422892373,0.9995759096303196,0.0008463910104561767
-0.49295553538104286,-0.49295553538104286,1.0011323242498136,0.0009008811964118619
-0.49267863634886455,-0.49267863634886455,0.9992855585292949,0.0008226307033062623
-0.4922635141105275,-0.4922635141105275,0.999932495570582,0.0008237763704291676
-0.4920125673248549,-0.4920125673248549,0.9996235438904002,0.0008371804617799486
-0.4917792414489668,-0.4917792414489668,1.000376013991321,0.0008618248757831057
-0.4916327686107252,-0.4916327686107252,1.0008481636957534,0.0008636314458104115
-0.49150187692430336,-0.49150187692430336,1.0011222405417217,0.0008884295386821787
-0.49127006387279837,-0.49127006387279837,0.9990422551733309,0.0007863813591229077
-0.4911016448313603,-0.4911016448313603,0.9993376574100272,0.0008802908228707064
-0.49088308256032176,-0.49088308256032176,1.0006446661136104,0.0009029375883971168
-0.49073288004728965,-0.49073288004728965,1.0005330866255986,0.0008941142898697362
-0.4906422856511199,-0.4906422856511199,1.0006843578686297,0.0008683665589762082
-0.49045005946827586,-0.49045005946827586,0.9996757922723022,0.0008545891830294956
-0.49034987164777705,-0.49034987164777705,0.9987429705188852,0.000831306687475945
-0.4902280414418783,-0.4902280414418783,0.9995650124247334,0.0008201597667095766
-0.4900301169269369,-0.4900301169269369,0.9993680670040661,0.0008649035682686098
-0.4897850347813801,-0.4897850347813801,0.9993289347491162,0.0008455754652480143
-0.4894453008673736,-0.4894453008673736,1.0003050173989059,0.0008902352446827393
-0.48924679324991305,-0.48924679324991305,0.9995109800048795,0.0008159117471219489
-0.4889229995853384,-0.4889229995853384,0.9990675680004119,0.000844886897600446
-0.4886171158068464,-0.4886171158068464,0.999477902483606,0.0008299054824462464
-0.48840885085373886,-0.48840885085373886,0.9991039974039575,0.0008180030894512216
-0.48819567567115885,-0.48819567567115885,1.000622467637705,0.0008623999417390078
-0.48805299217492576,-0.48805299217492576,0.9992176851496882,0.000863703402199679
-0.4879397926852107,-0.4879397926852107,0.999826997093608,0.0008643165346374473
-0.4877355706790695,-0.4877355706790695,1.000435634047475,0.0008119917840388804
-0.4875717391085345,-0.4875717391085345,1.0003138870951342,0.0008802778359399006
-0.487338507034292,-0.487338507034292,0.9993656184113278,0.0008631853334337589
-0.4871770906480378,-0.4871770906480378,1.0005647690511659,0.0009060332208597895
-0.4871045198829961,-0.4871045198829961,1.001068970287638,0.0008964991473745323
-0.48689705915894593,-0.48689705915894593,0.9994329824437053,0.0008346690460396125
-0.4867897087635356,-0.4867897087635356,1.0001406939653272,0.0008503443153265259
-0.4866616149753099,-0.4866616149753099,1.000531027655371,0.0008197499587323772
-0.4864732727102819,-0.4864732727102819,1.00033079383204,0.000864775035403126
-0.4862121043493971,-0.4862121043493971,0.9998569767575114,0.0009073012639077931
-0.4859738180210115,-0.4859738180210115,1.0007927453180225,0.0008526635070521121
-0.4857742573774885,-0.4857742573774885,0.9997955689171182,0.0008583536572277989
-0.48538997518335236,-0.48538997518335236,1.0010649582235214,0.000817099577371126
-0.48509583321865646,-0.48509583321865646,1.0004955541144194,0.0008256928482738637
-0.4848928503561183,-0.4848928503561183,0.9977062457347812,0.0008068743694503325
-0.48465709885786057,-0.48465709885786057,0.9990507162616964,0.0008731301668141796
-0.48450704612769185,-0.48450704612769185,0.9983239089023567,0.0008813158366562217
-0.4844160498250858,-0.4844160498250858,1.000836429587382,0.0007574835774494541
-0.48426231928897323,-0.48426231928897323,0.9999359681645927,0.0009129974351728754
-0.4840429921328905,-0.4840429921328905,0.9993669050492653,0.0007995647875167148
-0.48388365865394006,-0.48388365865394006,0.9999372657113123,0.0008801757428506468
-0.48371462573413737,-0.48371462573413737,0.9995116927443511,0.0009397191814275675
-0.4835897977114655,-0.4835897977114655,0.9983715193007514,0.0009010512356286511
-0.48352246934809956,-0.48352246934809956,1.0007637047830864,0.0008625492346579901
-0.4833452715203748,-0.4833452715203748,0.9989458016302366,0.0008531596678330488
-0.48322506059630543,-0.48322506059630543,1.0000832304798744,0.0008488460553646299
-0.4830792378590559,-0.4830792378590559,0.9999189680554291,0.0008204524568748631
-0.48291507969406666,-0.48291507969406666,0.9999097185005162,0.0008412397145177436
-0.4826835109066451,-0.4826835109066451,0.9999998340280211,0.0008691700347401366
-0.48233014120633017,-0.48233014120633017,1.0012363207732995,0.0008822197257753285
-0.48211727782763775,-0.48211727782763775,1.0004546617037642,0.0008060986145566428
-0.4815920368258958,-0.4815920368258958,1.00028641875069,0.0008644045690309836
-0.48134557592275085,-0.48134557592275085,1.001460557385061,0.0008085564398089588
-0.48117045661783775,-0.48117045661783775,0.9999945853564967,0.0008521661226257594
-0.4810013720722054,-0.4810013720722054,0.9997181849152174,0.0008629079294662509
-0.4808550054192892,-0.4808550054192892,1.000193304914725,0.0008013883297557063
-0.4806912712432677,-0.4806912712432677,1.0003394306646045,0.0008371414519633502
-0.4804681102366885,-0.4804681102366885,1.0004652698574463,0.0008606653691497834
-0.4802309857608634,-0.4802309857608634,0.9998276657425672,0.0009040761330951989
-0.48006392700481226,-0.48006392700481226,1.0018379518834148,0.0009123484588940906
-0.47999063327151814,-0.47999063327151814,1.0005609447129504,0.0008973738183851011
-0.4798238706891425,-0.4798238706891425,1.0008834550936367,0.0008733545612875966
-0.479671208342188,-0.479671208342188,1.0002503476894158,0.0008794823081399601
-0.4795156646097894,-0.4795156646097894,1.0005262492143028,0.0008149562167621601
-0.4793676062501618,-0.4793676062501618,0.9987451342128846,0.0008641297664648288
-0.4791369747443241,-0.4791369747443241,1.0004603385940938,0.0008705264523813774
-0.47876301821816014,-0.47876301821816014,0.9999990728461547,0.0008547220583708708
-0.4786191609266098,-0.4786191609266098,0.9999634109328139,0.0008138577638921472
-0.47840377177926713,-0.47840377177926713,1.0003916689189636,0.0007944575079505938
-0.4780470855388558,-0.4780470855388558,0.9997169995128325,0.0008823533785426206
-0.4778165298557724,-0.4778165298557724,0.9983415937808202,0.0008269105061077869
-0.47756522411655167,-0.47756522411655167,1.0002243588274833,0.000852080555656486
-0.47738401453825646,-0.47738401453825646,0.9996018076636721,0.0009031043679439469
-0.4772469793068012,-0.4772469793068012,0.9992649009794065,0.000757404066852473
-0.47707972477801375,-0.47707972477801375,1.0008085179590211,0.0008807835794167567
-0.47688998472731325,-0.47688998472731325,1.0002896427243695,0.0008309019603326108
-0.47657582449464825,-0.47657582449464825,1.000685634517928,0.000930392546489455
-0.47645558884833006,-0.47645558884833006,0.9999531822869316,0.0008895892985604284
-0.4763876193930628,-0.4763876193930628,1.0014755633350743,0.0009179091880991084
-0.4761462027468951,-0.4761462027468951,1.0003791759571476,0.0008528045586879251
-0.4759526987632853,-0.4759526987632853,0.9993675794695586,0.0007990506082907195
-0.4757988482917426,-0.4757988482917426,0.999401903678837,0.0008569099809248042
-0.4756029309864971,-0.4756029309864971,1.0000257783522313,0.0008780193507042236
-0.47525785861362235,-0.47525785861362235,0.9992382118819234,0.0008108964878427624
-0.4750753940505092,-0.4750753940505092,0.9986305494672237,0.000993068125721318
-0.4749193501556874,-0.4749193501556874,0.9989542092178253,0.0007822802414203569
-0.474521065816225,-0.474521065816225,1.0009907162414158,0.0008810371423656069
-0.4742226319256588,-0.4742226319256588,1.0008445499731287,0.0008102962566765212
-0.47392963901220353,-0.47392963901220353,0.9985358969669905,0.0009135712101587673
-0.4737391060378286,-0.4737391060378286,1.0002822127585493,0.0008206130646675643
-0.47362424394814295,-0.47362424394814295,1.000500851465939,0.0007855216670825222
-0.4734486949630082,-0.4734486949630082,1.0013626092951284,0.0008400597449019695
-0.4732580458658049,-0.4732580458658049,0.9997368217059217,0.0008543518794311113
-0.47297214401041854,-0.47297214401041854,0.9999713476703892,0.0009059543579012844
-0.4728799136792077,-0.4728799136792077,1.000930743010279,0.000923773642868614
-0.47277063319343143,-0.47277063319343143,1.0006062236842168,0.0008853778004741108
-0.4725550922739785,-0.4725550922739785,0.9997637453199204,0.000863080717109508
-0.47238690261001465,-0.47238690261001465,0.9990915149316819,0.0007987644151396477
-0.47224153047427536,-0.47224153047427536,1.0015821555549944,0.0008567938609029874
-0.4720381922859815,-0.4720381922859815,1.000701332285955,0.0008293893248022394
-0.4718462292512413,-0.4718462292512413,1.0009116762110333,0.0008591834765015058
-0.47157774085062554,-0.47157774085062554,0.9995454556839993,0.000972593788086985
-0.4714543548572692,-0.4714543548572692,1.0003533012959718,0.000843298301291509
-0.47117405554454306,-0.47117405554454306,0.9995736566536773,0.0008031970125817898
-0.47077487578790167,-0.47077487578790167,1.0005019821702015,0.000869129575785333
-0.4705469966676901,-0.4705469966676901,1.0006550950578272,0.0008574217149898498
-0.47025808703911026,-0.47025808703911026,0.9998303012583273,0.0008856787599698105
-0.4701199708986678,-0.4701199708986678,0.9999792859947945,0.0008205484431122996
-0.46997793898772217,-0.46997793898772217,1.0003694225617452,0.0008146246155820805
-0.46980407271476,-0.46980407271476,1.0008618691938485,0.000842438130907589
-0.4696122947643744,-0.4696122947643744,0.9996637948176577,0.0008925282797991856
-0.4693609449750511,-0.4693609449750511,1.0007343957725667,0.000908095863618098
-0.4692821381016984,-0.4692821381016984,0.9982843938486393,0.0008940077357286359
-0.46909468759258743,-0.46909468759258743,0.9987241029654784,0.0009377022717579932
-0.46888933677837485,-0.46888933677837485,1.0000322224109102,0.000817436717707038
-0.46872297707450344,-0.46872297707450344,0.9995146559976062,0.0008353951482815951
-0.46853717550839064,-0.46853717550839064,0.9998569174110219,0.0008239923778240928
-0.46829572787391954,-0.46829572787391954,1.0006039686244903,0.0008885481713097509
-0.46803940707613945,-0.46803940707613945,1.0003284286594458,0.0009637185976073444
-0.4679033992040786,-0.4679033992040786,1.000349228943071,0.0008280051866290111
-0.467610926074849,-0.467610926074849,1.0014323657292559,0.0008159730879586536
-0.46717426795657957,-0.46717426795657957,1.0001009841522,0.0008533317555729216
-0.4669195024849614,-0.4669195024849614,0.9995136986808533,0.0008955317280946119
-0.46668796417216074,-0.46668796417216074,0.9998526616008061,0.0008657398087225804
-0.46655317102849947,-0.46655317102849947,0.9994230796011851,0.0008205354502581845
-0.4664300809046836,-0.4664300809046836,1.000619580334566,0.0008138459757376113
-0.46626020593685097,-0.46626020593685097,1.0001864509860776,0.0008418404369487356
-0.4661160227682558,-0.4661160227682558,1.0006793506700116,0.0008550152129846542
-0.4658777592849219,-0.4658777592849219,1.000925311453128,0.0009207840195627319
-0.4657262630556943,-0.4657262630556943,1.000355887515143,0.0009206135647003193
-0.4656101310203667,-0.4656101310203667,1.0020344596884025,0.0008982495991157038
-0.46541707312862857,-0.46541707312862857,1.0006339492523286,0.0008684940303869531
-0.46520596852205925,-0.46520596852205925,0.9998539716869846,0.0008331154796476095
-0.46502512129809476,-0.46502512129809476,0.9996764040246703,0.0008078447628617804
-0.464868399198167,-0.464868399198167,1.0006404196107774,0.0009349440513347866
-0.46460044257109984,-0.46460044257109984,1.001135981107314,0.0008600600530945075
-0.4643996134371264,-0.4643996134371264,0.9990059475792915,0.0009385199800028627
-0.4642301586092799,-0.4642301586092799,1.0004992573195641,0.0008156369629771926
-0.4637983763765078,-0.4637983763765078,1.0008300685876226,0.0008657106075753058
-0.46356963493453807,-0.46356963493453807,0.9997065247449608,0.0008338221878492732
-0.4632768978670356,-0.4632768978670356,1.0008038158865697,0.0008740855215073286
-0.46303876245074205,-0.46303876245074205,0.9991418303151056,0.0008841875307487475
-0.46291178752144335,-0.46291178752144335,1.0003648755239574,0.0008019363568723002
-0.4627428941937978,-0.4627428941937978,1.0005162430881285,0.0009097188259532018
-0.4626176484991447,-0.4626176484991447,0.9992897777294921,0.0008315066080429423
-0.46240933911176396,-0.46240933911176396,1.0001213283306434,0.000880516405221554
-0.4621925345156342,-0.4621925345156342,1.0003590147021248,0.0009120308289421368
-0.4620803644967964,-0.4620803644967964,0.9997461065259501,0.0009445783048852776
-0.4618619128974387,-0.4618619128974387,0.9992883649888562,0.0008957843678238207
-0.4616200442629633,-0.4616200442629633,1.0005138988257252,0.0008556412847736665
-0.46148537211411167,-0.46148537211411167,1.0003551262452017,0.0008471387391301864
-0.4613412216946017,-0.4613412216946017,1.000075150787646,0.000853059127481871
-0.46113649419130526,-0.46113649419130526,1.0002304990167263,0.0008883796175920009
-0.4608494423373486,-0.4608494423373486,0.9992287817578911,0.0009778701807637705
-0.460712813657301,-0.460712813657301,1.0003869864210404,0.0008184558722184659
-0.46021900116757025,-0.46021900116757025,0.9991684288309939,0.000865368692903914
-0.45994384824880397,-0.45994384824880397,1.0005272106898864,0.0008402222991303219
-0.4595831171100144,-0.4595831171100144,1.0010544550808957,0.0009247045737028949
-0.45940586276556133,-0.45940586276556133,0.9994767491711049,0.0008476242268468613
-0.45929306819307386,-0.45929306819307386,0.9999880593313527,0.0007805696898529149
-0.459131530803279,-0.459131530803279,1.001168597663057,0.0008879754995594019
-0.45899838724144504,-0.45899838724144504,1.0002316405831735,0.0008309596348306215
-0.45881702022015813,-0.45881702022015813,1.0003545663510898,0.000881321941162374
-0.45865157384832855,-0.45865157384832855,1.0010532457260173,0.0009057932690269968
-0.45851022473943887,-0.45851022473943887,0.9994238064109385,0.0009449989267361816
-0.4582758926218958,-0.4582758926218958,1.0007933631132857,0.0009063743707184794
-0.45803816096595257,-0.45803816096595257,1.0008460627855489,0.0008549542117354273
-0.4579109001686447,-0.4579109001686447,0.9999545412430585,0.0008133454244928222
-0.4577615696063731,-0.4577615696063731,1.0002414297156736,0.0008466154785438509
-0.4575918148024357,-0.4575918148024357,0.9998323774430273,0.0008949918242726104
-0.45731812648009507,-0.45731812648009507,1.0000248606248683,0.0009469741036030675
-0.45717272970941847,-0.45717272970941847,1.0007251282788105,0.0008029208063225952
-0.45673900638939813,-0.45673900638939813,0.9990805765645334,0.0008596871589264211
-0.4564341303004767,-0.4564341303004767,1.0000566213338007,0.0008336390036135977
-0.4561597262421856,-0.4561597262421856,1.0012692345330887,0.0008743315899692114
-0.45594341978867303,-0.45594341978867303,0.999656663070741,0.0009118643149089838
-0.45582705470587825,-0.45582705470587825,1.0001071613391606,0.0008478397226394175
-0.4557105625019176,-0.4557105625019176,1.000034141982124,0.0008291841097465469
-0.4555430393462302,-0.4555430393462302,0.9992915877228568,0.0008416587352021769
-0.45538535767846045,-0.45538535767846045,1.0016932595894865,0.0008547059126097158
-0.4551764447052847,-0.4551764447052847,1.0002052351177306,0.000882343346219024
-0.45507516778307033,-0.45507516778307033,1.0006699630470803,0.0009103007074423803
-0.4549417495407397,-0.4549417495407397,0.9996261781341864,0.0009454946606107989
-0.45470399616169743,-0.45470399616169743,1.0006137123454646,0.0009115510330458522
-0.4544537754831254,-0.4544537754831254,1.0003874047020749,0.0008546167631614494
-0.4542966847147909,-0.4542966847147909,1.0006478793351063,0.0008151177806949856
-0.45415981302940056,-0.45415981302940056,1.0013728906776644,0.0009354122232009543
-0.45395261593657776,-0.45395261593657776,1.0001235797144596,0.0008583728263799502
-0.45371913536801,-0.45371913536801,1.001264306196126,0.0009191754639769593
-0.4535495653675753,-0.4535495653675753,0.9994731678035095,0.0008198915404517044
-0.4529793919500662,-0.4529793919500662,1.0012433432715955,0.0008450433133870381
-0.4527283706731396,-0.4527283706731396,0.9995099421813997,0.000879929118552692
-0.45245183387451104,-0.45245183387451104,0.9986969615888249,0.000867758534903316
-0.4522944675743929,-0.4522944675743929,1.000210580395618,0.0008979321786862432
-0.45218464668287195,-0.45218464668287195,0.9987118169847413,0.0008181155705046681
-0.4520485419532633,-0.4520485419532633,0.9996348725187373,0.00081572677589046
-0.4518443577471771,-0.4518443577471771,1.0005363926931412,0.0009030301768135138
-0.4516034351749113,-0.4516034351749113,0.9993716306846542,0.0009038680149067741
-0.45149631409876745,-0.45149631409876745,1.0007676763233335,0.0008879059048078168
-0.4513732801293372,-0.4513732801293372,0.9993011198948614,0.00094426674272338
-0.4511321188227157,-0.4511321188227157,1.0001112830197705,0.0009184609423107247
-0.4508740975565161,-0.4508740975565161,1.0003308389211747,0.0008820685580064951
-0.4507104316551704,-0.4507104316551704,0.9996368632593345,0.0007937408602125389
-0.45059245984448354,-0.45059245984448354,1.0006755607665678,0.0009074859966341492
-0.45047448388213523,-0.45047448388213523,1.0010492308203585,0.0009099926392572928
-0.4501565584621858,-0.4501565584621858,1.0003235865807045,0.0009599492740248996
-0.4498652284368291,-0.4498652284368291,0.9994485365650754,0.0007959749590343562
