time,time,flux,flux_err
-0.4999334497275413,-0.4999334497275413,1.00006265741962,8.52555247434206e-05
-0.49978669435076883,-0.49978669435076883,0.9999934343615093,8.463465411650085e-05
-0.4996645243198145,-0.4996645243198145,1.0000210426804035,8.572232128903503e-05
-0.49956326517276467,-0.49956326517276467,1.0000676823612666,8.372370322978559e-05
-0.4994478154229,-0.4994478154229,1.0001388276184104,8.442269776233813e-05
-0.49929742721433285,-0.49929742721433285,0.9999631940474145,8.652589687577401e-05
-0.499152587048593,-0.499152587048593,0.9999149056679035,8.389595980159207e-05
-0.49910874647466696,-0.49910874647466696,0.9999647887678427,8.433880671628228e-05
-0.499040373461321,-0.499040373461321,1.000004230011235,8.418362231637506e-05
-0.49887565629323943,-0.49887565629323943,0.9999911788099917,8.786963412506421e-05
-0.4987845457770163,-0.4987845457770163,0.9998878259227997,8.618783497717547e-05
-0.49868736426433313,-0.49868736426433313,1.0000574100598887,8.662946753693229e-05
-0.4985454665889847,-0.4985454665889847,1.0002566642693813,8.614684499430098e-05
-0.49842371873091906,-0.49842371873091906,1.0000542349639008,8.479871395863529e-05
-0.49828543621406424,-0.49828543621406424,1.0001275743202527,8.546843427499361e-05
-0.49813424553285585,-0.49813424553285585,0.9999992866204515,8.334928962691115e-05
-0.4980248058040161,-0.4980248058040161,1.000050894954244,8.429501365135181e-05
-0.4979157649184344,-0.4979157649184344,1.000094078670402,8.604808543225348e-05
-0.4978755648728111,-0.4978755648728111,1.000089288209096,8.554628906851924e-05
-0.4977188649761956,-0.4977188649761956,0.9999981473648768,8.263557514829439e-05
-0.49748245603550456,-0.49748245603550456,1.000074767509735,8.366913050797445e-05
-0.49738195594836726,-0.49738195594836726,1.0000528105340527,8.49845855106667e-05
-0.49728314344829416,-0.49728314344829416,1.0000677969795615,8.422645916096354e-05
-0.4971625341000617,-0.4971625341000617,1.000186203153674,8.422989056684505e-05
-0.49707795766589696,-0.49707795766589696,1.0000236660264104,8.419335383650366e-05
-0.4970126912550768,-0.4970126912550768,1.0000320410149195,8.334390873097699e-05
-0.496919120005623,-0.496919120005623,1.0000362962165366,8.466828602122711e-05
-0.4968183508666698,-0.4968183508666698,1.0000087175013603,8.503111794633128e-05
-0.4966290834185202,-0.4966290834185202,1.0000339672593817,8.645311981243685e-05
-0.496552978894033,-0.496552978894033,1.0000274357398453,8.987829311044387e-05
-0.49642794764658904,-0.49642794764658904,0.9999582267253558,8.407825251090646e-05
-0.49630111413716804,-0.49630111413716804,0.9999694633738626,8.587515252808829e-05
-0.4962578066260903,-0.4962578066260903,1.0000184138206423,8.522101375954227e-05
-0.4961517725561862,-0.4961517725561862,0.999945833949058,8.28508064081065e-05
-0.4960866424095002,-0.4960866424095002,0.9999771723373356,8.455884387952321e-05
-0.495929710418568,-0.495929710418568,1.0000176309684314,8.32507487816019e-05
-0.4958538490478531,-0.4958538490478531,0.9999191923589329,8.380804528473505e-05
-0.49573301764321515,-0.49573301764321515,0.9999099971462091,8.514845424943484e-05
-0.49565999960759655,-0.49565999960759655,1.0001014943695334,8.657596348619486e-05
-0.495595350478834,-0.495595350478834,1.000002347747141,8.339649409893759e-05
-0.4954986207972979,-0.4954986207972979,1.000029550325414,8.609692230745878e-05
-0.495332971579046,-0.495332971579046,0.9999744655571854,8.338618414706833e-05
-0.49523618632083527,-0.49523618632083527,0.9999636074232361,8.421691869514326e-05
-0.49503658102330517,-0.49503658102330517,1.0000871682085435,8.52813695932087e-05
-0.4948621261311928,-0.4948621261311928,1.0000064063051042,8.754725279129143e-05
-0.49470097556331893,-0.49470097556331893,1.0000359606595812,8.646784207602662e-05
-0.49455949467228494,-0.49455949467228494,1.0000935644602884,8.368170360033313e-05
-0.4943725022079889,-0.4943725022079889,0.9999854363778266,8.489004343060417e-05
-0.4943074612863711,-0.4943074612863711,1.0000821863687144,8.539317001168663e-05
-0.49421420234721153,-0.49421420234721153,1.0000549667039864,8.446406235316732e-05
-0.4940194242604775,-0.4940194242604775,0.9999539545313333,8.528249412844845e-05
-0.4939206919094431,-0.4939206919094431,0.9999808903959856,8.246608859674529e-05
-0.493871818491607,-0.493871818491607,1.0001133260619546,8.415105228110734e-05
-0.4938133684510831,-0.4938133684510831,0.9998603754562099,8.524200673816444e-05
-0.4937163160735508,-0.4937163160735508,1.000013127399555,8.526731183351037e-05
-0.49361987117445094,-0.49361987117445094,1.0000419581672286,8.625809064855081e-05
-0.49349438370845744,-0.49349438370845744,0.9999814959039639,8.689461402184719e-05
-0.4934164876089199,-0.4934164876089199,0.9998894548139683,8.712544015295087e-05
-0.49325319682393454,-0.49325319682393454,1.0000493834181476,8.636570072060286e-05
-0.49307582819019447,-0.49307582819019447,1.000104537728427,8.442634942840622e-05
-0.4929380505142035,-0.4929380505142035,1.0000357481753979,8.387004503503033e-05
-0.4927827405859716,-0.4927827405859716,1.0001086918434274,8.428542431197573e-05
-0.4926803221082082,-0.4926803221082082,0.9999888831930978,8.306962038161622e-05
-0.4925990015093703,-0.4925990015093703,1.0000658105007774,8.552538255165627e-05
-0.4923818235954968,-0.4923818235954968,0.9999566830867902,8.512298556346689e-05
-0.4921855267341016,-0.4921855267341016,0.9999734378137909,8.374090898783095e-05
-0.49202597815019544,-0.49202597815019544,1.0000205740135963,8.424961961208194e-05
-0.4919102527434006,-0.4919102527434006,0.9999527512792813,8.490306832451832e-05
-0.49181970084318893,-0.49181970084318893,1.0000319017001105,8.329702671264871e-05
-0.49176828025956637,-0.49176828025956637,1.0000244443559658,8.489068273974914e-05
-0.49162160746200245,-0.49162160746200245,0.9999482859454666,8.296860448250124e-05
-0.49150276119471525,-0.49150276119471525,1.0000998811859734,8.611662357187288e-05
-0.4913655720287352,-0.4913655720287352,0.9999696024602326,8.339610073640603e-05
-0.49128059196518736,-0.49128059196518736,1.0000781290034866,8.444168480598289e-05
-0.49120944777096154,-0.49120944777096154,1.0000935277814793,8.706718820670716e-05
-0.4910504040119122,-0.4910504040119122,0.9999179282110641,8.3505511736914e-05
-0.49095408461726037,-0.49095408461726037,1.000056225603674,8.546187480248359e-05
-0.4908459184865933,-0.4908459184865933,0.9999989250836006,8.520476921214399e-05
-0.49073635422828377,-0.49073635422828377,0.9998930855686133,8.46614918178098e-05
-0.49060480400512463,-0.49060480400512463,1.0001130663374305,8.525102866664007e-05
-0.4904678319915547,-0.4904678319915547,0.9999466211280621,8.565684065702931e-05
-0.49041780995175943,-0.49041780995175943,0.9999121069579167,8.48719372816162e-05
-0.4903371842141496,-0.4903371842141496,1.0000350182585074,8.632337743820991e-05
-0.4902250658153207,-0.4902250658153207,1.000000925609798,8.42183214982195e-05
-0.4900972483825171,-0.4900972483825171,0.9999863160711442,8.468151681781558e-05
-0.4899400968643022,-0.4899400968643022,0.9999891897003531,8.323651407003125e-05
-0.4898228229416418,-0.4898228229416418,0.9998944510557368,8.515608618631648e-05
-0.48966318912716816,-0.48966318912716816,1.0001319238163504,8.569222137923709e-05
-0.4895381235066452,-0.4895381235066452,0.999808421964636,8.572532544667969e-05
-0.48947214772051667,-0.48947214772051667,0.9999980441304939,8.619964343788344e-05
-0.48929408716358014,-0.48929408716358014,0.9999553894493711,8.307062079437298e-05
-0.4891917031549383,-0.4891917031549383,1.0000979169574564,8.389823226467538e-05
-0.48913559693464775,-0.48913559693464775,0.9999422603825516,8.429254982533522e-05
-0.4890639994220692,-0.4890639994220692,1.0000152277050942,8.459295679043608e-05
-0.48895020577183457,-0.48895020577183457,0.9999686465380059,8.671153727665308e-05
-0.48876795811811463,-0.48876795811811463,1.000011238724149,8.416497458773392e-05
-0.4886887208864209,-0.4886887208864209,1.0000060512219284,8.383945342409315e-05
-0.48856829124997603,-0.48856829124997603,1.000001966576034,8.50167834669387e-05
-0.48844747755938445,-0.48844747755938445,1.0000518683347468,8.439133843648482e-05
-0.48838481471466366,-0.48838481471466366,0.9999448694198211,8.523272015843148e-05
-0.48829825572902336,-0.48829825572902336,1.000013627185472,8.732001908042201e-05
-0.4881456903356593,-0.4881456903356593,1.0002033558659704,8.686087846992094e-05
-0.48807735774462346,-0.48807735774462346,1.0000125257959684,8.568828813219222e-05
-0.48791356403526154,-0.48791356403526154,1.000030454147554,8.441502939082031e-05
-0.48781778517732166,-0.48781778517732166,1.0001052530764016,8.495497859323302e-05
-0.48772285628074313,-0.48772285628074313,1.0000130026794298,8.32987579085041e-05
-0.48759445237374166,-0.48759445237374166,1.0000019295281846,8.405239908909263e-05
-0.4874156110076001,-0.4874156110076001,0.9998605684568107,8.577820831168103e-05
-0.48734897182002895,-0.48734897182002895,1.0000134203761983,8.39389753970449e-05
-0.48717212117189773,-0.48717212117189773,1.0000568056696189,8.603041026001986e-05
-0.4869182125068619,-0.4869182125068619,1.0000629208462393,8.458586826102995e-05
-0.48682837188243866,-0.48682837188243866,1.0000328838855517,8.476311837572058e-05
-0.48668663662392647,-0.48668663662392647,1.0000945754371113,8.299741969039544e-05
-0.48662341211747845,-0.48662341211747845,1.0001103297213838,8.376782898273116e-05
-0.48651995390246155,-0.48651995390246155,1.0000827799975753,8.61607790244557e-05
-0.48636004447180314,-0.48636004447180314,1.000113594476358,8.523897482313255e-05
-0.4862100081911194,-0.4862100081911194,1.0000102109771263,8.359252719952433e-05
-0.4861078295885818,-0.4861078295885818,0.9999970143667047,8.446558004256236e-05
-0.48603918021108256,-0.48603918021108256,0.9999492337291734,8.62026576981878e-05
-0.48592224203312073,-0.48592224203312073,1.0000018404008146,8.645666054497855e-05
-0.48581505379406736,-0.48581505379406736,0.9999785064327694,8.3711784398417e-05
-0.4856862130414811,-0.4856862130414811,0.9999539580283241,8.47310881691365e-05
-0.48554279452364424,-0.48554279452364424,0.9999913033314647,8.571913294525341e-05
-0.4854102409575717,-0.4854102409575717,1.000120372360065,8.394138982067907e-05
-0.4852913437003735,-0.4852913437003735,1.0000339293499636,8.386742526490298e-05
-0.4852034817566164,-0.4852034817566164,0.9999813664811935,8.481296842744257e-05
-0.4851153384443023,-0.4851153384443023,1.0001365341817077,8.582628321158941e-05
-0.48503060140792514,-0.48503060140792514,0.9999985380425119,8.476725616782962e-05
-0.4848958854083321,-0.4848958854083321,1.0000103207552236,8.785609954153502e-05
-0.48479368553817037,-0.48479368553817037,1.0000533395106066,8.356301396304403e-05
-0.4846340041447547,-0.4846340041447547,0.9998501757072604,8.590424232048908e-05
-0.48449302674853245,-0.48449302674853245,0.9998655217286325,8.318551551650998e-05
-0.48434444626618645,-0.48434444626618645,1.000019147293939,8.481811150747166e-05
-0.4842257711221464,-0.4842257711221464,1.0002984275129347,8.383442478500899e-05
-0.48408727317728334,-0.48408727317728334,0.9999770677993662,8.506060142791489e-05
-0.4839547039926401,-0.4839547039926401,0.9999861095412145,8.299896964322856e-05
-0.483914268319495,-0.483914268319495,1.0001162276598639,8.295485329838397e-05
-0.48380351276719014,-0.48380351276719014,0.9999188055546476,8.637187376638947e-05
-0.48362495389446847,-0.48362495389446847,0.9998791045762203,8.495476739370498e-05
-0.4835012597075547,-0.4835012597075547,0.9998415527927959,8.245527081107389e-05
-0.48338607117620996,-0.48338607117620996,1.0000010760269982,8.502143541865032e-05
-0.483217658684589,-0.483217658684589,0.9999494663059114,8.525762143896435e-05
-0.4831003251601942,-0.4831003251601942,0.9999321086393037,8.525041666317351e-05
-0.483020377237699,-0.483020377237699,1.000060076862446,8.792549565325058e-05
-0.4828927313647,-0.4828927313647,0.999985863994719,8.607770478485142e-05
-0.48278248139831703,-0.48278248139831703,0.9999204038417304,8.651386295597263e-05
-0.4826739957759855,-0.4826739957759855,0.9999754648697611,8.391572714451594e-05
-0.4825276823787135,-0.4825276823787135,0.9998521241828048,8.466152525509628e-05
-0.4823540041557862,-0.4823540041557862,1.000118710251781,8.408948011273628e-05
-0.482189218516578,-0.482189218516578,1.000126265620885,8.387827001913928e-05
-0.48209376654267544,-0.48209376654267544,0.9999992265875681,8.745477074156379e-05
-0.4820334341173293,-0.4820334341173293,1.0000217839094405,8.723510601102189e-05
-0.4819413688295754,-0.4819413688295754,1.0000835364121778,8.342036205459881e-05
-0.48173194698320004,-0.48173194698320004,0.9999652877165903,8.47030453644179e-05
-0.4815532669468666,-0.4815532669468666,1.0002255497359855,8.429333489140276e-05
-0.48143251000292364,-0.48143251000292364,0.9999394153914991,8.264503619168255e-05
-0.48134675647306724,-0.48134675647306724,1.0000354609654634,8.437826058122287e-05
-0.48124631990795025,-0.48124631990795025,0.9999244134580326,8.628328265593092e-05
-0.4810733065227396,-0.4810733065227396,0.9999273243099834,8.399484866770818e-05
-0.48097440260171426,-0.48097440260171426,0.9999762403042419,8.394313905270954e-05
-0.4808406271622516,-0.4808406271622516,1.0000327503086965,8.272690311598726e-05
-0.4807617183658294,-0.4807617183658294,1.0000305527417477,8.540865994036587e-05
-0.48062118248199115,-0.48062118248199115,0.9998516068550352,8.546830924404056e-05
-0.4805001380693284,-0.4805001380693284,0.9999686037677595,8.452729662881064e-05
-0.4804033035325119,-0.4804033035325119,0.9999120911260807,8.412273596189516e-05
-0.4803210170546663,-0.4803210170546663,1.0000237045576683,8.468256371807673e-05
-0.4802153098236886,-0.4802153098236886,1.0000889057128823,8.539120113463345e-05
-0.4801145843404811,-0.4801145843404811,1.0000023557125293,8.434131128767548e-05
-0.4800093902143999,-0.4800093902143999,1.0000240616227132,8.405755250359742e-05
-0.47995595930115087,-0.47995595930115087,1.000076553883932,8.491685688361545e-05
-0.4798042344657006,-0.4798042344657006,1.0000223963783683,8.662077295607135e-05
-0.4796668775103171,-0.4796668775103171,0.9999487905202666,8.655604705738223e-05
-0.4795683391566854,-0.4795683391566854,0.9999415532714115,8.641099357215885e-05
-0.47947592144919327,-0.47947592144919327,0.9999978185649177,8.339438144466487e-05
-0.47930331478419247,-0.47930331478419247,1.0000890411872825,8.561031705543308e-05
-0.47911380584700963,-0.47911380584700963,1.0000773293896423,8.38523384264678e-05
-0.4789514904827229,-0.4789514904827229,1.0001673062050507,8.512036561506002e-05
-0.47882921052223537,-0.47882921052223537,0.9999561151552369,8.60285841524242e-05
-0.4787255840783473,-0.4787255840783473,1.0000348661242247,8.320192623365193e-05
-0.47865640774689383,-0.47865640774689383,1.0000235696334758,8.536108959644265e-05
-0.4785033345557167,-0.4785033345557167,1.0001368926657221,8.616301367513619e-05
-0.47841047451656776,-0.47841047451656776,0.9998853581165472,8.481145082918162e-05
-0.47831587476684945,-0.47831587476684945,1.0000708081956664,8.240710979026448e-05
-0.4782340266610845,-0.4782340266610845,0.99999320560231,8.571368441355125e-05
-0.47815821002877784,-0.47815821002877784,1.0000078020188166,8.273868589784168e-05
-0.4780376138689462,-0.4780376138689462,0.9999803753739883,8.530337254034595e-05
-0.47792821447510503,-0.47792821447510503,1.0000518499298008,8.529811625451475e-05
-0.477832091745222,-0.477832091745222,0.9999732389340334,8.578548725949743e-05
-0.4777551264283829,-0.4777551264283829,0.9999398379905076,8.537316125300205e-05
-0.4777096510879346,-0.4777096510879346,1.0000283253935616,8.450869257898351e-05
-0.4775767629093025,-0.4775767629093025,1.0000388109717386,8.664009405730478e-05
-0.47749724202876676,-0.47749724202876676,0.9999902539455586,8.597070402684225e-05
-0.47739932024123843,-0.47739932024123843,0.9999316162476483,8.47420384095083e-05
-0.4772743679262931,-0.4772743679262931,0.9999839389349336,8.229433339298455e-05
-0.47708824542642103,-0.47708824542642103,1.0000844183362134,8.589908495697113e-05
-0.47688676668331026,-0.47688676668331026,1.0000361986885402,8.397250220788367e-05
-0.4767909237431013,-0.4767909237431013,0.9998591147329077,8.544829301499787e-05
-0.476740884956962,-0.476740884956962,1.000123957401496,8.701061454255603e-05
-0.4766530136344954,-0.4766530136344954,1.0000835094369211,8.684124657641702e-05
-0.4765257310398738,-0.4765257310398738,1.0000234713438183,8.399623004805618e-05
-0.47635603929520587,-0.47635603929520587,0.9999747140677705,8.407858175936094e-05
-0.47622644592629515,-0.47622644592629515,1.0000301966271548,8.266862804473597e-05
-0.4761272673247731,-0.4761272673247731,1.0000073989248786,8.364863306326848e-05
-0.4759769099007826,-0.4759769099007826,1.000075164300883,8.51586040601224e-05
-0.47591116256226085,-0.47591116256226085,0.9999921837678573,8.303377793874554e-05
-0.4756927312570042,-0.4756927312570042,1.0001679579459375,8.42558881602275e-05
-0.4755997302330798,-0.4755997302330798,0.9999299286690029,8.252570199198864e-05
-0.4754778149072081,-0.4754778149072081,1.000054291466498,8.544950271597096e-05
-0.47540650558803466,-0.47540650558803466,0.9999728717496478,8.48383071676005e-05
-0.47526804469671335,-0.47526804469671335,1.0000653867343834,8.527291491440749e-05
-0.475172418972943,-0.475172418972943,1.0000873892878277,8.326922289403644e-05
-0.4750803651084425,-0.4750803651084425,1.0000495842691264,8.622307781368893e-05
-0.47497781577549175,-0.47497781577549175,1.000156152632605,8.363449857026091e-05
-0.47484896857640707,-0.47484896857640707,0.9999961217788096,8.390121297443835e-05
-0.47476322650618386,-0.47476322650618386,0.9999373747257702,8.533017376091616e-05
-0.47468777101894377,-0.47468777101894377,0.9999898985694354,8.56009928351774e-05
-0.47454828894115053,-0.47454828894115053,1.00000336984296,8.42731620996765e-05
-0.47441539308056235,-0.47441539308056235,0.9999760784371194,8.478374671059833e-05
-0.4743266150631825,-0.4743266150631825,1.0000377489439358,8.657411149659149e-05
-0.4742366995415068,-0.4742366995415068,0.9999612768584754,8.471322901277901e-05
-0.47414389114273947,-0.47414389114273947,0.999911147470639,8.478599081799544e-05
-0.47406234371010214,-0.47406234371010214,0.9998984687662722,8.275998684847848e-05
-0.4739649413924781,-0.4739649413924781,1.0001109362356781,8.478544996426638e-05
-0.47380998536100377,-0.47380998536100377,0.9999959172444131,8.250430148873793e-05
-0.4736963532253867,-0.4736963532253867,1.0000512774262689,8.654352770963805e-05
-0.47355421001848297,-0.47355421001848297,1.0000197615336235,8.342950782288508e-05
-0.47341507938544963,-0.47341507938544963,1.000105096980582,8.535000634577491e-05
-0.47328627237147886,-0.47328627237147886,0.9999716409939514,8.562483251032037e-05
-0.473167480189295,-0.473167480189295,0.9998911478097998,8.719356075434764e-05
-0.47311696715914875,-0.47311696715914875,1.0001028398411254,8.369393235332135e-05
-0.473026313855371,-0.473026313855371,0.9999463789409468,8.36195393807693e-05
-0.47289792183437385,-0.47289792183437385,1.0000096496013415,8.529746805770369e-05
-0.4727885920714471,-0.4727885920714471,1.0001174008557916,8.561594299534991e-05
-0.4726458553021075,-0.4726458553021075,0.9999357504239184,8.409479869128056e-05
-0.47254543406015725,-0.47254543406015725,0.999991508568408,8.439664695780586e-05
-0.4725024991188548,-0.4725024991188548,1.000057398812087,8.414123724900735e-05
-0.4724016280568321,-0.4724016280568321,1.0000018140813167,8.681220562875734e-05
-0.4723164906827151,-0.4723164906827151,0.9999723320824309,8.608711413888268e-05
-0.4722275633772369,-0.4722275633772369,0.9999599895232121,8.711794150080154e-05
-0.4720602509449236,-0.4720602509449236,1.0001343665441857,8.418060327898251e-05
-0.4717796695942525,-0.4717796695942525,0.9999918997633163,8.58066947175408e-05
-0.47164309674844845,-0.47164309674844845,0.9998945081129135,8.420178933524594e-05
-0.4715028945589438,-0.4715028945589438,0.9999508683261672,8.601207487292701e-05
-0.4714084378560074,-0.4714084378560074,0.9999983692939093,8.551207147771093e-05
-0.47127310919458976,-0.47127310919458976,0.9999460774629169,8.620665070864561e-05
