time,time,flux,flux_err
-0.49991982234538074,-0.49991982234538074,0.9998982449035201,0.0003128280772105343
-0.4997836269530467,-0.4997836269530467,1.0002192722533263,0.00031351213668017803
-0.4996656559232179,-0.4996656559232179,0.9998986254351163,0.0003026194243694799
-0.4995396494446595,-0.4995396494446595,1.0000460346473854,0.0002634548886035014
-0.4994253598123123,-0.4994253598123123,1.0001394049139598,0.0003806682651841457
-0.4993503020459912,-0.4993503020459912,1.0004193824874066,0.00025355906128015536
-0.4992283294965091,-0.4992283294965091,1.0000431351490948,0.0002898599400036407
-0.4991395304538173,-0.4991395304538173,1.0001155085958962,0.00023710657551514482
-0.4989641454481216,-0.4989641454481216,0.9997653137161422,0.00030683259719335146
-0.4988443966686191,-0.4988443966686191,0.9999055291778303,0.0002509393082553373
-0.4987064861696126,-0.4987064861696126,0.9999102177786561,0.0002552952554860264
-0.49860171739894665,-0.49860171739894665,1.0000642139706446,0.00024161235053227624
-0.4984452543156067,-0.4984452543156067,0.9999432552288503,0.0003048090795322296
-0.4982376459951411,-0.4982376459951411,0.9998581765832046,0.0003301774481363888
-0.49805825941496096,-0.49805825941496096,0.9996589631450888,0.00034753658230093307
-0.49789320676704846,-0.49789320676704846,0.9998279772543885,0.0002587183626000529
-0.4976987031853241,-0.4976987031853241,0.9999965161322649,0.0002913760211864371
-0.49752994275424955,-0.49752994275424955,0.9998553149467571,0.00030197772301005426
-0.4974556239473486,-0.4974556239473486,0.9997493942222772,0.00032493759764080416
-0.4972606243191876,-0.4972606243191876,1.0003410115373272,0.0003150086927001754
-0.4971803494883943,-0.4971803494883943,0.999895604391423,0.00025814743082139345
-0.49707619628031807,-0.49707619628031807,0.9999396584107592,0.00027521671038850616
-0.497006601920657,-0.497006601920657,1.0000452045187758,0.00028200058915802653
-0.49691091111938024,-0.49691091111938024,1.0001215109690993,0.0002708369359472226
-0.49681315635900775,-0.49681315635900775,0.9999964490195777,0.0003200860906027781
-0.4966905463947569,-0.4966905463947569,1.0001884764682014,0.00028970477730081985
-0.4965709760171876,-0.4965709760171876,1.0003605993525084,0.00033018269536315865
-0.49647237687538565,-0.49647237687538565,1.0002796553822342,0.0002481237074854111
-0.4963561567048373,-0.4963561567048373,0.9997191681782682,0.0002808287879117803
-0.4962810484072634,-0.4962810484072634,1.0002618282827715,0.00035495879638872683
-0.4961747583821989,-0.4961747583821989,1.0006310118354318,0.0002683564206751313
-0.49604870206221674,-0.49604870206221674,0.9999593887293386,0.0002910715466876145
-0.4959055968437497,-0.4959055968437497,1.0000606567959074,0.00027884626147952035
-0.49581022649044826,-0.49581022649044826,1.0002208931780414,0.00028493192029688393
-0.4957897915872763,-0.4957897915872763,1.0001615537749138,0.0003765115808588412
-0.4957334750213249,-0.4957334750213249,0.9997695401677567,0.0002492812961567847
-0.49560632030579654,-0.49560632030579654,0.9997201850152649,0.00026705259347847377
-0.4955170232970431,-0.4955170232970431,1.0003438442862755,0.00028527413669094325
-0.4953570501619879,-0.4953570501619879,1.0003851054218402,0.0002716630147412866
-0.4952745556136051,-0.4952745556136051,1.0000080276440024,0.00025584152521043626
-0.4951553246952699,-0.4951553246952699,1.0003071889681803,0.0002674096166108283
-0.49501281682248643,-0.49501281682248643,1.0003817605808192,0.00031232809841811704
-0.4948952672501491,-0.4948952672501491,1.0000754224646953,0.00025564392508048894
-0.49477007214236435,-0.49477007214236435,0.9996922417834524,0.00030796873093684365
-0.494641223880717,-0.494641223880717,0.9999446379808952,0.00030642945773483565
-0.4945352210851297,-0.4945352210851297,0.9999749821634729,0.000306295767770894
-0.49444493684543434,-0.49444493684543434,1.0000507775031122,0.0002744189514499757
-0.49434436082203775,-0.49434436082203775,0.9998205923601082,0.00031665701273297036
-0.4942229139943265,-0.4942229139943265,1.0000375804213686,0.0002479329054075697
-0.4940663499452512,-0.4940663499452512,0.9994431644937146,0.0003145982124345035
-0.49392339640669436,-0.49392339640669436,0.9999061669174598,0.0002442162740042061
-0.4937995513608257,-0.4937995513608257,0.9997451043917269,0.0002647904041297866
-0.49371617682045327,-0.49371617682045327,0.9998978988769472,0.00024245204630159574
-0.4935882961893185,-0.4935882961893185,0.9999526786272985,0.000304624228677785
-0.4933994796958814,-0.4933994796958814,0.9996441289045922,0.0003212591314921993
-0.4932472887407357,-0.4932472887407357,1.0001938956951248,0.00026580388212873345
-0.49309264303544753,-0.49309264303544753,0.999952916707157,0.00034465950643581265
-0.4928964394501918,-0.4928964394501918,0.9997422168370302,0.0002825792057931919
-0.4927114255663355,-0.4927114255663355,1.0001203134299368,0.0002584604647471806
-0.49261924489710507,-0.49261924489710507,1.0005560084330212,0.0003598292876473541
-0.49245611524811467,-0.49245611524811467,0.9999938525732057,0.0003233524010703715
-0.4923519842178621,-0.4923519842178621,1.0000217571134977,0.00025885297137646
-0.4922266382662201,-0.4922266382662201,1.0003493278541709,0.0002656326024144971
-0.4921609294512109,-0.4921609294512109,1.0000516072418442,0.0002793512868795116
-0.49207054290973246,-0.49207054290973246,0.9999975456340241,0.0002809228076760824
-0.49197931099622566,-0.49197931099622566,1.0002028216431094,0.0002646839557123827
-0.4918434931948923,-0.4918434931948923,1.0002668386587807,0.0003314337682832902
-0.4917288319146337,-0.4917288319146337,1.000055378187025,0.0003322107136726433
-0.49161136183345205,-0.49161136183345205,1.0001156589073177,0.00025689539745760517
-0.49151043024876345,-0.49151043024876345,1.000264091188172,0.0002755593385105097
-0.49142441582225727,-0.49142441582225727,0.9999321162111354,0.00034876512026994544
-0.4913201404218171,-0.4913201404218171,0.999500153181277,0.0002747182521637786
-0.49120490260020233,-0.49120490260020233,0.9999288797926879,0.00029710673363562246
-0.4910722552651123,-0.4910722552651123,0.999892311252981,0.0002654460324488656
-0.4909684310011926,-0.4909684310011926,0.9999931588913485,0.00027721277873939495
-0.49092860148944056,-0.49092860148944056,1.0001290831210705,0.00035762206422163933
-0.4909043727041308,-0.4909043727041308,1.0002066112397299,0.00029525020803740734
-0.490811345265638,-0.490811345265638,0.9998814126685793,0.00026756301879236026
-0.49071455639109446,-0.49071455639109446,1.000523691279127,0.0002648409234413769
-0.4906189293348916,-0.4906189293348916,0.9999899800677774,0.00027247231211093833
-0.4904777575208527,-0.4904777575208527,1.0001886215235722,0.0002709766953500974
-0.4903842540359392,-0.4903842540359392,1.0001668725994517,0.0002567372088611695
-0.49028330432167877,-0.49028330432167877,0.999653889623881,0.0002672946767339645
-0.4901407525063405,-0.4901407525063405,1.0000706809420348,0.00031253035080302025
-0.4900232318108465,-0.4900232318108465,0.9998594583298311,0.00025563696403477774
-0.48989802445123587,-0.48989802445123587,0.9997103425140674,0.00030806607198142555
-0.4897691692741546,-0.4897691692741546,1.0002554125998728,0.0003068760822332891
-0.48967712861499424,-0.48967712861499424,1.0000856504257127,0.000301182768961331
-0.4895799706319394,-0.4895799706319394,0.9995794269088947,0.0002725355074021272
-0.4894616344445694,-0.4894616344445694,0.9999811665997631,0.00027090547277959206
-0.48931389084220883,-0.48931389084220883,0.999861523948238,0.00029687837268185064
-0.48917935843696797,-0.48917935843696797,1.0002898161800204,0.00027653291828935603
-0.48903594929238353,-0.48903594929238353,0.9999534269872079,0.00028694360880466413
-0.4888895075696837,-0.4888895075696837,1.0000074296714785,0.000255479223577218
-0.48874547602731583,-0.48874547602731583,1.0002972384727213,0.00030404310402721104
-0.48857935340170117,-0.48857935340170117,0.9997550718416968,0.00030771187814687066
-0.4884117596154283,-0.4884117596154283,1.0001818142335872,0.0002864097916472624
-0.4882671733358393,-0.4882671733358393,0.99975755279249,0.00033449363818479765
-0.4881944002293267,-0.4881944002293267,1.0000611409717721,0.0002587144456522519
-0.4879844369849934,-0.4879844369849934,0.9998960510843984,0.00028897434762911744
-0.4878053352684901,-0.4878053352684901,0.9999049051688983,0.00030080470559788405
-0.48773279698916666,-0.48773279698916666,0.9997811806278148,0.0003266710430508056
-0.4875402031181693,-0.4875402031181693,1.0002136370985337,0.00028702829918025017
-0.4874095774850048,-0.4874095774850048,1.0002923466447078,0.0002481208123153553
-0.4873161632753181,-0.4873161632753181,0.999495645609658,0.0002802525382601639
-0.4872437747763797,-0.4872437747763797,0.9999210665089361,0.00028707282142300723
-0.4871456333635479,-0.4871456333635479,0.999990969977415,0.0002699206224917626
-0.4870233253187507,-0.4870233253187507,0.9996452740591293,0.0003178160886927874
-0.48691823485282837,-0.48691823485282837,0.9998019248761366,0.00029054947126117226
-0.4867641144875279,-0.4867641144875279,1.0000549360902546,0.0003191408285192363
-0.48671289473229534,-0.48671289473229534,1.0001750283213595,0.0003041857047652568
-0.48659060890595357,-0.48659060890595357,1.0001887790466124,0.00026765548214281563
-0.48652972000627415,-0.48652972000627415,1.0000033866055942,0.00035559138858113216
-0.4864100396385993,-0.4864100396385993,1.0000524333900818,0.000276530508325949
-0.486288531063974,-0.486288531063974,1.000342749460409,0.0002804031326938016
-0.4861615396801426,-0.4861615396801426,1.0000391849378905,0.0002789556762965451
-0.4860666879421842,-0.4860666879421842,1.0001960570312438,0.00028515508504012874
-0.4860505957807618,-0.4860505957807618,0.9996098960021733,0.0003803072335156688
-0.4860040863835593,-0.4860040863835593,1.0000263020206273,0.000254595282146282
-0.4858874917129242,-0.4858874917129242,1.0000916151439743,0.0002673417914491067
-0.4857796561870373,-0.4857796561870373,1.0002280099134815,0.00027965542641026047
-0.4856288693924625,-0.4856288693924625,0.9999965083204835,0.00027270405009678894
-0.4855304801299326,-0.4855304801299326,0.9999242100195442,0.00025578674677042933
-0.48541128395836497,-0.48541128395836497,0.9999381811416301,0.0002672821836558599
-0.48527394244558764,-0.48527394244558764,1.000137123410727,0.0002948149254400018
-0.4851906544682606,-0.4851906544682606,0.9998408956971572,0.00027804016574739884
-0.4850760512136503,-0.4850760512136503,1.000325161580998,0.00030212953612160105
-0.4849496670498411,-0.4849496670498411,0.9999327707674158,0.0002573671203058974
-0.4848264118634461,-0.4848264118634461,0.9999080270917944,0.00031768134307626585
-0.4847341726802824,-0.4847341726802824,1.000277786085367,0.00025355341330671893
-0.484628018994772,-0.484628018994772,0.9996625733582146,0.0003175244945858067
-0.4845509444702884,-0.4845509444702884,0.9998622610069183,0.0002585050331181175
-0.48436495839910093,-0.48436495839910093,0.9996397208071925,0.0003067375705352707
-0.48421969245696345,-0.48421969245696345,0.9997463492237874,0.00025091417961817974
-0.48403877904922865,-0.48403877904922865,1.0001248547822252,0.00025583502525781184
-0.48389633861520454,-0.48389633861520454,0.999684190761991,0.00030362872207095133
-0.4837072868509722,-0.4837072868509722,0.9998892661006249,0.00030780948913458996
-0.48356388907004655,-0.48356388907004655,1.000087741099814,0.00032968560174706664
-0.48341415326383413,-0.48341415326383413,1.0002608762919902,0.00033411459558628867
-0.48332239874821425,-0.48332239874821425,1.0000424572529307,0.00025862496799980347
-0.48311677202968895,-0.48311677202968895,1.000263049721283,0.0002828982402896123
-0.48296740143027816,-0.48296740143027816,0.9999421827730016,0.0002584908017647477
-0.482875074128242,-0.482875074128242,0.9995042920795119,0.00035997217404057315
-0.48270750339181634,-0.48270750339181634,1.0000760176205463,0.00028819766742856784
-0.48256427418282327,-0.48256427418282327,0.9999047168716861,0.000255060409316927
-0.48246024736331494,-0.48246024736331494,1.000070410080368,0.00027519360719901613
-0.4823904574861899,-0.4823904574861899,0.9999631593486213,0.0002819563339611842
-0.48228659569763294,-0.48228659569763294,1.0002646574762744,0.0002799613008355657
-0.4821512956186325,-0.4821512956186325,0.9999720576573081,0.00031801096553113527
-0.4820467627056587,-0.4820467627056587,1.0000232995186955,0.00027856658607716196
-0.48194975915530447,-0.48194975915530447,1.0004814480645277,0.0003366828767714435
-0.4818611980665537,-0.4818611980665537,1.0000890613710467,0.0002486349740960784
-0.481766396773196,-0.481766396773196,0.9998783490956711,0.0002754467391355036
-0.48168027170702316,-0.48168027170702316,0.9995878331134211,0.00034852993119026236
-0.4816027395898573,-0.4816027395898573,1.0002169923077353,0.00026291420123087023
-0.48148791988319317,-0.48148791988319317,0.9999279969091368,0.00029867213318717547
-0.4813668383542108,-0.4813668383542108,1.0003032226346587,0.00025869725568419117
-0.48124240302256566,-0.48124240302256566,0.999967496932223,0.0002849642619238899
-0.4811845684034779,-0.4811845684034779,1.000015190538202,0.0003532031727391655
-0.4811603171941215,-0.4811603171941215,1.0000385104591614,0.0002950897395428852
-0.4810673035293121,-0.4810673035293121,1.0001794818991823,0.0002675458697066205
-0.48095914467480727,-0.48095914467480727,1.0001592250366813,0.00027540222387659386
-0.4808122994885025,-0.4808122994885025,0.9993341175067316,0.0002694939629125655
-0.48069221015787206,-0.48069221015787206,0.999823450810797,0.0003089331028718457
-0.4806222935833603,-0.4806222935833603,1.000245214637045,0.00026010498604725545
-0.48048050864306335,-0.48048050864306335,0.9995777439407526,0.00030536542322394714
-0.4803646624505518,-0.4803646624505518,1.0002804128815814,0.0002769475105110695
-0.48026606852467923,-0.48026606852467923,0.9999542466834223,0.00026556599717442587
-0.48015392909408094,-0.48015392909408094,1.0002115716874596,0.00030784163537729385
-0.4800221966953586,-0.4800221966953586,0.9999912721365078,0.00030463140612261484
-0.47990096118285236,-0.47990096118285236,1.0003530203824547,0.0002589441659928103
-0.47978469732788653,-0.47978469732788653,1.0004172582923865,0.00027086977968083815
-0.47969831730970325,-0.47969831730970325,1.0001363326330048,0.00026559957809687944
-0.4795346542952757,-0.4795346542952757,1.0002474235485506,0.00030322163953522285
-0.4793765702925157,-0.4793765702925157,1.0005342444632774,0.0002567353665235296
-0.4792126229763653,-0.4792126229763653,1.0000849942215653,0.0002610822527155542
-0.4791004657576877,-0.4791004657576877,1.0000268754554635,0.0002427513013507449
-0.47898474536732466,-0.47898474536732466,0.9999599254875781,0.00034902421830967955
-0.47878934456118716,-0.47878934456118716,0.9999438944351953,0.000343910185183847
-0.47865608173333385,-0.47865608173333385,1.0000571217192766,0.0002858957115455346
-0.47850124005497036,-0.47850124005497036,1.0002068913714572,0.00033975232030260575
-0.4783588872159498,-0.4783588872159498,0.9999467012705535,0.00026981284138291145
-0.47822418936723354,-0.47822418936723354,0.9999226355146676,0.00027111629134973314
-0.4780531606549857,-0.4780531606549857,0.9998752379670875,0.0003107318686319659
-0.4779674991057618,-0.4779674991057618,1.0001186159822086,0.0003249988170875787
-0.47779045187323843,-0.47779045187323843,0.9995874266607698,0.0002787131921961621
-0.47766554587115023,-0.47766554587115023,0.9993184230114169,0.00024802769152417815
-0.4775721972437168,-0.4775721972437168,1.0002599672322448,0.0002801582940615386
-0.47749968784582963,-0.47749968784582963,1.00004102496687,0.0002870239397502254
-0.4773924242323119,-0.4773924242323119,1.0002534822062479,0.00026989855486224943
-0.47725354512595003,-0.47725354512595003,1.0000706871389906,0.00032448494303822395
-0.4771500082687453,-0.4771500082687453,1.0001493350772908,0.00028306812428862196
-0.4770200168833753,-0.4770200168833753,0.9999055980668061,0.0003189225714288098
-0.4769676969310922,-0.4769676969310922,0.9998291478093198,0.0002569492407773427
-0.47684659304691196,-0.47684659304691196,1.0003012155922206,0.00026765239464867643
-0.4767855676928548,-0.4767855676928548,0.9999523883541057,0.00035577012467030597
-0.47666604460898726,-0.47666604460898726,1.0001516857303017,0.000276501497511761
-0.476544468450561,-0.476544468450561,1.0001216276550107,0.0002795296247015411
-0.4764055780582567,-0.4764055780582567,1.0000283649170487,0.00028776860993277414
-0.47631494730972007,-0.47631494730972007,0.9999462559371896,0.0003201077020274425
-0.47629459601701,-0.47629459601701,1.0002769449963393,0.0003391298577551976
-0.47622024274187424,-0.47622024274187424,0.9998893605301544,0.00025776264266883875
-0.47610288135169865,-0.47610288135169865,0.9998216348900414,0.0002742254446143804
-0.4759758591834043,-0.4759758591834043,0.9998946389570855,0.0002799132633550488
-0.475834313438736,-0.475834313438736,0.9998545234685698,0.00026237914113743966
-0.4757502569890676,-0.4757502569890676,0.9997171424617217,0.00026007735740470105
-0.47562624357985894,-0.47562624357985894,0.9998186792699624,0.00025980182789571004
-0.4755472187128362,-0.4755472187128362,0.9997584858719067,0.00029840621927010736
-0.47544590852901364,-0.47544590852901364,1.000042808293013,0.0002857033007100022
-0.4753195504242285,-0.4753195504242285,1.0001145041302102,0.0003046430274641413
-0.47518739935376286,-0.47518739935376286,0.9997728195286886,0.00026495688403748314
-0.4750470753763466,-0.4750470753763466,1.0000313567994383,0.00030631235220373687
-0.4749419101086005,-0.4749419101086005,1.0002982882987266,0.0002742307291050382
-0.47486543240775064,-0.47486543240775064,1.000132475566025,0.00027122948517708357
-0.4747830800274869,-0.4747830800274869,1.0001526899615372,0.0002869120798694828
-0.4745788373421874,-0.4745788373421874,1.000146243373975,0.0003119354958496717
-0.474458288742494,-0.474458288742494,0.9998197893217002,0.00025093203379884273
-0.4742947432352366,-0.4742947432352366,0.99986546739185,0.0002558161617542422
-0.4741570619831464,-0.4741570619831464,0.9997377600820144,0.0003442363250831988
-0.474008245880691,-0.474008245880691,1.0000246494737295,0.0002638776867760029
-0.47383772819284786,-0.47383772819284786,0.9999985105730886,0.00036158546314222557
-0.4736966011369759,-0.4736966011369759,1.0004402246378592,0.00030508284640725573
-0.47360054545958974,-0.47360054545958974,0.9999562081710124,0.0003070524643056365
-0.47342595591478587,-0.47342595591478587,1.0003484411663013,0.0002769918739401882
-0.47329261225506797,-0.47329261225506797,1.0002818937643296,0.00026515830220985473
-0.47314465031745384,-0.47314465031745384,1.0002301151845194,0.0003521474374463188
-0.4730312779496444,-0.4730312779496444,0.9997381488371303,0.000279674166637959
-0.47287719403507256,-0.47287719403507256,1.0000196169433546,0.00026959410190795653
-0.4727491611783762,-0.4727491611783762,1.0002450251471502,0.00025621080013194224
-0.4726846730962734,-0.4726846730962734,0.9999303321203697,0.000277307920875053
-0.47260702621733797,-0.47260702621733797,1.0000276582396865,0.0002819252727665163
-0.4724982081453845,-0.4724982081453845,1.000335054052726,0.0002741869788160778
-0.4723553265772352,-0.4723553265772352,1.000046139255952,0.0003309544642625261
-0.47224943710339173,-0.47224943710339173,1.000019646245579,0.0002761451494717872
-0.47213666270647536,-0.47213666270647536,1.000022211196627,0.00031529459783120184
-0.4720707171711638,-0.4720707171711638,1.0003930970249195,0.00026128401006475635
-0.4719611499354642,-0.4719611499354642,0.9998239301815207,0.0003107151562174472
-0.4718991636646024,-0.4718991636646024,0.9998572265532655,0.00031408361567634427
-0.471770477917903,-0.471770477917903,0.9999027519465757,0.00029526541001585396
-0.4716421915773708,-0.4716421915773708,1.0000432531894945,0.0002547047753928583
-0.4715060472886307,-0.4715060472886307,1.000145559759508,0.0002963765008856953
-0.47144039578811314,-0.47144039578811314,0.9998729624896436,0.000353090756910243
-0.47141626170489415,-0.47141626170489415,1.000483134109784,0.00029507397609115547
