time,time,flux,flux_err
-0.49987086706278205,-0.49987086706278205,1.0000552190504597,0.0002246555010983808
-0.49973282634236965,-0.49973282634236965,1.000224360350559,0.00021463346833206274
-0.49962250227908955,-0.49962250227908955,0.9999755769654147,0.00020819967308230696
-0.4993891050893581,-0.4993891050893581,0.9997724685655486,0.0002061082864002679
-0.4991534745302488,-0.4991534745302488,0.9997329079080914,0.00022172004810029088
-0.49875760418181014,-0.49875760418181014,0.9999718209641817,0.00018186032901655868
-0.49816341236692097,-0.49816341236692097,1.0003473558851514,0.0001879905218412008
-0.497904629396362,-0.497904629396362,1.0002823856720753,0.0002008502399475409
-0.4977370070944744,-0.4977370070944744,0.9999155382935504,0.00023194336034936647
-0.4976677225447929,-0.4976677225447929,0.9998696758120941,0.00020923694901260173
-0.49741554771353547,-0.49741554771353547,0.9998908658498713,0.0001871495610764875
-0.49714617921890747,-0.49714617921890747,1.0000953086527793,0.00020657482852761894
-0.496888666349696,-0.496888666349696,1.000254310846914,0.00019187117487192812
-0.4965163243788993,-0.4965163243788993,0.9998889960437911,0.0001823733539942724
-0.496106084400526,-0.496106084400526,0.9999823866153055,0.00018415735734621886
-0.4958686782472796,-0.4958686782472796,1.0003412066115547,0.00019742171773729416
-0.49576779971612267,-0.49576779971612267,1.0005846796004145,0.00022148686961181947
-0.49566634793081904,-0.49566634793081904,1.0000471000901254,0.00019827981772757374
-0.4952934776349139,-0.4952934776349139,1.0002336202461817,0.00020426581044757927
-0.4950942717579892,-0.4950942717579892,1.0001926538688868,0.00020221830637555827
-0.4947986230683455,-0.4947986230683455,1.000204332557201,0.00019897903316980057
-0.49448847764288073,-0.49448847764288073,1.0003436958548786,0.00018610900570877148
-0.494079885759129,-0.494079885759129,1.0000389389468025,0.00018979223573102388
-0.4938569418172847,-0.4938569418172847,1.0002245687998765,0.00021699041621286
-0.493807477736118,-0.493807477736118,0.9999553012495124,0.00020812926277450635
-0.49365071923239157,-0.49365071923239157,1.0000040509217554,0.00019709045819653464
-0.49332147991917735,-0.49332147991917735,0.9999878646863699,0.00020825633682838656
-0.49287604434903187,-0.49287604434903187,1.0002902367610342,0.00020935514961588123
-0.49256547408476764,-0.49256547408476764,0.9995125476508946,0.00018286877580119226
-0.4923421725285152,-0.4923421725285152,1.0002875287611932,0.0001978122612393721
-0.49212515843864824,-0.49212515843864824,1.0003407748162867,0.00019457834256818497
-0.4919450382647483,-0.4919450382647483,1.0001112132833483,0.00020012333388594615
-0.4918577345084486,-0.4918577345084486,1.0003196882205618,0.00020809991775219173
-0.49173805974351126,-0.49173805974351126,0.9998711959033075,0.00019315110062171736
-0.49139058233085964,-0.49139058233085964,1.0001016898919697,0.00020352841987078424
-0.4909419066123519,-0.4909419066123519,1.000154909370377,0.0001905459922168622
-0.49070298858569006,-0.49070298858569006,1.0003891139520529,0.00019580214045684125
-0.4903187967418489,-0.4903187967418489,1.0002008320436044,0.0001959789416690361
-0.4900718707929627,-0.4900718707929627,0.9998532963905982,0.00018616646221897664
-0.48997655270723045,-0.48997655270723045,1.0000028609431644,0.00021578101382930902
-0.48990820791550505,-0.48990820791550505,1.0000913822389499,0.00021354139925947027
-0.4896538635461184,-0.4896538635461184,0.9996710371911476,0.00018695932738087875
-0.48936076246900484,-0.48936076246900484,1.00016897660391,0.00018056664221084432
-0.48907258954168353,-0.48907258954168353,1.0004550104844192,0.00020237844507064513
-0.48874970153301545,-0.48874970153301545,1.0000885560019985,0.00018737502570641138
-0.48855597332876644,-0.48855597332876644,1.00013810610563,0.00019406403647422732
-0.48805287547838816,-0.48805287547838816,0.9999966390763403,0.00019575040873404188
-0.48797658113799114,-0.48797658113799114,0.9999887187039477,0.0002134808083797075
-0.48788422154066213,-0.48788422154066213,0.999629283947967,0.00018536471980046336
-0.4875901557781617,-0.4875901557781617,0.9998742544639245,0.00019842368776106016
-0.4872573152741097,-0.4872573152741097,1.0000157209574936,0.0001749508409187451
-0.48698328633763593,-0.48698328633763593,1.0001737456426822,0.00019247321126654527
-0.48670588417699034,-0.48670588417699034,1.0000885652052904,0.00018687369093878042
-0.48649250682829004,-0.48649250682829004,1.0002287907579244,0.00019304062527888123
-0.4862182122633385,-0.4862182122633385,0.9998515569219846,0.00018932208109011028
-0.4860792729097739,-0.4860792729097739,1.0000218060165342,0.00020444104497438663
-0.4859602404150792,-0.4859602404150792,1.000130324920561,0.00021056058450541265
-0.4857207650926284,-0.4857207650926284,0.9998463436357727,0.00019500074061236814
-0.4854785404000722,-0.4854785404000722,1.0002200863388677,0.000196356454114214
-0.48518495026837627,-0.48518495026837627,0.9999904780565011,0.00018107024952398204
-0.48492604293896874,-0.48492604293896874,0.9999607447754639,0.00019107394868179227
-0.4846638399572839,-0.4846638399572839,1.0000938142101898,0.0001874562476455883
-0.484493103382556,-0.484493103382556,1.000230482097945,0.00018629123959978348
-0.48438068141040275,-0.48438068141040275,1.0000403697238827,0.00019390772497209218
-0.484228700885069,-0.484228700885069,0.9995080911320906,0.000222058419790876
-0.4841135698748985,-0.4841135698748985,1.0001530647261085,0.00020808503615104144
-0.4838978102230612,-0.4838978102230612,1.00008234038057,0.00021688595196789736
-0.4835207150455972,-0.4835207150455972,1.000094754034474,0.00020586116131440573
-0.482782181685252,-0.482782181685252,0.9999667821796017,0.00018407398903204467
-0.4824021172160428,-0.4824021172160428,1.000305305871318,0.00019138745917483694
-0.48225935851805846,-0.48225935851805846,1.000234069712458,0.00022518337781186372
-0.4821623172989348,-0.4821623172989348,1.0002470935194174,0.00020822446730926801
-0.48191410528052075,-0.48191410528052075,1.0000785817427533,0.00019379350680779817
-0.48162930436810714,-0.48162930436810714,0.9998334444483625,0.00020737811724931698
-0.48134346103870485,-0.48134346103870485,0.9999601136685152,0.00018486736235328823
-0.4808444111491553,-0.4808444111491553,1.0002963892566892,0.00018327582348156077
-0.48044857718559797,-0.48044857718559797,1.0002145316907554,0.00019464334271578795
-0.4803124376481719,-0.4803124376481719,1.0000997729737733,0.00022483899963703693
-0.48023740961107253,-0.48023740961107253,1.0001389827582245,0.0002080729013098299
-0.47997780266778134,-0.47997780266778134,1.000366004500775,0.0002052329883528028
-0.47971999792389397,-0.47971999792389397,1.000025071996296,0.00020661954039812984
-0.4794859056532005,-0.4794859056532005,0.999788964113059,0.0001937948988458364
-0.4790771701314952,-0.4790771701314952,1.0001827360347195,0.00018158835174638036
-0.478588988692718,-0.478588988692718,1.0002505929506302,0.0001863207034257948
-0.4783856252073747,-0.4783856252073747,0.9998957637694355,0.00021702455016402194
-0.47830979061873224,-0.47830979061873224,1.000144281092617,0.0002072137050552919
-0.4781568118538416,-0.4781568118538416,1.0001840849733192,0.00019519854146282648
-0.477820025512483,-0.477820025512483,1.0000960117411903,0.00020430802443849582
-0.47757116766842955,-0.47757116766842955,1.000254169056836,0.00021904107337711708
-0.47726493042973744,-0.47726493042973744,0.9997924343463257,0.0001827061180492687
-0.47695861582287763,-0.47695861582287763,0.9999868934813406,0.00018680931246979317
-0.4767095177252486,-0.4767095177252486,0.9998309062513956,0.00018728838054944447
-0.47643352514860454,-0.47643352514860454,1.0003255673634246,0.00020880676794895786
-0.476374555572329,-0.476374555572329,1.0000270557193827,0.00021632283212098515
-0.4762752308131894,-0.4762752308131894,0.9999284007843382,0.0001910469072281499
-0.47584569284263123,-0.47584569284263123,0.999987445207964,0.00021573351993401952
-0.47544995904827375,-0.47544995904827375,1.0005111138057297,0.0002000815202894364
-0.47515062969287103,-0.47515062969287103,0.9997785295308355,0.00018334695079605455
-0.47489460498545666,-0.47489460498545666,1.000329266048436,0.00019334694022016838
-0.4746454974068911,-0.4746454974068911,1.0003957766223839,0.00018637259049634225
-0.4744992678646668,-0.4744992678646668,1.000113226371117,0.0002107182638014018
-0.47441531136682896,-0.47441531136682896,0.9998369116038639,0.000208018997607585
-0.47432328040886207,-0.47432328040886207,1.0000522358838377,0.00019369948511022836
-0.4739605520026089,-0.4739605520026089,1.0001262445933414,0.00020288383487188818
-0.47361700940164153,-0.47361700940164153,1.0000628766960085,0.0001856897267222051
-0.47335437228939553,-0.47335437228939553,1.000096344482055,0.00019211943026668842
-0.4731302825235616,-0.4731302825235616,1.0001791054674147,0.00019029570603362593
-0.4728261739906884,-0.4728261739906884,1.0000654506020772,0.00018637798846982877
-0.47258041276181756,-0.47258041276181756,1.000276673047672,0.00020331288311873407
-0.47252014314508417,-0.47252014314508417,1.0000329153262812,0.00019653049793409371
-0.4724606942909304,-0.4724606942909304,1.0004318125443614,0.00021879047294345373
-0.47212031625495,-0.47212031625495,1.000244949052052,0.0001878067641741879
-0.47182877813247615,-0.47182877813247615,1.0003062118754975,0.00018503531670513443
-0.47153788375653677,-0.47153788375653677,1.0005503609067001,0.00020096462566338973
-0.47125987199760855,-0.47125987199760855,1.0000967928083069,0.00019707398841097793
-0.47091329020258854,-0.47091329020258854,1.0002692557857065,0.0001829387743453735
-0.47060403030191084,-0.47060403030191084,0.9998154185039407,0.00019573961002282216
-0.47053379516728455,-0.47053379516728455,0.9998264229148527,0.0002163236666202696
-0.47039014110378047,-0.47039014110378047,1.0000406530046813,0.00018529234107433464
-0.4700834761959413,-0.4700834761959413,1.0001407520381058,0.0001983706761154626
-0.469820242350761,-0.469820242350761,0.9998527200587244,0.00017695685542292583
-0.46951065235844,-0.46951065235844,1.0005016462215,0.00019192736696728023
-0.4692222208585008,-0.4692222208585008,1.0001723919630057,0.00019102307856745863
-0.46906851542989897,-0.46906851542989897,1.000050636575339,0.00019206434753830291
-0.46886211033488506,-0.46886211033488506,0.9997929572127212,0.00019119581758872173
-0.46868635268219805,-0.46868635268219805,1.0003853047967801,0.00021298654580176007
-0.4686040513086482,-0.4686040513086482,0.9999061008167326,0.0002053485132079554
-0.468489649257026,-0.468489649257026,1.0001148655931131,0.00019903233571371329
-0.4682355861863471,-0.4682355861863471,1.0001975593079997,0.00021942987156225316
-0.4680129419422883,-0.4680129419422883,1.0001620817449477,0.00019275508186132059
-0.46760596282801997,-0.46760596282801997,1.0001632012838921,0.00018661741686202608
-0.4673127838050277,-0.4673127838050277,1.0001001132931013,0.00019118859692519866
-0.46707009919555276,-0.46707009919555276,0.9998659014493662,0.0001967973551623091
-0.46688011250844286,-0.46688011250844286,1.00008491946265,0.0001998956771369874
-0.46673133836957276,-0.46673133836957276,1.000143056283398,0.0002162745541416055
-0.4666182803477568,-0.4666182803477568,1.0001124714859977,0.00020157049846878067
-0.4662613758606312,-0.4662613758606312,1.0001422384447758,0.00022860715759297998
-0.46595470167667374,-0.46595470167667374,0.9994839542944206,0.00018152123063776474
-0.4655825466423266,-0.4655825466423266,0.9996780361613504,0.0001805294444253147
-0.4650562285129126,-0.4650562285129126,0.9999449819032241,0.0001872077612416369
-0.4648357476373349,-0.4648357476373349,0.999693774032254,0.00022040421033944153
-0.46474611413286765,-0.46474611413286765,1.0001516389459737,0.00021627872037109766
-0.4645584196747222,-0.4645584196747222,1.000035677922714,0.00020139604725229882
-0.4642365979587339,-0.4642365979587339,0.9999102091120788,0.0002068434563951657
-0.46378068772501135,-0.46378068772501135,1.0001719917022165,0.00018661492728350214
-0.4633570563706598,-0.4633570563706598,1.0000520302464229,0.00018194752514816192
-0.463050408984418,-0.463050408984418,1.0000898423729043,0.0001943090000628398
-0.46287739561739727,-0.46287739561739727,1.0002739788867356,0.0002218779119406916
-0.4628213313015294,-0.4628213313015294,1.0001323988524389,0.0002191132277197542
-0.46272862730584163,-0.46272862730584163,0.9997975307453102,0.00020255643543675876
-0.4623519194592518,-0.4623519194592518,1.0002121337724097,0.00019839244736217596
-0.46208863134888817,-0.46208863134888817,1.000120072595316,0.0001994057736106016
-0.4617116368452116,-0.4617116368452116,1.000064278446875,0.00018253749767513217
-0.4612275465584389,-0.4612275465584389,0.9999604892264173,0.00018735136884938012
-0.4609682240687107,-0.4609682240687107,1.000029843564835,0.00020886250042055597
-0.4608716592505516,-0.4608716592505516,0.9999228918665718,0.00021668275589117902
-0.4607455125205888,-0.4607455125205888,1.0005228668682944,0.0001951353496682615
-0.46041999719454907,-0.46041999719454907,1.0002482036301792,0.00020100107607671824
-0.4601941608325433,-0.4601941608325433,1.0000806853227822,0.0002015015560214555
-0.45993363195739223,-0.45993363195739223,1.0000698739578413,0.00021356239190602533
-0.45976092970413446,-0.45976092970413446,1.0002678983314608,0.000181857611807429
-0.4593736437811458,-0.4593736437811458,0.9999131936141264,0.00018711806599203443
-0.45910497252298227,-0.45910497252298227,1.0002018112446005,0.000201172255938149
-0.4589453216587572,-0.4589453216587572,1.0001052254421672,0.00021633013409991464
-0.4589130157208274,-0.4589130157208274,1.000124037237812,0.00020599617423573604
-0.458774801929394,-0.458774801929394,1.0002148336615804,0.0001903675231792312
-0.45831629844324195,-0.45831629844324195,1.000078570730921,0.00020814753926457725
-0.45783816066032157,-0.45783816066032157,1.0002093874666556,0.00019637628018209902
-0.4575756830352475,-0.4575756830352475,1.0003612705533869,0.0001831723907116276
-0.45732646707801905,-0.45732646707801905,1.0003370283462407,0.0001925577540257807
-0.4571403780464607,-0.4571403780464607,0.9999104604284008,0.00022223874899456663
-0.45706055690061476,-0.45706055690061476,0.9997480690556368,0.0002098813587980388
-0.45699184652512487,-0.45699184652512487,1.0000564990410727,0.0002053328133544701
-0.4569138653369009,-0.4569138653369009,1.0000917383623011,0.00018957759363030674
-0.4566642379220866,-0.4566642379220866,1.0002072107683198,0.00019708505994950817
-0.45601582624549336,-0.45601582624549336,1.0000511302782336,0.00018985081919316969
-0.4558045447967743,-0.4558045447967743,1.0005023121319865,0.00019515661295364285
-0.45549630763525784,-0.45549630763525784,1.0001680066069127,0.00018181225759476973
-0.45513809609583405,-0.45513809609583405,1.0001236121961068,0.00020622962118256773
-0.4550681997559877,-0.4550681997559877,1.0002237027093197,0.00019357828360939565
-0.45501095991567125,-0.45501095991567125,1.0000987853449839,0.00021874681013315855
-0.4546348756892257,-0.4546348756892257,1.000288909479758,0.00018697217716194398
-0.45424814243160655,-0.45424814243160655,0.9997989803264762,0.0001869332093069863
-0.4540169290055928,-0.4540169290055928,0.9998728714792676,0.00018648431058529343
-0.4537486016703042,-0.4537486016703042,1.000278527070305,0.00019726986164916968
-0.4534517409021646,-0.4534517409021646,1.000151954954208,0.00018249142227791032
-0.45318594622549424,-0.45318594622549424,1.0000590069315485,0.00019226879252509947
-0.4530986861034762,-0.4530986861034762,0.9999501379195739,0.0002162584273345237
-0.45291283777442004,-0.45291283777442004,1.0002460054468327,0.00019351033895191014
-0.4525540738406562,-0.4525540738406562,1.0001616356694087,0.0002069765011864624
-0.45224105987945223,-0.45224105987945223,0.999938858259682,0.00018348737692646427
-0.45200016863673226,-0.45200016863673226,1.00026191685886,0.0001878468873523011
-0.4517360647110763,-0.4517360647110763,1.0002506474810722,0.0001954627738016392
-0.451521223689997,-0.451521223689997,1.0002961430454915,0.00018209431318760814
-0.45127956165961225,-0.45127956165961225,1.000106717546527,0.00021282988041793088
-0.45118394125674965,-0.45118394125674965,0.9999507719446697,0.00019555711454151626
-0.4511442355968029,-0.4511442355968029,1.0004487505977326,0.0002128509484629418
-0.4509070898162463,-0.4509070898162463,0.9998906498370317,0.00020536379642547707
-0.45069879073926133,-0.45069879073926133,0.9998903324339252,0.00019863415143156382
-0.4503699532793689,-0.4503699532793689,0.9998602138716761,0.00019296468318814755
-0.44972728641041615,-0.44972728641041615,0.9998944787346792,0.00019124399561019258
-0.44952134265186033,-0.44952134265186033,0.9999949737725086,0.00018582587602764588
-0.449373137090879,-0.449373137090879,0.999793097940953,0.00023138927235372917
-0.4492353663114045,-0.4492353663114045,1.0000423635435474,0.0002081427170080448
-0.44910389586002564,-0.44910389586002564,1.0000350749713083,0.00019519814040133197
-0.44889288029880847,-0.44889288029880847,1.0003744971027886,0.00020595663271738237
-0.44862825042946497,-0.44862825042946497,1.0000564775631327,0.00021060438240326208
-0.4482121198463574,-0.4482121198463574,1.0001931616165023,0.0001912316724367219
-0.44790677095006687,-0.44790677095006687,0.9999784030773139,0.00018693423044674855
-0.4476463725368376,-0.4476463725368376,1.0001281737804473,0.0001877598372205171
-0.4474479609460104,-0.4474479609460104,1.000316224900634,0.00021949242638790028
-0.4473413881529268,-0.4473413881529268,1.000028790034837,0.00022522888244289415
-0.44727823330758837,-0.44727823330758837,0.9998762401241024,0.00020822402158100214
-0.4468814807820308,-0.4468814807820308,1.0002069572958299,0.00019950388776200824
-0.4466056045028381,-0.4466056045028381,0.9999927559945091,0.00020263468874557163
-0.44612754143890926,-0.44612754143890926,1.0000495492783776,0.0001831019058996927
-0.4458041558838886,-0.4458041558838886,1.0002369693373891,0.00018172709327935634
-0.4455987550183636,-0.4455987550183636,0.9999233704195888,0.00019416202936871075
-0.44540906429610916,-0.44540906429610916,0.9999047591169449,0.00021338821257160773
-0.44535397714571445,-0.44535397714571445,1.0001988729821458,0.00020810584806013545
-0.4450892358134297,-0.4450892358134297,0.9999887950054097,0.00019653109312888563
-0.44481737737914956,-0.44481737737914956,1.0001818203587327,0.00020544973504863206
-0.444569760144077,-0.444569760144077,1.0000562843570078,0.00018649476840385172
-0.44428388895175885,-0.44428388895175885,1.000206200992054,0.00018267575383973405
-0.44385036950006906,-0.44385036950006906,1.0000009766489075,0.00018695153462842015
-0.44351913683640304,-0.44351913683640304,0.999873427963578,0.00020878242938222094
-0.44342946228498475,-0.44342946228498475,1.0000287157382686,0.00021624883465234569
-0.44327966254750206,-0.44327966254750206,1.0001925375919718,0.00019485727924583462
-0.44295587298838657,-0.44295587298838657,1.000030469287368,0.00021149073387087878
-0.4427174435226334,-0.4427174435226334,1.0003225211256435,0.0002034098802465479
-0.4423884776664636,-0.4423884776664636,1.0000965303977851,0.0001931383599260244
-0.4420953585231473,-0.4420953585231473,0.9997217254378683,0.00019362096861849816
-0.44183410647747223,-0.44183410647747223,1.0000232200751722,0.00018868585920267327
-0.44162359928304795,-0.44162359928304795,1.000141446269712,0.0002000919851885552
-0.44149021517878284,-0.44149021517878284,0.9999567878647474,0.00021627707407807098
-0.44142894134784,-0.44142894134784,1.0000723288690891,0.00019441655147274926
-0.44120073651538405,-0.44120073651538405,0.9999858267973044,0.00018631043138769908
-0.4406966274123988,-0.4406966274123988,1.0003496073515366,0.00020793326938079387
-0.44026268903799065,-0.44026268903799065,1.0001854843136975,0.00019661341821951986
-0.44004060669140016,-0.44004060669140016,1.000180957613288,0.00018334685744991348
-0.43973913181689567,-0.43973913181689567,1.0000083564689528,0.00019988199954884574
-0.4396566901887127,-0.4396566901887127,0.9999509025737016,0.0002224791518631748
