time,time,flux,flux_err
-0.4999734949287813,-0.4999734949287813,0.9990487680271252,0.0005734471835625462
-0.4998178384703351,-0.4998178384703351,1.0011344752651896,0.0005506246364845468
-0.499643788881076,-0.499643788881076,1.0006202832784208,0.0005359727916190163
-0.4995243384728383,-0.4995243384728383,0.9988100593055735,0.0005070452512089907
-0.49938608733900763,-0.49938608733900763,0.9996045136878797,0.00043479792775460307
-0.49925281181422176,-0.49925281181422176,0.9995714068632164,0.0004880181854814601
-0.4990717012522509,-0.4990717012522509,1.000654906664978,0.000517960782356662
-0.49892903198997374,-0.49892903198997374,0.9997980887337741,0.0004922366201229407
-0.49887601479094884,-0.49887601479094884,0.9996750631007707,0.0005202257906580277
-0.49882429382705595,-0.49882429382705595,1.000318266687833,0.0005079667674052179
-0.4987371665127284,-0.4987371665127284,1.0005243121500178,0.0005173266080261267
-0.49846841887738264,-0.49846841887738264,1.0000479650313114,0.00046499844473224907
-0.4983496383872989,-0.4983496383872989,0.9995896753026073,0.0005332506321094625
-0.498216911394411,-0.498216911394411,0.9996796831361628,0.0005161112297316533
-0.4981040955179196,-0.4981040955179196,1.000250189067631,0.0004985626609324532
-0.49795603443817527,-0.49795603443817527,1.0000742837889285,0.000497920352289043
-0.49783186297063364,-0.49783186297063364,0.9997014874525432,0.0005123158324756396
-0.49777673759090246,-0.49777673759090246,0.9997156360872708,0.0004624536766340029
-0.4976036703475984,-0.4976036703475984,0.9999698527923753,0.0005218132263440843
-0.49751168724797024,-0.49751168724797024,1.0005500815882589,0.0004975435910933183
-0.4974568557416205,-0.4974568557416205,0.9998146516844214,0.0004835865579029083
-0.49735917895668535,-0.49735917895668535,0.9996636290614834,0.0004986525487467608
-0.49727613564682543,-0.49727613564682543,1.0008553799288054,0.0005240981719603455
-0.4971952989810234,-0.4971952989810234,1.0005816543907435,0.0004812755731320864
-0.49705658218008464,-0.49705658218008464,1.0000463869531397,0.0005315754176169899
-0.49693898661971614,-0.49693898661971614,0.9992483199311397,0.0005028179931494692
-0.49683381119320985,-0.49683381119320985,0.9999985423011447,0.0004984622397086921
-0.49669211391847057,-0.49669211391847057,1.0008453020181012,0.0004956448641491338
-0.49653123651514763,-0.49653123651514763,1.0001022548006433,0.0005132958328570438
-0.49645972124417315,-0.49645972124417315,0.9995204133653548,0.000491610878336695
-0.49637978680366357,-0.49637978680366357,0.9996710480652664,0.00043908713918844333
-0.4962733624393877,-0.4962733624393877,0.9997459433294518,0.00044431608360716936
-0.49616918268657173,-0.49616918268657173,0.9998344817173509,0.0005145356728269795
-0.49609083922041464,-0.49609083922041464,1.0004112515165562,0.00047576166732982134
-0.49603784405953777,-0.49603784405953777,1.0001227132733714,0.0004963165228355228
-0.49595189229366954,-0.49595189229366954,1.0006800566840952,0.00045172376411823777
-0.4957808753795689,-0.4957808753795689,1.0001718453189894,0.0004920094580238294
-0.4955032759520691,-0.4955032759520691,1.0000589709233703,0.00045657391189650844
-0.4953088133730489,-0.4953088133730489,1.000961282005236,0.0004713159688629337
-0.495119822108245,-0.495119822108245,1.0002941142413984,0.00045109722690888515
-0.4948934100098995,-0.4948934100098995,0.9998047005943794,0.0004523296238234182
-0.49477323409955715,-0.49477323409955715,0.9998256004820677,0.0004352883450053209
-0.4946898821162904,-0.4946898821162904,0.9998165212952689,0.00044466011126044827
-0.494589369717869,-0.494589369717869,1.000170500120276,0.0005344600332181559
-0.4945061643069494,-0.4945061643069494,0.9998352233372227,0.0004585459758460604
-0.4942668358802621,-0.4942668358802621,0.9998620942815777,0.0004919609798683354
-0.49413549878372576,-0.49413549878372576,1.00045719418183,0.0004784007924767216
-0.4939992334540875,-0.4939992334540875,1.0009759289772568,0.0005594898047630019
-0.49387014301028104,-0.49387014301028104,1.0004520753456767,0.0005385600462997507
-0.4937396197830822,-0.4937396197830822,1.0005759041347881,0.0004797685845718385
-0.4936612841527676,-0.4936612841527676,1.0001362694310774,0.0004718377175370734
-0.4935310981963994,-0.4935310981963994,0.9989645516965451,0.0005195686715029241
-0.49340516287811625,-0.49340516287811625,1.000245790994989,0.00048335330997476765
-0.49328852784201443,-0.49328852784201443,1.0001279219139416,0.0004895819238988678
-0.49320835008911673,-0.49320835008911673,1.0004667973462262,0.0004729992887683893
-0.4930971480727749,-0.4930971480727749,0.9999750562396086,0.0004855288905177116
-0.4930027256596077,-0.4930027256596077,1.0004145841209173,0.0004978195400360743
-0.4929159862549568,-0.4929159862549568,1.0001901222874108,0.0005132641262686948
-0.4928698730342148,-0.4928698730342148,0.9999771942112659,0.0005044198926083046
-0.49279848623409633,-0.49279848623409633,0.9996532642144398,0.0005772969998890921
-0.49262600747606483,-0.49262600747606483,1.0006831947148864,0.0005559308566504326
-0.49248727132981,-0.49248727132981,1.0009877147695714,0.00047527420133011933
-0.4923972830994899,-0.4923972830994899,1.0011570582417089,0.0004943494294832824
-0.49224614966697117,-0.49224614966697117,0.9999539071206602,0.0005200029979881098
-0.49206766726783824,-0.49206766726783824,1.0003978287328994,0.0004982854410656045
-0.49192569309307144,-0.49192569309307144,1.0006707025936534,0.0005072678065851342
-0.49176499475615854,-0.49176499475615854,0.9994685179264258,0.0005323731891693187
-0.4916270121007983,-0.4916270121007983,1.0008744308884006,0.0004604585531939369
-0.4915661597995495,-0.4915661597995495,0.9996370330556961,0.0005103378413648279
-0.491509565542583,-0.491509565542583,0.9999642841605472,0.000499164004502624
-0.49144842601162964,-0.49144842601162964,0.9999000989248359,0.0005182622464582179
-0.49134598819800884,-0.49134598819800884,1.0001318481942731,0.0005170426551091984
-0.49113634580935467,-0.49113634580935467,1.0001864623784607,0.0004622513348766701
-0.4909772090260958,-0.4909772090260958,0.9994678406771478,0.0005337742243678647
-0.4908249486932618,-0.4908249486932618,0.9998802652447066,0.0005360962199688675
-0.4907005541033868,-0.4907005541033868,1.0005543289220638,0.0005403465145299481
-0.49046894755047105,-0.49046894755047105,0.9995770729584603,0.0005042280238981508
-0.49036370273242935,-0.49036370273242935,1.0002861581129987,0.0005324274405406191
-0.49017348153065543,-0.49017348153065543,0.9998138956142595,0.0004881255892435541
-0.49010438411896756,-0.49010438411896756,0.9992279321440656,0.00048471493092647433
-0.49001405463423,-0.49001405463423,0.9999571904532217,0.0005465201832660628
-0.48991888919117627,-0.48991888919117627,0.9999197142443801,0.0005046116023311157
-0.4898303127283725,-0.4898303127283725,0.999946060209991,0.0004617592334720154
-0.4897145515889861,-0.4897145515889861,0.9999356972660666,0.0005634645841338036
-0.4895826651714742,-0.4895826651714742,1.0005085242174592,0.0004852643486175508
-0.48949923829241015,-0.48949923829241015,0.9996119176950338,0.0004596967637993962
-0.48936000246649203,-0.48936000246649203,0.9998048833034318,0.0005276402715197772
-0.4891773517454567,-0.4891773517454567,1.0006730337577556,0.0005083299566522083
-0.4890923602204566,-0.4890923602204566,1.0000721713006273,0.0005193936860219703
-0.48899181251836127,-0.48899181251836127,1.0000740605152059,0.0004527675915484181
-0.4888782540161628,-0.4888782540161628,0.9996437439472894,0.00045184894111154815
-0.4887825528719986,-0.4887825528719986,0.9998168769277449,0.0005266981344775925
-0.4886882175815117,-0.4886882175815117,0.9996812798654642,0.0004900044436459089
-0.48863296947893103,-0.48863296947893103,0.9998093612426947,0.0005236904030172062
-0.48856337432662256,-0.48856337432662256,1.0000409346869055,0.00047563175305725383
-0.4884051940229256,-0.4884051940229256,0.9998167443866699,0.0005215393044634655
-0.48816891289789055,-0.48816891289789055,1.0010091060047404,0.00044520238417352417
-0.4879886277976766,-0.4879886277976766,1.0004260515760668,0.0005479264704162435
-0.48785039514041273,-0.48785039514041273,1.0008580516626395,0.00042895470973028144
-0.48769018464299735,-0.48769018464299735,0.9990837359031011,0.0005048001756824194
-0.4875074668798334,-0.4875074668798334,1.000386713013775,0.00045209245780459823
-0.4873989680403611,-0.4873989680403611,0.9999272217575106,0.00044594453348833373
-0.4872929801036662,-0.4872929801036662,0.9998272020404759,0.00043535465174922614
-0.48718218796129803,-0.48718218796129803,1.0002181062201072,0.000493600737604223
-0.487117195326573,-0.487117195326573,0.998880914896161,0.0004695650612491336
-0.48690846501558555,-0.48690846501558555,0.9997302046033505,0.0004595700769426379
-0.48678131427514015,-0.48678131427514015,0.999752282546222,0.0005284455387285251
-0.48666857407406494,-0.48666857407406494,0.9996613296377488,0.0005510602676197137
-0.4865036684481311,-0.4865036684481311,0.9997930469339826,0.0004989512380297533
-0.48634752827674677,-0.48634752827674677,1.0002509327946516,0.0004795276040020042
-0.4862778144695767,-0.4862778144695767,1.0001697375851297,0.0004669945659524048
-0.4861256656899059,-0.4861256656899059,1.000981655886052,0.000519806733986919
-0.48603441051527624,-0.48603441051527624,0.9996119860546029,0.0004988541910577687
-0.48593499712333144,-0.48593499712333144,1.000555307259614,0.00046665872298315024
-0.48581464145463543,-0.48581464145463543,0.9992361008194909,0.00048192484348661134
-0.485715616901507,-0.485715616901507,0.9997025684053359,0.0004758575499229426
-0.48561533620086267,-0.48561533620086267,1.0009764436047675,0.0005047151814177632
-0.48551931812253313,-0.48551931812253313,1.0008036180633255,0.0005412328247273997
-0.48545177503619924,-0.48545177503619924,0.9998478903309709,0.0004793198354195854
-0.4853669591808284,-0.4853669591808284,1.0006665385227713,0.0005900986642396039
-0.4852105555619346,-0.4852105555619346,1.000586407047487,0.0005254729354399552
-0.4851072855948587,-0.4851072855948587,1.000416428514496,0.0005052882200449924
-0.4849886633808637,-0.4849886633808637,1.0003723580979655,0.0005091102382927951
-0.48482242063328157,-0.48482242063328157,1.0003594018874904,0.0005474671320433755
-0.48462542553970706,-0.48462542553970706,1.0004483444023768,0.0004871708769019018
-0.48442428076959915,-0.48442428076959915,0.999847402296037,0.0005165171918981692
-0.4842599347954092,-0.4842599347954092,1.0002866178493424,0.00044968234172903935
-0.4841831857833313,-0.4841831857833313,1.000144646308723,0.0004970110225364161
-0.48413393377995817,-0.48413393377995817,1.0006072623665703,0.00048402388189416716
-0.48409124957724997,-0.48409124957724997,0.9996039481870156,0.0005001178323846011
-0.4840015508572833,-0.4840015508572833,0.9999839759878872,0.0005242259253435163
-0.48387570164632054,-0.48387570164632054,0.9996936577286469,0.0005136145472481097
-0.48369462711925737,-0.48369462711925737,0.9997128285304916,0.0005089940902032344
-0.48352544735607805,-0.48352544735607805,0.9996160966505612,0.0005340533273575841
-0.4834018262059544,-0.4834018262059544,1.0007243600942504,0.0005013735578682651
-0.48327391375423756,-0.48327391375423756,1.0006282063912848,0.0005498659950797012
-0.4830684026554081,-0.4830684026554081,0.9992916991060519,0.0005016119985460191
-0.48297188486467346,-0.48297188486467346,1.000711891267485,0.0005343708345849525
-0.4828112631788827,-0.4828112631788827,0.9993648942779462,0.00047463394552808353
-0.48272714325066773,-0.48272714325066773,0.9999627205036458,0.000495987406701987
-0.4826483858676511,-0.4826483858676511,1.0003082128151468,0.0005523490516135922
-0.4825453096484125,-0.4825453096484125,0.9996562536460634,0.0004777867502757559
-0.4824452850902162,-0.4824452850902162,1.0002944733430306,0.0005027488294932483
-0.48231726231679206,-0.48231726231679206,1.0002056317178925,0.0005642163958962645
-0.4821779526304454,-0.4821779526304454,0.9998572963649239,0.00045419473908014425
-0.4820832207624335,-0.4820832207624335,0.9999319001270026,0.0005268727536638314
-0.4818834303725453,-0.4818834303725453,0.9989263098470846,0.0005212089031284857
-0.4817032407027,-0.4817032407027,0.9995474497838635,0.00047274391619862264
-0.48159537785832074,-0.48159537785832074,1.0003681122071244,0.0004674925115273204
-0.4814824302950001,-0.4814824302950001,1.0004793544543635,0.0005026693223762908
-0.48136963980214204,-0.48136963980214204,0.9999869329136086,0.0004733499561703061
-0.48127756772519203,-0.48127756772519203,0.9995466755478972,0.0005456542239225127
-0.4811933922494063,-0.4811933922494063,1.0003486119275267,0.00046039938241328345
-0.48103154471209564,-0.48103154471209564,0.9999278208417293,0.00046830646962854117
-0.4807826537053188,-0.4807826537053188,0.9994175744123206,0.0004801021890498895
-0.4805842067107733,-0.4805842067107733,1.000351172845526,0.0005107972333158403
-0.4804632471059449,-0.4804632471059449,0.9993462468007914,0.00045365185968367864
-0.4803467819103389,-0.4803467819103389,0.9998084535090864,0.0004710453553609057
-0.48015746520031827,-0.48015746520031827,1.0000788187760028,0.000460433045286729
-0.480041698986679,-0.480041698986679,0.9994521854974454,0.0004557471090771002
-0.4799549723349628,-0.4799549723349628,0.9996217523808735,0.0004108808916726615
-0.47986555976895034,-0.47986555976895034,0.9995428267691301,0.00048207663521982114
-0.479808686641627,-0.479808686641627,0.99993950028122,0.0005052314956679134
-0.47974127981651693,-0.47974127981651693,0.9997827609024565,0.0004785337926945897
-0.4795876972315455,-0.4795876972315455,1.0007392582156627,0.0004390959544156991
-0.4794121344690211,-0.4794121344690211,0.9997478496516676,0.0004992151036516845
-0.4792770339474373,-0.4792770339474373,0.9998819065516665,0.0005573840700327001
-0.4791812393668806,-0.4791812393668806,1.0005976800540148,0.0004954628271771202
-0.47907814983846037,-0.47907814983846037,1.0002721506547843,0.0004534010443068276
-0.4789185868212371,-0.4789185868212371,0.9996896814980023,0.00045757139059934707
-0.4788790511935076,-0.4788790511935076,1.0000838157546066,0.0005005992611087047
-0.47876779100406563,-0.47876779100406563,1.000237362119107,0.0004544899389416398
-0.4786765629512956,-0.4786765629512956,0.999434301795375,0.0005184893086714272
-0.47861648838661497,-0.47861648838661497,0.9994941072692136,0.0004845121411435467
-0.4784317891950195,-0.4784317891950195,1.0005634603194704,0.00044973716696855624
-0.47831529348586627,-0.47831529348586627,0.9996420075355384,0.00046737347409035707
-0.4782038887606177,-0.4782038887606177,0.999861795185792,0.0005234941969884732
-0.4781156369295786,-0.4781156369295786,1.0003241957699327,0.0005176257882713675
-0.4780538627783244,-0.4780538627783244,0.9996794298836837,0.0004698523374765491
-0.4779630924444064,-0.4779630924444064,0.9998892923477621,0.0005923835405648463
-0.477832518967989,-0.477832518967989,1.0005639885805253,0.000512684079877785
-0.4777087404007034,-0.4777087404007034,1.0007673671860822,0.0004710863165471064
-0.47759679425507784,-0.47759679425507784,1.0004615255508258,0.0005091638044190939
-0.47746550559313616,-0.47746550559313616,1.000411855572699,0.00048176447165398613
-0.4773554774328659,-0.4773554774328659,1.0006158252938033,0.0005028681366367963
-0.47719101657785357,-0.47719101657785357,1.0003462740285662,0.0004941042827878405
-0.4770477529396885,-0.4770477529396885,1.0005748174120868,0.0004916601816987297
-0.4769102719259536,-0.4769102719259536,0.9996705697626151,0.00045182029713068656
-0.47679363197821656,-0.47679363197821656,1.0001188642972765,0.0005095946282914481
-0.47673797793177075,-0.47673797793177075,0.9998856635073297,0.000502990020456864
-0.476666793491313,-0.476666793491313,1.0001300877708998,0.0005612788215182231
-0.47656854988090347,-0.47656854988090347,1.0007880754650231,0.0005397129594390817
-0.4763896149626817,-0.4763896149626817,0.9996482678276953,0.00043854700289447845
-0.47628378718727615,-0.47628378718727615,0.9995831394506988,0.0005279777411812662
-0.47609559347365576,-0.47609559347365576,0.9999062655251443,0.0005346916903735419
-0.47597737128489825,-0.47597737128489825,1.0006008560796662,0.0005117011325804358
-0.47581797574275697,-0.47581797574275697,1.0000724416760352,0.0005137175762771
-0.4756642674212344,-0.4756642674212344,1.0008819680001735,0.0005312902399310613
-0.4755767301940068,-0.4755767301940068,1.0003490473983851,0.0005418203794751868
-0.47543566030435613,-0.47543566030435613,1.00044339355878,0.0004532488875103052
-0.47535023640448343,-0.47535023640448343,1.0002104570457016,0.0005070902900622848
-0.4752888250295655,-0.4752888250295655,1.0000939056084959,0.0005065449418454486
-0.475193586666137,-0.475193586666137,1.0004736283747133,0.0005131006288270042
-0.47510636945553414,-0.47510636945553414,0.9994519974771684,0.0004941267148475556
-0.47497111179400237,-0.47497111179400237,1.0003456943647988,0.0005363494518726096
-0.47487236394008503,-0.47487236394008503,1.0000600499354488,0.0005914539694722096
-0.47475596897202194,-0.47475596897202194,1.0000671248272108,0.0004981360313900111
-0.47463577254675327,-0.47463577254675327,1.000593703238521,0.0004954311984673947
-0.47446977952458835,-0.47446977952458835,1.0003219386841675,0.000532449042926936
-0.47428782900897204,-0.47428782900897204,0.9996775865551717,0.0004836084489415548
-0.4741733077717072,-0.4741733077717072,1.0007402350694374,0.0004851030715082364
-0.47407706547237466,-0.47407706547237466,0.9994247848397533,0.0004935347883776
-0.473960400850774,-0.473960400850774,1.0000898394471434,0.00045588472504547634
-0.4738907206010481,-0.4738907206010481,1.00071189580459,0.0005459899083399797
-0.47380038145711295,-0.47380038145711295,1.0003060959247392,0.00046039694681829007
-0.47366332593192056,-0.47366332593192056,0.9995346974743635,0.0004764054780840717
-0.4734874085548654,-0.4734874085548654,1.000538970848865,0.00046175318253054875
-0.4732706853763375,-0.4732706853763375,0.9995313636215197,0.0005215235401204863
-0.473124747555994,-0.473124747555994,1.000383728522569,0.0004879301647362439
-0.4730222994934593,-0.4730222994934593,1.0001025107559496,0.00043912525001356596
-0.47288799607849796,-0.47288799607849796,1.0002135985329148,0.00047209423451377304
-0.4727748803987197,-0.4727748803987197,0.9998179023916667,0.0004885822427850604
-0.4726545609781169,-0.4726545609781169,1.0005050028314524,0.00045580465975663564
-0.47254009431489974,-0.47254009431489974,1.000253884953405,0.0004683772327414656
-0.47245909117991686,-0.47245909117991686,0.999102152765742,0.0004749850988515328
-0.4724134602867707,-0.4724134602867707,0.9993879043655683,0.0004978208618529508
-0.47235846343901355,-0.47235846343901355,0.9998574676272771,0.0005116435096718617
-0.47227367364612294,-0.47227367364612294,1.0000777047579623,0.0004824288554198386
-0.4720768312792643,-0.4720768312792643,0.9996125561904794,0.0004749594121401554
-0.4719310096494155,-0.4719310096494155,1.0001673704097676,0.0004795410319385797
-0.47183073997075553,-0.47183073997075553,1.0000875826911737,0.000554872499824216
-0.47174869836089783,-0.47174869836089783,1.0003038239420214,0.000490321296840805
-0.47166406838514374,-0.47166406838514374,0.9997519170122766,0.00047842963244927134
-0.4715177009144099,-0.4715177009144099,0.9999601364528863,0.00042368372260994796
-0.4714049730973784,-0.4714049730973784,0.9995407080303045,0.00044447627241342165
-0.471309641879634,-0.471309641879634,1.0008275035973342,0.00042784319940400586
-0.4711901738177403,-0.4711901738177403,0.9996523994303421,0.0004840482312637837
-0.4710165483542369,-0.4710165483542369,0.9999546792883323,0.0004650385045585799
-0.47091302845474275,-0.47091302845474275,0.999907794416252,0.00047048101511498904
-0.4708179663924966,-0.4708179663924966,1.0005259235756732,0.000515805606353259
-0.4707391907038982,-0.4707391907038982,1.0001434205601387,0.0005003241509706696
-0.4706540235412831,-0.4706540235412831,1.000690376380756,0.000492942454093758
-0.4705480819044169,-0.4705480819044169,1.000166178344228,0.00052246750903861
-0.47042763312056196,-0.47042763312056196,1.000652051865988,0.0005373419633280713
