time,time,flux,flux_err
-0.4998614679510259,-0.4998614679510259,0.9999894673884709,7.561723561599322e-05
-0.499659169019651,-0.499659169019651,0.9999549516151948,7.489763587205831e-05
-0.49948151577276195,-0.49948151577276195,1.000084081050635,7.439763683560747e-05
-0.4992317332100356,-0.4992317332100356,0.9999502940370796,7.004462286021967e-05
-0.4990472088975366,-0.4990472088975366,1.000095975133036,7.176442820978549e-05
-0.4989475167727505,-0.4989475167727505,1.0000224580465737,6.806061521122026e-05
-0.49888467906203005,-0.49888467906203005,1.0000260782826513,6.901989197812229e-05
-0.4988185299873294,-0.4988185299873294,1.0000502442079282,6.84735641098398e-05
-0.49872708215843886,-0.49872708215843886,0.999971239141707,6.980227315063456e-05
-0.49863605489736074,-0.49863605489736074,1.000049603718765,6.657431972839967e-05
-0.49855344067982515,-0.49855344067982515,1.000055355170042,6.724642181969465e-05
-0.49845408406035857,-0.49845408406035857,0.9998982329355582,6.694960854306925e-05
-0.49835530592827126,-0.49835530592827126,1.0000418898175911,6.754550353241648e-05
-0.49814821034451595,-0.49814821034451595,1.0000842040822808,6.921203001649126e-05
-0.49801307431262104,-0.49801307431262104,0.9999444486675971,7.151352127334935e-05
-0.4979310692215222,-0.4979310692215222,1.0001403857036955,6.837405740692167e-05
-0.4978466468739498,-0.4978466468739498,0.9998637761786707,6.716844958617842e-05
-0.4977811664539331,-0.4977811664539331,1.000100022645027,6.930423979762043e-05
-0.49767563030181916,-0.49767563030181916,0.9999612340150691,6.952861881388292e-05
-0.4975200953507738,-0.4975200953507738,0.9999789627163402,6.806735249095087e-05
-0.497410010969179,-0.497410010969179,0.999944007488736,6.698446655847963e-05
-0.4973354011657648,-0.4973354011657648,0.9999370709200663,6.722106784604229e-05
-0.49717367523771827,-0.49717367523771827,1.0000021922275097,6.90861838506797e-05
-0.49700306884624296,-0.49700306884624296,1.0000085839508566,6.848159541552966e-05
-0.4968692012836982,-0.4968692012836982,0.9999684530026498,7.351377786659016e-05
-0.49675994558710956,-0.49675994558710956,0.9999851914442932,6.765933130968578e-05
-0.4966896084806649,-0.4966896084806649,0.9999894808994064,6.838720605561733e-05
-0.49657710239698644,-0.49657710239698644,1.0000488745170977,6.781750250154075e-05
-0.496459395216516,-0.496459395216516,1.0000686382406505,6.735879759176366e-05
-0.4962919345809496,-0.4962919345809496,0.9999556838034547,6.94002421327054e-05
-0.49618128678848733,-0.49618128678848733,1.0000939842874064,6.738354061742604e-05
-0.49607813583352256,-0.49607813583352256,0.9999703059898796,6.865968902466184e-05
-0.49589477408662785,-0.49589477408662785,0.9999309881563686,6.950338593385535e-05
-0.4957717467441398,-0.4957717467441398,1.000063358618825,6.773096985343869e-05
-0.49560867691834576,-0.49560867691834576,1.0000011726342954,6.761380621624023e-05
-0.495521676800854,-0.495521676800854,1.0000063612923629,6.748443672034468e-05
-0.4953725298822974,-0.4953725298822974,1.0000477178739775,6.707281243279329e-05
-0.49513216391642345,-0.49513216391642345,1.0000092373062812,6.943238285773568e-05
-0.4950268034866895,-0.4950268034866895,0.9999515271719697,7.15115473097113e-05
-0.4949325039757241,-0.4949325039757241,1.0000937930097287,6.705914434677199e-05
-0.4947773674262862,-0.4947773674262862,1.0000788886091814,6.739241554131812e-05
-0.49464005637491937,-0.49464005637491937,0.9998941978303721,7.065365907285795e-05
-0.49452265889412955,-0.49452265889412955,1.0000514797861828,6.941974908444956e-05
-0.4944393499848957,-0.4944393499848957,1.000233431885245,6.804056420759326e-05
-0.4943107076418528,-0.4943107076418528,0.9999752792969246,6.741180715461197e-05
-0.49411312141310193,-0.49411312141310193,1.0000348279897782,7.162617048194579e-05
-0.4939804623041709,-0.4939804623041709,1.0000126366816184,6.72133612285888e-05
-0.4938348406329169,-0.4938348406329169,1.0000122273106573,6.78419936865945e-05
-0.4937631993510877,-0.4937631993510877,1.000013387349774,6.713114321249626e-05
-0.4936795084977348,-0.4936795084977348,0.9998800676340318,6.944328548907924e-05
-0.49355771164264295,-0.49355771164264295,1.000063267253684,6.856478390737477e-05
-0.4933812125338591,-0.4933812125338591,1.0000408561212186,6.949863405681252e-05
-0.49312534060009056,-0.49312534060009056,0.9999350447826162,6.726061977413618e-05
-0.49295594046416225,-0.49295594046416225,0.9999714566708287,6.796191108657105e-05
-0.4928108685162442,-0.4928108685162442,1.0000039575306583,7.006895117018586e-05
-0.49266793384886115,-0.49266793384886115,1.0000236821093416,6.747605799365468e-05
-0.49256445131395593,-0.49256445131395593,0.9999608920115856,6.994471733076684e-05
-0.4924973127221165,-0.4924973127221165,1.0000383697453157,6.797972720077507e-05
-0.4924171442820807,-0.4924171442820807,0.9999427783658357,6.759085476868774e-05
-0.49229864629523945,-0.49229864629523945,1.0000432676818884,6.931287734195816e-05
-0.4921651575197757,-0.4921651575197757,0.9999475736426933,6.738520832290109e-05
-0.492023208863975,-0.492023208863975,1.0000255537675213,6.729128456512846e-05
-0.491922805440845,-0.491922805440845,1.000020085059112,6.743402844967878e-05
-0.4917844845003856,-0.4917844845003856,0.9999520893488185,6.990083301482816e-05
-0.4916548252404027,-0.4916548252404027,1.0000605583503843,6.87765939850831e-05
-0.4915360619495914,-0.4915360619495914,0.999968202525818,6.82206236081519e-05
-0.4914851671892393,-0.4914851671892393,0.999889781250614,6.79305342117627e-05
-0.49141472007977427,-0.49141472007977427,0.999907556542922,6.824545698200353e-05
-0.49135470885958055,-0.49135470885958055,1.0000211768208978,6.782810046778204e-05
-0.49127818127162753,-0.49127818127162753,1.0000313212036465,6.906600242171756e-05
-0.4911792506602069,-0.4911792506602069,1.0000084723759994,6.682037803888118e-05
-0.49104294248754743,-0.49104294248754743,1.000094204241521,6.73586206614604e-05
-0.4908198275472387,-0.4908198275472387,1.0000469631074094,6.87949834164955e-05
-0.49071774492622355,-0.49071774492622355,0.9999959905995744,6.902373608165233e-05
-0.49062561992177506,-0.49062561992177506,0.9998821110346571,6.974794007784216e-05
-0.4905075026101258,-0.4905075026101258,0.999949890302886,6.710126982921639e-05
-0.49040620425876114,-0.49040620425876114,0.9999878045088526,7.250111219970495e-05
-0.49025797672220506,-0.49025797672220506,0.9998626766628748,6.809710853510805e-05
-0.49014597079440136,-0.49014597079440136,0.999978347743092,6.787474157269119e-05
-0.49001761591134707,-0.49001761591134707,0.9999480947976729,6.662327900003724e-05
-0.489710824136273,-0.489710824136273,0.9999497248890549,6.715130535020768e-05
-0.48957911257166414,-0.48957911257166414,0.9999082811073446,6.94388059030954e-05
-0.48950071545041285,-0.48950071545041285,1.0000245456432804,6.776275927358412e-05
-0.48936943410226375,-0.48936943410226375,0.9999951457757824,6.668645080289351e-05
-0.48925580579525557,-0.48925580579525557,1.000043991446382,6.835157244032132e-05
-0.4890928568231175,-0.4890928568231175,1.0001216314434278,6.679611240661675e-05
-0.48898519450085587,-0.48898519450085587,1.0000316402931813,6.773793262492578e-05
-0.48878606881480663,-0.48878606881480663,1.0000054031979995,6.874957256900043e-05
-0.48862108142930083,-0.48862108142930083,1.000077412508676,6.81941002444047e-05
-0.4884976959438063,-0.4884976959438063,1.0000578851325312,7.002728598623686e-05
-0.48839680623059395,-0.48839680623059395,1.000042034406738,6.714710292210172e-05
-0.48826129005901747,-0.48826129005901747,1.0001400469506592,6.796056387417545e-05
-0.488174161256029,-0.488174161256029,1.0000528192893123,6.731958848642789e-05
-0.48804015902715037,-0.48804015902715037,0.9999888905973766,6.748573370653864e-05
-0.4878845115461445,-0.4878845115461445,0.9999687853263408,6.795196984923257e-05
-0.48773417546690323,-0.48773417546690323,1.0000876203234943,7.090960907133964e-05
-0.4875807564756542,-0.4875807564756542,1.0000097792787916,6.811528174936952e-05
-0.4874144342269574,-0.4874144342269574,0.9999245230881126,6.932147362289724e-05
-0.487253557380609,-0.487253557380609,0.9998911268802446,6.739220798549875e-05
-0.48716967401705913,-0.48716967401705913,1.000055416216731,6.965237557420862e-05
-0.4870583155716304,-0.4870583155716304,0.9999825379106951,6.740485914354145e-05
-0.48694731309151396,-0.48694731309151396,0.9999338240880282,6.749501418172531e-05
-0.48677650307217846,-0.48677650307217846,0.9999525354590307,7.101051466022015e-05
-0.48668281761638355,-0.48668281761638355,1.0001604653428824,6.808304673097429e-05
-0.48659422031851135,-0.48659422031851135,0.9999532406796952,6.651272577667706e-05
-0.48642765156546375,-0.48642765156546375,0.9999087245369995,6.949147369758664e-05
-0.48634912078414344,-0.48634912078414344,1.0000488096077644,7.124148586115065e-05
-0.48628193670811015,-0.48628193670811015,0.9999689419388972,6.792349558139652e-05
-0.48614984913219816,-0.48614984913219816,0.9999768316975391,6.976023366556254e-05
-0.4860233651968883,-0.4860233651968883,1.0001401973139097,6.791744689225573e-05
-0.48588091533383704,-0.48588091533383704,0.9999869759278386,6.761094813579345e-05
-0.4856939228178817,-0.4856939228178817,1.0000631920849021,6.857539400331297e-05
-0.4854800488268666,-0.4854800488268666,1.0000057087609453,6.963219781160862e-05
-0.48533791556037614,-0.48533791556037614,1.0000878017084194,6.995227290269171e-05
-0.48525650263109127,-0.48525650263109127,0.9999446549034369,6.950037344541802e-05
-0.48519684771454197,-0.48519684771454197,0.9999254730692904,6.742451275095618e-05
-0.48514571443520255,-0.48514571443520255,1.0000172886972842,6.909200351531705e-05
-0.4850828449292749,-0.4850828449292749,0.9999146254718407,6.797963407347541e-05
-0.4849461018318834,-0.4849461018318834,0.9999792427140877,7.004147024419519e-05
-0.4848541192361154,-0.4848541192361154,1.0000242614425159,6.687597972447147e-05
-0.48472243511059787,-0.48472243511059787,1.0000580657092237,6.75091762988746e-05
-0.4845855501436745,-0.4845855501436745,1.000001297501365,6.69526199077603e-05
-0.48439106380101293,-0.48439106380101293,1.0000153935477667,6.967879228435477e-05
-0.4842915147113672,-0.4842915147113672,1.0000009762244821,7.132179107588875e-05
-0.48419613510632187,-0.48419613510632187,0.9998767754395466,6.76560097186057e-05
-0.48413748461098294,-0.48413748461098294,1.0000086719971801,6.701560450961367e-05
-0.4840655534506368,-0.4840655534506368,1.0000212740752372,6.814505018426631e-05
-0.4839840837899828,-0.4839840837899828,1.0000169870913225,6.993566763532402e-05
-0.48384714087515024,-0.48384714087515024,1.0000622544857078,6.793826419540362e-05
-0.4837101983561297,-0.4837101983561297,1.0000336964415888,6.781680932799956e-05
-0.4836239099990053,-0.4836239099990053,0.9999753584739086,6.743212670467862e-05
-0.4835391044689459,-0.4835391044689459,0.9999291772375033,6.742326304281684e-05
-0.48332297671440755,-0.48332297671440755,1.0000617338038507,7.001994938502902e-05
-0.48322526078700323,-0.48322526078700323,0.9999685807134437,6.925050912672605e-05
-0.4830863493050856,-0.4830863493050856,1.0000268817906117,6.973861084705934e-05
-0.48300945450610017,-0.48300945450610017,0.9999386351039675,6.761834559293735e-05
-0.4829414987601922,-0.4829414987601922,0.9999246724017283,6.840313557327585e-05
-0.48282946285253275,-0.48282946285253275,1.0000048906708572,6.703409948940583e-05
-0.4827158416512248,-0.4827158416512248,0.9999681288911159,6.783038520938534e-05
-0.4825231479582726,-0.4825231479582726,0.9998334611364644,6.730228521974358e-05
-0.4823865915102942,-0.4823865915102942,0.9999823188115802,6.972707403748059e-05
-0.48224130923990743,-0.48224130923990743,1.0000778908665215,6.84523366357654e-05
-0.48209203775622883,-0.48209203775622883,1.000084252190404,6.759418626059011e-05
-0.4819368220945762,-0.4819368220945762,1.0000444872151495,6.799273912690036e-05
-0.4818445206641627,-0.4818445206641627,1.000069752122236,6.76146236530358e-05
-0.48178783526818736,-0.48178783526818736,1.0001055341248761,6.751552372262884e-05
-0.48154644721143997,-0.48154644721143997,1.000159508846998,6.740970409361824e-05
-0.48137338122032813,-0.48137338122032813,0.9999423090068085,7.146377206202238e-05
-0.481249853506597,-0.481249853506597,0.9998928281426085,6.625130952820985e-05
-0.4811767674014845,-0.4811767674014845,0.9998967498121842,6.74764218347805e-05
-0.48098541159852176,-0.48098541159852176,0.999911530522305,6.783629757476486e-05
-0.48089778924040727,-0.48089778924040727,1.000095553387269,6.949396037597461e-05
-0.48077644604127273,-0.48077644604127273,0.9999590845016456,6.763438268159766e-05
-0.4806988618649484,-0.4806988618649484,0.999943834748569,6.715433359891095e-05
-0.4805001310654916,-0.4805001310654916,0.9999971055340025,6.98561034653195e-05
-0.4803190682614513,-0.4803190682614513,1.0000383647777282,6.924943946569928e-05
-0.48012571257786474,-0.48012571257786474,1.0000051633506917,6.692994920814182e-05
-0.4800247722494532,-0.4800247722494532,0.9999371860355261,6.901224018818561e-05
-0.4799101505435829,-0.4799101505435829,1.0000874319706567,6.795059283751974e-05
-0.47982659424669694,-0.47982659424669694,1.0000051634496394,6.809217613069085e-05
-0.47970399792757235,-0.47970399792757235,0.9999838276410247,6.985655525206648e-05
-0.47946765728556784,-0.47946765728556784,0.9999546862403694,6.71578630998649e-05
-0.47932119441684334,-0.47932119441684334,1.000061116006607,6.724441389759894e-05
-0.47914121000867455,-0.47914121000867455,1.0000204221010403,7.063909982691965e-05
-0.4790449162799632,-0.4790449162799632,0.9999057812684271,6.709650527694355e-05
-0.47890001652631325,-0.47890001652631325,0.9999243603879655,6.77353551068432e-05
-0.47879986555708454,-0.47879986555708454,0.9999881297039039,6.951610753530643e-05
-0.47874472736148166,-0.47874472736148166,0.9998994177115664,6.835121305106053e-05
-0.47863768741008245,-0.47863768741008245,0.9998625197856912,6.708044366556658e-05
-0.4785152574673702,-0.4785152574673702,1.0000274622403789,6.970332593805371e-05
-0.4782929333792708,-0.4782929333792708,0.9999893498963282,6.770994488575467e-05
-0.478146948403446,-0.478146948403446,1.0000441227267476,6.967653324198652e-05
-0.4780108652157651,-0.4780108652157651,0.999864009896894,6.776258331549475e-05
-0.4779177970456658,-0.4779177970456658,1.0000249743139067,7.01930217685144e-05
-0.47782181301226956,-0.47782181301226956,1.0000100308265474,6.970263759794965e-05
-0.47776467732473976,-0.47776467732473976,1.000054142992344,6.827903237969697e-05
-0.4777008511155145,-0.4777008511155145,1.0000736797085075,6.834644215677837e-05
-0.4776433837716468,-0.4776433837716468,0.9999888303837665,6.746014520255439e-05
-0.4775854650826659,-0.4775854650826659,1.000024441274056,6.933607506086887e-05
-0.4774913412569731,-0.4774913412569731,1.0000726147889014,6.760124449811178e-05
-0.47739556411106604,-0.47739556411106604,1.0000315476842068,6.726966149493078e-05
-0.47722809753831824,-0.47722809753831824,0.999930686610959,6.677393970328393e-05
-0.47703768624705845,-0.47703768624705845,0.9999717083078838,6.940153427905464e-05
-0.47692808797146424,-0.47692808797146424,1.0000318352255118,7.180284173751748e-05
-0.4768137744445994,-0.4768137744445994,0.999976277052084,6.735348621036272e-05
-0.47672565329994543,-0.47672565329994543,0.9999457449843735,6.810515489289126e-05
-0.4765895703334536,-0.4765895703334536,1.0000785234052407,6.797622631198997e-05
-0.47643123179659597,-0.47643123179659597,0.9999686832297524,6.764106449925282e-05
-0.4763675770147529,-0.4763675770147529,1.0000145645557887,6.74390958909596e-05
-0.4760229917803372,-0.4760229917803372,1.0000065317853477,6.697197521032408e-05
-0.4758865320269251,-0.4758865320269251,1.000025894706741,7.012605637497886e-05
-0.47580338975749326,-0.47580338975749326,1.0000280494658074,6.712610832225272e-05
-0.47568761263319176,-0.47568761263319176,0.999989022071644,6.68802736827565e-05
-0.4756086861016229,-0.4756086861016229,1.0000548871747796,6.774513763539815e-05
-0.4754797466637683,-0.4754797466637683,1.0000450035369062,6.80435365823323e-05
-0.4753544286621036,-0.4753544286621036,1.000084692482687,6.718065977271291e-05
-0.47521202994466877,-0.47521202994466877,0.999971534125107,6.743950859702501e-05
-0.47506560431429534,-0.47506560431429534,0.9999049628994232,6.896858162752608e-05
-0.47489265456606516,-0.47489265456606516,1.0000907770185838,6.846269343363734e-05
-0.47479281622509006,-0.47479281622509006,0.9999237737146955,7.01110767108165e-05
-0.47466841157729506,-0.47466841157729506,1.000048994799216,6.705879899982145e-05
-0.4745346934214467,-0.4745346934214467,0.9999469169177096,6.805851076842119e-05
-0.4744307390436006,-0.4744307390436006,1.0000418421216288,6.724669270672996e-05
-0.47425050096135235,-0.47425050096135235,0.9999969064629578,6.7591777306402e-05
-0.474071707179246,-0.474071707179246,1.0000010034947149,6.750056339424207e-05
-0.4739893534591829,-0.4739893534591829,0.9999738448761779,7.137439717759794e-05
-0.4738185839916696,-0.4738185839916696,0.9999461338767818,6.840983700107422e-05
-0.47369046971653006,-0.47369046971653006,0.9999517296900707,6.920346473757397e-05
-0.47356130537591523,-0.47356130537591523,0.9999789738490529,6.77264552875091e-05
-0.4734637909612502,-0.4734637909612502,0.9999040498348274,7.019366926177634e-05
-0.473360338871862,-0.473360338871862,1.0000389806782057,6.740257507123936e-05
-0.4731801421410637,-0.4731801421410637,1.000078903346615,6.960274540035452e-05
-0.47302295864501503,-0.47302295864501503,1.0000236946582794,6.918354073602873e-05
-0.4729235409271496,-0.4729235409271496,1.0000088694123457,6.751642308729317e-05
-0.47280023432540474,-0.47280023432540474,0.9999816401456701,6.916847175255553e-05
-0.4726592735183658,-0.4726592735183658,1.0000287682134186,7.048903749320787e-05
-0.47258942398621,-0.47258942398621,0.9999228916979984,6.862155950294179e-05
-0.4724896572486614,-0.4724896572486614,1.000108015762844,6.928582951243767e-05
-0.4723811720425147,-0.4723811720425147,0.999946847086175,6.744037368846043e-05
-0.47229036367352817,-0.47229036367352817,1.00010386843328,6.805102086418767e-05
-0.47215680183871883,-0.47215680183871883,0.9999922974504344,6.719807312240935e-05
-0.4719412592770823,-0.4719412592770823,1.0001937833712027,6.849484877110388e-05
-0.47161815161380216,-0.47161815161380216,1.000116146433959,7.16883695706783e-05
-0.47149580416516984,-0.47149580416516984,1.0000086999723967,6.810943591305552e-05
-0.47143042362731646,-0.47143042362731646,1.0000428473814935,6.96670873908217e-05
-0.4713824452854169,-0.4713824452854169,0.999926338055672,6.796255625067223e-05
-0.4712890648879693,-0.4712890648879693,1.0000045653746366,6.765553337638645e-05
-0.47118517879935096,-0.47118517879935096,0.999962559733933,6.938567856371624e-05
-0.4710272838245146,-0.4710272838245146,1.0000254514038351,6.722323124164353e-05
-0.47091937732548106,-0.47091937732548106,1.0000425204042056,6.790681318239033e-05
-0.47066363013072987,-0.47066363013072987,1.0001029298556519,6.967897974672936e-05
-0.4705657958023949,-0.4705657958023949,0.9998899614166874,7.179597144679227e-05
-0.470488704109448,-0.470488704109448,1.000032728307854,6.767167012128726e-05
-0.47042383944717586,-0.47042383944717586,1.0002076564315616,6.730730853252253e-05
-0.4703438146636472,-0.4703438146636472,0.9999172697591646,6.856833556346818e-05
-0.4702471132710343,-0.4702471132710343,1.0000050539436784,6.90997046200291e-05
-0.47012036791929857,-0.47012036791929857,0.999996411489424,6.793765095006728e-05
-0.4699955641168344,-0.4699955641168344,0.9999762353652606,6.759688917609676e-05
-0.46987527800811224,-0.46987527800811224,0.9999867069968253,6.696813719749977e-05
-0.46976742068873134,-0.46976742068873134,0.9999067174910342,6.71652727369006e-05
-0.46956880925936273,-0.46956880925936273,1.0000015073527422,7.217543782290177e-05
-0.46946682591224087,-0.46946682591224087,1.000189202957629,6.957458051782891e-05
-0.4693285950103018,-0.4693285950103018,1.0000012913629608,6.798553789506708e-05
-0.46925996342979487,-0.46925996342979487,0.9998930039583696,6.7350047590502e-05
-0.4691803829889977,-0.4691803829889977,1.0001598279462427,6.78083056697479e-05
