time,time,flux,flux_err
-0.49991138997756934,-0.49991138997756934,1.0001546515506232,0.00018246003915794326
-0.4997763925439358,-0.4997763925439358,0.9999389873992627,0.00019167569246589223
-0.4995579876061432,-0.4995579876061432,0.9999372217860768,0.0001723965985282355
-0.4993915317433372,-0.4993915317433372,0.999620856694125,0.0001803069907645287
-0.49927490088521154,-0.49927490088521154,0.9997659193022164,0.00016326400031321068
-0.4992157398330164,-0.4992157398330164,1.000022696091661,0.00016407234769573104
-0.4991703695624892,-0.4991703695624892,1.0000091695310356,0.00016652633127684592
-0.4990768730654963,-0.4990768730654963,0.9999228801877882,0.00016488175255200552
-0.49896356612298404,-0.49896356612298404,0.9998633564727433,0.0001606551737890883
-0.49879310200703914,-0.49879310200703914,0.9999608451248744,0.00017103242723978367
-0.4986262956233986,-0.4986262956233986,1.0000639274850214,0.00016436074280087623
-0.49856149683182593,-0.49856149683182593,1.0001989971948286,0.00016241751620844956
-0.49843644953507465,-0.49843644953507465,0.9998758295265908,0.00015313151579940068
-0.4983256404782878,-0.4983256404782878,0.9999149057298016,0.00016922092007696436
-0.4982035150824231,-0.4982035150824231,0.9998442364932798,0.00016528191851914017
-0.4979851215161034,-0.4979851215161034,1.0000258336013756,0.00016539751975540355
-0.4978306635362969,-0.4978306635362969,0.9997635470373499,0.00016934497524615693
-0.49775811990111835,-0.49775811990111835,0.9998746676948695,0.000168431704413864
-0.49766339104098734,-0.49766339104098734,0.9999938830857722,0.00016124376837051304
-0.49751693123107543,-0.49751693123107543,0.9999776187800091,0.00017129797520819403
-0.49744736764259867,-0.49744736764259867,0.9997856699000167,0.00016424773739023022
-0.49733154094137716,-0.49733154094137716,1.000086877896931,0.00016512806400571187
-0.4971397751607583,-0.4971397751607583,1.00016688651935,0.0001660778223834894
-0.49706450955272885,-0.49706450955272885,0.9999120673794479,0.00016307782132526038
-0.4969031856802758,-0.4969031856802758,0.9997833577869415,0.00015961826460813238
-0.4968052016622096,-0.4968052016622096,0.9999112471114808,0.00017564624661394146
-0.49664341914685795,-0.49664341914685795,1.0002725193449584,0.00015885022852861
-0.4964500743953977,-0.4964500743953977,0.9999789640879483,0.000164529755960448
-0.49627263272413985,-0.49627263272413985,1.0002560848916637,0.00015877861142999294
-0.49615915208632944,-0.49615915208632944,1.0002441905130444,0.0001629716469087865
-0.4959543131350074,-0.4959543131350074,0.9999144378222677,0.00016051545290393182
-0.4958140998336603,-0.4958140998336603,1.000136681762546,0.0001627448564895286
-0.4956634995134664,-0.4956634995134664,1.0000546221886073,0.0001591471329009085
-0.49558560796576784,-0.49558560796576784,0.9998614125689229,0.00016753996625671605
-0.49536491799735816,-0.49536491799735816,0.9999605005207768,0.00017291838091270856
-0.4952426341085811,-0.4952426341085811,0.9999937557689187,0.00016120579624970483
-0.49508988188463265,-0.49508988188463265,0.9997989714202913,0.00016117407914418503
-0.4949509882128041,-0.4949509882128041,0.9999241584780266,0.0001502459627236169
-0.4948364155206946,-0.4948364155206946,1.000310457790808,0.00016388893314722995
-0.49471331020104115,-0.49471331020104115,0.9999190911882904,0.00015936695768491274
-0.49458967136815774,-0.49458967136815774,0.9998974574426386,0.0001737731618662107
-0.49443922745631425,-0.49443922745631425,1.0000447914403696,0.00016730189993075298
-0.494235385889624,-0.494235385889624,1.0002359732685484,0.00015799089273956996
-0.4941524080168165,-0.4941524080168165,0.9998270428858959,0.00016679237489210084
-0.49407145297227545,-0.49407145297227545,0.9998312340046756,0.0001567842063617442
-0.49389304947617346,-0.49389304947617346,1.0000497419836143,0.0001678059735966101
-0.4937420111753454,-0.4937420111753454,0.9999961693202035,0.00016395142343660386
-0.493599564764736,-0.493599564764736,0.9997398410129495,0.00016412784009501422
-0.4934551407197432,-0.4934551407197432,0.9999921625505213,0.00015876858510117307
-0.4933497025369434,-0.4933497025369434,1.0001688574245184,0.00016474588914368332
-0.4932201610521588,-0.4932201610521588,0.9999917008397865,0.00015911260090246043
-0.4930987388375797,-0.4930987388375797,0.9998677300285042,0.00016132019973185248
-0.4930098483491747,-0.4930098483491747,1.0001915836671667,0.00016689343995444727
-0.4929451632255223,-0.4929451632255223,0.9998522275136812,0.0001600585017921797
-0.492770815626136,-0.492770815626136,1.0000537374391405,0.00016552783898978986
-0.492675031091494,-0.492675031091494,0.9997690610673313,0.00015394207601796345
-0.49250288586626995,-0.49250288586626995,1.0000369714950499,0.0001623045378497629
-0.4923498940901482,-0.4923498940901482,1.0000503279575415,0.000175809999140405
-0.49220947902213086,-0.49220947902213086,0.9999657180566338,0.00016198468464316928
-0.4921319559674885,-0.4921319559674885,0.9999520544699377,0.00016523270709375564
-0.49200550034147456,-0.49200550034147456,1.0002203987549716,0.00016618775994719582
-0.4918734269827837,-0.4918734269827837,0.9998837616261828,0.00015259998568888466
-0.4917835675107199,-0.4917835675107199,0.9999335067437988,0.00016363290300029965
-0.491669968397764,-0.491669968397764,0.9997762881078074,0.00016173905020154712
-0.4915007490097196,-0.4915007490097196,1.000070313709641,0.0001694262783365277
-0.49135532847067226,-0.49135532847067226,1.0002995034915956,0.00015710311763241468
-0.4912253743343172,-0.4912253743343172,0.9997936711622397,0.0001636482488373354
-0.49111617366143034,-0.49111617366143034,0.9998674968767656,0.00015727200960879894
-0.49100629503591336,-0.49100629503591336,0.9999504994046579,0.00016605767286546473
-0.4908701034953992,-0.4908701034953992,1.0002980962385102,0.00016195788471412518
-0.49072632721727133,-0.49072632721727133,0.9999264075200843,0.00016846428185364758
-0.49062511490265026,-0.49062511490265026,0.9997925807981239,0.00017704527587339173
-0.49049870939415996,-0.49049870939415996,1.000243670664203,0.00017027827457243166
-0.4903531992313219,-0.4903531992313219,0.9999397907645131,0.00016329832812115742
-0.4902850480495545,-0.4902850480495545,1.0001395963369712,0.00016863463594035547
-0.4901894833616097,-0.4901894833616097,0.9999316683597635,0.00016002824939724173
-0.4900624303147197,-0.4900624303147197,0.9997160984692904,0.00016830999359704064
-0.48996599263628016,-0.48996599263628016,1.0000202575330241,0.00016076062627829252
-0.4898212592052005,-0.4898212592052005,1.0000247750194227,0.0001680673218771593
-0.4897313652392768,-0.4897313652392768,0.999923073443207,0.00015614400638564805
-0.4895873978806776,-0.4895873978806776,1.0000393087142392,0.00016483642988202968
-0.4894941921324062,-0.4894941921324062,1.0005036486983199,0.00016826488881436981
-0.4893543968508311,-0.4893543968508311,0.9998218152393765,0.00016215434214414013
-0.4891749936643464,-0.4891749936643464,0.9998826966181399,0.00017027444636816264
-0.48902781273282014,-0.48902781273282014,1.0001078905486032,0.00016750731213046913
-0.48892650097477597,-0.48892650097477597,0.9998180547615441,0.00016100149978923894
-0.4887405530047545,-0.4887405530047545,1.0001807357721355,0.00016543378473847707
-0.4886056943119911,-0.4886056943119911,0.9999670535785077,0.00015956772586028296
-0.48851674882607765,-0.48851674882607765,0.9998556437657445,0.00016244098053975488
-0.48840973586266045,-0.48840973586266045,0.9999186563565606,0.00016753606969094667
-0.48834729316731684,-0.48834729316731684,0.9999775639320632,0.00015692275906073434
-0.48822523723356426,-0.48822523723356426,1.0000327501214064,0.00015508384055631816
-0.4881167205683596,-0.4881167205683596,0.9999989921133846,0.00017451750408212626
-0.4879656876379158,-0.4879656876379158,1.0000829592504008,0.00017336202404249639
-0.4878182144420862,-0.4878182144420862,1.0002368429943826,0.00016537425060792176
-0.487682794072316,-0.487682794072316,1.0000871933134174,0.00017233814382420544
-0.48756579008550033,-0.48756579008550033,1.0001221017405282,0.00016556748558463824
-0.48746943106525575,-0.48746943106525575,0.9999388410465752,0.0001582254137365223
-0.48733822042340763,-0.48733822042340763,0.9998369402794871,0.00016735501341607546
-0.48719895926551543,-0.48719895926551543,1.0001937495144229,0.00016488045846348986
-0.4870730963557435,-0.4870730963557435,1.0000176621094221,0.00016404578588605193
-0.48702384694770445,-0.48702384694770445,1.000130301650551,0.000170700184904346
-0.4869110888197611,-0.4869110888197611,0.9998697789556505,0.00016906214150440733
-0.4867575177857361,-0.4867575177857361,1.0000221784222367,0.0001610344837757916
-0.48663457284346806,-0.48663457284346806,0.9999796613541928,0.00016738521804444498
-0.4865664985503827,-0.4865664985503827,0.9999729974291037,0.00016818022786874222
-0.4863406972013763,-0.4863406972013763,1.000024775188472,0.00016230606612210717
-0.48618921932575176,-0.48618921932575176,1.0002254372293433,0.00017602149519839493
-0.48603232042732997,-0.48603232042732997,1.0001709636251093,0.00016220845481956594
-0.48595435378156254,-0.48595435378156254,0.9999549419893855,0.00016087387668648804
-0.48590599577801186,-0.48590599577801186,0.999975103980967,0.00015800021606227516
-0.4858264291062369,-0.4858264291062369,0.9999986793409665,0.0001574237070341854
-0.4856782331647992,-0.4856782331647992,0.9998587669685428,0.00017019434345686698
-0.4855659833410755,-0.4855659833410755,0.9999515528031064,0.00017145523590116472
-0.48551096354494805,-0.48551096354494805,0.9999410644063262,0.0001623902412804178
-0.48536400866141777,-0.48536400866141777,0.9997708836649611,0.00016921930630320052
-0.48520455659381695,-0.48520455659381695,0.9999122768377408,0.0001630242026476478
-0.4850843469852407,-0.4850843469852407,1.0000524608319903,0.0001693758753486315
-0.4849510324456787,-0.4849510324456787,1.0001782183637549,0.00016661019191814466
-0.484740360736032,-0.484740360736032,1.0000893541495548,0.00016880398968943975
-0.4845692511858942,-0.4845692511858942,0.9999584087595309,0.00016447003594585472
-0.4844542505888967,-0.4844542505888967,1.0000800376060226,0.00015931839614650992
-0.4843731092696544,-0.4843731092696544,0.9999321257728526,0.00015449093145883033
-0.48423360550295913,-0.48423360550295913,0.9998510055333947,0.0001710077098284804
-0.4841174956840405,-0.4841174956840405,0.99979976810894,0.00016441913377374296
-0.48404428431313135,-0.48404428431313135,0.9998069787345736,0.00016550609331768444
-0.48397881126002174,-0.48397881126002174,0.9999770572366409,0.00016934480973085098
-0.4837805066315923,-0.4837805066315923,0.9998549982004997,0.00016431714371117483
-0.4836762970597192,-0.4836762970597192,1.0001405821391587,0.00017006234283254185
-0.4835623772654799,-0.4835623772654799,1.0002506635532367,0.00016286350189726622
-0.4833438546011166,-0.4833438546011166,0.9999928412815663,0.00017654148245295929
-0.48318445079858063,-0.48318445079858063,1.0000328014607818,0.0001665587401617742
-0.4830862964350672,-0.4830862964350672,1.000229551292834,0.00016729750639120656
-0.482944742552354,-0.482944742552354,0.9999931439580398,0.00016649737396126304
-0.48285217151496906,-0.48285217151496906,1.0000268180101333,0.00015324469428245105
-0.4827401591508533,-0.4827401591508533,0.9998749582339084,0.00016760862385008736
-0.48262281211136726,-0.48262281211136726,0.9997872158488024,0.00016415302944169547
-0.48254639470324034,-0.48254639470324034,1.0000379545887488,0.00017074405202701422
-0.4824006193543028,-0.4824006193543028,0.9999797307466842,0.00016451272694170476
-0.4822581169384648,-0.4822581169384648,1.0001089524554343,0.00016160581332497892
-0.48218341885803967,-0.48218341885803967,0.9998839549322025,0.0001743125099884079
-0.4820683922363969,-0.4820683922363969,1.000087201075043,0.00016228375197074153
-0.48196582239033886,-0.48196582239033886,1.0000857579041174,0.00017039516763587247
-0.48172900162098814,-0.48172900162098814,0.9999627584852879,0.00016384374029962886
-0.48166417443935644,-0.48166417443935644,1.0000147142825608,0.00016372523425758835
-0.4815406921552494,-0.4815406921552494,1.0000732752969947,0.0001594703546947839
-0.4814496316103032,-0.4814496316103032,1.000108812611444,0.00016533021498724233
-0.48134791654665604,-0.48134791654665604,0.9999754560223533,0.00016396227250061485
-0.48121809344011124,-0.48121809344011124,0.9999644785868036,0.00016130392686368548
-0.4811318192165345,-0.4811318192165345,0.9999611515195145,0.00016303138139674617
-0.481033594100154,-0.481033594100154,1.0001888799502108,0.00016929158677580998
-0.48086761442682474,-0.48086761442682474,0.999856173912525,0.00016727653516566987
-0.4807755102527153,-0.4807755102527153,1.0001020842789283,0.00016093030722904328
-0.4806794332114805,-0.4806794332114805,0.9999447008623437,0.00016772431143429164
-0.48054540350640307,-0.48054540350640307,0.9997561269127532,0.00015815161677344252
-0.4804074579522421,-0.4804074579522421,0.999986718369334,0.00016223909206615708
-0.4802052798666409,-0.4802052798666409,1.0001158572100226,0.0001654966703912193
-0.48011648539322777,-0.48011648539322777,1.0000242268703765,0.00016014628349609686
-0.4799864721113408,-0.4799864721113408,1.000212532380316,0.00016384162976288455
-0.47987653027594207,-0.47987653027594207,1.0000213448601802,0.00016369025133464887
-0.4797400794486748,-0.4797400794486748,0.9999151818927812,0.0001620178493395091
-0.47967953547122305,-0.47967953547122305,1.0000648956549554,0.0001664413371054722
-0.4795331920940953,-0.4795331920940953,0.99997865556926,0.00016594107763040302
-0.47942030068006714,-0.47942030068006714,1.000108465960699,0.00016684299644850108
-0.47927726452689967,-0.47927726452689967,1.000116664330276,0.00017259565597586865
-0.47916777991194975,-0.47916777991194975,1.0003290177769064,0.00016732898134977126
-0.47906148076290267,-0.47906148076290267,0.9998086567233953,0.00015360684195128967
-0.4789152184705017,-0.4789152184705017,1.0001979613028593,0.00016766447395603516
-0.4787573570407403,-0.4787573570407403,1.000149848277891,0.00016469073011029297
-0.47865354961322737,-0.47865354961322737,1.0001289354870893,0.00015882299039846444
-0.47852467409466043,-0.47852467409466043,1.00012072515131,0.00015999975447672537
-0.47836858558730455,-0.47836858558730455,0.9999153146900449,0.00015895109542210062
-0.4782715508976253,-0.4782715508976253,0.9999224929857672,0.00016206416654005032
-0.47816665640566497,-0.47816665640566497,1.0003181524425961,0.00016786408535711573
-0.4779965051522595,-0.4779965051522595,0.99993619755035,0.0001641704740412109
-0.47789032801811115,-0.47789032801811115,0.9998222388285459,0.00017292286776900495
-0.47777444034072686,-0.47777444034072686,1.0000502517712733,0.00017423345854902604
-0.4776158890737861,-0.4776158890737861,1.000036952420508,0.00015835112999524074
-0.47754073765245264,-0.47754073765245264,0.9998981320883196,0.0001503255425506561
-0.4774851260910509,-0.4774851260910509,0.9998635174224297,0.00016938026342706972
-0.4773464350007998,-0.4773464350007998,0.9998302263192377,0.0001520131916747119
-0.4771717070543673,-0.4771717070543673,0.9998162964631476,0.00016592999037289658
-0.47709485960949677,-0.47709485960949677,1.0002193210748742,0.00015285014493638288
-0.47694552137254503,-0.47694552137254503,0.9999128165758078,0.00017109434731509116
-0.4768440108389768,-0.4768440108389768,0.9997439324504883,0.00016049218745499313
-0.4767942802165635,-0.4767942802165635,1.0000812340152332,0.00016372403116463415
-0.4766775009527919,-0.4766775009527919,1.000048498225824,0.00016568041610594262
-0.47653080417512683,-0.47653080417512683,1.0000144265192497,0.0001675710911125357
-0.47638339957484277,-0.47638339957484277,0.9997492896729169,0.00016329964423500478
-0.47630457263003334,-0.47630457263003334,0.9999417573636687,0.00016537726323510542
-0.4761995699853287,-0.4761995699853287,1.0000973444646182,0.00017448462255531815
-0.47600321268328116,-0.47600321268328116,0.9997722795450834,0.00016984804486791576
-0.4759456046493142,-0.4759456046493142,1.0001059923144413,0.00015272373334590265
-0.4757910133055702,-0.4757910133055702,0.9998910132052548,0.00014981873264428418
-0.4756470753178291,-0.4756470753178291,1.0002908302549065,0.00016602814751712013
-0.47555917788413354,-0.47555917788413354,0.9997624268121633,0.00016002892163727523
-0.47546538917085857,-0.47546538917085857,1.00007941100543,0.00015799066396766958
-0.4753378014509508,-0.4753378014509508,0.9996882190688787,0.00017007715415546273
-0.4751766546338331,-0.4751766546338331,0.9999976751784707,0.0001535489472619074
-0.4750217113636609,-0.4750217113636609,0.9998317665625857,0.0001724798073557503
-0.474912529206631,-0.474912529206631,1.0002651058685923,0.00016645472118735703
-0.4748059870238649,-0.4748059870238649,1.0001646757584308,0.00016180042997140066
-0.4747298955480801,-0.4747298955480801,0.9997938103238055,0.00017652462946269256
-0.4745669423318759,-0.4745669423318759,1.0002080669398692,0.00017199508035948435
-0.4744777928273834,-0.4744777928273834,0.9998932448155792,0.0001518392170086151
-0.4743694913748186,-0.4743694913748186,0.9999605412275668,0.00015235837428087586
-0.47422354377704323,-0.47422354377704323,1.0000339081454837,0.00016994625326930362
-0.4740753968071658,-0.4740753968071658,0.9998817835791414,0.00016797211831441896
-0.47399629214196465,-0.47399629214196465,1.0001432314971872,0.00016749765329959954
-0.47385621987632476,-0.47385621987632476,1.0000314861652506,0.0001643063218577995
-0.4737116964803135,-0.4737116964803135,0.9998874508984066,0.00015592402872169065
-0.47359822742582763,-0.47359822742582763,1.0000848415814396,0.0001589882944512566
-0.4735210124963487,-0.4735210124963487,1.0000965587617672,0.00016203492587382257
-0.47338643381444856,-0.47338643381444856,0.9999285392427281,0.00016213093262073159
-0.4732744931570778,-0.4732744931570778,1.0000270472678028,0.00016117392628980524
-0.4731671487104904,-0.4731671487104904,1.0001770316952858,0.0001711845929458657
-0.4730204484461865,-0.4730204484461865,0.9997384748905604,0.00017261929453722636
-0.47293018179407226,-0.47293018179407226,1.0000111853754174,0.00015331392141396547
-0.47276095748820807,-0.47276095748820807,0.9999558463219433,0.00016415116899616528
-0.47265625768923203,-0.47265625768923203,0.9999420664188543,0.0001729859293603518
-0.47253920948060113,-0.47253920948060113,1.0000595444478744,0.00015742436901552105
-0.47242858546815114,-0.47242858546815114,0.9999791515023366,0.00016215180488930267
-0.4723160915324115,-0.4723160915324115,0.9998924823308435,0.00018351005018055666
-0.47214546549148506,-0.47214546549148506,0.99964504131491,0.0001635163560389566
-0.4720490480431181,-0.4720490480431181,0.999872039580001,0.0001627613505719425
-0.4719751871860353,-0.4719751871860353,1.0003331315762303,0.00016922646095383673
-0.4719170156196924,-0.4719170156196924,1.0001043250700712,0.00016288944790938484
-0.47177035332715606,-0.47177035332715606,1.000275585090213,0.00017059063602005146
-0.4716606702757417,-0.4716606702757417,1.0000482638045107,0.0001720794190704919
-0.4715638801513705,-0.4715638801513705,0.9999571466837862,0.00017403869070407862
-0.47145300507181676,-0.47145300507181676,0.9996910598568671,0.00015733455983688464
-0.47125984984304525,-0.47125984984304525,1.0000123317824678,0.00016335993458964257
-0.4711227275052806,-0.4711227275052806,1.000031702821009,0.0001671525285266802
-0.47100400252238617,-0.47100400252238617,0.9999634878713713,0.00016162783506314636
-0.47092010090636904,-0.47092010090636904,1.0001688664031183,0.00017250791076067854
-0.4708333974056586,-0.4708333974056586,0.9997826193035803,0.0001662063359949826
-0.47068503092450553,-0.47068503092450553,1.0000612939235456,0.00019279764927613387
-0.4705525372439297,-0.4705525372439297,0.9997775131857984,0.00016620042091488777
-0.47040129403612807,-0.47040129403612807,1.0002726458102775,0.0001584958644398058
-0.4702256364755158,-0.4702256364755158,1.000013611706446,0.00017334773887838943
-0.47017579556486455,-0.47017579556486455,1.0000178064086227,0.00017284341027119364
-0.4700187923051999,-0.4700187923051999,0.9998353450001953,0.0001648056744468275
