time,time,flux,flux_err
-0.49918435713156367,-0.49918435713156367,0.9999600008159094,0.0007575273500598234
-0.49813469482628536,-0.49813469482628536,1.0002951901993664,0.0007217040805470548
-0.4968737374931152,-0.4968737374931152,1.000278648819819,0.0006902538417565719
-0.49558832552374954,-0.49558832552374954,1.0001085329525046,0.0006978885156186663
-0.49408540211052243,-0.49408540211052243,0.9999043977123231,0.000706473598869857
-0.492617526873164,-0.492617526873164,1.0007620377754296,0.0006989742359927226
-0.49134655947409556,-0.49134655947409556,1.0005072743170713,0.0006970924076133429
-0.490376810841326,-0.490376810841326,0.9999444862014452,0.0007159984070634376
-0.48920318495174797,-0.48920318495174797,1.0006493609324205,0.0006947151429347099
-0.48790525879812774,-0.48790525879812774,1.0005049440892841,0.0006986553094445725
-0.4865017790969432,-0.4865017790969432,1.0004657192279267,0.0007030937220003183
-0.4849224197213061,-0.4849224197213061,0.9998312316617559,0.0006953574651158369
-0.4835965264262086,-0.4835965264262086,0.9998247580334224,0.0007014074700260622
-0.48247162189236403,-0.48247162189236403,1.000175820224169,0.0006980875894657035
-0.48152639702816485,-0.48152639702816485,1.0000980315167483,0.0007143292355899989
-0.4802955194331389,-0.4802955194331389,0.9996324005011811,0.0006934578927395446
-0.47888372940924456,-0.47888372940924456,1.0000810858204747,0.0006979208911913443
-0.4773679978449309,-0.4773679978449309,0.9995054532714752,0.0007007861151067938
-0.4757673457758756,-0.4757673457758756,0.9995923776407196,0.0007059857760902685
-0.4747401057357365,-0.4747401057357365,1.000294444317883,0.000691044166339794
-0.4738132646806207,-0.4738132646806207,0.9992572466958082,0.0007183636646818021
-0.4725846537985035,-0.4725846537985035,0.9999056827256119,0.0006934965038756632
-0.47117480298798,-0.47117480298798,0.9999598648996951,0.0006994350170992999
-0.46964985727563546,-0.46964985727563546,0.999785967926133,0.0007034879884671195
-0.4680834682591467,-0.4680834682591467,0.9996999650619337,0.0006970484460632539
-0.46703681386943574,-0.46703681386943574,1.0001074590654802,0.0007018141047682141
-0.46594404301899883,-0.46594404301899883,1.0002867820670827,0.000702915384427616
-0.4649081584191208,-0.4649081584191208,1.0003331966543436,0.0007069419296902936
-0.46366745414161414,-0.46366745414161414,0.9998636867636002,0.0006993347620523158
-0.4618877265762421,-0.4618877265762421,0.9991894774135952,0.0007016891040169915
-0.4602905565450328,-0.4602905565450328,1.0000306839948807,0.0006931214159259051
-0.4590623623079864,-0.4590623623079864,0.9995262762460204,0.0007008098631065558
-0.4579368529493877,-0.4579368529493877,1.000405892981569,0.0006960185747976068
-0.4572199410084522,-0.4572199410084522,1.0000258449744424,0.0007220075765140726
-0.45595924160988943,-0.45595924160988943,1.0001502794760033,0.0006899247511433305
-0.45445857083586816,-0.45445857083586816,1.0009698063545334,0.00070044357145213
-0.45249210340844004,-0.45249210340844004,1.0004726057766287,0.0007005834929128655
-0.45128077471758843,-0.45128077471758843,1.0000253858697319,0.0007020692270310509
-0.4501914958008911,-0.4501914958008911,0.9991016171051477,0.0006905038879045288
-0.44929216733316935,-0.44929216733316935,1.0001348415317635,0.0007098228191145752
-0.44805134702860416,-0.44805134702860416,0.9994101622010365,0.0007064247164192541
-0.4469663870198929,-0.4469663870198929,0.999767886965893,0.0007000368520574767
-0.4450127876203169,-0.4450127876203169,0.9996158069256316,0.0006992023843355735
-0.4434943904593638,-0.4434943904593638,0.9999662296349474,0.0006974177324734533
-0.442495356103791,-0.442495356103791,0.999455171800719,0.0007003924797146768
-0.4414160739338513,-0.4414160739338513,0.9995111897110418,0.0006987648578716586
-0.44036623223637433,-0.44036623223637433,1.0003544208663642,0.0007027473467220435
-0.43911889189971587,-0.43911889189971587,0.9999168753237064,0.0006991025157642545
-0.43726371629859384,-0.43726371629859384,0.9995351487870983,0.0007008010322529124
-0.43555548668841765,-0.43555548668841765,1.0004005118865509,0.000694268855643888
-0.43451358264787815,-0.43451358264787815,1.0005303472016465,0.0007011328671663283
-0.43338800775245545,-0.43338800775245545,1.000066041906831,0.0006958410640389278
-0.4326710891393759,-0.4326710891393759,0.9999899988755043,0.0007215602041409001
-0.43141054491406977,-0.43141054491406977,1.000277253881499,0.0006905567377594041
-0.42990999123308027,-0.42990999123308027,1.0000741974720841,0.0007012076914218741
-0.4279435230595027,-0.4279435230595027,1.0002671597682735,0.0007002402110887092
-0.42673187265327217,-0.42673187265327217,0.9990419208564056,0.0007027116039205025
-0.4256428864802274,-0.4256428864802274,0.9997232905272163,0.0006905446508988698
-0.4247432485223726,-0.4247432485223726,1.0003811349984069,0.0007098372410995143
-0.4235024774472095,-0.4235024774472095,0.9995686484782464,0.0007067302467517019
-0.42241782104692904,-0.42241782104692904,0.9997810487804,0.0006998152652566442
-0.4202678341255705,-0.4202678341255705,0.9999964635853733,0.000698718578002801
-0.4189457145702363,-0.4189457145702363,1.0009836329645432,0.0006974612622517664
-0.4179466630292154,-0.4179466630292154,1.0000892033830069,0.0007004932660983064
-0.41686712981691015,-0.41686712981691015,1.000124860943876,0.0006985834560054568
-0.4158174575148223,-0.4158174575148223,1.000120924972967,0.0007029849822420766
-0.41475064697497144,-0.41475064697497144,1.0007354032119777,0.0007063193535989532
-0.4130531012409392,-0.4130531012409392,1.0000449645600589,0.0006996841201580648
-0.41100693695711926,-0.41100693695711926,1.0003579518930446,0.0006943875687230162
-0.4099648034711663,-0.4099648034711663,1.000479128074664,0.0007006307602130466
-0.40883916306033824,-0.40883916306033824,0.9997809631061649,0.0006956734957180422
-0.4079311976810459,-0.4079311976810459,0.9993447018975447,0.0007163851428970452
-0.4069635544107314,-0.4069635544107314,0.9997650015841643,0.000700972724122702
-0.4057119465657252,-0.4057119465657252,0.99997432838648,0.0006997139134793196
-0.4034610514836913,-0.4034610514836913,0.9995296702383776,0.000695857717923117
-0.4021829710934526,-0.4021829710934526,1.0001919718544219,0.000701475998478322
-0.4010942777742912,-0.4010942777742912,0.9994632168377034,0.0006906270891157364
-0.40019433015036154,-0.40019433015036154,0.9999224073965068,0.0007099596136648581
-0.39895360823916237,-0.39895360823916237,1.0000778927140572,0.0007060894727173487
-0.3980053962330203,-0.3980053962330203,0.9998298484281977,0.0007056929121366004
-0.3961722959681083,-0.3961722959681083,0.9998400627129349,0.0006921028161751732
-0.3943970392518622,-0.3943970392518622,0.9995708274254497,0.0006971076871808179
-0.39339797037173413,-0.39339797037173413,1.0001049976122836,0.000700180770145209
-0.39231818622661196,-0.39231818622661196,1.000165659134353,0.0006983314441314138
-0.39126868327607556,-0.39126868327607556,1.000506708720883,0.0007022647815178763
-0.39020198888561025,-0.39020198888561025,0.999978343213297,0.0007062296027053954
-0.3889180455872975,-0.3889180455872975,1.0001239034745877,0.0007046772397380798
-0.3867454615551651,-0.3867454615551651,0.9998574515130647,0.0006953170371682842
-0.38558401360783134,-0.38558401360783134,0.9998592633199488,0.0006990276090262607
-0.3845120974085603,-0.3845120974085603,0.9997619493596641,0.000691800032482103
-0.38340484629475213,-0.38340484629475213,1.0006451235474174,0.0007131966248807056
-0.382414737219824,-0.382414737219824,1.0005791682677834,0.0007012969070575135
-0.38132761825950184,-0.38132761825950184,1.0002306126898521,0.000707263072914616
-0.3793481153019457,-0.3793481153019457,0.9997008643666119,0.0006914572735715788
-0.37780448354346846,-0.37780448354346846,1.0000444329823899,0.0006998794572183312
-0.3767861851487851,-0.3767861851487851,1.0001414026230844,0.0006963628366972632
-0.3757461095761755,-0.3757461095761755,0.9997736783894295,0.0007003828159441142
-0.3744115919153955,-0.3744115919153955,0.9995050549307438,0.0007012975436139729
-0.3735823421702662,-0.3735823421702662,0.9999242927387257,0.000712740470247387
-0.3721278896261083,-0.3721278896261083,0.9997497047138154,0.0007002421493738833
-0.3700926886047,-0.3700926886047,1.0004588648147261,0.000693580098970123
-0.3690501725189733,-0.3690501725189733,1.0009134490253486,0.0006995368777608036
-0.3679244233994268,-0.3679244233994268,0.9994570793545879,0.0006954962333872485
-0.3667268110860732,-0.3667268110860732,1.0004394734368962,0.000700494425496141
-0.36577338908632556,-0.36577338908632556,1.0002293768183474,0.0007121165498193299
-0.3647082914224029,-0.3647082914224029,1.000250194371176,0.0007043814320288781
-0.3625467826536351,-0.3625467826536351,0.9998799341863744,0.0006949889609893443
-0.36126813606792896,-0.36126813606792896,0.9998829316700182,0.0007018458497304044
-0.3601799313138144,-0.3601799313138144,1.000151367126928,0.0006914183805175195
-0.35910333982938025,-0.35910333982938025,0.9999735265513543,0.0007055126788868964
-0.3578876334065626,-0.3578876334065626,0.9994295670338935,0.0007103213205575571
-0.3570257714022773,-0.3570257714022773,1.000036871743227,0.0007051284641621788
-0.3552579109665658,-0.3552579109665658,1.0002814890028502,0.0006930022328989285
-0.35348258131689364,-0.35348258131689364,1.000096766507785,0.0006970501766617773
-0.3524834837064191,-0.3524834837064191,1.0001959434825525,0.0007011366627244504
-0.35140328153779593,-0.35140328153779593,1.0000059232139427,0.0006978831402437937
-0.3500936376344271,-0.3500936376344271,0.999581909759937,0.0006942323536251038
-0.34922066162184817,-0.34922066162184817,0.9999582953253064,0.0007141213610873172
-0.34800371187884593,-0.34800371187884593,0.9994128894706792,0.0007045239951388447
-0.34583118030245713,-0.34583118030245713,1.0000022282127128,0.0006952167503592579
-0.34466923340855826,-0.34466923340855826,1.0002357241795463,0.0006998887564780016
-0.34359756125068086,-0.34359756125068086,0.9998513696936211,0.000692199599226116
-0.3424512418715949,-0.3424512418715949,1.0001466762645168,0.0007033963082333442
-0.3414079820879124,-0.3414079820879124,0.9999867551048893,0.0007109249847035039
-0.3404132515410311,-0.3404132515410311,0.9991801385158746,0.0007070159922163196
-0.3384339077949335,-0.3384339077949335,1.0000489562501849,0.0006919645948667306
-0.3368201971232338,-0.3368201971232338,1.0002506889442042,0.0007049962481649791
-0.33563132431977466,-0.33563132431977466,1.0000929480102438,0.0006909173353394441
-0.3345545205534563,-0.3345545205534563,1.0001782466966649,0.0007056734266523955
-0.3334290511220388,-0.3334290511220388,0.9998441467148869,0.0006962178996455721
-0.33266802222292424,-0.33266802222292424,1.00087230426721,0.0007123075151212316
-0.33121342782837926,-0.33121342782837926,1.0000421505868837,0.0007003714377503123
-0.32898554872685964,-0.32898554872685964,1.0010438817031666,0.0006973650862851991
-0.3278834387682309,-0.3278834387682309,0.9998182864932937,0.0007006881010549763
-0.3268543395056895,-0.3268543395056895,1.0002884693397192,0.0006981461861138049
-0.3255615091391064,-0.3255615091391064,1.0010305303514746,0.0006938650955896443
-0.324858766847683,-0.324858766847683,1.0011788806242912,0.0007124655768925892
-0.32379396526375787,-0.32379396526375787,1.000310814414004,0.000704206787893565
-0.32163251520628366,-0.32163251520628366,1.0004126546930177,0.0006955682530744538
-0.3199526170181798,-0.3199526170181798,0.9984442834729041,0.0007001753618239858
-0.3189790677541623,-0.3189790677541623,0.9989676821947817,0.0006938934552065649
-0.3179024429412493,-0.3179024429412493,0.9996433456418774,0.0007035283719889879
-0.3169641416016475,-0.3169641416016475,1.0001917087131462,0.0007105478488258889
-0.3161116109518389,-0.3161116109518389,0.9996731922531271,0.000705679849125739
-0.31434352732580917,-0.31434352732580917,0.9997229826772365,0.0006926915632197402
-0.31235336691561316,-0.31235336691561316,0.999395475457549,0.000702703463020869
-0.3111552806932195,-0.3111552806932195,1.0000805475889933,0.0006950102429098899
-0.31021699135503694,-0.31021699135503694,1.000304024005883,0.0006994618915373098
-0.3090315154354357,-0.3090315154354357,0.9998393376916782,0.0006928582586476892
-0.3083061823970638,-0.3083061823970638,0.9999977675062481,0.0007136573284516134
-0.3070893792674269,-0.3070893792674269,0.9997626200724025,0.0007048873119158393
-0.3047791822788895,-0.3047791822788895,0.9992037583955614,0.0006955606403101472
-0.30339716968219366,-0.30339716968219366,1.0002069996842127,0.0006996066743983102
-0.30229956917623896,-0.30229956917623896,0.9996630643963901,0.0006974331688283123
-0.30086810260959285,-0.30086810260959285,0.9996837990288195,0.0006961555880253213
-0.30036784808385164,-0.30036784808385164,0.9996000649817212,0.0006997838123305939
-0.29940367305102883,-0.29940367305102883,1.0001425025868145,0.000718897825497273
-0.297519701692363,-0.297519701692363,1.0005109560038306,0.000692650745393242
-0.2956725756660944,-0.2956725756660944,1.0003380819539103,0.0007029127850117776
-0.29462257067675635,-0.29462257067675635,1.0000108768005038,0.0006932381177780424
-0.2930888902876177,-0.2930888902876177,0.9998815729824153,0.000699900498653556
-0.2923681273055081,-0.2923681273055081,0.9996860046656041,0.0006982826504939152
-0.29120716517727485,-0.29120716517727485,0.9996835751708797,0.0007036761407793042
-0.28990588970018505,-0.28990588970018505,1.0000650929639276,0.0007132144323108082
-0.2880711069456538,-0.2880711069456538,1.0004037724580412,0.0006968867688449419
-0.28683818415679524,-0.28683818415679524,1.0008065196279605,0.0007004609231213686
-0.2855954871958602,-0.2855954871958602,1.000213566060134,0.0006987204180766027
-0.2843822138961059,-0.2843822138961059,0.9999314913081205,0.0006891564684990513
-0.28357769584117704,-0.28357769584117704,1.000071837199543,0.000706453895954502
-0.2822843821009428,-0.2822843821009428,0.9998336136781434,0.0007085848549010675
-0.2806520510176142,-0.2806520510176142,0.999984505082366,0.0006998014838033866
-0.2790379887877862,-0.2790379887877862,0.9992556970302943,0.000699576523616611
-0.2780203816050289,-0.2780203816050289,0.9999299779011774,0.0006989234553740117
-0.27646404228680693,-0.27646404228680693,0.9996253040430858,0.0006938890403223389
-0.27581910002891163,-0.27581910002891163,0.9994584824004628,0.0007002453916111265
-0.27461509699583075,-0.27461509699583075,0.9995342363031712,0.0007144460912648456
-0.27317284505779754,-0.27317284505779754,0.9996922493205126,0.0006988247647458974
-0.2714386979494975,-0.2714386979494975,0.9995666980451888,0.0007023505628290072
-0.2702410343819338,-0.2702410343819338,0.9999357942041126,0.0006950073067096632
-0.26888471110214596,-0.26888471110214596,1.0005917530150912,0.0006985482081544402
-0.2679240886718617,-0.2679240886718617,1.0000724305188968,0.0006985237407886477
-0.2669435832729505,-0.2669435832729505,1.000431477234899,0.0006992891090977328
-0.2656622496300315,-0.2656622496300315,1.0001197733350178,0.0007146462220613848
-0.26386475419317323,-0.26386475419317323,1.0002183544021812,0.0006955271147464696
-0.2624716170596912,-0.2624716170596912,1.000997490621905,0.0007012364433513394
-0.2610467394487387,-0.2610467394487387,0.9997199298319768,0.0006986101534347393
-0.2598333120511597,-0.2598333120511597,1.0002170897356388,0.0006890801226114477
-0.2590291064494977,-0.2590291064494977,1.0003970080761373,0.0007070451607866621
-0.2578439154845455,-0.2578439154845455,0.9998708921957234,0.0007080919654535935
-0.25644217249455326,-0.25644217249455326,1.000502517751857,0.0007007327624358048
-0.25475791367930467,-0.25475791367930467,0.999954574348385,0.0007026002467222646
-0.2535414547793152,-0.2535414547793152,0.9995767700360625,0.0006966180403120249
-0.2518986720835528,-0.2518986720835528,0.999929678735481,0.0006947474525766929
-0.25108381586615,-0.25108381586615,1.0002807259692341,0.0007019258744876612
-0.2499421256868118,-0.2499421256868118,0.9992720761528039,0.0007117438786638339
-0.2486242835403573,-0.2486242835403573,0.9994686687372181,0.0006984792010047375
-0.24711510215001908,-0.24711510215001908,0.9999027630973453,0.0006997586083852266
-0.24586005932901572,-0.24586005932901572,1.000686841447333,0.000697522759961366
-0.24433595284185686,-0.24433595284185686,0.999759698923893,0.0006986929406930227
-0.24327046085727488,-0.24327046085727488,0.9999142055362332,0.0006982797302969398
-0.24217238629562415,-0.24217238629562415,0.9995563645955601,0.0006988779703662967
-0.2411135348267635,-0.2411135348267635,0.9991617488044721,0.0007138636371958765
-0.23945405513800325,-0.23945405513800325,1.000059238342322,0.000695465451626302
-0.23812336189603228,-0.23812336189603228,1.0000555166844793,0.0007000347674217303
-0.23683625008798118,-0.23683625008798118,0.999772049671269,0.0006970577781314101
-0.235352408520248,-0.235352408520248,1.0007379479414145,0.0006939738525182748
-0.23448051765035416,-0.23448051765035416,0.9996501780825817,0.0007060559206417977
-0.23340148999627672,-0.23340148999627672,1.0006637118809445,0.0007056076040682152
-0.23162113143994248,-0.23162113143994248,1.0003032958433915,0.0006952379792745693
-0.23015427089235346,-0.23015427089235346,0.9999349397338276,0.00070634981493268
-0.229159538033673,-0.229159538033673,1.00055941803329,0.0006945281448102334
-0.2276171098245868,-0.2276171098245868,1.0009848037632545,0.0006995415348548097
-0.22672160560982774,-0.22672160560982774,0.9998551337526302,0.000699941266957364
-0.22560800400415246,-0.22560800400415246,0.9999329454768165,0.0007004552275375684
-0.2242660498562145,-0.2242660498562145,1.0006484827813538,0.0007053820713899533
-0.2224573185893405,-0.2224573185893405,0.9998761994127907,0.0007039951631777884
-0.22137526031024207,-0.22137526031024207,1.0001765113829342,0.0007013487706361794
-0.22013216121586082,-0.22013216121586082,0.9993775327916522,0.0006983901794607175
-0.21883476312550557,-0.21883476312550557,1.0001650464440608,0.0006978226642190552
-0.21787118725860638,-0.21787118725860638,1.0002739252750024,0.0006970852015360741
-0.21682096332451692,-0.21682096332451692,1.0005812854073284,0.0007081335492253218
-0.214861864968816,-0.214861864968816,0.9996609192723709,0.0006992598513110838
-0.21357458638435672,-0.21357458638435672,0.9999880023976739,0.0007000632159248961
-0.21255701012682948,-0.21255701012682948,0.9999498748464595,0.0006992477945304591
-0.21098410519812205,-0.21098410519812205,0.9997771977589889,0.0006943158969250033
-0.21016938049360762,-0.21016938049360762,0.9995516930900219,0.0007017907542268712
-0.2090272855033163,-0.2090272855033163,1.0000175435593495,0.0007110630306260109
-0.20750845286283948,-0.20750845286283948,1.0002206481269313,0.0006918297827214827
-0.20584947798824943,-0.20584947798824943,1.000194424203614,0.0007090136332641051
-0.20477824413364942,-0.20477824413364942,0.9996186782413149,0.0006949544926130755
-0.2034213566775634,-0.2034213566775634,1.0001483022429076,0.0006987559107982902
-0.20235574068610732,-0.20235574068610732,0.9997411279852244,0.0006987733349050108
-0.20125793136758147,-0.20125793136758147,1.0000188600312074,0.0006982095212075735
-0.2001121262592278,-0.2001121262592278,0.9993289149910707,0.000708580549403144
-0.19816124203334767,-0.19816124203334767,1.0005320361793224,0.0007002451945361775
-0.19700844515541577,-0.19700844515541577,1.0001955546975974,0.0007009216235566872
-0.19560544797818694,-0.19560544797818694,0.9997437586881912,0.0006959589499779128
-0.19443767221760028,-0.19443767221760028,0.9996418073370863,0.0006945279661305533
-0.19356620419980572,-0.19356620419980572,0.9996072383650934,0.0007057596905224239
-0.1923558047627921,-0.1923558047627921,1.00001420539091,0.0007043944745804907
-0.1907068681844521,-0.1907068681844521,0.9997082761026824,0.0006953699196080185
-0.18923958735294946,-0.18923958735294946,0.9997321480824297,0.000706360679223257
-0.1880781504184597,-0.1880781504184597,0.9999802148487117,0.0006961858434834822
-0.18654217521220745,-0.18654217521220745,0.9998370361463124,0.0006973466006736966
-0.18580702884801212,-0.18580702884801212,0.9998941993804248,0.000700136446933514
