time,time,flux,flux_err
-0.4999222031259099,-0.4999222031259099,1.000043246714003,0.00014616838127726504
-0.4997960705561127,-0.4997960705561127,0.9999898010036621,0.00012696062290310436
-0.49968050547759046,-0.49968050547759046,1.0001118817148984,0.00012586381017348308
-0.4994659851734468,-0.4994659851734468,0.999999648010859,0.0001264844768557869
-0.4993327735523053,-0.4993327735523053,1.0000579894041497,0.00012987303857523577
-0.49919491512446257,-0.49919491512446257,0.9998302397886782,0.00012455250601149849
-0.4991089680312143,-0.4991089680312143,0.999886660899142,0.00013036935703890097
-0.49903155492502266,-0.49903155492502266,1.0000871176087656,0.00012540185048543092
-0.4989438086817245,-0.4989438086817245,0.999934234741891,0.00012528084663735974
-0.49882156968596975,-0.49882156968596975,0.9998629001838928,0.00012743241080437185
-0.4987389093657839,-0.4987389093657839,0.9999841173718197,0.00013618160611093429
-0.4986848431719409,-0.4986848431719409,1.0000489651387343,0.0001278066014907179
-0.4985698100710579,-0.4985698100710579,0.999757676500951,0.0001266683182116227
-0.4984687350341119,-0.4984687350341119,1.0001181130995291,0.00012416568868119294
-0.4983497283908946,-0.4983497283908946,0.99994240607382,0.00014068015438606845
-0.4981259648437117,-0.4981259648437117,1.0000165243577697,0.00012162959099706224
-0.4979906155811477,-0.4979906155811477,0.9999936014970634,0.00012644505587398788
-0.49789554439121275,-0.49789554439121275,1.0000951156984368,0.0001243943699543353
-0.4977822557899344,-0.4977822557899344,1.0000840895268825,0.00012632133342720562
-0.49768956938969494,-0.49768956938969494,1.0000232189934717,0.00013176251762982453
-0.49754192024920485,-0.49754192024920485,1.0001468536329585,0.000130968713716047
-0.4974541205589048,-0.4974541205589048,1.0001955266252236,0.00012674991750083166
-0.4973553769468708,-0.4973553769468708,1.0001311155370822,0.00012739439780741238
-0.4971935755256709,-0.4971935755256709,1.0001207582008638,0.00012445801928553935
-0.4971146667350695,-0.4971146667350695,1.000146729227057,0.00012511570883799465
-0.4970115281317703,-0.4970115281317703,0.9999077091035599,0.00013126481105446233
-0.4969216684832645,-0.4969216684832645,1.0000200257641438,0.00013111506920235493
-0.4968089097757911,-0.4968089097757911,0.9998555775186919,0.00012457468122816577
-0.4967757773058111,-0.4967757773058111,0.9998368478373333,0.00012806071366893958
-0.4967153490179044,-0.4967153490179044,1.0001327746684558,0.00012698824331004832
-0.49663562480745893,-0.49663562480745893,1.0000937968295514,0.00012337086168226767
-0.49648669275338764,-0.49648669275338764,0.9998058943185395,0.00013225541461037084
-0.4964381355006481,-0.4964381355006481,0.9998977911301402,0.0001307413636092363
-0.49627537688902523,-0.49627537688902523,0.9998788664027398,0.00012294481341289145
-0.4961396019702079,-0.4961396019702079,0.9998896111272515,0.00012904858326234932
-0.49600392078973526,-0.49600392078973526,0.9999900652868099,0.00012531886003755517
-0.49585533185236275,-0.49585533185236275,1.0001975240170893,0.0001276918239612805
-0.4957358897991071,-0.4957358897991071,0.9998914249378498,0.00012657221684710365
-0.4956738405293436,-0.4956738405293436,0.9997779784003884,0.00012645775540610796
-0.4956078061313747,-0.4956078061313747,0.9999922089365227,0.00012541065651614487
-0.4955193178891932,-0.4955193178891932,1.0000734627719654,0.0001296908706731707
-0.4953898956187913,-0.4953898956187913,0.9999199968806533,0.00012865836721836162
-0.49523394078532873,-0.49523394078532873,0.9999549521570759,0.00012402731238150337
-0.49516590863240706,-0.49516590863240706,0.9999203740546202,0.00012914762694237085
-0.49506206800178915,-0.49506206800178915,0.9998010098737422,0.00012539151494632953
-0.49490247184039615,-0.49490247184039615,0.9999332926055026,0.00013153140805078795
-0.4947768606023601,-0.4947768606023601,0.9998842508119589,0.0001247820943815754
-0.49468596670849363,-0.49468596670849363,0.9998955369339357,0.0001307971878898826
-0.494571382088543,-0.494571382088543,0.9999799239031841,0.0001263359791999888
-0.4945043555824668,-0.4945043555824668,1.000019476399155,0.00013105325593127436
-0.49441876839882754,-0.49441876839882754,0.9997615327913303,0.00012686194876569115
-0.4943523215533787,-0.4943523215533787,0.9999996076211541,0.00012592699613704397
-0.4942395185236819,-0.4942395185236819,1.000226761862196,0.00013390701133153432
-0.4941722359471896,-0.4941722359471896,1.0000749492773757,0.00012777929386807423
-0.49403001220780424,-0.49403001220780424,1.0000320457781817,0.00012647875923748128
-0.49387285553057153,-0.49387285553057153,0.9998943277330696,0.00012748285958207536
-0.4937297835334903,-0.4937297835334903,0.9998256645533417,0.00012193998937828081
-0.4935888172982231,-0.4935888172982231,0.9998577607524289,0.0001307294038645398
-0.49344630527302796,-0.49344630527302796,1.000058298061648,0.00012876207393170918
-0.4933894775345834,-0.4933894775345834,1.0002453885478064,0.0001273140027531264
-0.49331546757384787,-0.49331546757384787,0.9998585518538396,0.0001284804876725922
-0.4931283079844434,-0.4931283079844434,1.0000796161150933,0.00012954072305256336
-0.492961959222157,-0.492961959222157,1.0000471912326974,0.0001261146816845801
-0.4928208704761346,-0.4928208704761346,1.0001167421666104,0.0001244961033596761
-0.49271727700397605,-0.49271727700397605,0.999965605308413,0.0001268545081466519
-0.49258847227611113,-0.49258847227611113,0.9999167748942389,0.00013008139304977804
-0.49243863393130594,-0.49243863393130594,0.9997259285591007,0.00012905870803729002
-0.49233381502090195,-0.49233381502090195,0.9998279247907325,0.00012982535273567064
-0.49224921099557833,-0.49224921099557833,1.0000068038959078,0.00012790504137394167
-0.4921556786281144,-0.4921556786281144,1.000038269448055,0.0001254495141611148
-0.4920492905719584,-0.4920492905719584,0.9999033148348875,0.0001281731937658545
-0.49197764845448544,-0.49197764845448544,1.0002235079891644,0.00012912990094007408
-0.4918254550491838,-0.4918254550491838,0.9998646477746073,0.00012150980357814872
-0.49170798065351845,-0.49170798065351845,1.0001548429709974,0.00012978930563871779
-0.49153923444755493,-0.49153923444755493,0.9999612415973385,0.0001296007936746862
-0.49139684257388583,-0.49139684257388583,1.0000665311508221,0.00012616840073088355
-0.49131270355974266,-0.49131270355974266,1.000167517096414,0.0001326936276727222
-0.49116358789033254,-0.49116358789033254,1.000011186902327,0.0001264416450031354
-0.4911011708070873,-0.4911011708070873,0.999924312975686,0.00013307894631865824
-0.4910510487490683,-0.4910510487490683,0.9999720920433013,0.0001226567314738598
-0.4909167718808021,-0.4909167718808021,0.9999825466421225,0.00012982029500724915
-0.4907470819707669,-0.4907470819707669,1.0000901859782982,0.0001283522935808352
-0.49064951186264805,-0.49064951186264805,1.0002241527376,0.00012728339401708253
-0.4905808645900834,-0.4905808645900834,1.0000533309298625,0.0001236076339942955
-0.49050176119308164,-0.49050176119308164,1.000085740978252,0.00013289257370005628
-0.4903909647680848,-0.4903909647680848,1.000324442241822,0.00012508631781369184
-0.4902874694646016,-0.4902874694646016,1.0003011485074786,0.0001277552803782658
-0.49019067526460275,-0.49019067526460275,0.9998016238776362,0.00012804600751373382
-0.4901093313954334,-0.4901093313954334,1.0000906324074292,0.0001315818706837852
-0.49000220375273784,-0.49000220375273784,1.0000027419908244,0.00012394550784515182
-0.4898857527998189,-0.4898857527998189,0.9997664506541029,0.000127714866754776
-0.48974063667992596,-0.48974063667992596,1.0000479929970854,0.00012613622676868575
-0.489486613022018,-0.489486613022018,1.0000970975247943,0.00012792141156909366
-0.4893484820451704,-0.4893484820451704,0.9998538325481678,0.00012701467062491327
-0.4891606399214652,-0.4891606399214652,0.9998433056223529,0.0001277179885386161
-0.4890763211540616,-0.4890763211540616,0.9998983030909745,0.0001237632203749388
-0.48891411454787886,-0.48891411454787886,1.000126643880037,0.00012494809285320917
-0.4887710587488982,-0.4887710587488982,1.0000788085528804,0.0001238483646981365
-0.48866535758388635,-0.48866535758388635,1.0000913419085486,0.0001224216560510269
-0.4885498433613975,-0.4885498433613975,0.9999582783570998,0.00013245598391695477
-0.4884743812330271,-0.4884743812330271,0.9998774189448888,0.0001265722591872553
-0.4883856566972099,-0.4883856566972099,1.000076104837564,0.00012339929451822781
-0.48833742680471914,-0.48833742680471914,0.9999559012142996,0.00012821794572292054
-0.48821068127545003,-0.48821068127545003,1.000167295449891,0.00012363602528613708
-0.4880820170026709,-0.4880820170026709,1.0000598128136848,0.00012290554611311277
-0.4879617855014658,-0.4879617855014658,1.0000593864643983,0.00012471195843000095
-0.48787825921244804,-0.48787825921244804,0.9999789972364292,0.00012939143977421275
-0.48769445316174825,-0.48769445316174825,1.000018445113849,0.00012571988544503776
-0.4875470971528557,-0.4875470971528557,0.999978288965244,0.00012903888175375876
-0.48735322738066317,-0.48735322738066317,1.0000850875405627,0.00012877287855793369
-0.4872010543313081,-0.4872010543313081,0.9999382080137224,0.00012864196104836811
-0.4869902321250265,-0.4869902321250265,0.9999807516941164,0.0001256843546409866
-0.4868879365491011,-0.4868879365491011,1.000065266031924,0.00012656920208575865
-0.4868371778942674,-0.4868371778942674,0.9999384659742925,0.00012462705104243665
-0.486759758486005,-0.486759758486005,0.9998732487254847,0.00012579717609924898
-0.48667316320352255,-0.48667316320352255,1.0003787689678219,0.0001238930625701191
-0.486573375891021,-0.486573375891021,1.0001547531619894,0.0001225283259667777
-0.48648537024091637,-0.48648537024091637,1.0001344021388519,0.00012590618333128224
-0.48625631102986516,-0.48625631102986516,0.9998848037855252,0.00013036224492352604
-0.48615544264503113,-0.48615544264503113,1.0000715478547608,0.0001227505404301221
-0.4861022602512094,-0.4861022602512094,1.0001025320393915,0.00012517731987084829
-0.4859097334887338,-0.4859097334887338,1.0001699280297403,0.00012408028205802867
-0.4857329006190412,-0.4857329006190412,0.9999084014207174,0.00012643655154736082
-0.4855944377999549,-0.4855944377999549,1.0001162908549293,0.00012348243629201075
-0.48542769941450387,-0.48542769941450387,0.9999583519742737,0.00012951212513738624
-0.4853318740406394,-0.4853318740406394,0.9999550147035088,0.00012561476930567021
-0.4851412734227779,-0.4851412734227779,0.9999864820048524,0.00013224556333183782
-0.48504267204953067,-0.48504267204953067,1.000069106433168,0.0001273444256174512
-0.4849226634330989,-0.4849226634330989,1.0000439413529272,0.00012342237531569339
-0.48477894965362794,-0.48477894965362794,1.000254917984752,0.0001249614599203969
-0.48466084545907506,-0.48466084545907506,0.9997148528774906,0.00012956817251305822
-0.4846147014228336,-0.4846147014228336,0.9998884715028957,0.00012802608869263692
-0.48457723291867294,-0.48457723291867294,0.9999160649224367,0.00012476556899795145
-0.48447619134240083,-0.48447619134240083,1.0000835424810428,0.00012483754555921053
-0.4843529550140374,-0.4843529550140374,0.9999031923725262,0.00012471144595519202
-0.484239375771358,-0.484239375771358,1.0000308321530154,0.0001247085139664821
-0.48411380116522196,-0.48411380116522196,0.9999704447402064,0.00012926141488524132
-0.4839740690720646,-0.4839740690720646,0.9999544354878548,0.0001274484288392794
-0.48389757949953494,-0.48389757949953494,1.0000952579174898,0.0001262244354670198
-0.4838167572353996,-0.4838167572353996,0.9998356153803328,0.00012167647666805995
-0.4836112944485649,-0.4836112944485649,1.0001646817927168,0.00012968244080943962
-0.4834367360421311,-0.4834367360421311,1.0002198189118974,0.00012694327289999586
-0.48330964552151273,-0.48330964552151273,1.000050495225492,0.00012870276221870603
-0.48317747201654127,-0.48317747201654127,1.0000163120737384,0.00012611763043861264
-0.4829958764850744,-0.4829958764850744,0.9997780966405083,0.00013115589561922078
-0.4828559890323959,-0.4828559890323959,1.0000101182658043,0.0001231611947157641
-0.4827713081955153,-0.4827713081955153,0.9999595313150296,0.00012407853131589489
-0.4826795927900093,-0.4826795927900093,0.999933436773499,0.00012258759962622542
-0.4825853985530557,-0.4825853985530557,1.0000785808396198,0.00012595108676282486
-0.4824905291370669,-0.4824905291370669,0.9998113173190228,0.00012643401680653297
-0.48237531662853145,-0.48237531662853145,0.9999483185419784,0.00012660167398842562
-0.4822976887870027,-0.4822976887870027,0.9999260510379658,0.00012780921513228918
-0.48215923830466634,-0.48215923830466634,1.0000939593150417,0.00012442529987743948
-0.4820206562184467,-0.4820206562184467,0.999800405587651,0.000126174737867409
-0.481825400246089,-0.481825400246089,1.0000620545737242,0.00012955734922080666
-0.48166959556801886,-0.48166959556801886,0.9997942390622395,0.00013007011317451946
-0.4815971099131275,-0.4815971099131275,0.9999466890387556,0.00012291746066897552
-0.4814633421960025,-0.4814633421960025,0.9999508312758991,0.0001281038335073286
-0.48131003234266245,-0.48131003234266245,1.000068991725178,0.00013055683119235313
-0.4811783492721588,-0.4811783492721588,1.0002103797753246,0.00012828061785304955
-0.4810857474156364,-0.4810857474156364,1.0000852886461975,0.00013089599620274558
-0.4809515848817682,-0.4809515848817682,1.0000996193521838,0.00012443756239165153
-0.4808463219847908,-0.4808463219847908,0.999942292242066,0.00012655448163827036
-0.4807407793363382,-0.4807407793363382,0.9999415033034016,0.00012694381001982153
-0.48059943879234196,-0.48059943879234196,0.9999424392590275,0.00012651136469956297
-0.4805346774257487,-0.4805346774257487,1.0000783876886001,0.00012433653052083948
-0.4804404781789344,-0.4804404781789344,0.9999252856268072,0.00012655456753090326
-0.4803435264995642,-0.4803435264995642,0.9999901212693579,0.00012628953155633836
-0.4802327807130496,-0.4802327807130496,1.0001026911304716,0.00012784735849753819
-0.4801078777185467,-0.4801078777185467,0.9999335159530653,0.00013613239369365912
-0.48005728843345424,-0.48005728843345424,0.9999445978100654,0.0001263233133750479
-0.47988795108976773,-0.47988795108976773,0.9999947441191974,0.00012888382642108824
-0.4797572431612934,-0.4797572431612934,1.0000396908070273,0.00014765766055504392
-0.4795426852480887,-0.4795426852480887,0.9999972041285453,0.00012160851316570984
-0.47937409164369454,-0.47937409164369454,0.9999925343992662,0.00012555048760164967
-0.479317785173771,-0.479317785173771,1.0001941878674556,0.00012199040711033942
-0.4792392707488034,-0.4792392707488034,1.000273265304194,0.00012684821483329445
-0.47913722263256203,-0.47913722263256203,0.9999312232680513,0.00012838965446437638
-0.4789774544980901,-0.4789774544980901,1.0000197303408564,0.00013209387740300372
-0.4788917743888305,-0.4788917743888305,0.9998449198490563,0.00012644002546538822
-0.4788300592073938,-0.4788300592073938,1.0000006204182115,0.00012876152947347239
-0.47873323632520626,-0.47873323632520626,0.9999512376765349,0.00012664734823068446
-0.4786012447522808,-0.4786012447522808,1.0000800667913041,0.0001280295050267777
-0.4784996369282453,-0.4784996369282453,0.9999151768749648,0.0001208129895297144
-0.47838735943150823,-0.47838735943150823,0.9999530909586667,0.0001320795811436088
-0.4783022982926923,-0.4783022982926923,0.9999672149793488,0.0001277035285630788
-0.4782091812870931,-0.4782091812870931,1.0002092666598763,0.00012551252711618405
-0.478169777623043,-0.478169777623043,1.0000088081571505,0.00012820436833300066
-0.47811447502244847,-0.47811447502244847,1.000031676362464,0.00012627257914110345
-0.47805509853205874,-0.47805509853205874,1.000126368717578,0.0001272727484921078
-0.4779617956995935,-0.4779617956995935,0.9997082566650823,0.00012538674595957794
-0.4778453094400902,-0.4778453094400902,0.9997658427854917,0.00013271688987875077
-0.47772107434211647,-0.47772107434211647,0.9998651356063437,0.00012805402473317387
-0.47756380221326256,-0.47756380221326256,0.9998310844153006,0.00013126157946065402
-0.4774287166495924,-0.4774287166495924,0.9999581201928232,0.00012339064239443747
-0.47729074252602005,-0.47729074252602005,0.999968200600383,0.00013356757665912246
-0.4771808348923514,-0.4771808348923514,1.0000563469937116,0.00012504334895540884
-0.47706846253458934,-0.47706846253458934,1.0000866713932115,0.00012807644591570405
-0.47700164129892075,-0.47700164129892075,0.9999822432990919,0.00012409323025771733
-0.47690478786753376,-0.47690478786753376,1.00004024982384,0.00012969220272001356
-0.47677190509930367,-0.47677190509930367,1.0001261981270329,0.00012862434643580106
-0.47663310012067084,-0.47663310012067084,0.9998929188382464,0.00012686414475238442
-0.47653858330959337,-0.47653858330959337,0.9999539716089467,0.00012701834055638405
-0.4764327444045193,-0.4764327444045193,1.0000573412553373,0.00012372053631761582
-0.4762817717510188,-0.4762817717510188,1.0001321560553884,0.00013180162711507216
-0.47613578451528155,-0.47613578451528155,1.0000543224748708,0.00013085349679453742
-0.4760381052776211,-0.4760381052776211,1.0002846167740538,0.0001264236408503974
-0.47593048878843547,-0.47593048878843547,0.9999141812981378,0.00012960455208197322
-0.4758491856151522,-0.4758491856151522,1.0000857986223886,0.00012899031968049572
-0.4757505389261496,-0.4757505389261496,1.0001170506129962,0.00012594319790679238
-0.47568328595698406,-0.47568328595698406,0.9999218074851164,0.00012649416255613934
-0.47558200360726915,-0.47558200360726915,0.9999163365612368,0.00013256842258350238
-0.4754141252837144,-0.4754141252837144,0.9999638778308432,0.00012213327471195134
-0.47517392065747116,-0.47517392065747116,0.9999726705287939,0.00012984560225258105
-0.4750680286222632,-0.4750680286222632,0.9998934782649496,0.00012916103917206797
-0.4749494560255698,-0.4749494560255698,0.9997784486671156,0.00012717071394209188
-0.4748124964877206,-0.4748124964877206,1.000076780362863,0.00012872300558359405
-0.47473868039887746,-0.47473868039887746,1.000028690222456,0.00012441197608407674
-0.4746308319496165,-0.4746308319496165,0.9999440850858656,0.00013179956938697799
-0.4744564838165388,-0.4744564838165388,1.000070955759516,0.00012414105599674292
-0.47432528991812434,-0.47432528991812434,0.9999105105320083,0.00012599018350055747
-0.47419880175984874,-0.47419880175984874,0.9999854053844628,0.00012744923860786585
-0.47409910173482783,-0.47409910173482783,0.9997601905594242,0.0001245617726110657
-0.473980661733367,-0.473980661733367,0.999796721527583,0.00012856475003759088
-0.4738433960927068,-0.4738433960927068,0.9998643021858074,0.00012816736532082195
-0.4737708049739012,-0.4737708049739012,1.000053044098203,0.000127562577080358
-0.47367510682815916,-0.47367510682815916,1.0001064496776422,0.00012623838329128915
-0.4735807336113794,-0.4735807336113794,0.9999694737194986,0.00012578874268630769
-0.4734964736930124,-0.4734964736930124,0.9996619558033991,0.00012454761586831427
-0.4733692023753974,-0.4733692023753974,1.0001251608447244,0.00013017012599290603
-0.4731908766229026,-0.4731908766229026,1.0000417543741784,0.00012458016625389466
-0.4730178553578298,-0.4730178553578298,1.0001075253385963,0.00013020145061243783
-0.47280590327172833,-0.47280590327172833,1.0000711292721012,0.0001260404632043932
-0.47272758991130104,-0.47272758991130104,1.0000446549024435,0.00013369577545507206
-0.4726257052603614,-0.4726257052603614,0.9999398067108279,0.0001241095100147072
-0.47252974557486593,-0.47252974557486593,1.000095432061205,0.00012501611941163226
-0.4724998589928873,-0.4724998589928873,1.0000272057493609,0.00012677461327319724
-0.4723977486381045,-0.4723977486381045,0.9998661427326837,0.00012429054594768928
-0.47227709500039056,-0.47227709500039056,1.0002285827870607,0.00012945857140448373
-0.472153227290255,-0.472153227290255,0.9998130305420014,0.00013311408642603835
-0.472023664696826,-0.472023664696826,0.9999833330328889,0.00012586709071321027
-0.4719472420460079,-0.4719472420460079,0.9999178024815712,0.0001282038005306085
