time,time,flux,flux_err
-0.4999485989331636,-0.4999485989331636,1.0002047343199576,0.0002590107434145842
-0.49979270916264795,-0.49979270916264795,0.9999583632799247,0.00023823728895681716
-0.4995827963866759,-0.4995827963866759,0.9997530310073303,0.0002316106864615612
-0.49939381439689895,-0.49939381439689895,0.9998813675843896,0.000248544329745185
-0.49927130286960164,-0.49927130286960164,0.9999641206901453,0.00023936472125696344
-0.49918807304129587,-0.49918807304129587,1.0003076988110795,0.00027700676741548554
-0.4991071024014673,-0.4991071024014673,1.0004917923276646,0.0002322228955790285
-0.49902453188915386,-0.49902453188915386,1.0000946585688215,0.0002438037756643698
-0.4988662759853469,-0.4988662759853469,0.9998243321160792,0.00021128674473061153
-0.4986383171846683,-0.4986383171846683,1.0000369068902994,0.0002281353727236095
-0.49844077648303936,-0.49844077648303936,1.0002544744274058,0.0002403072437684727
-0.4983010302996263,-0.4983010302996263,1.0002422011940881,0.00021956773530341423
-0.4981277690298157,-0.4981277690298157,1.0001609932279691,0.00021900912709680356
-0.4979126120953879,-0.4979126120953879,1.000039284996093,0.00020854729350578669
-0.4976963713852456,-0.4976963713852456,0.9998277295429853,0.0002653448454275654
-0.4975856483521056,-0.4975856483521056,0.9999066974851317,0.0002779733541546306
-0.49744615541712844,-0.49744615541712844,1.0001006865448776,0.00024296650086334782
-0.4973328163367114,-0.4973328163367114,1.0002042321429574,0.00021958761366505075
-0.4970621239874163,-0.4970621239874163,1.000327673609539,0.00021835078331232128
-0.4968132211084594,-0.4968132211084594,0.9997869421867895,0.00024035640492992943
-0.4966911436145892,-0.4966911436145892,1.0000213585270403,0.00021431880154571285
-0.49653067313556676,-0.49653067313556676,0.9998990890294591,0.00021468174338172482
-0.49638276987607244,-0.49638276987607244,1.0001934383003661,0.00021426693508028155
-0.4961798354757775,-0.4961798354757775,0.9999864293244579,0.00027985246119671583
-0.49602312551869543,-0.49602312551869543,1.0001084575923724,0.00026070831374612414
-0.49591373415314594,-0.49591373415314594,1.0001289867214298,0.0002414450406818623
-0.4958169153665949,-0.4958169153665949,1.0001703263041049,0.00021327588999705866
-0.49571631088183493,-0.49571631088183493,0.999896993179562,0.00021844451352306523
-0.4955394752207212,-0.4955394752207212,1.000103630658692,0.0002246544266288997
-0.49532281300489556,-0.49532281300489556,0.9998856087440314,0.00025995230426168495
-0.4952220728708198,-0.4952220728708198,0.9999760784326595,0.00022344516421642365
-0.4950419633052661,-0.4950419633052661,0.9999978178258072,0.00021542319575868868
-0.4948679236928001,-0.4948679236928001,1.0001525082479443,0.00021014313804851181
-0.4947166316647781,-0.4947166316647781,0.9998399629884147,0.00024306704029708275
-0.49458459596717147,-0.49458459596717147,1.0000009305511781,0.00024336860108168122
-0.49442836871676266,-0.49442836871676266,0.9999131751603925,0.0002614031236781442
-0.49429773638621555,-0.49429773638621555,1.0001040673578436,0.0002201722890665829
-0.49412574956804745,-0.49412574956804745,0.9996448766491651,0.00021366541943481794
-0.49396678720077036,-0.49396678720077036,1.0000837382395686,0.0002180563326961206
-0.4937920822521846,-0.4937920822521846,0.9999796373018764,0.0002624836379009108
-0.4936610174365342,-0.4936610174365342,0.9999554652079384,0.00021048853440630796
-0.4934134379393072,-0.4934134379393072,1.0000605043858724,0.00020462865960184715
-0.4932652303832583,-0.4932652303832583,1.0000136679077423,0.00022065493232036574
-0.4930562480345543,-0.4930562480345543,0.9999939089443226,0.00026226616581673544
-0.49289555164505144,-0.49289555164505144,0.999924078291901,0.0002547402144617135
-0.4927448364418524,-0.4927448364418524,1.0002762959805396,0.00021697303678044926
-0.4925891260478238,-0.4925891260478238,0.9999176895708344,0.00021436688671436343
-0.49245380127831595,-0.49245380127831595,0.9999980975648312,0.00022587057219596208
-0.49223912558736627,-0.49223912558736627,0.9999188677424119,0.0002560216045592476
-0.492118991100142,-0.492118991100142,0.9997929085847816,0.00023547913020933913
-0.49196323382711854,-0.49196323382711854,1.000222442282665,0.00021152060476462963
-0.49172869459725915,-0.49172869459725915,1.0006428540531036,0.00021216810773379865
-0.49154862936993593,-0.49154862936993593,1.0002811793230308,0.00022167110472030103
-0.49142967793522985,-0.49142967793522985,1.0003287086303312,0.0002919906834508657
-0.49132265957450727,-0.49132265957450727,0.999728358018443,0.00026461568281512915
-0.49119264776309135,-0.49119264776309135,0.9998942268609845,0.00023711841600005282
-0.49109159528961754,-0.49109159528961754,1.0000586054895744,0.0002143208839043537
-0.4908785327352234,-0.4908785327352234,1.0002675107236456,0.000227265227858111
-0.4905923440368497,-0.4905923440368497,1.0001930570316744,0.00025735213667439475
-0.49045988311700056,-0.49045988311700056,0.9999255367687772,0.00023823026889695519
-0.49033390056574716,-0.49033390056574716,0.9997192304529939,0.00025662443086878754
-0.4901889744200162,-0.4901889744200162,1.0001248245128775,0.0002050993393558226
-0.49001219864949236,-0.49001219864949236,0.9999400565400528,0.00023769168830535553
-0.48990245625027456,-0.48990245625027456,1.0001094789291556,0.0002395046165989277
-0.4898268651268154,-0.4898268651268154,1.0000768727051264,0.0002340926982717007
-0.4897113228820672,-0.4897113228820672,0.9998768185663529,0.00026296165734020536
-0.48958462179289197,-0.48958462179289197,1.0000330785450124,0.00021278727404757278
-0.48950085722099174,-0.48950085722099174,1.0002564296232621,0.00021715540917398567
-0.48931500399266953,-0.48931500399266953,0.9998530118726455,0.00023791385644595875
-0.4890386055376439,-0.4890386055376439,1.0002659635997144,0.0002532128370764778
-0.48893006822181634,-0.48893006822181634,1.0000932885234122,0.0002370833081024784
-0.4887764997431077,-0.4887764997431077,1.0000927987352874,0.0002417495597440944
-0.488614403547399,-0.488614403547399,0.9999314102692936,0.0002526502046499827
-0.48841399803350216,-0.48841399803350216,1.0001267935126057,0.00020798173911970984
-0.4883280055961222,-0.4883280055961222,1.00018270422211,0.00023847034020346795
-0.4882320100419747,-0.4882320100419747,0.9998315371512707,0.00024399798956617277
-0.4881196138805535,-0.4881196138805535,0.9997730860503372,0.00023441407014061522
-0.4880003884820326,-0.4880003884820326,1.0000278307536985,0.00021709551262924135
-0.48788655897515126,-0.48788655897515126,1.000422989772073,0.0002121829072920897
-0.48765144286080614,-0.48765144286080614,1.0002872786366628,0.00026563774622537884
-0.4874389901480754,-0.4874389901480754,1.0001079344417323,0.0002608872251003681
-0.48734148366493174,-0.48734148366493174,0.9998709361736028,0.0002516104570895857
-0.4872114359990519,-0.4872114359990519,0.9997331361468111,0.0002654254457082075
-0.487101500735298,-0.487101500735298,0.9999160973669788,0.00023711031102609842
-0.48700260839759724,-0.48700260839759724,1.0001025969280832,0.00023482385026374732
-0.48684177110772,-0.48684177110772,1.0000177807804405,0.00020844438487777357
-0.4867590174995712,-0.4867590174995712,0.9999835055299835,0.00024066188899614342
-0.4866600882487546,-0.4866600882487546,0.999684465102869,0.00024414093957729076
-0.48652439265933933,-0.48652439265933933,0.9999242570114021,0.00023897215422401938
-0.48639493367736575,-0.48639493367736575,1.000267736602296,0.0002132408437226696
-0.48624549301384834,-0.48624549301384834,1.0001129370883781,0.000216064315589862
-0.48604515252809505,-0.48604515252809505,1.0001243220465177,0.00026661773307921086
-0.4858777672845463,-0.4858777672845463,0.9996376422276277,0.00026162060304883494
-0.48577765650697985,-0.48577765650697985,0.999880968201267,0.00023881777632494614
-0.4856300502389786,-0.4856300502389786,0.9999181312146442,0.00025999808632397867
-0.4854649163513386,-0.4854649163513386,0.9999691441551525,0.00024422981884692163
-0.48535668851545777,-0.48535668851545777,0.9998270104799083,0.0002452549165647333
-0.4852068134357978,-0.4852068134357978,0.9998871541152582,0.0002157381430600215
-0.485081296365388,-0.485081296365388,0.999783162303052,0.0002453904880167024
-0.48495689556366417,-0.48495689556366417,1.000152863310638,0.00026191623399185167
-0.48479129005936555,-0.48479129005936555,1.000045812280525,0.0002174333671156685
-0.4846114635503909,-0.4846114635503909,1.000039610125988,0.00023870400369510155
-0.4845326503564138,-0.4845326503564138,0.9997603722352355,0.00023449828107709137
-0.48434502541131225,-0.48434502541131225,0.9998047875647206,0.0002619783172149386
-0.4842236530392256,-0.4842236530392256,1.0005101778508914,0.0002525946092355648
-0.48412372709790363,-0.48412372709790363,1.0001334651967972,0.00026320954802433905
-0.483877580625267,-0.483877580625267,1.0001037759061835,0.00024018201280534215
-0.48377587108043374,-0.48377587108043374,0.9997894312613825,0.00024286476864868346
-0.48366159241195417,-0.48366159241195417,0.9997357136259268,0.0002217321365504644
-0.4835354423164972,-0.4835354423164972,0.999766778256061,0.00023524575008032378
-0.48341755096043926,-0.48341755096043926,0.9996538336230811,0.00026223502992939125
-0.48329941873962523,-0.48329941873962523,0.9998623205538293,0.00021625788228945983
-0.48317598930661915,-0.48317598930661915,1.000370925736003,0.00029568716255256347
-0.48305140750089776,-0.48305140750089776,0.9998666288498402,0.00024097865458337216
-0.4829302754384116,-0.4829302754384116,0.9999505673095426,0.00023720725892230633
-0.4827636497793719,-0.4827636497793719,0.9997290729656726,0.0002626842040446389
-0.4826049451927247,-0.4826049451927247,0.9999727607358118,0.00024166787981587498
-0.482388438374619,-0.482388438374619,0.9999526989023633,0.0002576460296236667
-0.48223305718784104,-0.48223305718784104,1.000143407717841,0.00024515903061622825
-0.4821453102165833,-0.4821453102165833,1.000261497103504,0.000219920924272071
-0.48201083405074313,-0.48201083405074313,1.000262716946796,0.000261656788540936
-0.4818629779125331,-0.4818629779125331,1.0002026822747643,0.00023701524887030623
-0.48173968148475976,-0.48173968148475976,1.0003465652608727,0.0003280171333655105
-0.4816131457941083,-0.4816131457941083,1.0000960376216375,0.00021212433680055536
-0.4814857133489568,-0.4814857133489568,0.9999393448956105,0.0002632736162586662
-0.4814015827570984,-0.4814015827570984,1.0000438629106618,0.00020898119125543763
-0.4812271289745695,-0.4812271289745695,1.0002896731675601,0.0002590528205482192
-0.48105893562315033,-0.48105893562315033,1.0002231537526334,0.0002362868191258857
-0.48095887114614017,-0.48095887114614017,1.0001812585416625,0.0002419512234910207
-0.48070730465551603,-0.48070730465551603,0.9997266688746738,0.0002572727833229451
-0.48061587958945895,-0.48061587958945895,0.9995910177375542,0.0002148609580421875
-0.4805409195629181,-0.4805409195629181,1.0000293626036862,0.00022506945248164958
-0.4804545675389818,-0.4804545675389818,1.0002572116883144,0.0002385507605977116
-0.4802899823298503,-0.4802899823298503,0.9998446440674847,0.00023749855035319064
-0.4801705883335671,-0.4801705883335671,0.9998195414677584,0.00021674120866051462
-0.48002448742845444,-0.48002448742845444,0.9999401901253989,0.00024276923602326107
-0.4798527467355598,-0.4798527467355598,1.0001226616233942,0.00021927806626717826
-0.4796151123024174,-0.4796151123024174,0.9998938691825281,0.0002619337777572383
-0.4794559923648194,-0.4794559923648194,1.0000967544029504,0.0002323677583445496
-0.4792612279423338,-0.4792612279423338,1.0002206568383005,0.0002441808969245522
-0.47907017674515373,-0.47907017674515373,1.0000287025244667,0.00023592191028843837
-0.4789730153803248,-0.4789730153803248,1.0002125736093177,0.0002213546108492183
-0.47890018167017845,-0.47890018167017845,0.9998329311752249,0.00021885811919624171
-0.47879008200543466,-0.47879008200543466,1.0000020398037872,0.0002607682118204247
-0.4786474679123785,-0.4786474679123785,1.0003291128610414,0.0002158389197084632
-0.478511920816527,-0.478511920816527,1.0001220137342721,0.000219177869957438
-0.4784074475959642,-0.4784074475959642,0.9999045788226819,0.00023696069546134127
-0.4783084059235989,-0.4783084059235989,1.0002488844113997,0.0002391646662815508
-0.47818727437479536,-0.47818727437479536,0.9999248941172093,0.00026551802976905047
-0.47798080760840095,-0.47798080760840095,1.0001627453930522,0.0002360656291545814
-0.4778771468103514,-0.4778771468103514,0.999861595544685,0.00021517240315502094
-0.4776971195009537,-0.4776971195009537,1.0000726272870204,0.0002407618507096153
-0.47752059289414317,-0.47752059289414317,1.0003779958297254,0.00023896491931799747
-0.47745368773175867,-0.47745368773175867,0.9998568708661271,0.00020818010416029273
-0.47737038106279217,-0.47737038106279217,0.9999576782643789,0.00021650633345258254
-0.47726119943836237,-0.47726119943836237,1.0000492978356021,0.0002630332617190495
-0.4771652539464412,-0.4771652539464412,0.9998586330567673,0.0002211028604016747
-0.47702174591468066,-0.47702174591468066,0.9998239992854023,0.00021926984797141386
-0.47688215151429175,-0.47688215151429175,0.9997048185146383,0.00024625741254897073
-0.47674977907372523,-0.47674977907372523,0.9998799688578401,0.00023940389687895377
-0.47666768711715124,-0.47666768711715124,1.000069644042647,0.00021784914143671268
-0.47653561460901983,-0.47653561460901983,0.999849081368191,0.0002632331845072495
-0.4763970965257613,-0.4763970965257613,0.9997856398869676,0.00023621961714373487
-0.4762412382129696,-0.4762412382129696,1.0001042760101397,0.00021578310229757969
-0.47609082142589615,-0.47609082142589615,0.9999009006324633,0.00024316269467142742
-0.47597589044598865,-0.47597589044598865,1.0002155548609517,0.0002402766172888634
-0.47589972765927085,-0.47589972765927085,1.0001961057019428,0.00021802173005405672
-0.4757910854030342,-0.4757910854030342,1.0000430357233747,0.00021104981694289158
-0.4757115668231563,-0.4757115668231563,1.0001455669196093,0.00025520628907885104
-0.47565996529156107,-0.47565996529156107,0.999709900515457,0.0002490068260471615
-0.4755529655529244,-0.4755529655529244,1.0000416597048378,0.00021792680366499684
-0.47542989584108,-0.47542989584108,0.9999144869942687,0.00022100641779082523
-0.475308322134515,-0.475308322134515,1.0002947846836743,0.00026126515656284114
-0.47520196542318444,-0.47520196542318444,0.9998111229498544,0.00021975987509931482
-0.4751230527406733,-0.4751230527406733,1.0000568343685174,0.0002402355855530503
-0.4749391829718661,-0.4749391829718661,1.000002753065584,0.0002453006649602838
-0.4748252088393201,-0.4748252088393201,1.000255764419172,0.00021382839292712814
-0.4747068610122369,-0.4747068610122369,0.9998167096033888,0.00021345895025153515
-0.47454769931646296,-0.47454769931646296,1.00025943078832,0.00027411247404829375
-0.4744122025971592,-0.4744122025971592,1.0001267580452455,0.0002531327574168641
-0.47431694536062424,-0.47431694536062424,0.9998316034008725,0.00021213359104254047
-0.474197009956697,-0.474197009956697,0.9999864191053323,0.00024103929487006003
-0.47409639867328224,-0.47409639867328224,0.999818107434753,0.0002307112144752545
-0.47399665799966895,-0.47399665799966895,0.9999454345888623,0.00022300239283176742
-0.473828027908894,-0.473828027908894,0.9997928341257042,0.00024208322169415558
-0.4736548546192353,-0.4736548546192353,1.0001754103937572,0.00023843350293891973
-0.47354082933525204,-0.47354082933525204,1.0001606402490002,0.0002439947755906834
-0.4733676777643268,-0.4733676777643268,1.0001970353731133,0.00023916597450728471
-0.47322750413004544,-0.47322750413004544,1.0001037466820897,0.0002104203692592951
-0.47307586437891586,-0.47307586437891586,1.000002611126081,0.0002395794113026731
-0.47291749303694813,-0.47291749303694813,1.0001878544062142,0.0002353461246295988
-0.47280925725353884,-0.47280925725353884,0.9999376101876228,0.0002778192590769223
-0.4727418367525388,-0.4727418367525388,0.9995934496108397,0.00021360565738659572
-0.4726279298389272,-0.4726279298389272,1.000087281871233,0.0002216035159973798
-0.4724892045654997,-0.4724892045654997,1.0003324668835958,0.000230100689083871
-0.47239008062533683,-0.47239008062533683,1.0000308874021215,0.00022725066683814405
-0.47230923145179987,-0.47230923145179987,1.000254017344576,0.0002229382782824339
-0.4721958557900507,-0.4721958557900507,0.9998314800524601,0.00027957695965091344
-0.47208285032756975,-0.47208285032756975,0.9999080944175963,0.00023409721657188348
-0.4719718857864791,-0.4719718857864791,1.0000036096649916,0.00024381146850353642
-0.47183394076491825,-0.47183394076491825,0.9998786991103581,0.00023987204646294118
-0.4716465955134481,-0.4716465955134481,1.0000640633138675,0.00021889197202247832
-0.471456076814502,-0.471456076814502,0.9998586597358035,0.00023996264726219304
-0.4713221874611918,-0.4713221874611918,0.9998077625769962,0.00023668824304653012
-0.47123875650577246,-0.47123875650577246,0.9999749336910437,0.00021370754157912475
-0.471145219290338,-0.471145219290338,0.9999958511470226,0.00022105487565189018
-0.470914518796053,-0.470914518796053,1.0001797113359412,0.00023539319470857774
-0.47079309393739094,-0.47079309393739094,1.0000246815301896,0.0002089272722623489
-0.4707389683018846,-0.4707389683018846,0.9998717259943213,0.00021771180322905894
-0.4706791762160719,-0.4706791762160719,1.0000298385188153,0.0002605303238682046
-0.4705621036620869,-0.4705621036620869,1.000103634657807,0.00028050677695282665
-0.47045949857347297,-0.47045949857347297,1.000249299686003,0.00025931400626707954
-0.4703746559454885,-0.4703746559454885,1.0002882358843874,0.00021854170244158013
-0.47021397573626017,-0.47021397573626017,0.9998864911715458,0.00022007505321574558
-0.469910255659488,-0.469910255659488,1.0000082725930652,0.00024055610874847144
-0.4697165874829807,-0.4697165874829807,1.0000372974256742,0.00023905890282814205
-0.46963290000567215,-0.46963290000567215,0.9999222440672755,0.0002186480026899
-0.46952289810069486,-0.46952289810069486,1.0002146160630807,0.000261314883713954
-0.46929657513901474,-0.46929657513901474,1.0000773746481062,0.00024159780211684758
-0.4691561085775902,-0.4691561085775902,0.9999293334901749,0.00024066901405733065
-0.4691044309140125,-0.4691044309140125,1.0000271314718177,0.00025989912913147186
-0.4689971861545928,-0.4689971861545928,0.9999955657302534,0.00025729084626060117
-0.4689029935492727,-0.4689029935492727,0.9999443763537949,0.0002629308189124643
-0.4688220382966392,-0.4688220382966392,0.9998737826691091,0.0002134002164528082
-0.46862514124368315,-0.46862514124368315,0.9999879375482179,0.00021370995958341853
-0.46837240216627835,-0.46837240216627835,0.9999313515723183,0.0002622897649773196
-0.4682105298023089,-0.4682105298023089,0.9999665847644075,0.0002406933173584678
-0.4681103249604348,-0.4681103249604348,0.9997287025179326,0.0002183710825741934
-0.4680313240358373,-0.4680313240358373,0.9999266358389611,0.00021172999807332174
-0.4679110669174406,-0.4679110669174406,1.0000293571137076,0.0002715149987551443
-0.46768654181068997,-0.46768654181068997,1.000125400838602,0.00021254202721626413
-0.467572522937553,-0.467572522937553,0.9998507655355275,0.0002634477277455172
-0.46749724254914327,-0.46749724254914327,0.9999269147766615,0.00023672422518744205
-0.46742903756530724,-0.46742903756530724,0.9997123246995372,0.00027887661137791515
-0.4673280029594025,-0.4673280029594025,0.9996935348214746,0.0002609101469991222
-0.4672449527701247,-0.4672449527701247,1.0003014685292173,0.0002138449078319952
-0.46705766773811774,-0.46705766773811774,1.0001261858812334,0.00021962040344947163
-0.4668207513874222,-0.4668207513874222,0.9998996193882596,0.00025955981384375164
-0.46663022794673453,-0.46663022794673453,0.9999009544219428,0.00024030969546338246
-0.46655908538305085,-0.46655908538305085,0.9997656877850251,0.00022126181123848987
-0.4664060251030605,-0.4664060251030605,1.000046158242292,0.0002442242017560818
-0.46619595375304923,-0.46619595375304923,1.0000302240626724,0.00024275918532201327
-0.46605902417068135,-0.46605902417068135,1.0001578192088276,0.00023724340585997098
