time,time,flux,flux_err
-0.4998155227267868,-0.4998155227267868,0.9999926268850391,4.55230009089859e-05
-0.49963945998279086,-0.49963945998279086,1.0000347072524034,4.124045922294201e-05
-0.4993943115122647,-0.4993943115122647,0.9999915209146517,4.08847078707342e-05
-0.4992440563717537,-0.4992440563717537,0.9998775768652436,4.1019555059472954e-05
-0.4990222781210605,-0.4990222781210605,0.9999859745596439,4.120478080173885e-05
-0.498852869500638,-0.498852869500638,0.9999610481819472,4.0681362080265556e-05
-0.4985809423554656,-0.4985809423554656,0.9999164519326212,4.155527491070541e-05
-0.49827173358451093,-0.49827173358451093,1.000080063098224,4.168401192114147e-05
-0.49804469951279773,-0.49804469951279773,0.9999235022442408,4.124362192103931e-05
-0.49765311059038597,-0.49765311059038597,1.0000035693924223,4.082810472211525e-05
-0.49737889161169735,-0.49737889161169735,1.000018174058502,4.119139188755663e-05
-0.4971060312913096,-0.4971060312913096,0.9999429410177798,4.141869327006557e-05
-0.4968199472757533,-0.4968199472757533,0.9990191411952345,4.09218411906336e-05
-0.496556710443565,-0.496556710443565,1.0000098381629967,4.179357375303297e-05
-0.4963466891037342,-0.4963466891037342,0.9998664498470733,4.1536895020393075e-05
-0.4960607422955263,-0.4960607422955263,1.0000637468352036,4.212253317186998e-05
-0.49586969090125876,-0.49586969090125876,1.0000255447344053,4.089941580344009e-05
-0.4956516458908709,-0.4956516458908709,0.9999618118078295,4.103364543311635e-05
-0.4955168113197715,-0.4955168113197715,1.0000705275108186,4.088310648006894e-05
-0.4953033559840151,-0.4953033559840151,0.999965931156105,4.120384026813492e-05
-0.4951971302002903,-0.4951971302002903,0.9999474224387292,4.068113514821332e-05
-0.49488690484492964,-0.49488690484492964,1.000007739795091,4.137327292169582e-05
-0.49461062047780613,-0.49461062047780613,0.9999286587691778,4.139016426307843e-05
-0.4943996636465499,-0.4943996636465499,1.0000309571184618,4.155034249428058e-05
-0.4939990674021601,-0.4939990674021601,1.0000700474593036,4.102055383613135e-05
-0.4937136147161937,-0.4937136147161937,0.9999720219459837,4.080157941346683e-05
-0.4934163504510252,-0.4934163504510252,1.0000267856744038,4.1613053731212455e-05
-0.49310104645574027,-0.49310104645574027,0.9989513427357359,4.0921216382517654e-05
-0.4928377658519366,-0.4928377658519366,0.9999714234064424,4.179750796140187e-05
-0.4926529751113776,-0.4926529751113776,1.0000399107603792,4.1712837091312184e-05
-0.49239035547693677,-0.49239035547693677,0.9999355053211698,4.178677144876736e-05
-0.49217068513521556,-0.49217068513521556,1.000070584251657,4.124119344098441e-05
-0.4919327397983352,-0.4919327397983352,0.9999658648225374,4.103748283208147e-05
-0.49180139226166375,-0.49180139226166375,0.999955290783355,4.087100938913225e-05
-0.4915905109406367,-0.4915905109406367,1.0000365691399622,4.103549529322849e-05
-0.49144866882684257,-0.49144866882684257,0.999919725424121,4.0856904812116626e-05
-0.4911431911304362,-0.4911431911304362,1.0000409025116883,4.1557798043743036e-05
-0.49083391317410585,-0.49083391317410585,1.0000252189073024,4.168947396681084e-05
-0.49055124239926046,-0.49055124239926046,0.9999697382117286,4.124773464072596e-05
-0.49015334312932735,-0.49015334312932735,0.9999797396086756,4.0987403484347786e-05
-0.4898576485234116,-0.4898576485234116,1.0000741370161728,4.087207786381674e-05
-0.48959026205466216,-0.48959026205466216,0.9996776505324654,4.0993435494693366e-05
-0.4893466847745458,-0.4893466847745458,0.998917033862204,4.107566731120546e-05
-0.4890469880968794,-0.4890469880968794,0.9998879644740967,4.197772388084751e-05
-0.48890758882103,-0.48890758882103,1.000051358849517,4.136221018138255e-05
-0.4886229401869059,-0.4886229401869059,0.9999888666934409,4.2122637490462465e-05
-0.4883901056401555,-0.4883901056401555,1.000000249622658,4.09083918414355e-05
-0.4881997034588039,-0.4881997034588039,1.0000781164434425,4.1186207587766883e-05
-0.48797425362149627,-0.48797425362149627,1.000047983180398,4.089234273125955e-05
-0.4878363382676071,-0.4878363382676071,1.0001124816744316,4.1217876940928e-05
-0.48763588319925477,-0.48763588319925477,1.0000421218568116,4.067868716661572e-05
-0.4873881930371226,-0.4873881930371226,0.9999605093670205,4.173002104121174e-05
-0.487072246740513,-0.487072246740513,0.9999577321614932,4.153001458584825e-05
-0.4867354331597653,-0.4867354331597653,0.9999528804464548,4.1554938894522095e-05
-0.48636461540545495,-0.48636461540545495,1.0000847860649382,4.06473130311091e-05
-0.4861093743745187,-0.4861093743745187,0.9999842642762953,4.120424426913197e-05
-0.48577719177528705,-0.48577719177528705,0.9990164686129883,4.077333003160808e-05
-0.48552132708136925,-0.48552132708136925,1.0000666625809917,4.19668872665336e-05
-0.48526986357514945,-0.48526986357514945,1.0000265566558657,4.1577316075850075e-05
-0.48514839344647953,-0.48514839344647953,0.9998981272913999,4.1394858771501506e-05
-0.4848678263043894,-0.4848678263043894,0.9999399189192459,4.19150808004718e-05
-0.4846028594491827,-0.4846028594491827,0.9999979893311377,4.108536558596666e-05
-0.48445334585883304,-0.48445334585883304,1.0001837792466952,4.121350960538629e-05
-0.48421435563063825,-0.48421435563063825,0.9999044521515156,4.0872441654160344e-05
-0.4840799900063303,-0.4840799900063303,1.0000886115440835,4.101330388986479e-05
-0.48379771417094164,-0.48379771417094164,1.0000216874239234,4.084951779565971e-05
-0.4836617750384676,-0.4836617750384676,0.9999051448097511,4.139480063704105e-05
-0.4833533460207036,-0.4833533460207036,0.9999164224978415,4.152758375930941e-05
-0.4830164922283302,-0.4830164922283302,1.0000023844112658,4.1557857188354296e-05
-0.482645710779866,-0.482645710779866,0.9999244052845508,4.0643712422093334e-05
-0.48233252513289243,-0.48233252513289243,1.0000827796358718,4.141380844099534e-05
-0.4819923721669511,-0.4819923721669511,0.9990570206661857,4.074554531766604e-05
-0.48176961613964975,-0.48176961613964975,1.0000376286118933,4.16260491510335e-05
-0.4815509406917727,-0.4815509406917727,0.9999789944466417,4.157832325709282e-05
-0.48142947423848453,-0.48142947423848453,0.9999842242944277,4.140218393676766e-05
-0.4811489481403214,-0.4811489481403214,0.9999420470766005,4.1914750072897834e-05
-0.48088390212806187,-0.48088390212806187,0.9999776286131589,4.1083055550470975e-05
-0.48073446204737136,-0.48073446204737136,1.0000785267753671,4.121469413578167e-05
-0.48049540014544617,-0.48049540014544617,1.0000290739345887,4.087553190943137e-05
-0.4803610910151065,-0.4803610910151065,1.0000090903860532,4.1012162229072034e-05
-0.4800490687189267,-0.4800490687189267,0.9999975636391027,4.0849384249929375e-05
-0.479883348761814,-0.479883348761814,1.000033891217561,4.1395997664302116e-05
-0.4796344453034408,-0.4796344453034408,1.0000305963764282,4.152495134084014e-05
-0.479297551293098,-0.479297551293098,1.0000035637969662,4.155819736023997e-05
-0.4789268061690336,-0.4789268061690336,1.0000104324173444,4.0645407764640956e-05
-0.4785540821278573,-0.4785540821278573,0.9999995812279666,4.140888132837451e-05
-0.47827345829484785,-0.47827345829484785,0.999020702056427,4.0745004219617186e-05
-0.4780506840984572,-0.4780506840984572,0.9999999356863082,4.162692858845093e-05
-0.4778320178106242,-0.4778320178106242,1.0000349808988305,4.157774768265502e-05
-0.47766022460662044,-0.47766022460662044,0.9999772163772771,4.158851470263188e-05
-0.4773914660315768,-0.4773914660315768,1.0000439869537476,4.193358209951614e-05
-0.4770991317149537,-0.4770991317149537,1.0000750325922774,4.089196614911745e-05
-0.4769306064426246,-0.4769306064426246,0.9998084586165994,4.1018013806670995e-05
-0.4767125941857785,-0.4767125941857785,0.9999036109685054,4.119650583427707e-05
-0.47657671185618256,-0.47657671185618256,0.999944370763086,4.085559561329002e-05
-0.4762925824955346,-0.4762925824955346,1.0000233954297528,4.13678056112953e-05
-0.47602374014168164,-0.47602374014168164,1.0000822322441354,4.123083474196406e-05
-0.47576149597603035,-0.47576149597603035,1.0000615980419987,4.152869048853321e-05
-0.4754763603960782,-0.4754763603960782,1.0000003834458937,4.122441545985021e-05
-0.47512705808362626,-0.47512705808362626,0.9999584775982905,4.06192443631558e-05
-0.47476396935946924,-0.47476396935946924,1.0001323662156576,4.176329960179968e-05
-0.4745065425877783,-0.4745065425877783,0.9990652647492508,4.0929539144024856e-05
-0.4742846113734913,-0.4742846113734913,1.000053771559185,4.1291354629344494e-05
-0.47408655313472536,-0.47408655313472536,0.9999934872507963,4.190839463753207e-05
-0.47386461431115096,-0.47386461431115096,0.9999864547117063,4.1246721683944577e-05
-0.473672584602059,-0.473672584602059,1.000038372782278,4.19309871350978e-05
-0.47338021656282764,-0.47338021656282764,1.0000036037646964,4.088936478731019e-05
-0.4732482381484715,-0.4732482381484715,0.9999890450684397,4.102983493321034e-05
-0.47301346353970075,-0.47301346353970075,1.0000638654223923,4.105321146038905e-05
-0.4728728266026792,-0.4728728266026792,1.0000233347062806,4.083178851888785e-05
-0.4725762700486257,-0.4725762700486257,1.0000108160042205,4.136682513476454e-05
-0.4723772108152161,-0.4723772108152161,1.0001109152357628,4.105797285025473e-05
-0.47210450885879707,-0.47210450885879707,1.000080494962964,4.14056713339747e-05
-0.4716854781599295,-0.4716854781599295,0.9998995818773194,4.102086333538062e-05
-0.4714330666700107,-0.4714330666700107,0.999916557016372,4.131904201596442e-05
-0.4711062991395011,-0.4711062991395011,0.9999859920798448,4.157714023976503e-05
-0.4707876418539172,-0.4707876418539172,0.9990913767453835,4.0930294669922946e-05
-0.47056565482910173,-0.47056565482910173,0.9999226663813173,4.129016262806612e-05
-0.4703676581357058,-0.4703676581357058,1.0000510155469156,4.1909209695344986e-05
-0.4700767898779759,-0.4700767898779759,1.0000375467779468,4.178139340625787e-05
-0.46987579373098926,-0.46987579373098926,1.0000706708704494,4.12400430487626e-05
-0.4696301764746522,-0.4696301764746522,1.0001366586877807,4.1028457572711486e-05
-0.4694921720836874,-0.4694921720836874,1.0001338259165014,4.104092011493576e-05
-0.4692747210810467,-0.4692747210810467,1.000020766524647,4.119739715967388e-05
-0.46907425038391465,-0.46907425038391465,1.0000659900906328,4.087362244321002e-05
-0.4688290509419858,-0.4688290509419858,1.0000567667399338,4.154544703038746e-05
-0.4685289218222806,-0.4685289218222806,1.0000128419228895,4.123155679843013e-05
-0.4683378245314316,-0.4683378245314316,0.9999439433700301,4.103837259958152e-05
-0.4679665466567485,-0.4679665466567485,0.9999740234552104,4.1024338790933525e-05
-0.46771414956031093,-0.46771414956031093,0.9999454816122059,4.131919421893887e-05
-0.4673873665720521,-0.4673873665720521,0.9999677803107895,4.157704397115166e-05
-0.46706874113504,-0.46706874113504,0.999127023270279,4.0933476626411356e-05
-0.4668367796739858,-0.4668367796739858,0.9999560213644052,4.163050890644797e-05
-0.466606405840048,-0.466606405840048,0.9999384789202495,4.155223821960958e-05
-0.4663095339208212,-0.4663095339208212,1.0000455261370018,4.2118883964682206e-05
-0.46610871565951584,-0.46610871565951584,1.0000277110560412,4.0912388198569526e-05
-0.46591128401764764,-0.46591128401764764,0.9999302826590494,4.102950811905264e-05
-0.46577324314639557,-0.46577324314639557,1.0000735049406895,4.1038432421358434e-05
-0.4655557845604562,-0.4655557845604562,0.9999894242921592,4.119740387657594e-05
-0.4653553555833696,-0.4653553555833696,0.9999891943153798,4.08728384199786e-05
-0.4651101804278824,-0.4651101804278824,1.0000076504796167,4.154646923081366e-05
-0.464810014394493,-0.464810014394493,0.9999345268185195,4.122944489179797e-05
-0.4645891305402756,-0.4645891305402756,1.00003800201582,4.103774115302877e-05
-0.4642476151582741,-0.4642476151582741,1.0000347115911281,4.102443613549e-05
-0.46399523245570434,-0.46399523245570434,1.0001425060413547,4.131742835974229e-05
-0.46370836948310623,-0.46370836948310623,0.9999731130109067,4.141577350916893e-05
-0.4633978029509308,-0.4633978029509308,0.9990176057575866,4.075285259445907e-05
-0.4631749560169737,-0.4631749560169737,0.9999651816665246,4.1624473345053413e-05
-0.46292986815269616,-0.46292986815269616,1.000030715349451,4.1905625719066024e-05
-0.46263893469708817,-0.46263893469708817,1.0000215919209094,4.178650093279797e-05
-0.462437947868807,-0.462437947868807,0.9999221221363829,4.123778535012648e-05
-0.4622187555557957,-0.4622187555557957,0.9998969391256344,4.088691044339199e-05
-0.462107844444381,-0.462107844444381,0.9999470419466376,4.1192732722336115e-05
-0.46184302268939065,-0.46184302268939065,1.0000625818779325,4.10261870614991e-05
-0.46163646080524356,-0.46163646080524356,1.0000778074174503,4.0871095362658236e-05
-0.46139130991880395,-0.46139130991880395,0.9999866839814515,4.15478842110322e-05
-0.4611367702323378,-0.4611367702323378,1.0000000263759563,4.122392334040827e-05
-0.4609333920751169,-0.4609333920751169,1.0000163854741315,4.122921147162755e-05
-0.46060081706550593,-0.46060081706550593,1.0000450796108378,4.1010718598199014e-05
-0.460311580816574,-0.460311580816574,0.9999126772409384,4.114461105886965e-05
-0.4600498899733566,-0.4600498899733566,0.9999507963740466,4.120438923395165e-05
-0.4597446026951502,-0.4597446026951502,0.9991123639344416,4.0783323594413335e-05
-0.4594892631732364,-0.4594892631732364,1.0000482104848507,4.1578974540777714e-05
-0.459251684029914,-0.459251684029914,0.9999290065464859,4.195714935809787e-05
-0.4589931611207703,-0.4589931611207703,0.9999905647570703,4.175827696174822e-05
-0.4587634775646848,-0.4587634775646848,0.9999663081276946,4.159256357306182e-05
-0.4585293321545123,-0.4585293321545123,0.9999761198018321,4.0714267147397245e-05
-0.45841671212074286,-0.45841671212074286,1.0000992192626532,4.138348331092787e-05
-0.458171162566191,-0.458171162566191,1.0000642941746232,4.088370120408751e-05
-0.4579935993670688,-0.4579935993670688,0.9999261730043786,4.0830417150036065e-05
-0.4576905702095246,-0.4576905702095246,0.9999629625984191,4.155826343029935e-05
-0.4574375018817364,-0.4574375018817364,0.9998621090194252,4.1381708943358976e-05
-0.4572144560568404,-0.4572144560568404,0.9999744478885999,4.12263029212834e-05
-0.4569112279054707,-0.4569112279054707,0.9999456173725136,4.1021635563374796e-05
-0.4566342733890224,-0.4566342733890224,0.9999566775640135,4.095054024486537e-05
-0.4564004790072431,-0.4564004790072431,1.0000347989658132,4.1067118595169436e-05
-0.4560834323026256,-0.4560834323026256,0.9998872285420463,4.124154790913111e-05
-0.45582016851640217,-0.45582016851640217,0.9993481769049186,4.145544727203754e-05
-0.4555729723546847,-0.4555729723546847,1.0000483378381844,4.1630960937343606e-05
-0.4553478960825942,-0.4553478960825942,1.0000062897144617,4.176454961467231e-05
-0.4550781775528094,-0.4550781775528094,1.000116230230677,4.1930956430952124e-05
-0.4548487607874449,-0.4548487607874449,0.9999155161760349,4.0714768614667094e-05
-0.45472467471545314,-0.45472467471545314,1.00003896395048,4.101212674317481e-05
-0.4544993652204994,-0.4544993652204994,0.9999445214111397,4.107548636228177e-05
-0.45434697178466193,-0.45434697178466193,0.9998086695947626,4.10190415341363e-05
-0.45397959860085846,-0.45397959860085846,0.9999766445777878,4.1376901159785254e-05
-0.45379096218700854,-0.45379096218700854,1.0000075421129115,4.12115031914526e-05
-0.4535395946746121,-0.4535395946746121,1.0000258570934768,4.120235194378836e-05
-0.4532315865589453,-0.4532315865589453,1.0000014975356801,4.137491042349909e-05
-0.45292384023948673,-0.45292384023948673,1.000040770610632,4.0487280222071764e-05
-0.4527410158864541,-0.4527410158864541,1.0001267108628917,4.153057276247406e-05
-0.4524266254420127,-0.4524266254420127,1.0000113675641191,4.143136539735634e-05
-0.4521931384024356,-0.4521931384024356,0.9990980034067045,4.09366806381083e-05
-0.451960968621529,-0.451960968621529,0.9998304939937099,4.163050513695212e-05
-0.4517308025393959,-0.4517308025393959,0.9999268711883345,4.155400549915303e-05
-0.451433929783434,-0.451433929783434,1.0000469012298816,4.2120236299132676e-05
-0.45123292623297856,-0.45123292623297856,0.9999536322149002,4.091303470080842e-05
-0.45103571429415296,-0.45103571429415296,1.0000691320927744,4.1035112700305844e-05
-0.45089752757276075,-0.45089752757276075,1.000052949551912,4.103898187742733e-05
-0.45066579077063124,-0.45066579077063124,1.0000395140478442,4.12139063604311e-05
-0.4504041279845069,-0.4504041279845069,0.9999831539769539,4.103614369893939e-05
-0.450198686985641,-0.450198686985641,0.9998428984013342,4.156051085302497e-05
-0.44989124516557694,-0.44989124516557694,1.0000802517479195,4.1196337840584206e-05
-0.44965157569988606,-0.44965157569988606,1.0000733794116805,4.1037781785956976e-05
-0.4493069179390659,-0.4493069179390659,0.9999734605699707,4.083290639984583e-05
-0.4491178496159819,-0.4491178496159819,1.0000214345761522,4.136023426828421e-05
-0.4488326009189677,-0.4488326009189677,1.00003974755556,4.14138038984106e-05
-0.4485221478912308,-0.4485221478912308,0.9991925471079396,4.0759909213828847e-05
-0.44829922808276024,-0.44829922808276024,1.0000065959619346,4.162418260816506e-05
-0.4480542882590271,-0.4480542882590271,1.0000527751490762,4.190615429338657e-05
-0.44776322435002386,-0.44776322435002386,0.9999974120698866,4.1784578424486875e-05
-0.4475575131979667,-0.4475575131979667,0.9999647045507224,4.1237683054704e-05
-0.4473168218719593,-0.4473168218719593,0.9999735988487467,4.103081184124941e-05
-0.4471785987103658,-0.4471785987103658,0.9999984711568567,4.103839620190399e-05
-0.44696263649725554,-0.44696263649725554,0.9999895483142737,4.104360123602899e-05
-0.44676088186502055,-0.44676088186502055,1.0000243800958375,4.087182305356615e-05
-0.44651582804426654,-0.44651582804426654,1.0000280596795228,4.1555116246981846e-05
-0.44622386368055234,-0.44622386368055234,1.0000605164636482,4.1385009086033105e-05
-0.44599441657230726,-0.44599441657230726,1.000015470667203,4.1039279612899496e-05
-0.445652957791026,-0.445652957791026,1.0000722206560075,4.1022824652320166e-05
-0.44542999821276225,-0.44542999821276225,1.0000478123971104,4.1171374059949196e-05
-0.44517416157905243,-0.44517416157905243,1.0000583563752037,4.120169684647014e-05
-0.4448688378909765,-0.4448688378909765,0.9990926092932118,4.0788048426875015e-05
-0.44461363142152094,-0.44461363142152094,1.0000218614644087,4.157787533354313e-05
-0.4443760077341949,-0.4443760077341949,1.0000616553425754,4.195524675779204e-05
-0.44411746478338043,-0.44411746478338043,0.9999473768058358,4.175911562702281e-05
-0.4438878558897613,-0.4438878558897613,1.0000331201814556,4.159191032784966e-05
-0.44362414555896523,-0.44362414555896523,1.0000431203821856,4.0895937908578047e-05
-0.4435132654743256,-0.4435132654743256,1.0000495414537713,4.119518459530539e-05
-0.44324839446405806,-0.44324839446405806,1.000038337114484,4.102615960566958e-05
-0.44307354464388027,-0.44307354464388027,0.9999386675932526,4.07006239934032e-05
-0.4428151440032934,-0.4428151440032934,0.9998695725621143,4.1560957737633675e-05
-0.4425618199484688,-0.4425618199484688,1.000066006035818,4.138132354776545e-05
-0.44233871209635256,-0.44233871209635256,1.0000901701240348,4.1230637774063647e-05
-0.44200616450109464,-0.44200616450109464,1.0000422558897726,4.1010767301244856e-05
-0.4417170309873654,-0.4417170309873654,1.000003047229821,4.115140571678521e-05
-0.44145522950348093,-0.44145522950348093,1.0000299731734592,4.1203266181088244e-05
-0.44114989673212224,-0.44114989673212224,0.999183263725552,4.07918557401032e-05
-0.44089472350622144,-0.44089472350622144,1.0001187957976732,4.1579426835806056e-05
-0.44065708867901776,-0.44065708867901776,0.999981738840507,4.196138965641749e-05
-0.44039854070085765,-0.44039854070085765,0.9999501866471995,4.1763891805105884e-05
-0.44016895049192045,-0.44016895049192045,1.0001629343776801,4.159341901828248e-05
-0.4399052235778299,-0.4399052235778299,1.000150962435372,4.088894622950665e-05
-0.43979434972866327,-0.43979434972866327,0.9999956359874996,4.11907561855578e-05
