time,time,flux,flux_err
-0.4999424662249415,-0.4999424662249415,0.9999316650358739,0.00010021620044244094
-0.4997423662462097,-0.4997423662462097,1.0000461952069013,8.919875755364832e-05
-0.49959040302128416,-0.49959040302128416,1.0000562565788864,8.939085161264138e-05
-0.49950836499629075,-0.49950836499629075,1.0000583486812922,9.616075771443959e-05
-0.4994517681770958,-0.4994517681770958,0.9999890650000305,8.862041936733383e-05
-0.49937655795220054,-0.49937655795220054,1.0000447285406024,9.601991053058602e-05
-0.49929613963977315,-0.49929613963977315,1.0000326106243516,8.766765621763713e-05
-0.4991475397153408,-0.4991475397153408,1.0001685782502228,8.870693885657148e-05
-0.49895153214238236,-0.49895153214238236,1.0001864660387103,9.247713246027983e-05
-0.4988366329591372,-0.4988366329591372,1.0000591472566498,8.953765338851615e-05
-0.4987684928477393,-0.4987684928477393,0.9999552825173433,9.43341720704516e-05
-0.4986733976380492,-0.4986733976380492,1.0000452478982704,9.075202562557019e-05
-0.49856295204226625,-0.49856295204226625,1.0000148608645605,8.813920455319287e-05
-0.4984088485005486,-0.4984088485005486,0.9999696568871734,9.143855681962032e-05
-0.498285715815291,-0.498285715815291,0.9999409766671066,8.936067472972625e-05
-0.4981260144078988,-0.4981260144078988,0.9999707037450163,9.022805146250982e-05
-0.49797660752228695,-0.49797660752228695,0.9999816302892951,8.721017890550887e-05
-0.49789793325180653,-0.49789793325180653,1.0000577963464745,8.924354133362918e-05
-0.4977765722956974,-0.4977765722956974,1.0000220130644306,8.919042686048663e-05
-0.4975835685523634,-0.4975835685523634,1.000037215697646,9.241194115378723e-05
-0.4974854761363531,-0.4974854761363531,0.9999108095718704,9.009742510465618e-05
-0.49741106250294254,-0.49741106250294254,1.000041233066718,9.15950782636667e-05
-0.4973038891934266,-0.4973038891934266,0.9999674856019031,9.330088944810937e-05
-0.4971704791583761,-0.4971704791583761,1.000129361978967,9.133655362429874e-05
-0.4970511092171364,-0.4970511092171364,1.0000246866920766,9.261276391013297e-05
-0.4969237529709062,-0.4969237529709062,1.0000577112098106,9.011201129203856e-05
-0.49681707427080257,-0.49681707427080257,0.999970193055318,9.070761672224036e-05
-0.4967341503994248,-0.4967341503994248,1.000164340664884,8.928633259997648e-05
-0.4966773209591338,-0.4966773209591338,1.000074630936705,9.210726199143934e-05
-0.49658481591759485,-0.49658481591759485,0.999964805707493,8.921775931755943e-05
-0.4964413358058664,-0.4964413358058664,0.9998889275321856,9.320022531197427e-05
-0.4963038912494085,-0.4963038912494085,1.0001125241024753,9.09637522050456e-05
-0.4962022638959752,-0.4962022638959752,1.0000657904059094,8.96657474253745e-05
-0.4960919993784046,-0.4960919993784046,1.0000072706495484,9.28417913063804e-05
-0.4959622177149868,-0.4959622177149868,0.9999354485950764,8.882311811489575e-05
-0.4958406438534439,-0.4958406438534439,0.9999616000408006,8.981568117285471e-05
-0.49574022786619026,-0.49574022786619026,0.9999706842983034,9.090181972374555e-05
-0.49561245608711035,-0.49561245608711035,0.9998664747289775,9.31658883256093e-05
-0.4954827883913822,-0.4954827883913822,0.9999679574772491,9.153408506861506e-05
-0.49535297473703394,-0.49535297473703394,1.0000502884766072,9.140671186070436e-05
-0.49525079164086494,-0.49525079164086494,0.9999297358006458,8.936993439813041e-05
-0.49511928476786127,-0.49511928476786127,0.9998183018695552,8.790608092611312e-05
-0.4950559953227639,-0.4950559953227639,1.0000236186781208,9.081378434014394e-05
-0.49494670505519023,-0.49494670505519023,0.9999657318137176,8.698393272893165e-05
-0.49484005036210876,-0.49484005036210876,1.0000292548405485,8.893945156895425e-05
-0.4946814610455476,-0.4946814610455476,1.000160099139747,9.210221866524305e-05
-0.4945841615772224,-0.4945841615772224,0.9999363209488858,8.965174337636987e-05
-0.49448995786369776,-0.49448995786369776,1.0000149448300868,8.97128201541787e-05
-0.49434322419474486,-0.49434322419474486,1.0000767610786248,8.817584174905288e-05
-0.4941985081473831,-0.4941985081473831,1.000007149936163,9.173117705432065e-05
-0.4940695311059244,-0.4940695311059244,0.9999625250632063,9.306179306563169e-05
-0.49400157274503725,-0.49400157274503725,0.9998620197556063,9.287639762401836e-05
-0.4938537963462295,-0.4938537963462295,1.0000439134645531,8.850118694947039e-05
-0.4937356925482163,-0.4937356925482163,1.0000279459056154,9.194463949326912e-05
-0.4936472079083615,-0.4936472079083615,1.0001159605814536,9.451783103589544e-05
-0.4935181522865605,-0.4935181522865605,0.9999268505404707,8.975303332413507e-05
-0.4933949899299478,-0.4933949899299478,1.000011623739199,9.182662378695325e-05
-0.4932331439049449,-0.4932331439049449,0.9999281401428398,9.00879796430491e-05
-0.4930678872486169,-0.4930678872486169,0.9998701222291542,8.900098348986645e-05
-0.49294922997505636,-0.49294922997505636,1.0000162984861793,9.032523551218595e-05
-0.4928638560711988,-0.4928638560711988,1.000107888715715,8.986943820375416e-05
-0.4927663421833131,-0.4927663421833131,0.9999709798424762,8.884996065751717e-05
-0.4926323516396224,-0.4926323516396224,0.99994585841727,9.16689973287601e-05
-0.4925255681257113,-0.4925255681257113,1.0000705012390958,8.937470930769604e-05
-0.492445387551561,-0.492445387551561,1.000000791102679,8.927710980147254e-05
-0.49239756598253737,-0.49239756598253737,1.0000104315593548,8.98064995577732e-05
-0.49229239387714185,-0.49229239387714185,0.9998020898085676,9.206360688227989e-05
-0.4921411178082053,-0.4921411178082053,1.0000067143410452,8.859189615125193e-05
-0.49194869678103714,-0.49194869678103714,0.9999501172752009,9.285315089080834e-05
-0.4918498184713826,-0.4918498184713826,0.9999788519754969,9.066283148878346e-05
-0.4917476940790948,-0.4917476940790948,1.0000586332332733,8.909237710321731e-05
-0.4916604550155171,-0.4916604550155171,0.9999506118024369,9.06154790846292e-05
-0.49160272678200273,-0.49160272678200273,0.9998995970324618,8.952269428654931e-05
-0.4914730214695737,-0.4914730214695737,1.0000795852983602,8.875859564210124e-05
-0.4913142681980389,-0.4913142681980389,1.0000039364208027,8.988261281639616e-05
-0.49120248250619625,-0.49120248250619625,1.0000134579337425,8.975290294096683e-05
-0.4910920876682212,-0.4910920876682212,1.0000363081195587,9.08664291666076e-05
-0.49095844342082273,-0.49095844342082273,1.0000513227474932,8.94624715660681e-05
-0.4907606858534564,-0.4907606858534564,0.9998912190550362,9.038306389967248e-05
-0.4906723904081446,-0.4906723904081446,1.0000539856173485,9.151280520436374e-05
-0.49059158078453036,-0.49059158078453036,1.000089397223269,9.425042595827637e-05
-0.49045972167441504,-0.49045972167441504,1.0001290510316831,9.14349690810919e-05
-0.4903257798985578,-0.4903257798985578,1.0000340383639874,9.278116378006837e-05
-0.4901288928849681,-0.4901288928849681,1.0000426793877037,9.217667048233416e-05
-0.48995064898699636,-0.48995064898699636,1.0002724969818018,8.958769762819091e-05
-0.4897008794541762,-0.4897008794541762,1.0000110799970332,9.04588824406344e-05
-0.48961051009828227,-0.48961051009828227,0.9999266304154428,8.826894594281058e-05
-0.48952809850816265,-0.48952809850816265,0.9999137268336492,8.973788802174263e-05
-0.48939823514738234,-0.48939823514738234,0.9999648381762263,8.923962522600536e-05
-0.4893064309093461,-0.4893064309093461,1.0000456291463973,8.99100008787118e-05
-0.48921097241909595,-0.48921097241909595,0.999904911236189,9.226657966210201e-05
-0.4891210704387049,-0.4891210704387049,0.9999258655037571,9.019084110357243e-05
-0.48905559630147766,-0.48905559630147766,0.9999040506911223,8.90602615319783e-05
-0.48897414829116315,-0.48897414829116315,1.0000695564920425,8.911399802312283e-05
-0.4888554271979956,-0.4888554271979956,1.0001494835033808,9.099862143072669e-05
-0.48865023321413903,-0.48865023321413903,1.0000606361713964,8.941836496385481e-05
-0.4885459735443874,-0.4885459735443874,0.9999203239217233,9.307381653014227e-05
-0.4884598088967323,-0.4884598088967323,1.0000309844764577,8.889930800618324e-05
-0.48838640736576056,-0.48838640736576056,1.000113648312722,8.8744993325905e-05
-0.4882993237763003,-0.4882993237763003,1.0000474385468388,9.090636578181037e-05
-0.4882064640492899,-0.4882064640492899,1.0000144038820973,8.825857559678538e-05
-0.4880712375328585,-0.4880712375328585,1.0001071882788224,8.842366143992824e-05
-0.4879365173037513,-0.4879365173037513,1.0000153181943194,9.203485317877782e-05
-0.4878571680470486,-0.4878571680470486,1.000025554704672,8.857579120468681e-05
-0.48778675922512776,-0.48778675922512776,0.9999666515370629,9.083128190384346e-05
-0.4876459322418668,-0.4876459322418668,1.0000344843090132,9.111163177650903e-05
-0.4874354632855102,-0.4874354632855102,1.0001366338582351,9.530664077697555e-05
-0.4873159211798338,-0.4873159211798338,1.0001260792059232,8.824019214041082e-05
-0.487228453373973,-0.487228453373973,0.9999371623802066,9.081478239625782e-05
-0.48712164709795613,-0.48712164709795613,1.0000072261054505,9.046229494481975e-05
-0.48704091537656496,-0.48704091537656496,1.0000586021176918,8.900790420601164e-05
-0.4869668241473846,-0.4869668241473846,1.0001666445101782,9.291772441124703e-05
-0.48672653982575864,-0.48672653982575864,1.000009608165589,8.917177982459519e-05
-0.4865846626991697,-0.4865846626991697,1.0001539041070007,9.416967450174725e-05
-0.48646314639336197,-0.48646314639336197,1.000202001394253,9.382808532020699e-05
-0.4863538193319982,-0.4863538193319982,1.0000268643670538,9.006392974590203e-05
-0.48623023738909976,-0.48623023738909976,1.0001180011015554,9.049496099161619e-05
-0.4860702933765424,-0.4860702933765424,0.999953273300151,9.01750844598077e-05
-0.485883776263654,-0.485883776263654,1.0000021900362284,9.017359352176871e-05
-0.4858402838515758,-0.4858402838515758,0.9999096251664724,8.992220259273699e-05
-0.485761432529398,-0.485761432529398,1.0000130003690866,8.81945271560358e-05
-0.48566019856589265,-0.48566019856589265,1.0000203760565445,8.953441419527582e-05
-0.4855259186697367,-0.4855259186697367,1.00002292040583,8.810274420169425e-05
-0.48540637267869896,-0.48540637267869896,1.0001040350002,8.832888092455676e-05
-0.4852881371632975,-0.4852881371632975,1.0001308061381822,9.144955135478977e-05
-0.48515467426987013,-0.48515467426987013,1.00009654996795,9.13278857462914e-05
-0.4850760168672423,-0.4850760168672423,1.0001059345237402,8.816953176817903e-05
-0.48499911451071964,-0.48499911451071964,0.9999488676309911,8.924734381772316e-05
-0.48489880070992514,-0.48489880070992514,0.9999763841287399,9.01449496445363e-05
-0.4847017412292189,-0.4847017412292189,0.9999888774033903,8.92530198584666e-05
-0.48455153863251327,-0.48455153863251327,1.0000258444636363,9.092906213120338e-05
-0.4844845463507227,-0.4844845463507227,0.9999891183214752,8.979180521249876e-05
-0.48438586459087674,-0.48438586459087674,1.0000779831121256,8.963996828012058e-05
-0.4842791219969513,-0.4842791219969513,0.9998982269035925,8.714503719766843e-05
-0.4840871321852319,-0.4840871321852319,0.9999426986645108,9.435227622961632e-05
-0.48394007950337253,-0.48394007950337253,0.9999087248853116,9.297619412209985e-05
-0.48381794466258726,-0.48381794466258726,1.0000050061264685,9.339549471456167e-05
-0.48372267061349705,-0.48372267061349705,1.000003565306604,9.093152478422787e-05
-0.48359548738444574,-0.48359548738444574,1.0000260671607726,9.001106062378699e-05
-0.48340185789347745,-0.48340185789347745,1.000081669599193,8.861356789073212e-05
-0.48319991926837247,-0.48319991926837247,0.9999684538675261,9.083806134958851e-05
-0.48309427015992695,-0.48309427015992695,0.9998286414844832,8.918730185323338e-05
-0.48299252233991863,-0.48299252233991863,0.9999716437668266,8.816516844569406e-05
-0.4829230518800614,-0.4829230518800614,0.9999646719221567,8.911339544313268e-05
-0.4827998520893743,-0.4827998520893743,0.9999637512632029,8.818609380963699e-05
-0.4826310763237416,-0.4826310763237416,1.0000713545559454,8.767454388763118e-05
-0.48251479879327236,-0.48251479879327236,1.000144999449146,9.054122350290397e-05
-0.48244785364368,-0.48244785364368,1.000338735096314,9.206319495557474e-05
-0.4822946313433931,-0.4822946313433931,0.9999772521373018,8.75422870896044e-05
-0.48215993338308183,-0.48215993338308183,0.9999273237467146,8.898438658458559e-05
-0.4820787567878142,-0.4820787567878142,1.0001678520258228,9.354012366645967e-05
-0.48201470792482726,-0.48201470792482726,0.9999475990837514,8.854376488935152e-05
-0.48192590762701004,-0.48192590762701004,1.0000739668306189,9.02249114996602e-05
-0.48185160813445693,-0.48185160813445693,0.9999970570517076,9.052151674461126e-05
-0.48175383818743284,-0.48175383818743284,1.0000768992645797,8.967705606522019e-05
-0.4816940065407834,-0.4816940065407834,1.0000203749834538,9.156585358790727e-05
-0.4815730474118027,-0.4815730474118027,1.0000644499287223,8.85867911523472e-05
-0.4813943871275114,-0.4813943871275114,0.9998646261660914,8.962582692937534e-05
-0.4812891543697333,-0.4812891543697333,1.0001031064275385,8.996029881021136e-05
-0.481220348921488,-0.481220348921488,1.0000770492230464,9.045756878729564e-05
-0.48112859108150585,-0.48112859108150585,1.0000949047411187,9.225066453708386e-05
-0.48103753247632997,-0.48103753247632997,0.9998355826159475,8.800491215028863e-05
-0.4809602839013678,-0.4809602839013678,1.000105405936547,8.715856418779313e-05
-0.48084503197896994,-0.48084503197896994,0.9998962173846699,9.060150058349322e-05
-0.4806812613387592,-0.4806812613387592,1.0000241983758615,8.973639224687006e-05
-0.4804937083405093,-0.4804937083405093,1.0000099641104776,9.016310097626158e-05
-0.48043948728445685,-0.48043948728445685,1.0000499008766683,9.283658857098163e-05
-0.4803361672878964,-0.4803361672878964,0.9999126015264856,8.67132529942691e-05
-0.48021167070110093,-0.48021167070110093,0.999925053216239,8.854445319496078e-05
-0.48012408005597534,-0.48012408005597534,0.999933728282284,9.127455553103833e-05
-0.48005126722564456,-0.48005126722564456,1.0000522718188576,8.867208102745098e-05
-0.47991760037330095,-0.47991760037330095,0.9999759736966887,8.833611248966479e-05
-0.47980623067196576,-0.47980623067196576,1.0000041098280756,8.902570366303245e-05
-0.47963105890594304,-0.47963105890594304,1.0001785468159794,8.904148039594819e-05
-0.47956030220593676,-0.47956030220593676,0.9999334367632093,9.115587829293501e-05
-0.4794280499183515,-0.4794280499183515,1.0000688376221294,8.812179582542054e-05
-0.4792649468850868,-0.4792649468850868,1.0002133952990016,9.105688395206364e-05
-0.4791050159052247,-0.4791050159052247,0.9999702923112472,9.133531855220097e-05
-0.47894403679019887,-0.47894403679019887,0.9998995065204725,9.190468777892213e-05
-0.4787812561255123,-0.4787812561255123,1.000035111450872,9.089354450259393e-05
-0.47867876420932587,-0.47867876420932587,0.9999502566025134,9.515779293615807e-05
-0.4785378232132643,-0.4785378232132643,0.9998888275166891,9.03743981714771e-05
-0.47844700450368693,-0.47844700450368693,0.9999705339118042,8.86212691971704e-05
-0.478384407916019,-0.478384407916019,0.9999755673838712,9.119368923164053e-05
-0.47822615333861906,-0.47822615333861906,1.0001111024965106,8.898939564449477e-05
-0.47811284434137635,-0.47811284434137635,0.9999720487610098,8.876897657259956e-05
-0.4779661457047041,-0.4779661457047041,0.9999754870913765,9.027212960690471e-05
-0.47786414860165677,-0.47786414860165677,1.0001817976485312,9.041378450202648e-05
-0.47774793884309474,-0.47774793884309474,1.000054601878056,9.338832649218837e-05
-0.4776531942356087,-0.4776531942356087,1.0000661597022074,8.837130486588343e-05
-0.47755098415509567,-0.47755098415509567,0.9999977253954799,8.712824058907192e-05
-0.4775009865581524,-0.4775009865581524,0.9999521934065418,9.13293285535042e-05
-0.47743042069414515,-0.47743042069414515,1.0001318508609223,9.045526116964793e-05
-0.4773207047968754,-0.4773207047968754,0.999999504248694,9.107427091579944e-05
-0.47723020116027326,-0.47723020116027326,1.0001591127291127,9.16018876003545e-05
-0.4771390667781816,-0.4771390667781816,0.999998661354877,9.275272911387562e-05
-0.4769787401179201,-0.4769787401179201,1.0000797475768517,8.710457303227765e-05
-0.4768297487462405,-0.4768297487462405,1.0000825033325993,8.746273705886866e-05
-0.4767158194074,-0.4767158194074,0.9999804157073028,9.111210094173576e-05
-0.4766182812047191,-0.4766182812047191,0.9999494688340643,8.842810600936578e-05
-0.47651715562751634,-0.47651715562751634,0.9998513243490372,8.905134445910055e-05
-0.47641027718709666,-0.47641027718709666,0.9999193540633483,9.074957780610324e-05
-0.4763133204440237,-0.4763133204440237,0.9997896368634891,8.977628130394307e-05
-0.4762136127646954,-0.4762136127646954,0.9997389779939653,8.83620270660007e-05
-0.4761193862366781,-0.4761193862366781,0.9999372033090935,9.176799792980279e-05
-0.47592911942119825,-0.47592911942119825,0.9999326053991691,9.036687103682514e-05
-0.4757680863905989,-0.4757680863905989,1.0000284002966822,9.108545543006324e-05
-0.4757153051061323,-0.4757153051061323,1.0002165934823357,9.034412452699747e-05
-0.4756008999691403,-0.4756008999691403,0.9999289077557867,9.204093168087098e-05
-0.475437266757217,-0.475437266757217,1.0000061570669057,9.11893451157427e-05
-0.4753562970712665,-0.4753562970712665,1.0000780142433954,9.354400419555043e-05
-0.4752309192706889,-0.4752309192706889,1.0000171544796723,8.875331288724982e-05
-0.4750500243571878,-0.4750500243571878,0.999974638848456,9.044824179259784e-05
-0.4749153045930143,-0.4749153045930143,1.0001219538762716,8.88206308718279e-05
-0.4747458545374684,-0.4747458545374684,1.0000194941938931,8.722125884138277e-05
-0.4746483671297028,-0.4746483671297028,1.000007341245905,9.232268349742847e-05
-0.4745809031184763,-0.4745809031184763,0.9999810732518011,8.900779871857579e-05
-0.4744367331448302,-0.4744367331448302,1.000024266142547,8.953168147811594e-05
-0.4743302593793487,-0.4743302593793487,1.0000447188225225,9.141811575436158e-05
-0.4742222287815821,-0.4742222287815821,1.0001304317806137,9.086702218510322e-05
-0.47413065148793976,-0.47413065148793976,1.000039078273392,8.904257389047986e-05
-0.47409118040450265,-0.47409118040450265,1.0000502269731064,8.86540493361056e-05
-0.4740062346820196,-0.4740062346820196,0.9999444653317784,9.18483758314996e-05
-0.47386965194527875,-0.47386965194527875,0.9997987707069654,9.207247365990929e-05
-0.4737139667966403,-0.4737139667966403,1.0000305180279228,8.84441876708906e-05
-0.4735968145825609,-0.4735968145825609,1.0003239269067392,9.445067378615772e-05
-0.47347723066050096,-0.47347723066050096,0.9998866684800692,8.896172621169572e-05
-0.4733846539762453,-0.4733846539762453,1.0002353332760248,9.128534993576147e-05
-0.47333232030432554,-0.47333232030432554,0.9999864709797851,8.869926798364015e-05
-0.4732726936672407,-0.4732726936672407,1.0000595084905823,8.821858859294824e-05
-0.4731318300429848,-0.4731318300429848,1.0000105855089163,8.988841529469027e-05
-0.4730183623767516,-0.4730183623767516,1.000058924492841,8.926841361038863e-05
-0.47289253937851755,-0.47289253937851755,1.0000859220146445,8.970164782619841e-05
-0.4728277273570711,-0.4728277273570711,0.9999101228640519,9.396146595816801e-05
-0.47273500668452473,-0.47273500668452473,0.999995206985185,8.791221901884343e-05
-0.47256558635417606,-0.47256558635417606,1.000166153086726,9.333473150531502e-05
-0.4724451181355107,-0.4724451181355107,0.9999602819566478,9.59515237810671e-05
-0.47234062180432373,-0.47234062180432373,1.000049409409699,9.365119741231288e-05
-0.4722209336119704,-0.4722209336119704,0.9999934836982437,8.937079696111176e-05
-0.4721156248320767,-0.4721156248320767,0.9998308814420023,8.985418189830964e-05
-0.4720393105279072,-0.4720393105279072,1.0000825369601654,9.46879116867327e-05
-0.4719463804198313,-0.4719463804198313,1.0000441800866142,9.38090082832777e-05
-0.47175733647454765,-0.47175733647454765,1.0000164741929112,9.282967773788938e-05
-0.4715324728167616,-0.4715324728167616,1.0000703675423637,9.690920398414872e-05
-0.47137808130210035,-0.47137808130210035,0.9999843046114165,9.110047017910604e-05
