time,time,flux,flux_err
-0.4988682020036019,-0.4988682020036019,0.9998558853437761,0.00035162994921047905
-0.49746394353678625,-0.49746394353678625,1.0000521381155734,0.0003515304917500833
-0.49547527841787087,-0.49547527841787087,1.0002902755087169,0.0003209660417870245
-0.49363827174311153,-0.49363827174311153,1.000049415358377,0.0003211094925535709
-0.4924500077140692,-0.4924500077140692,0.9998964004467108,0.0003210139491289781
-0.4902007143027731,-0.4902007143027731,0.9995066995822013,0.0003209005663834141
-0.48875628547611993,-0.48875628547611993,0.9998045152887828,0.0003209636108013663
-0.487628902317374,-0.487628902317374,1.000147543896095,0.0003217163514711108
-0.4862054153374629,-0.4862054153374629,1.0002780997385128,0.00032096283185043
-0.48480024668970145,-0.48480024668970145,0.9999287018077416,0.0003209947847511906
-0.48354547838680445,-0.48354547838680445,1.000241564262452,0.0003211279119561093
-0.48136651910899675,-0.48136651910899675,1.000147052486977,0.000321083412378917
-0.47991199108364524,-0.47991199108364524,1.000404439990095,0.000321128691160243
-0.47843494646876933,-0.47843494646876933,1.0000156366646524,0.0003211343592850619
-0.47620812619134084,-0.47620812619134084,0.9998784718887554,0.0003210113669433331
-0.4751966648218513,-0.4751966648218513,0.9999558722625267,0.00032084244096309167
-0.47388618544355265,-0.47388618544355265,1.0005488202849981,0.000322312378495109
-0.47229283162014324,-0.47229283162014324,1.0002348772236471,0.0003211431867009398
-0.47120396645987056,-0.47120396645987056,0.9999388841999899,0.00032087798415124564
-0.46958284500578884,-0.46958284500578884,0.999831322498963,0.00032102154190473116
-0.4674773055477999,-0.4674773055477999,1.0001827875241858,0.0003210750092303626
-0.46621919647732285,-0.46621919647732285,0.9998373179353235,0.0003213282038371323
-0.4643033585816738,-0.4643033585816738,1.000272401110333,0.000321002388186347
-0.4622973180295958,-0.4622973180295958,0.9998891247402371,0.00032086637762900446
-0.4609780775004765,-0.4609780775004765,1.0000012421641489,0.00032251756452467107
-0.45962556740705623,-0.45962556740705623,1.0002500528827512,0.0003210214620680703
-0.458565248058585,-0.458565248058585,0.999963525244182,0.00032079069153846456
-0.4575037763584987,-0.4575037763584987,1.0002531443151654,0.00032114495116013805
-0.45547084615463973,-0.45547084615463973,0.9997914117519373,0.00032104804017168374
-0.45402597635547864,-0.45402597635547864,0.9998641403478995,0.0003210470714051845
-0.45282439408620123,-0.45282439408620123,1.0000055025923047,0.0003215578196409302
-0.4507269637622812,-0.4507269637622812,0.99987620032457,0.0003210723652252769
-0.44882328159728785,-0.44882328159728785,1.0000371233932963,0.00032092738522991577
-0.44713024960947223,-0.44713024960947223,0.9998810128575751,0.00032089378187397647
-0.4455345585520263,-0.4455345585520263,0.9996212004861104,0.0003208199052736401
-0.44455416542405146,-0.44455416542405146,0.999872495183028,0.0003211457884954689
-0.44322377057105766,-0.44322377057105766,0.9998564387669948,0.0003210009333974621
-0.4416545849562681,-0.4416545849562681,0.9999218765714574,0.0003211103850156888
-0.44030443370720607,-0.44030443370720607,0.9997991747773687,0.00032090525728233364
-0.438985090485221,-0.438985090485221,0.9997171643073361,0.00032173841606893675
-0.4370197484786331,-0.4370197484786331,1.0002350208535309,0.0003210278787437615
-0.43533381634915713,-0.43533381634915713,1.0000812317674435,0.0003209909545733731
-0.43368581801987605,-0.43368581801987605,1.0002446381109225,0.0003210968413039193
-0.4323203929772717,-0.4323203929772717,1.0003581085794129,0.0003209840298816626
-0.4313511030100926,-0.4313511030100926,0.9999782222013209,0.0003210258969737627
-0.4300093365738576,-0.4300093365738576,1.0001140640098398,0.0003207200844812841
-0.42844432591082293,-0.42844432591082293,1.0003575070625006,0.00032108260639925133
-0.4272972981183557,-0.4272972981183557,0.9995947568428989,0.0003210280683558372
-0.4258789835286734,-0.4258789835286734,0.9999992271977615,0.00032101151143292873
-0.4238140122535697,-0.4238140122535697,0.9999318277217245,0.00032085476581622074
-0.4221252225019271,-0.4221252225019271,1.0001715219315954,0.0003209595654160717
-0.4202040442083671,-0.4202040442083671,0.9999841256001961,0.00032114077501701983
-0.4189014718722319,-0.4189014718722319,1.0002854441596487,0.00032087922003940216
-0.4179014348752389,-0.4179014348752389,0.999582247908698,0.0003210232616143764
-0.4165000722772675,-0.4165000722772675,1.0001641441292453,0.000320909996095712
-0.4149836494550982,-0.4149836494550982,1.0000465841311699,0.00032092033048860397
-0.4138665438076714,-0.4138665438076714,1.000012862749474,0.0003210980631390632
-0.4121513050777139,-0.4121513050777139,0.9996337598806111,0.000320859323972071
-0.4103297556823236,-0.4103297556823236,0.999919821039706,0.00032096312004956904
-0.4085359848526423,-0.4085359848526423,1.0000744942386264,0.0003209000845990468
-0.40650174362090186,-0.40650174362090186,1.0001671434400958,0.0003209597167768865
-0.40534664835577133,-0.40534664835577133,0.9998960289382778,0.00032085528226805674
-0.40417752904832016,-0.40417752904832016,0.9998440803624404,0.0003212185427701051
-0.4025913502780895,-0.4025913502780895,1.0001435283990685,0.0003210914579940975
-0.40136745928102757,-0.40136745928102757,0.9999710583370331,0.00032114238415833346
-0.3999311446874344,-0.3999311446874344,0.9998045730938532,0.00032110735133062453
-0.3978640707136947,-0.3978640707136947,1.0002073022957803,0.0003210742243818623
-0.39619298665129465,-0.39619298665129465,0.9995107529044793,0.0003208094918313676
-0.3942888474499341,-0.3942888474499341,0.9999263027296925,0.0003209386721009527
-0.3924764338895329,-0.3924764338895329,0.9998422591437471,0.0003208500880316959
-0.3914841142228397,-0.3914841142228397,0.9998927415690313,0.00032141214275825105
-0.39007426170428516,-0.39007426170428516,1.0000454591454475,0.0003208615891909806
-0.38857232287700755,-0.38857232287700755,0.9995540782612888,0.00032101389197774843
-0.38746323281520745,-0.38746323281520745,0.9997204198408756,0.00032105304096075266
-0.3853135179975652,-0.3853135179975652,0.9996475430611698,0.0003210964063665529
-0.38373548330928314,-0.38373548330928314,1.0002276624728759,0.00032098910632011627
-0.3825004105507105,-0.3825004105507105,1.0002953423573855,0.0003211466599082635
-0.380073101601738,-0.380073101601738,0.9999691877212538,0.00032092413351472596
-0.37893207889355834,-0.37893207889355834,1.0003199922746138,0.00032094785677049583
-0.3777558650785068,-0.3777558650785068,0.9997563594672887,0.000321825567280292
-0.37617539538696293,-0.37617539538696293,0.9999142704483915,0.00032102019845208743
-0.3749597423069645,-0.3749597423069645,0.999705913415578,0.0003209327953007264
-0.3735198575122922,-0.3735198575122922,0.9999771114384283,0.0003209795711692069
-0.3714498209279554,-0.3714498209279554,0.9999464827622953,0.0003209710949749609
-0.3699710763990879,-0.3699710763990879,0.9996818341021181,0.0003210763023535488
-0.3683547203618218,-0.3683547203618218,1.0000371783629431,0.0003212782103805734
-0.3662758686201414,-0.3662758686201414,0.9997228387152515,0.00032094020290197205
-0.3653146059754363,-0.3653146059754363,0.9996228779582387,0.0003221543695556215
-0.3639414118377317,-0.3639414118377317,0.9997511452521939,0.0003209834639593127
-0.3623988575171097,-0.3623988575171097,0.9999876853879593,0.00032091562748537146
-0.36131316389655693,-0.36131316389655693,0.9998085793071396,0.0003210668960828441
-0.35941502983259854,-0.35941502983259854,1.0004520138686332,0.00032114423811404
-0.3575859193384531,-0.3575859193384531,0.9999785005111207,0.0003210946268443335
-0.3563892756435962,-0.3563892756435962,0.999701334870801,0.0003213015161762089
-0.354126292275032,-0.354126292275032,1.0000780881722693,0.0003209689388221086
-0.35257179287509643,-0.35257179287509643,1.0002247394105561,0.0003209414472132195
-0.35133478633943016,-0.35133478633943016,0.9997865704959137,0.00032242343607526185
-0.3498861695981759,-0.3498861695981759,0.9996600054143439,0.00032072674519424124
-0.3487419401484658,-0.3487419401484658,0.9997006159926587,0.00032084802628002047
-0.3474949284296599,-0.3474949284296599,0.9998015934832354,0.0003212166692309053
-0.34544251279367016,-0.34544251279367016,1.000032553669612,0.0003211397840594566
-0.3441249891955522,-0.3441249891955522,1.0002353108237805,0.00032103091844008764
-0.34287701696885053,-0.34287701696885053,0.9999488181360132,0.00032148881719891437
-0.34058569744229317,-0.34058569744229317,0.9999266352596148,0.0003210967350143619
-0.33889529222651615,-0.33889529222651615,1.0001408355725236,0.00032096352523388694
-0.337224535059795,-0.337224535059795,0.9998653082021816,0.00032086053170408507
-0.3358918855556112,-0.3358918855556112,1.000061890419244,0.0003208351125498111
-0.33490988466437555,-0.33490988466437555,0.9999205236291866,0.00032105510726064497
-0.33332552167848917,-0.33332552167848917,0.999678850129168,0.00032101184458845696
-0.3317518636766181,-0.3317518636766181,1.000040562049132,0.0003210531127181153
-0.3303410623724631,-0.3303410623724631,1.000373921256075,0.0003209401366086569
-0.3289244795945706,-0.3289244795945706,1.000171266302658,0.0003218234363533239
-0.3270908645063173,-0.3270908645063173,0.999736344246298,0.0003212091819304286
-0.32534462252879165,-0.32534462252879165,1.0001732486737847,0.00032096885962723624
-0.3237693524817587,-0.3237693524817587,0.9997189259131138,0.00032101899216308146
-0.32248044716834556,-0.32248044716834556,0.9997803853434315,0.00032086249623226794
-0.3214576967948233,-0.3214576967948233,1.0001127022093983,0.0003208879332809982
-0.3200702420755988,-0.3200702420755988,0.999896725755041,0.000321114021210693
-0.31854577690610314,-0.31854577690610314,0.9999094037525766,0.00032113815358645497
-0.3174242117471294,-0.3174242117471294,1.000084695753005,0.0003210673248497199
-0.31572179395807326,-0.31572179395807326,0.9998511687491517,0.00032084868201838755
-0.31388814001111315,-0.31388814001111315,0.9997240732269221,0.00032117355741384485
-0.31209867988945916,-0.31209867988945916,1.0001816603226128,0.0003210526552608693
-0.31027520940988323,-0.31027520940988323,0.9998523485976369,0.0003209320567415932
-0.30910516010335415,-0.30910516010335415,1.0000080006437668,0.00032103042403551827
-0.3079659567789349,-0.3079659567789349,1.0003596667919636,0.0003209638196331662
-0.3065366754308343,-0.3065366754308343,1.0000978090968102,0.000320984907664367
-0.30512643263937206,-0.30512643263937206,0.9998372219268685,0.0003209974492350257
-0.3039218831268954,-0.3039218831268954,1.000101240880146,0.00032094470095342154
-0.3020892925575026,-0.3020892925575026,0.9995819867428744,0.00032096076273381856
-0.300343538436573,-0.300343538436573,0.9994665972011424,0.0003208615295864179
-0.298469091419247,-0.298469091419247,0.9998162184539346,0.00032099619851851124
-0.2965553092304617,-0.2965553092304617,1.00008808212519,0.0003210583551176195
-0.29552699972846314,-0.29552699972846314,1.0001712740897124,0.00032097958684243857
-0.29424655380571496,-0.29424655380571496,1.0001134174595978,0.00032123794292297965
-0.29261960279472987,-0.29261960279472987,1.0000898084417824,0.0003209757635403508
-0.29150985179876443,-0.29150985179876443,0.9997319525800894,0.0003208909902382989
-0.28991909102333013,-0.28991909102333013,0.9997119559625258,0.0003211365342757817
-0.2877631756251503,-0.2877631756251503,0.9997427972852913,0.00032115743975362823
-0.2863679722737288,-0.2863679722737288,1.0001003551819694,0.0003209846520776319
-0.284131576323125,-0.284131576323125,1.0003448167334512,0.00032090404645233655
-0.28268151046868295,-0.28268151046868295,0.9994048410596733,0.0003209325818348121
-0.2815496678042109,-0.2815496678042109,0.9997786512071911,0.00032159703092396263
-0.2801239819455077,-0.2801239819455077,0.999962882873669,0.0003209536705070333
-0.27871687792285227,-0.27871687792285227,1.0001598842951818,0.00032103960172143924
-0.2774608385836473,-0.2774608385836473,1.0002557794653026,0.00032120776020528707
-0.2752918164464063,-0.2752918164464063,0.9999309785704883,0.0003210753832061023
-0.27382659254508324,-0.27382659254508324,0.9998137101295601,0.0003210118250861757
-0.2723597997435718,-0.2723597997435718,0.9997718728090869,0.0003208190030452092
-0.2701326841954142,-0.2701326841954142,0.9995886070373023,0.00032087265609240213
-0.26911486352910285,-0.26911486352910285,0.9991823590386734,0.0003208716700684549
-0.2678157984810241,-0.2678157984810241,0.9992938089579185,0.00032162211736696465
-0.26620968694405744,-0.26620968694405744,0.9997420866612856,0.0003211599935453119
-0.26511186345815074,-0.26511186345815074,1.000099480059728,0.00032104205269718625
-0.26350330464265426,-0.26350330464265426,1.0001094900458374,0.00032106078513136874
-0.2613989000550646,-0.2613989000550646,0.9998357553445256,0.0003210262000937202
-0.26013729108381084,-0.26013729108381084,0.9998714591906254,0.0003210629164116743
-0.2582260335533647,-0.2582260335533647,1.0000605911147755,0.00032111318692822245
-0.25640946368002915,-0.25640946368002915,1.0000105732180362,0.0003209313661695196
-0.25542342450135036,-0.25542342450135036,1.0002351810246946,0.0003221017042115434
-0.25400602163863367,-0.25400602163863367,0.999940132639396,0.00032087496087252084
-0.25252132317909853,-0.25252132317909853,0.9997577936272993,0.0003208797860065368
-0.25141623981835437,-0.25141623981835437,0.9999835992381152,0.0003210510980900253
-0.24925160900675108,-0.24925160900675108,0.9997903929181021,0.00032097710256435714
-0.24768426548907882,-0.24768426548907882,1.0002611501022929,0.0003209039043263792
-0.24644107508866,-0.24644107508866,1.0002445804799014,0.0003213819001351945
-0.24400231476247428,-0.24400231476247428,1.0001473346121141,0.00032112092378681895
-0.24273832329854486,-0.24273832329854486,0.9999426396728108,0.0003209297415893243
-0.24162385460949737,-0.24162385460949737,0.9998552052765006,0.00032240476503164506
-0.24024316546347108,-0.24024316546347108,1.0002184638191594,0.0003208288112526126
-0.23909888836569734,-0.23909888836569734,1.0000167403679776,0.0003210271321279496
-0.23785082794856863,-0.23785082794856863,0.9996858068266322,0.00032117304942363544
-0.23579895842485712,-0.23579895842485712,1.0001209610499144,0.00032111741371407905
-0.23448090870733723,-0.23448090870733723,0.9997538212812929,0.00032095628227868795
-0.2332334143691696,-0.2332334143691696,1.0000621498412392,0.00032154060325946743
-0.2309423748170957,-0.2309423748170957,1.000142068860474,0.0003211163840589813
-0.22925137907659518,-0.22925137907659518,0.9999445313720356,0.00032100686690182174
-0.22758143828541505,-0.22758143828541505,0.9997999727539815,0.0003210825071191883
-0.22624921520473434,-0.22624921520473434,0.9999825122291648,0.0003209099442069765
-0.22526560655096545,-0.22526560655096545,1.0001021959813714,0.00032108981782480114
-0.2234893874221598,-0.2234893874221598,0.9999178385998169,0.00032102886569892233
-0.22177361904614373,-0.22177361904614373,0.9997456040212658,0.00032110164781261503
-0.22052055647218366,-0.22052055647218366,1.000155638852635,0.00032177659383414686
-0.21886581174185266,-0.21886581174185266,0.9999362030819163,0.0003210161527858028
-0.21711295193890692,-0.21711295193890692,0.9997684409715081,0.0003209488258431157
-0.2153743859700626,-0.2153743859700626,0.9996200762189005,0.000320784644811353
-0.21384853091803963,-0.21384853091803963,1.0001141253133867,0.0003210337644985216
-0.21267415444162907,-0.21267415444162907,0.9999699312752807,0.00032099531492905736
-0.21153083098397474,-0.21153083098397474,0.9996578923200676,0.0003210168022059727
-0.21009954720793758,-0.21009954720793758,1.0001931561205346,0.0003210797057081642
-0.20856552985060262,-0.20856552985060262,1.0002900778738562,0.0003210287312263569
-0.2072583474793646,-0.2072583474793646,1.0002456632112389,0.0003210183915203286
-0.20554545037011848,-0.20554545037011848,1.0000965143651654,0.0003210198689883578
-0.20390629728353815,-0.20390629728353815,1.000046480419266,0.00032095103507605245
-0.20203062275541014,-0.20203062275541014,0.9996816426413607,0.0003209814385373016
-0.2003411887657421,-0.2003411887657421,1.000228126209454,0.0003210307355338368
-0.1992690190585563,-0.1992690190585563,1.0002299634097085,0.0003211179347977918
-0.19810015216862667,-0.19810015216862667,0.9999317515608446,0.00032088008306344637
-0.1965125318922219,-0.1965125318922219,1.0000759825216197,0.0003210355212448516
-0.19528359204341542,-0.19528359204341542,1.000012745156209,0.0003209309742558637
-0.19404964510686112,-0.19404964510686112,0.9999146756101333,0.00032084817114886915
-0.19207245841098483,-0.19207245841098483,1.0000645495042533,0.00032100388482809593
-0.19029831715815818,-0.19029831715815818,1.000155504671525,0.00032090108581308023
-0.18844485093359253,-0.18844485093359253,1.0000145572793189,0.00032102178576632267
-0.18660827124040225,-0.18660827124040225,0.9996422700564919,0.0003209355455028531
-0.18565566969919017,-0.18565566969919017,0.9999803356682083,0.00032125263979196795
-0.18429584350160438,-0.18429584350160438,1.0000126422611126,0.0003210039098856115
-0.18273693687151535,-0.18273693687151535,0.9999265989918372,0.00032092708427847963
-0.1816136254084995,-0.1816136254084995,1.000192559903496,0.00032114340407810016
-0.179755439228029,-0.179755439228029,0.9998025083928868,0.00032104202087193375
-0.1778557552912389,-0.1778557552912389,1.000172955443587,0.0003209928488026344
-0.1764214551229088,-0.1764214551229088,1.0002824959783452,0.00032100897186461663
-0.1740016241717967,-0.1740016241717967,1.0000743525045632,0.0003209005884213696
-0.17285201506019804,-0.17285201506019804,0.9998261022112045,0.0003207907211965599
-0.17168014400012907,-0.17168014400012907,1.0003418446772994,0.0003214876998687597
-0.17009617969451937,-0.17009617969451937,0.9997929244268722,0.00032098498815391
-0.1688754948125279,-0.1688754948125279,1.000199190560524,0.00032116125448368395
-0.16743779331009137,-0.16743779331009137,1.0000439524512004,0.00032119189773425105
-0.16536956269992514,-0.16536956269992514,1.000136789032369,0.00032101172300228847
-0.16389484419923975,-0.16389484419923975,1.000411851198526,0.0003209864295983589
-0.1622752370480157,-0.1622752370480157,1.0001918730576764,0.0003210891782104746
-0.16019484077260132,-0.16019484077260132,1.000087190943618,0.0003209557356615297
-0.1592368860015995,-0.1592368860015995,1.0001308091063794,0.00032169654731553936
-0.15786876248093903,-0.15786876248093903,1.0001294621562373,0.0003209154550340605
-0.1563167353895551,-0.1563167353895551,0.9997801223294218,0.0003210453698905242
-0.15522168639872688,-0.15522168639872688,1.0000485302839923,0.000321079848045519
-0.15333630113746038,-0.15333630113746038,1.000283598227877,0.000321060697290884
-0.1515020829756395,-0.1515020829756395,0.9999688896881531,0.00032087302998893067
-0.15031086192102522,-0.15031086192102522,1.0003745535869375,0.0003211002675987319
-0.1480567252219771,-0.1480567252219771,1.0005607657416822,0.0003209394916897274
-0.14661536164494465,-0.14661536164494465,1.0000422003700602,0.00032100273642046576
-0.14549039616103981,-0.14549039616103981,1.0000162330778506,0.00032219299983181186
-0.1440681119878718,-0.1440681119878718,0.9999736157165147,0.0003211294319510145
-0.14266848999322973,-0.14266848999322973,0.9998543667517659,0.0003209139311498498
-0.14140992690445273,-0.14140992690445273,0.9999478753296722,0.00032111028692379364
-0.1392255508719245,-0.1392255508719245,0.9996643728396565,0.0003210401816960638
-0.13777685485110852,-0.13777685485110852,1.0002616812767406,0.0003210409358016605
-0.13629421555961016,-0.13629421555961016,0.9999693350717049,0.00032116701543402463
-0.1340675799663586,-0.1340675799663586,0.9996739059923735,0.0003209905769992541
-0.13284459909700672,-0.13284459909700672,0.9999495365944993,0.0003224428919133567
-0.13144231109472457,-0.13144231109472457,1.0002082609965328,0.0003209968008053211
-0.13019630535345642,-0.13019630535345642,1.0002832133516135,0.00032849298218847963
-0.12926058197626844,-0.12926058197626844,0.9999716546071958,0.00032093234171599346
