time,time,flux,flux_err
-0.4998624732470489,-0.4998624732470489,1.000081952763152,0.00014261872391531475
-0.49976584402975277,-0.49976584402975277,0.9999076832213105,0.00014477080841923705
-0.4996609026463072,-0.4996609026463072,1.0000977324702671,0.00013835436499579028
-0.49947960599165525,-0.49947960599165525,0.9999546362355943,0.00013076371592241984
-0.4992101217518211,-0.4992101217518211,1.0000581695492645,0.00012505009375804926
-0.49900000211418954,-0.49900000211418954,1.0000439978891165,0.00012188106721179455
-0.49880685162788724,-0.49880685162788724,0.9999650554570433,0.00013877148095208877
-0.49870645873888864,-0.49870645873888864,1.0001848443096821,0.0001234487112569167
-0.4986321664604475,-0.4986321664604475,1.0001935606429104,0.00013550704121918653
-0.4985262893227628,-0.4985262893227628,1.0000194835454443,0.00012357336024570399
-0.49836796791278176,-0.49836796791278176,0.9997764506461871,0.00013764151954524036
-0.49826571749072174,-0.49826571749072174,1.0001576375176013,0.00013333537018243863
-0.49821465419081506,-0.49821465419081506,0.9999268855669943,0.0001369108662853209
-0.49809917326347203,-0.49809917326347203,1.0000144394260753,0.00012726164014220453
-0.4979749190810253,-0.4979749190810253,1.0000574611541537,0.00013544179894254665
-0.49779961077001644,-0.49779961077001644,1.000171079029697,0.0001244654056745316
-0.4976596562024497,-0.4976596562024497,1.0000022725299864,0.00012832675560015016
-0.49758791212516373,-0.49758791212516373,0.9998491284555533,0.00012612395764310174
-0.4974764192418661,-0.4974764192418661,1.0000304543485572,0.00012557856178114745
-0.49734597360511545,-0.49734597360511545,0.9999735388894301,0.00013477134237956182
-0.4972204493402387,-0.4972204493402387,0.9998593238475417,0.00012774913401455713
-0.49706913452610024,-0.49706913452610024,1.0001799136697673,0.00013235401199859
-0.4969965505195432,-0.4969965505195432,1.0001358038506396,0.0001238097050234028
-0.49670576915013953,-0.49670576915013953,1.0000236830311269,0.00012937883598575258
-0.49651079158284117,-0.49651079158284117,0.9998990483972298,0.00013990544959007102
-0.49636890267138367,-0.49636890267138367,1.000042379775173,0.0001323048447448464
-0.4961911242833594,-0.4961911242833594,0.9999977004766712,0.00013798795342165584
-0.4960049814879312,-0.4960049814879312,0.9999161737930218,0.00013739866371425887
-0.4959024727977521,-0.4959024727977521,0.9999792256163176,0.00012794877522329166
-0.4958370048901998,-0.4958370048901998,0.9999905138908527,0.00012730788154205155
-0.49570699202231483,-0.49570699202231483,0.9999714022620843,0.00013329978354660984
-0.49556023291952445,-0.49556023291952445,0.9998662725724072,0.0001264304875359489
-0.4954355115347425,-0.4954355115347425,0.9999365118723773,0.00012543859078026473
-0.49528495209960965,-0.49528495209960965,0.999969514674099,0.0001272795518555983
-0.49518026579899016,-0.49518026579899016,1.0001562086202636,0.000127961924108568
-0.4950387224525912,-0.4950387224525912,0.999978174000154,0.00012267480012234856
-0.4948705745315237,-0.4948705745315237,0.9998907350390311,0.00012195052150365932
-0.49461373407175413,-0.49461373407175413,1.0000990892373833,0.00013132397876901097
-0.4944294653127145,-0.4944294653127145,1.0000964722041634,0.0001237753736090022
-0.4941993227963394,-0.4941993227963394,1.0001051401634116,0.0001334126265581914
-0.4940817056092783,-0.4940817056092783,1.00015090354846,0.00012183467061930657
-0.4938798543640587,-0.4938798543640587,1.0001239961461938,0.00012854163222980367
-0.4937940182215243,-0.4937940182215243,0.9999470121067906,0.00013035156769294266
-0.49364580421897697,-0.49364580421897697,1.0001038827885524,0.0001345677525679671
-0.49353701006184564,-0.49353701006184564,0.9998454497913795,0.00012654706912254102
-0.4934179744515859,-0.4934179744515859,0.9999589963004635,0.00012292235462641734
-0.4932691140391398,-0.4932691140391398,1.0000625309095317,0.00013302869790903323
-0.49315241157310086,-0.49315241157310086,1.0000331244806846,0.00013046897287136594
-0.4930369493245962,-0.4930369493245962,1.000211668676905,0.0001386537295971495
-0.49285732664502574,-0.49285732664502574,1.0000511969731651,0.0001343760625174591
-0.49276680572438636,-0.49276680572438636,1.0002421202268676,0.00013462824048755218
-0.49266490844092914,-0.49266490844092914,1.0000071662658514,0.0001245763723862656
-0.4925712077696517,-0.4925712077696517,1.000324334938546,0.00012939058377146653
-0.4924630872112175,-0.4924630872112175,0.9999750125984189,0.00012145313399045449
-0.49232360980749945,-0.49232360980749945,1.0000516657472023,0.0001346000889268845
-0.4921698975522304,-0.4921698975522304,0.999901980841347,0.0001325229194324562
-0.4920922940858873,-0.4920922940858873,1.0000245763950413,0.00013084281590830228
-0.49195936917894867,-0.49195936917894867,1.0000187072937312,0.00013474968442671754
-0.49177754053234823,-0.49177754053234823,1.0000480334536486,0.00013304847426694235
-0.4916897276569216,-0.4916897276569216,1.0002624421756223,0.00014050405158782606
-0.49155537484330125,-0.49155537484330125,0.9999752680920352,0.0001229043699791585
-0.49147454931080575,-0.49147454931080575,1.0001444907292816,0.00013028771928378773
-0.49132856430951505,-0.49132856430951505,0.9999374569167865,0.00012505421611691864
-0.4911581464533811,-0.4911581464533811,0.9999661791837914,0.00012718531519832754
-0.4910208521599998,-0.4910208521599998,0.9999845654966888,0.00012519069351574948
-0.49078808467966156,-0.49078808467966156,0.9999037961786248,0.00012738431907501822
-0.49060130396246676,-0.49060130396246676,1.0001140085323386,0.00012355248627302296
-0.4904893785635068,-0.4904893785635068,0.9999418734720935,0.00013113362528850266
-0.4903217933846463,-0.4903217933846463,0.9998677451194758,0.00013194046099939349
-0.49008736554169446,-0.49008736554169446,0.9999499503965591,0.0001241889974716472
-0.4898503015981987,-0.4898503015981987,0.9999341754309429,0.00013513648427467635
-0.489592475007521,-0.489592475007521,1.0000072195732606,0.000127281186953721
-0.48951120936399095,-0.48951120936399095,1.0001180521157258,0.00013300496629901898
-0.48935814795040644,-0.48935814795040644,0.9999445295888407,0.0001321171420848297
-0.48921206154773245,-0.48921206154773245,1.0000122746469433,0.00013134869500660675
-0.48911364592349854,-0.48911364592349854,1.0001490869651666,0.00012050112072146339
-0.48903422949078956,-0.48903422949078956,0.999849450764654,0.00012591367072029561
-0.4889283827636973,-0.4889283827636973,1.000080845218136,0.0001319415186404585
-0.4887733547227981,-0.4887733547227981,0.9999949973481194,0.00013699937512164846
-0.4886871215516294,-0.4886871215516294,1.0000806830275082,0.00012513037716474935
-0.4885790383188578,-0.4885790383188578,0.9999539811003542,0.0001242047783613993
-0.4884924974780006,-0.4884924974780006,1.0001105593072226,0.00012739855290753633
-0.48838934148006957,-0.48838934148006957,1.0000227951896798,0.00013061325933900295
-0.48819231606612445,-0.48819231606612445,1.0000803277268402,0.0001262666281779697
-0.48807696449366633,-0.48807696449366633,1.0000787442017458,0.00013162385295906268
-0.487941058188153,-0.487941058188153,0.9998506391664176,0.00012980102240324912
-0.4878440216685703,-0.4878440216685703,1.0001242514019022,0.0001411058061786902
-0.4876996871877054,-0.4876996871877054,1.000034421851117,0.00012839481261247415
-0.48759390120976603,-0.48759390120976603,0.9999745425739789,0.0001327745238065022
-0.48747148880720487,-0.48747148880720487,1.0001248586258942,0.00013378188657771822
-0.4873224504066457,-0.4873224504066457,0.9997606119033293,0.00013538071360696312
-0.4872370470533497,-0.4872370470533497,0.9997272853609449,0.000122836071560114
-0.4870711617826601,-0.4870711617826601,1.0000799534616296,0.00013108354213417533
-0.48695599922939437,-0.48695599922939437,0.9997743665712046,0.00013020093810304112
-0.4868179382014205,-0.4868179382014205,1.0000073158888938,0.00012829156056496133
-0.4867413087835303,-0.4867413087835303,1.0000253052855286,0.00012415300076104978
-0.4865620191405469,-0.4865620191405469,1.000029640694423,0.00012870724599994908
-0.48637521889249913,-0.48637521889249913,1.000142359287325,0.00012580894169810617
-0.4862681493119453,-0.4862681493119453,1.0001885633071663,0.00012254171414425905
-0.48615216064208655,-0.48615216064208655,1.0000574977276446,0.00013014199730540928
-0.48607022800206323,-0.48607022800206323,1.000058423660527,0.00012651180751692038
-0.4859892369269801,-0.4859892369269801,0.9999908151652684,0.00013210203155101114
-0.4856613041680248,-0.4856613041680248,0.9997782014820542,0.00013181045692520056
-0.48536203002076944,-0.48536203002076944,0.9999903104113699,0.00012708909842867058
-0.48522241447644776,-0.48522241447644776,1.0000364936952635,0.00013533702050479618
-0.48507165487098974,-0.48507165487098974,1.0000239574926093,0.00013095443227552372
-0.48483755394117906,-0.48483755394117906,0.9998477461494233,0.0001283827805471546
-0.48470806787663606,-0.48470806787663606,0.9999281182434814,0.00013293225028340047
-0.48461233852649455,-0.48461233852649455,1.0000999664972252,0.00012813528637133797
-0.48452935167297256,-0.48452935167297256,1.0001128535588155,0.00013076591092475972
-0.48432214226049836,-0.48432214226049836,1.0000283857470578,0.00012353008826963347
-0.48421136491597283,-0.48421136491597283,0.9999505160036686,0.00013603287239594375
-0.48400911446660755,-0.48400911446660755,1.000009316426334,0.00012731692930549672
-0.48384263634943636,-0.48384263634943636,0.9999646785149409,0.00012831231230204084
-0.4837029659720429,-0.4837029659720429,0.9999795538148802,0.00013471767060296323
-0.48359966515417907,-0.48359966515417907,1.0000288263470811,0.00013306939032839047
-0.4835368300919072,-0.4835368300919072,1.0002230255094848,0.000131141000146738
-0.483403434324282,-0.483403434324282,1.000150237832109,0.00012352981891697437
-0.48331028462707765,-0.48331028462707765,0.9999632050570174,0.00013612396963021763
-0.4831949678686215,-0.4831949678686215,1.000016774842431,0.0001273869764044001
-0.483086600722163,-0.483086600722163,0.9999654487928794,0.00014076923513151602
-0.4829430405268795,-0.4829430405268795,0.999991873039941,0.0001216951766258451
-0.48275881906811263,-0.48275881906811263,0.9998579573265977,0.0001274912317934948
-0.48254697853626566,-0.48254697853626566,0.999944467875914,0.00012964719074096313
-0.48244210557168116,-0.48244210557168116,0.9998544557172819,0.000124316925385308
-0.4823394815241045,-0.4823394815241045,1.0000031987209834,0.00012965353751402087
-0.48220363034924957,-0.48220363034924957,0.999974879314544,0.00012988708078623916
-0.4820696504844818,-0.4820696504844818,0.99998130343567,0.00013082318225568276
-0.4819758579840709,-0.4819758579840709,1.000100654489294,0.00012502517855628926
-0.4818304309781524,-0.4818304309781524,0.9999040249885833,0.00013126222722182468
-0.48173370885051553,-0.48173370885051553,0.99996245378848,0.00013185182457451316
-0.4816117400296207,-0.4816117400296207,0.9998857457489867,0.000128086549243229
-0.48137709737711704,-0.48137709737711704,0.9998753569914591,0.00013010700019602922
-0.48116260669339683,-0.48116260669339683,0.9999086753029587,0.00013081600787212026
-0.4810542730090674,-0.4810542730090674,1.0002459338953589,0.0001233318463255702
-0.48093718223899484,-0.48093718223899484,0.9999857906544186,0.00012828551017514912
-0.4808360028633615,-0.4808360028633615,0.9998617690141209,0.00014088746200075403
-0.4806548698841652,-0.4806548698841652,0.9999919862678919,0.00012555385506148113
-0.4803927012733766,-0.4803927012733766,0.9999381122228813,0.00013169113868183286
-0.48028753641337973,-0.48028753641337973,0.9998505494757524,0.0001334487538050438
-0.480193457412679,-0.480193457412679,1.0001038158622424,0.00012799065906705633
-0.4801194336578192,-0.4801194336578192,1.000104195945098,0.0001236383890802282
-0.47996070712106303,-0.47996070712106303,1.000211706861277,0.00012249615680647187
-0.479773753790505,-0.479773753790505,0.999895003130758,0.00013123897892972953
-0.47958421637667925,-0.47958421637667925,1.000039516069363,0.00012753357986454395
-0.4794067997572711,-0.4794067997572711,0.9999157553127151,0.00013109120548113754
-0.47925917880565977,-0.47925917880565977,1.0001143213479005,0.0001379538367208286
-0.47917809096106795,-0.47917809096106795,0.9999457040676027,0.00012807375722993455
-0.47904927548370324,-0.47904927548370324,0.9999129284916253,0.00013293940058149017
-0.47893157668004277,-0.47893157668004277,0.9999864720309155,0.00012696095362731342
-0.4788624996341241,-0.4788624996341241,1.0000400922353574,0.00013812210612420298
-0.4787574984366074,-0.4787574984366074,0.9999178403691878,0.00013351961232087033
-0.4786325528300949,-0.4786325528300949,1.0000888063531441,0.00013328003160786476
-0.4784233178201248,-0.4784233178201248,1.0000246309808678,0.00012465714411768282
-0.47816377105627905,-0.47816377105627905,1.0001244224889554,0.00012965194701509798
-0.4780641614597698,-0.4780641614597698,1.0000178950915726,0.0001272685441123587
-0.47790080574777677,-0.47790080574777677,0.9997952405798545,0.00013001379702964061
-0.47776674988272133,-0.47776674988272133,0.9999182742054481,0.00013468976894216803
-0.4776412093982799,-0.4776412093982799,1.0001474342809895,0.00012353687435530988
-0.47753867123392413,-0.47753867123392413,0.9999846409121298,0.00013230546972507756
-0.47743461692807615,-0.47743461692807615,1.000054477881489,0.00012254243949891733
-0.4771788534533698,-0.4771788534533698,1.0001440083911781,0.00012582051445395774
-0.47704995203166617,-0.47704995203166617,1.0000034882553785,0.00014156627357310054
-0.47686437301599655,-0.47686437301599655,0.9999920522544798,0.00012375823508712575
-0.47671480516000886,-0.47671480516000886,0.999948535280257,0.00012872664139883708
-0.4765622137536411,-0.4765622137536411,1.000013976019948,0.00014279605645526992
-0.476406337901426,-0.476406337901426,0.9999946846157121,0.0001308591447482301
-0.47631423475031626,-0.47631423475031626,0.999778520154304,0.00012649836371314788
-0.47622293762324264,-0.47622293762324264,0.9999872566784997,0.00013075905960737997
-0.4760346619739721,-0.4760346619739721,0.9999693130989386,0.00013288577761281787
-0.4759188633244776,-0.4759188633244776,0.9998371392315795,0.000129328872572032
-0.4758215454545279,-0.4758215454545279,0.9999525770685327,0.00012400288579780995
-0.4757124040959752,-0.4757124040959752,0.999821767704017,0.0001282864652030767
-0.47553649103938367,-0.47553649103938367,0.9999520900746454,0.00012157362649659043
-0.47533410182149965,-0.47533410182149965,0.9999474830604698,0.00012547118509716328
-0.4750678136530041,-0.4750678136530041,0.9997798541761551,0.00013049243396938632
-0.4749300433759345,-0.4749300433759345,0.9999532387009726,0.0001317384758327167
-0.47478128519651364,-0.47478128519651364,0.9998111739419524,0.0001324288927111352
-0.4746545612179034,-0.4746545612179034,1.0001051275682964,0.00013368683009576217
-0.4744857264231541,-0.4744857264231541,0.9999798884494938,0.00012860098583913448
-0.47435764160545657,-0.47435764160545657,1.000054152321781,0.00012844824034482756
-0.4742532074851624,-0.4742532074851624,1.000161523495886,0.00013066601904616765
-0.47409583044209286,-0.47409583044209286,1.0000136183227348,0.00012742369671004061
-0.4739742569901864,-0.4739742569901864,0.9999798004086463,0.00012661225476689992
-0.4738713163365901,-0.4738713163365901,0.9999888898727486,0.0001202936114791643
-0.4737417003627343,-0.4737417003627343,0.9999620049593411,0.00013755657175099092
-0.4736296302813571,-0.4736296302813571,1.000159307068564,0.00012569377956130143
-0.4735311420627113,-0.4735311420627113,0.9999172435422382,0.00014276444376101074
-0.473461746963585,-0.473461746963585,1.0000648222958701,0.00012603621273042897
-0.4733019566119765,-0.4733019566119765,0.999874454037684,0.00013466246379726063
-0.47319355202125735,-0.47319355202125735,1.0000876647060335,0.0001233719049940698
-0.47311208395185533,-0.47311208395185533,1.0000918576490765,0.00012868447414262008
-0.4729900737242133,-0.4729900737242133,0.9999854468647505,0.00012428346387678083
-0.47278722131231915,-0.47278722131231915,1.000108216896638,0.00012685048261736515
-0.4726537560287397,-0.4726537560287397,1.0000686523874658,0.00013780423577714325
-0.4725336983705347,-0.4725336983705347,1.000059373187217,0.00013224740999263673
-0.47233639588448567,-0.47233639588448567,0.9999293763557333,0.00013786374190584923
-0.47220519804250216,-0.47220519804250216,0.9999874788970132,0.00013874140299862867
-0.47211087960822623,-0.47211087960822623,1.0000698440723244,0.00013068251303288236
-0.4719931686755444,-0.4719931686755444,0.9999722061233332,0.00012647969994954757
-0.47195596146411845,-0.47195596146411845,0.9999655692393052,0.0001269284149214268
-0.4718245911237318,-0.4718245911237318,0.9999619561894452,0.00012684472563805069
-0.47167385351931446,-0.47167385351931446,1.0002349233117493,0.00012860026468974826
-0.47152512694883625,-0.47152512694883625,0.9998665984665468,0.0001229163949466134
-0.47128916942165233,-0.47128916942165233,0.9999304377787401,0.00012979117476509208
-0.471086202438164,-0.471086202438164,0.9998535445817028,0.0001233248852528849
-0.47093542890143,-0.47093542890143,1.000013007294636,0.00012343758179344735
-0.47071783810897616,-0.47071783810897616,0.9999530790303888,0.00013089254348819604
-0.4705177302181255,-0.4705177302181255,0.9998414460508085,0.00013119973650045646
-0.4702725477225613,-0.4702725477225613,0.9998149242975292,0.00012574777012784087
-0.4700612345004629,-0.4700612345004629,0.9999407268479832,0.00012490976828613318
-0.4699890046947985,-0.4699890046947985,0.9999414644849678,0.00012878134403067966
-0.46989711354108293,-0.46989711354108293,0.9999867098513799,0.0001390440278586902
-0.46972440708850627,-0.46972440708850627,1.0000617667600045,0.0001313128889492478
-0.46959215332826715,-0.46959215332826715,1.00012555795487,0.00012190249494301818
-0.46948605384823167,-0.46948605384823167,0.9999305052544946,0.00013333919512025733
-0.46938044859853106,-0.46938044859853106,1.0000414521523375,0.00012721461866868663
-0.46922507026029053,-0.46922507026029053,0.9998157617433364,0.00013804823260059852
-0.46914742041553836,-0.46914742041553836,0.9997706836445879,0.00012947250430164203
-0.4690287602192257,-0.4690287602192257,0.9999149450569748,0.0001277317467846874
-0.4689265721179254,-0.4689265721179254,1.000055761937031,0.00012973819638947793
-0.46875943968552747,-0.46875943968552747,1.0001625921525752,0.00012475152523173214
-0.46863876121060455,-0.46863876121060455,1.0000585052805153,0.00012857139671873866
-0.4685345608959324,-0.4685345608959324,1.0000106470609385,0.00012626434236427347
-0.46837265212088824,-0.46837265212088824,1.0001375922867093,0.00013830610101090907
-0.4682640386854473,-0.4682640386854473,0.999990043484455,0.00013749967784512106
-0.46812993941639436,-0.46812993941639436,1.0000811894917616,0.00012652077895971165
-0.46801875107194063,-0.46801875107194063,0.9999802399426498,0.00013859575573354132
-0.46788249446399277,-0.46788249446399277,1.0001411480966294,0.00013769594015263108
-0.467821557149,-0.467821557149,0.9998019088292607,0.00013672880986857536
-0.4676625466447149,-0.4676625466447149,1.000125581301384,0.00012796108332068288
-0.46752948648863824,-0.46752948648863824,0.9999921973029894,0.0001250768109163263
-0.4674303683372273,-0.4674303683372273,0.9999081853622706,0.00013241997156864587
-0.46728556521193243,-0.46728556521193243,0.9999296053743466,0.00012460725652755744
-0.467194072042912,-0.467194072042912,1.0000042568823566,0.0001272393214688698
-0.466909392697562,-0.466909392697562,1.000050038930083,0.00012699085019356575
-0.4667707092157798,-0.4667707092157798,1.0001111044547382,0.00012394618017076838
-0.46661867765069476,-0.46661867765069476,1.000166400928691,0.00013356433019502212
-0.46651055532638563,-0.46651055532638563,1.0001585273060936,0.00012395039394714813
-0.4663812818202132,-0.4663812818202132,0.9998822113732215,0.00013047067346839313
-0.46607675128325354,-0.46607675128325354,0.9999699675387317,0.0001303928380380726
-0.46576368784808436,-0.46576368784808436,1.0000189477503185,0.00012762635077838414
