time,time,flux,flux_err
-0.4996470942472418,-0.4996470942472418,1.0000285473954351,0.0002334401724713744
-0.49921705145728384,-0.49921705145728384,1.000116005424183,0.00023134742508486698
-0.49864891251248383,-0.49864891251248383,1.0001887113247896,0.00023345288059207787
-0.49811681866898044,-0.49811681866898044,1.0001461742305702,0.00022802654436526967
-0.4979088998719817,-0.4979088998719817,0.9997794751767126,0.0002065374475915197
-0.4976458263146924,-0.4976458263146924,1.000199975906126,0.0002122460539329572
-0.49732671786041466,-0.49732671786041466,1.0001519234831124,0.00021674584701246845
-0.4969173663732363,-0.4969173663732363,1.0000010214057162,0.00021669772450746486
-0.49655577291268854,-0.49655577291268854,0.9998644149053245,0.00021251543330821072
-0.49621744523756206,-0.49621744523756206,0.9999963389812251,0.0002462931703649781
-0.4958606467029313,-0.4958606467029313,0.9997199302323543,0.00020973009346516945
-0.49527710734982977,-0.49527710734982977,1.0002113650860591,0.00021267667720476527
-0.4948345641721971,-0.4948345641721971,1.0001396921207797,0.00021269766054889523
-0.49444748151872775,-0.49444748151872775,0.9997542724231396,0.0002129990947489356
-0.4939202120702248,-0.4939202120702248,0.9998805503208337,0.00021145640177223837
-0.4936669528513448,-0.4936669528513448,1.0001503819219384,0.0002068111204421914
-0.4934521449613385,-0.4934521449613385,0.9997739548016809,0.0002074292434288294
-0.493112227472011,-0.493112227472011,1.0000023644808982,0.00021735466697854006
-0.49266699819709175,-0.49266699819709175,0.9999234707034569,0.00021489959807570623
-0.4921464025101159,-0.4921464025101159,0.9998960465206727,0.0002191035988039475
-0.49179231559392067,-0.49179231559392067,1.000425845592493,0.0002545288211236731
-0.49152764430909884,-0.49152764430909884,1.0003044164419783,0.000207045525139705
-0.4911848703603027,-0.4911848703603027,1.000088169331572,0.0002116763058335855
-0.4906374698679429,-0.4906374698679429,0.9996979232325435,0.0002087691000291051
-0.49035402403387707,-0.49035402403387707,1.0002893500508665,0.000212447718331207
-0.4900297544460045,-0.4900297544460045,0.9997989321696131,0.0002129695849410303
-0.48953637881204487,-0.48953637881204487,1.0003586245382277,0.00020933451360230214
-0.4892628795438213,-0.4892628795438213,0.9999421799654323,0.000208116071289841
-0.4890521892841207,-0.4890521892841207,1.000035377129236,0.00020878671076966066
-0.48880472539749464,-0.48880472539749464,1.000070971433096,0.0002112071305693316
-0.4883343085675733,-0.4883343085675733,1.00010301034483,0.00022239989068809237
-0.4878943175484892,-0.4878943175484892,1.0002061242404026,0.00021981904090851313
-0.48740874328941575,-0.48740874328941575,1.0002200264499865,0.00022038600167136285
-0.48710386078746526,-0.48710386078746526,0.9999014912163977,0.00020996456033592505
-0.4867682846292155,-0.4867682846292155,1.0000756670687998,0.00020879825350613883
-0.48614611088705717,-0.48614611088705717,1.0001780830317963,0.0002079795100216354
-0.48588068182289135,-0.48588068182289135,0.999970861238673,0.00020872864087393165
-0.48554511861875654,-0.48554511861875654,1.000629471425136,0.00024740747828761887
-0.48518974860198794,-0.48518974860198794,1.000264376799833,0.00021018594486092298
-0.48490156304324045,-0.48490156304324045,1.0001595285312743,0.00021037754858912826
-0.4847724631690653,-0.4847724631690653,1.0002193825161965,0.00021002043098095882
-0.4845142740668962,-0.4845142740668962,0.9999335783994987,0.00021023660551758514
-0.48410156851168723,-0.48410156851168723,1.0002044280012508,0.0002181186123464855
-0.48357672689598985,-0.48357672689598985,1.000149542918101,0.00021531581873398756
-0.48313916579063515,-0.48313916579063515,1.0004470905956457,0.0002211580237453123
-0.4827387136669131,-0.4827387136669131,0.9999913670586601,0.00022219843028185217
-0.48253780016093517,-0.48253780016093517,0.9998781035369557,0.00021061236768783425
-0.48207412323972676,-0.48207412323972676,0.9996348075844737,0.0002079638135827882
-0.48148919460363687,-0.48148919460363687,1.0002926056223735,0.00020839750827798906
-0.4813251540908823,-0.4813251540908823,0.9996698605764583,0.00021381715033080774
-0.48100004422012715,-0.48100004422012715,0.9995918269024415,0.00023666032339653937
-0.48066734946914946,-0.48066734946914946,1.000026773064978,0.00021018099746487954
-0.48040300372231287,-0.48040300372231287,1.000017321544902,0.00020898826568292625
-0.4802122402266832,-0.4802122402266832,0.9998112025393964,0.00020653392689451316
-0.4798059204098536,-0.4798059204098536,0.9998772566441726,0.00021416903393013998
-0.479247513084556,-0.479247513084556,1.0002960707311792,0.00021970161315086834
-0.4788470688799862,-0.4788470688799862,0.999809668981492,0.0002193709137730206
-0.47827339370851407,-0.47827339370851407,0.9996059790843572,0.00021411877405819773
-0.47810017406591215,-0.47810017406591215,1.0000046891548604,0.00021491438224929978
-0.4777030416415073,-0.4777030416415073,0.9997087544172324,0.00020976202239005701
-0.4771275829843944,-0.4771275829843944,1.0002344524792026,0.00020864875820756902
-0.4768983733840287,-0.4768983733840287,1.000020831352421,0.00020890425952072798
-0.47678303785214665,-0.47678303785214665,0.9994552823862376,0.0002338286368616427
-0.47645875155285466,-0.47645875155285466,0.999910838892516,0.0002084630460980091
-0.476072946988279,-0.476072946988279,0.9999781011224584,0.00021019565222223582
-0.47581940998206845,-0.47581940998206845,1.0000189874996448,0.00020927776148225606
-0.47539233083371074,-0.47539233083371074,1.0002375359325981,0.00020981988383928464
-0.47488402313319966,-0.47488402313319966,1.00033524096979,0.00021634038028897615
-0.47445134550216606,-0.47445134550216606,1.0000272050973913,0.00020959355472975665
-0.4740480226755608,-0.4740480226755608,1.0000453998560535,0.00021619093991856155
-0.4736773737589829,-0.4736773737589829,1.0004659118685735,0.00021802784645705677
-0.47342121321707964,-0.47342121321707964,0.9999173660302297,0.0002182553605292249
-0.4730315350316232,-0.4730315350316232,1.0001012997281058,0.00021358940031203393
-0.4725423876690911,-0.4725423876690911,1.0003054703780974,0.00020509075814544343
-0.4723752864811104,-0.4723752864811104,1.0000443706973086,0.00021425897473875813
-0.47210436055029276,-0.47210436055029276,1.0003435737851505,0.0002183131155205382
-0.47167673204676247,-0.47167673204676247,1.000479845572812,0.0002115902597559178
-0.47140315716678743,-0.47140315716678743,0.9999717306821927,0.00020784378552279482
-0.47101018482935614,-0.47101018482935614,1.000137842497297,0.00021038303059852368
-0.47058694643201304,-0.47058694643201304,0.9999540057176878,0.00021138895082385294
-0.470106481021503,-0.470106481021503,1.0000931968561475,0.0002184143188960938
-0.4698551546374802,-0.4698551546374802,1.0001984390353447,0.00020600935773118669
-0.4693586336012231,-0.4693586336012231,1.0002017030946948,0.00021811768984514145
-0.46903242137923373,-0.46903242137923373,1.0001012842119217,0.00022358564578438224
-0.4687189605057938,-0.4687189605057938,0.9997828818996547,0.00021241854251633982
-0.4681696153827943,-0.4681696153827943,1.0000457132693965,0.00020782524720269099
-0.46794341629138214,-0.46794341629138214,0.9998988030018469,0.0002087984514913505
-0.46770450584299395,-0.46770450584299395,0.9999342547012582,0.00022672234298551892
-0.4674319494777592,-0.4674319494777592,1.0002107128318358,0.00021204900731781472
-0.46707398008729795,-0.46707398008729795,1.0000535209644426,0.0002087584146519766
-0.4668300493125571,-0.4668300493125571,0.9997993360238888,0.000211109481321877
-0.466319455622579,-0.466319455622579,1.0002570477788577,0.00020940231776166873
-0.46589282259519676,-0.46589282259519676,0.9999576897414209,0.00021457994498653692
-0.4655568142887205,-0.4655568142887205,1.0001203247636468,0.00021129989285832945
-0.4652716265729396,-0.4652716265729396,1.0001869744812832,0.0002092551732298151
-0.46475768786331173,-0.46475768786331173,0.9997028433870818,0.00022782183881135229
-0.46437580967030956,-0.46437580967030956,1.0002856011315142,0.00021533286197727782
-0.464126829142333,-0.464126829142333,1.0000389439781445,0.00022761104214093385
-0.4636569460883038,-0.4636569460883038,1.0000314954926626,0.00021074186548281602
-0.4634285854932386,-0.4634285854932386,1.000224358853237,0.00021013941764689935
-0.4631127027387265,-0.4631127027387265,0.9999563362113305,0.000216350669626707
-0.4627630014292663,-0.4627630014292663,0.9999273925919395,0.00020680586750320527
-0.46247580752824435,-0.46247580752824435,1.000138152672624,0.0002094443376772778
-0.462018902838463,-0.462018902838463,1.000249578462205,0.0002133673381508887
-0.4615735342056723,-0.4615735342056723,0.9999190748571326,0.00021138051497392876
-0.4611594910529675,-0.4611594910529675,0.9997731175114206,0.0002101423316469537
-0.4609366705233697,-0.4609366705233697,1.0000423366552487,0.0002145900029078648
-0.4603427970141638,-0.4603427970141638,1.0003296295398996,0.00021951826106430132
-0.45992520557774696,-0.45992520557774696,0.999569076639321,0.00022855038258703188
-0.4596659125672886,-0.4596659125672886,1.0000666049970819,0.0002125667140316321
-0.4592046544101322,-0.4592046544101322,0.9999920917221431,0.00020936972881048806
-0.45897901642892974,-0.45897901642892974,0.9999417203800711,0.0002248914426923787
-0.4586736021738034,-0.4586736021738034,1.0002048460173218,0.00021386320852939707
-0.4583033117000014,-0.4583033117000014,1.0001961079379695,0.00021205827232850588
-0.4580513764929492,-0.4580513764929492,0.999897282177216,0.0002069335314441017
-0.4576939754188061,-0.4576939754188061,0.999867757394625,0.00021474120649097526
-0.4571794081304688,-0.4571794081304688,0.9999089253718016,0.00021003650205358637
-0.4568416389171034,-0.4568416389171034,0.9998249994784849,0.00021448829771335666
-0.4564983905031113,-0.4564983905031113,1.0001257115721003,0.0002101358814311189
-0.45598364098405,-0.45598364098405,1.0002436136603894,0.0002232236355304445
-0.4554432742705103,-0.4554432742705103,1.0001758233567337,0.00022351180832962995
-0.4551669899723493,-0.4551669899723493,0.9998683285704608,0.00021259658714504692
-0.45484113274142146,-0.45484113274142146,0.9999106172229414,0.00020739111228772151
-0.45454694469226525,-0.45454694469226525,1.0000092702514995,0.0002100899350487851
-0.4541990125202574,-0.4541990125202574,0.9997386173341283,0.00021351447326703652
-0.4538568983989535,-0.4538568983989535,0.9999573851246435,0.0002223365513924234
-0.4536304512206698,-0.4536304512206698,0.9999268207389438,0.00020625790157132704
-0.453271976657561,-0.453271976657561,1.000067638182578,0.00021637702880528478
-0.45269814736093394,-0.45269814736093394,0.9998118048560578,0.0002105972799631689
-0.4524377034860663,-0.4524377034860663,0.9998167229095847,0.00023733678684880057
-0.452111791796051,-0.452111791796051,1.0000594492068484,0.0002084632985177217
-0.4517804706003517,-0.4517804706003517,1.0003030931812114,0.00022072185314866923
-0.4512469295266783,-0.4512469295266783,1.0002391787326712,0.00021907111463754063
-0.45089400468568785,-0.45089400468568785,0.9999334403504498,0.00022630596619488768
-0.45062077177572063,-0.45062077177572063,0.9998709605394309,0.0002159604447615262
-0.4504019507439807,-0.4504019507439807,1.0000371489050004,0.00020753633554855457
-0.45011561466089917,-0.45011561466089917,0.9999836503824646,0.0002137323494550831
-0.4497889209393179,-0.4497889209393179,0.9998230376552295,0.0002107648970634922
-0.4493859420530498,-0.4493859420530498,0.9999864943897301,0.00021343688939850884
-0.4491150642395951,-0.4491150642395951,0.9999123563123391,0.00020791136731225217
-0.44861814998148475,-0.44861814998148475,1.0000814351173744,0.00021196293208332583
-0.44814667057071345,-0.44814667057071345,1.0000163666115853,0.00021150609616783553
-0.44775333332072476,-0.44775333332072476,0.9999846621738516,0.0002115908077406086
-0.4473667818703689,-0.4473667818703689,1.0001597299935951,0.0002181200385709171
-0.44680746681406164,-0.44680746681406164,0.9998499919509509,0.00022888178222215338
-0.446461960094166,-0.446461960094166,0.9998306093233321,0.00022835850672891858
-0.44616569475329015,-0.44616569475329015,1.0000437535156255,0.00021180957919839948
-0.4459970717871329,-0.4459970717871329,1.0002092807415466,0.00021125706110875403
-0.4457173839211464,-0.4457173839211464,0.9999364440488065,0.00020792911653938424
-0.44537848623876924,-0.44537848623876924,0.9998436393888971,0.00021767896995539016
-0.4449972783739213,-0.4449972783739213,0.9999838593661418,0.00020952014314368485
-0.44476145654625726,-0.44476145654625726,1.0000851510300308,0.00021062866935117657
-0.4442768809560221,-0.4442768809560221,0.9999751825885378,0.0002104363264541031
-0.44372961270273664,-0.44372961270273664,0.9999683961200401,0.0002141998488362369
-0.44335621421050747,-0.44335621421050747,1.0000093277750346,0.0002088085573624194
-0.4429465669469209,-0.4429465669469209,1.0000030437343321,0.00022103367615101244
-0.44236380654620006,-0.44236380654620006,1.0001808501576808,0.00021998396755852756
-0.4419423541898141,-0.4419423541898141,1.0001012586250082,0.00023806184002042523
-0.44169225451478267,-0.44169225451478267,0.9999352235400764,0.00020861517267999166
-0.4414869309403002,-0.4414869309403002,1.000156019141727,0.00021407483596331205
-0.44119976440269965,-0.44119976440269965,1.000097677456753,0.00020798211888605964
-0.44083604322804604,-0.44083604322804604,1.0000687378717366,0.00021853975997493752
-0.44053147294034717,-0.44053147294034717,0.9997874932455645,0.00020888284251994609
-0.44030610387562774,-0.44030610387562774,1.0000201609679031,0.0002261819999357664
-0.43992040409648325,-0.43992040409648325,0.9998975420300168,0.0002112837726684426
-0.4393300122610526,-0.4393300122610526,1.0002127827788285,0.00021105329908730847
-0.4389267927821493,-0.4389267927821493,1.000057073714728,0.00020843546749622937
-0.43851888160279484,-0.43851888160279484,0.9999621141229458,0.00021098933206833734
-0.43773577054671475,-0.43773577054671475,1.0001213491809844,0.00020763588490421976
-0.4373752309504198,-0.4373752309504198,1.000035834882088,0.00022253825930763194
-0.437129287130665,-0.437129287130665,1.0000583815833592,0.00020931980037747878
-0.43694800373050385,-0.43694800373050385,1.0002549119634727,0.000218782984753967
-0.4366548080841312,-0.4366548080841312,0.9999719702045942,0.00020787979217370798
-0.43626125723531006,-0.43626125723531006,1.000381696220857,0.00021670881553117455
-0.43595047885610255,-0.43595047885610255,0.9997717123510084,0.00021048175702747558
-0.43572278913634366,-0.43572278913634366,0.9998275867511215,0.00021353988313079143
-0.43514909375808203,-0.43514909375808203,1.0000115968923136,0.00020982177804587687
-0.4346719625667902,-0.4346719625667902,1.0000385885713121,0.00021430280970655022
-0.434366075071739,-0.434366075071739,0.9996780397658125,0.00020878142075067495
-0.43401884857739786,-0.43401884857739786,0.9998804579205535,0.00021102270990260128
-0.43328631316544486,-0.43328631316544486,1.000186524918194,0.0002081427020281731
-0.43286465981509537,-0.43286465981509537,1.00005269811657,0.00021882477975914636
-0.4326865402923431,-0.4326865402923431,1.0001875146961,0.00021299359090659755
-0.43242705962911715,-0.43242705962911715,0.9999141065451813,0.00021227440278976094
-0.4321835043316241,-0.4321835043316241,0.9998768889424874,0.00021396252956596562
-0.43182443000550846,-0.43182443000550846,1.0001381157366338,0.00024014508287399403
-0.4315415727061918,-0.4315415727061918,0.9999369074220852,0.0002105156437125513
-0.43124489857582377,-0.43124489857582377,0.9997995165287472,0.00021383733489109465
-0.4306362294097198,-0.4306362294097198,1.0001587572314259,0.0002098222793894255
-0.4300586923985975,-0.4300586923985975,1.0000491567544254,0.00021372489930874812
-0.4298048802098492,-0.4298048802098492,0.9998863441478274,0.00020889158672870393
-0.4294486292405054,-0.4294486292405054,0.9999962316863444,0.00021157724924650276
-0.4286841796914814,-0.4286841796914814,1.0004676876815113,0.0002065861293134231
-0.42836106148606634,-0.42836106148606634,0.9999463282460924,0.00021995727576475712
-0.4281639083492337,-0.4281639083492337,1.0002531186664096,0.00021297512673680214
-0.4278971978405025,-0.4278971978405025,1.0000301024690117,0.00021259361974423067
-0.42762899978260976,-0.42762899978260976,1.0001818982523245,0.00022823751958881273
-0.4272964292875258,-0.4272964292875258,1.0001084809151042,0.00021465113074525008
-0.4270443634421099,-0.4270443634421099,1.000015957798831,0.0002157979276192189
-0.4268331802042667,-0.4268331802042667,0.9998474841593076,0.00021463526882421614
-0.4263784829119686,-0.4263784829119686,1.0001444749653159,0.000249124831581395
-0.42575836737523787,-0.42575836737523787,1.0001206438846775,0.00021178602192789786
-0.42540702696715016,-0.42540702696715016,1.00002546933349,0.00020859265396959962
-0.42514063254348,-0.42514063254348,0.9997791988299009,0.00021349260597740876
-0.4247469542577164,-0.4247469542577164,0.9999723539143177,0.00021011664165455926
-0.424071475569508,-0.424071475569508,1.0002661807913966,0.00021146888099357977
-0.4238667752506444,-0.4238667752506444,0.9998089045873778,0.00021283252443835254
-0.4236762830085354,-0.4236762830085354,1.0003853356891252,0.00020937867379771307
-0.42340686889365314,-0.42340686889365314,0.9996969104487758,0.00021517323493693325
-0.42313943306799046,-0.42313943306799046,0.9998041433292713,0.00021604915964262942
-0.422744159316062,-0.422744159316062,0.9999934090239189,0.0002165722710866104
-0.42239327541028615,-0.42239327541028615,0.9997636864442825,0.00021220803009603558
-0.4220534975756891,-0.4220534975756891,1.000174847192802,0.0002464045974795723
-0.4216283690620912,-0.4216283690620912,0.9999466079949795,0.00021036798361457422
-0.4210148069163552,-0.4210148069163552,1.0001180869280493,0.00021506461548247507
-0.42060788052040154,-0.42060788052040154,0.9999054829256417,0.0002091739479865021
-0.42018317306065,-0.42018317306065,0.9996999702355991,0.00021299076996419983
-0.41962245081085714,-0.41962245081085714,0.9999176522484238,0.0002111301095714778
-0.4193911168957129,-0.4193911168957129,1.0001355955485793,0.00020750090365808066
-0.41918842811428475,-0.41918842811428475,0.9999401519518412,0.00020624004732240015
-0.41894579533836807,-0.41894579533836807,0.9999263194805114,0.0002169511599678702
-0.41866683994303455,-0.41866683994303455,1.0000844280437775,0.00021675564044550355
-0.41834031051839704,-0.41834031051839704,1.0003211077274152,0.00021078730527307753
-0.4179880565410713,-0.4179880565410713,0.9999836446252688,0.0002183963482876862
-0.4176280075538671,-0.4176280075538671,1.000396389797849,0.000250850029105309
-0.41729405714722817,-0.41729405714722817,0.9999650911898996,0.00020591986313660626
-0.41701794487889854,-0.41701794487889854,1.0001409086920239,0.00021160216604530473
-0.41645870164502413,-0.41645870164502413,1.0001018518284022,0.0002116968482757588
-0.41612434611597565,-0.41612434611597565,1.0001026507842656,0.00020842093057715536
-0.4156962606852176,-0.4156962606852176,1.0002476882678997,0.00021301227472718233
-0.4151887541403994,-0.4151887541403994,1.0002222180439357,0.00020795783600423284
-0.4149648634775076,-0.4149648634775076,0.9998348988271679,0.00020934930993410386
-0.41476025368028785,-0.41476025368028785,1.0000335654897592,0.00020891656032458829
-0.4144099271972664,-0.4144099271972664,0.999971765004371,0.0002204262558665522
-0.4140175838489085,-0.4140175838489085,1.0000324079702492,0.00021487075470200717
-0.41345034741971176,-0.41345034741971176,1.000113046282733,0.00022214356704669094
-0.41308715274208224,-0.41308715274208224,1.0001351575527042,0.00025021668436454517
-0.41277707034605554,-0.41277707034605554,1.0002808268143049,0.00021029431058454482
-0.4124176825338509,-0.4124176825338509,1.000042957358826,0.0002115765053848927
-0.41191709554987027,-0.41191709554987027,0.9998704231981176,0.00022784554485427372
-0.411708712062682,-0.411708712062682,1.0001084137652498,0.00020779700136731475
-0.4113454721926246,-0.4113454721926246,1.000527138828097,0.00025136940445893893
