time,time,flux,flux_err
-0.4999395623744931,-0.4999395623744931,0.999854649518587,0.00031932767238863
-0.4998553518176777,-0.4998553518176777,0.999561893148895,0.00029310753954322306
-0.49971939603565263,-0.49971939603565263,0.9999619888942896,0.0002960175709145224
-0.49945325230655724,-0.49945325230655724,0.9999549802861006,0.00029952660772242354
-0.4993331603851402,-0.4993331603851402,1.0003557803786072,0.0002917078652938981
-0.4992673729371745,-0.4992673729371745,1.0000425687929169,0.00027666528071313746
-0.4991901119443355,-0.4991901119443355,1.000025125978899,0.0003016780779485377
-0.4990975644788705,-0.4990975644788705,1.0000219086680624,0.0003072184406292892
-0.49895772646414116,-0.49895772646414116,1.000012976241291,0.0003246707975071648
-0.49881680010585117,-0.49881680010585117,0.9997535782981251,0.00027817206726918017
-0.49863253232615534,-0.49863253232615534,0.999716286882389,0.00027901784024110033
-0.49852754646271935,-0.49852754646271935,0.9998746926737795,0.00029341544284945784
-0.49828524263866714,-0.49828524263866714,1.0005206931674002,0.0003030941193341656
-0.4980716238176683,-0.4980716238176683,1.0001150903193512,0.0003042944691026247
-0.49797431733168196,-0.49797431733168196,1.0000480197585957,0.0003262424760080304
-0.4977887645509327,-0.4977887645509327,0.9999934840088118,0.0003677612302463404
-0.4976784017053433,-0.4976784017053433,0.9998945968378109,0.0002930178702532063
-0.4974816877540434,-0.4974816877540434,1.0005938512867603,0.0002950462882356582
-0.4972478467243491,-0.4972478467243491,1.000096164774142,0.0002885267938304596
-0.4971167869574856,-0.4971167869574856,0.9998673325595648,0.0002811675226396998
-0.49702363220276313,-0.49702363220276313,0.9994788815278002,0.0002882654338979361
-0.4968775304529117,-0.4968775304529117,0.9999230892976774,0.00027193614103743723
-0.4967700854904251,-0.4967700854904251,1.000244145625268,0.00030826477708527486
-0.4966513080929872,-0.4966513080929872,0.9997485626324849,0.0002995938125814225
-0.4964861235697754,-0.4964861235697754,1.0003214187903766,0.0002974270029519161
-0.49633410391688815,-0.49633410391688815,1.0000132380316042,0.0002657295088778715
-0.49626878739800306,-0.49626878739800306,0.9998441373505227,0.000301535897957682
-0.4961605419870466,-0.4961605419870466,1.0000655152377032,0.0002842877016100463
-0.49599959229817614,-0.49599959229817614,1.000083227824873,0.0002801002905834757
-0.49584481017082,-0.49584481017082,1.0000171789366843,0.00029618523770211355
-0.4957122165156761,-0.4957122165156761,0.9999866240982559,0.0002571554260302119
-0.4956611920526484,-0.4956611920526484,1.000134712383561,0.0002948673929013748
-0.4955870466743363,-0.4955870466743363,1.0002774735901079,0.0003006235111290297
-0.49541768709023015,-0.49541768709023015,0.9999753440472781,0.0002901528989215938
-0.49524943541618993,-0.49524943541618993,0.9999692002926116,0.00027273991214315124
-0.49508002525835765,-0.49508002525835765,0.9999322018534489,0.0002907968149095067
-0.49493729358655403,-0.49493729358655403,1.0002484699291878,0.00029365642272763094
-0.49481131066277156,-0.49481131066277156,1.0000508948081919,0.00027842015196611746
-0.4947051343682688,-0.4947051343682688,1.0000273637075405,0.000282569898097068
-0.4946287461003521,-0.4946287461003521,1.0003501809972681,0.0002890911677510943
-0.4944732734060381,-0.4944732734060381,1.0001445156365913,0.0002994463303665871
-0.4943089821317699,-0.4943089821317699,0.9999271758474034,0.000285278573175425
-0.4941668268817011,-0.4941668268817011,1.0003031071250503,0.0002972678973116446
-0.4940176682197489,-0.4940176682197489,0.9998461176933635,0.00031321403187754295
-0.4938530815852573,-0.4938530815852573,1.0001836829145379,0.000283995309941248
-0.49371071690984536,-0.49371071690984536,1.0000927597682767,0.00033178726518286823
-0.49361941145034505,-0.49361941145034505,1.0002963294159408,0.00027898276135414975
-0.4934874453319935,-0.4934874453319935,1.0001679746928747,0.0003366580287931825
-0.4933649595273891,-0.4933649595273891,0.9997999883654709,0.00025689909708927645
-0.4931728790717898,-0.4931728790717898,1.0001191477033555,0.00030492995109724665
-0.4930542685004184,-0.4930542685004184,1.0002224797111328,0.00029974276569057955
-0.492897244670894,-0.492897244670894,0.9999840547434118,0.0002765881729403195
-0.49273670330294406,-0.49273670330294406,0.9995521184604709,0.0003004035336138263
-0.49255756262864453,-0.49255756262864453,0.9997026842381361,0.00030983875468281927
-0.49245251992251726,-0.49245251992251726,1.000430437262752,0.0002935855257079213
-0.49237298156076575,-0.49237298156076575,0.9998115460023534,0.0003010720143042942
-0.49232232285430655,-0.49232232285430655,1.0002025271095882,0.0002765426937962113
-0.4922734014282469,-0.4922734014282469,1.0001936656395751,0.0002834924834738454
-0.4921997544530313,-0.4921997544530313,0.9999911857243797,0.00030647342798679697
-0.4921137999073835,-0.4921137999073835,0.9999075393797904,0.0002822171740700772
-0.4920276430872036,-0.4920276430872036,1.0000018601228677,0.00028025256121014334
-0.49185362345015166,-0.49185362345015166,1.000061161714329,0.0003198873368282937
-0.4917059759289259,-0.4917059759289259,1.0000694165425164,0.0002962992102911829
-0.49150321404449643,-0.49150321404449643,0.9999513893242966,0.0002942215061455847
-0.4913331229472533,-0.4913331229472533,1.000509157867585,0.0003177621832327862
-0.49115925511869135,-0.49115925511869135,1.0000136397900172,0.0003229606995774975
-0.49104989987099545,-0.49104989987099545,1.0000166408739715,0.0002856709840274316
-0.4909750661725411,-0.4909750661725411,1.0000818322027585,0.00026966233260356735
-0.49080731307622044,-0.49080731307622044,0.9997672541175066,0.00030205834235570467
-0.4906857645983109,-0.4906857645983109,0.9996772142884668,0.000303568593124042
-0.49060431600082666,-0.49060431600082666,0.9999714129476743,0.00030664087541683104
-0.49051481269125363,-0.49051481269125363,1.000113040421603,0.0002690497021317252
-0.49043166080955414,-0.49043166080955414,1.0000012133315996,0.00035221693722307744
-0.49037190527596974,-0.49037190527596974,0.9997520873119772,0.00028659776184535246
-0.4902799695439171,-0.4902799695439171,0.9998529825193773,0.0002799784787074362
-0.4901692348474171,-0.4901692348474171,1.0000851413206864,0.00028399119661010844
-0.49010446116444656,-0.49010446116444656,1.0000130629307808,0.0002895633345354443
-0.4899979302077554,-0.4899979302077554,1.0002377259847262,0.000305442063625646
-0.4898630119219888,-0.4898630119219888,0.9999875732168032,0.00027618134112904777
-0.4896845645038411,-0.4896845645038411,0.9997406546155115,0.0002966724225602554
-0.48953394519048743,-0.48953394519048743,1.0001952683418875,0.00029786684444457816
-0.48937768800533377,-0.48937768800533377,1.0002319137453548,0.0002749001816364517
-0.4893312089523533,-0.4893312089523533,0.9996827462436217,0.00029198319385002273
-0.4891905703727389,-0.4891905703727389,1.0001983655627338,0.0002613594396889957
-0.4890364618680906,-0.4890364618680906,1.0000805646328748,0.0003283658532100362
-0.4889362036861712,-0.4889362036861712,1.0005028774714169,0.0003039496733812422
-0.4887308639241382,-0.4887308639241382,1.0000332294342518,0.0002849092521593717
-0.48863029468047897,-0.48863029468047897,0.9999315646912036,0.0003140528783006092
-0.4884827299392782,-0.4884827299392782,1.0004048288424763,0.0002894789487313675
-0.4882827806402929,-0.4882827806402929,0.9999531558209755,0.00029027011255583463
-0.48812659124087077,-0.48812659124087077,0.999719506565965,0.00029113269666662016
-0.48793520057806744,-0.48793520057806744,0.9996383224998112,0.0003006195513938502
-0.4877688421984203,-0.4877688421984203,0.9996465545937546,0.0003038500969925146
-0.487616949895164,-0.487616949895164,1.0002152189781113,0.00027992894472829693
-0.48752114601957147,-0.48752114601957147,0.9997873462446151,0.0003068606124072304
-0.4874412367324112,-0.4874412367324112,1.000717107591043,0.0003086560398060681
-0.48727801797213033,-0.48727801797213033,1.0001252683412136,0.0002829049353986883
-0.487178758715163,-0.487178758715163,1.0000414955608357,0.0002682982331304346
-0.48707490584929475,-0.48707490584929475,0.9998837285941908,0.00028407167506437294
-0.48698848981875925,-0.48698848981875925,0.9999959590457369,0.0002834640502091349
-0.48688932228833437,-0.48688932228833437,1.0004509949346716,0.00027571370298395156
-0.4867308039276395,-0.4867308039276395,1.000179486935859,0.0002888656641773362
-0.48655924984195736,-0.48655924984195736,0.9992953426644353,0.00029855394731702074
-0.48634673409396784,-0.48634673409396784,0.9998933343654892,0.00030579273140642055
-0.48626539621618575,-0.48626539621618575,1.0001084252644112,0.00027371110709962723
-0.48617110355698967,-0.48617110355698967,0.9995540717392684,0.00030267889890340014
-0.4860590286552906,-0.4860590286552906,0.999895368898169,0.0002825379041112572
-0.4859407136158552,-0.4859407136158552,1.000236021149608,0.00029035046461186193
-0.48582759449782315,-0.48582759449782315,1.0001381760712238,0.00029914816643402086
-0.485736194261699,-0.485736194261699,1.000192131954422,0.0002754132543529339
-0.4856247022486059,-0.4856247022486059,0.9996534684873275,0.0002856185166340972
-0.48552251737273766,-0.48552251737273766,0.9998569055467948,0.0002970616896539609
-0.4853678627783665,-0.4853678627783665,1.0003578383126732,0.0002802870736654726
-0.4852136045519728,-0.4852136045519728,1.0000188237700773,0.0003095435788401693
-0.4850315791380126,-0.4850315791380126,1.0002521891222895,0.0002868216312888176
-0.4848354863963323,-0.4848354863963323,1.0001177296103227,0.00027598080307939985
-0.48461747484398077,-0.48461747484398077,1.0000017403254993,0.0003336157749165588
-0.4844969212485012,-0.4844969212485012,1.0005529686645187,0.0002899875095389259
-0.4843711651978083,-0.4843711651978083,1.0000781593080172,0.0002829963466647643
-0.4843015366437612,-0.4843015366437612,1.000405842776177,0.000288997101213661
-0.48423111901502125,-0.48423111901502125,1.0001308108503206,0.00030013207351208264
-0.4840735366597073,-0.4840735366597073,0.9998243608167531,0.00027627610122206073
-0.4839429311687127,-0.4839429311687127,0.9999740345112507,0.000280769704863058
-0.48377609893504997,-0.48377609893504997,1.0003855421333057,0.00029433760626624807
-0.48367676212801597,-0.48367676212801597,1.0005004440118082,0.0003173329988785397
-0.4835779355489649,-0.4835779355489649,1.0003791186650974,0.00031622819173528384
-0.4834803304809611,-0.4834803304809611,1.0000495779401173,0.00027709001998157446
-0.4833955274662003,-0.4833955274662003,1.0002537042462025,0.00036553891058173257
-0.48323773317679297,-0.48323773317679297,0.9998237450928805,0.0002940845855316789
-0.4830521361524006,-0.4830521361524006,0.9999903364505961,0.00033490993040618844
-0.4828589944896521,-0.4828589944896521,1.000063301269819,0.000284082882240591
-0.4827178931795061,-0.4827178931795061,1.000517957361365,0.0002729775786942881
-0.482614586330601,-0.482614586330601,0.9999644753621645,0.0002966018130853412
-0.4824459780473262,-0.4824459780473262,0.9996535610630308,0.00027968118597597317
-0.4822836341889342,-0.4822836341889342,0.9996126721982665,0.00032310612018724046
-0.48220406598702537,-0.48220406598702537,1.0001577100983998,0.0003508164133772386
-0.4820803122856887,-0.4820803122856887,0.9999881002960549,0.00033595712393170074
-0.4819142087682849,-0.4819142087682849,1.0001698013727638,0.0003006817795476653
-0.48180267777352126,-0.48180267777352126,1.0001279120004032,0.0002877480374185433
-0.4817086232855218,-0.4817086232855218,0.9999528945943229,0.00028914346508644717
-0.4816511526965769,-0.4816511526965769,1.0005088267226738,0.0003090052606958429
-0.481569165745168,-0.481569165745168,1.0002702556199934,0.00032957070774160973
-0.4815120787679916,-0.4815120787679916,1.0004462749534793,0.00027851148361151157
-0.481428249925375,-0.481428249925375,0.9998574040704608,0.0003163254115295037
-0.48127428218140267,-0.48127428218140267,1.0003522955782498,0.0003296897773716562
-0.481136818282539,-0.481136818282539,1.000137116267356,0.00026494707198050627
-0.4809823048941325,-0.4809823048941325,1.000305622156326,0.0002748739370760549
-0.48084609491925223,-0.48084609491925223,0.9999903495271028,0.00030192186887032977
-0.4807294318132335,-0.4807294318132335,1.0000394658579008,0.00030259118477463657
-0.4806260223092977,-0.4806260223092977,0.9997992129713591,0.0003098749921310103
-0.48056082632683683,-0.48056082632683683,0.9994296834154703,0.00028971035046924026
-0.48043640728865283,-0.48043640728865283,0.9999612526624524,0.0002951777298534936
-0.48019419073825703,-0.48019419073825703,1.0004247569352256,0.0003077878204081606
-0.4800464719563024,-0.4800464719563024,0.9999917625258632,0.00030735038463697376
-0.47995768624532503,-0.47995768624532503,0.9998363300996671,0.0002708661899900856
-0.47991156069911084,-0.47991156069911084,0.9995814382897056,0.0002935883472929072
-0.4798197587399045,-0.4798197587399045,1.0002366545906656,0.00028347568252085477
-0.4797081231023185,-0.4797081231023185,1.0002895657332302,0.0003047628748112879
-0.4795467709103832,-0.4795467709103832,1.0002325546915993,0.00031238006390898446
-0.4793713104183553,-0.4793713104183553,1.0002258633427925,0.0003057917059214626
-0.4792815408058232,-0.4792815408058232,1.0002557620509935,0.00027531132204523014
-0.4791341896838276,-0.4791341896838276,1.0004246419481315,0.0002775588953277907
-0.4789838183351094,-0.4789838183351094,0.9999255405528258,0.00028165875039948057
-0.47881456672039346,-0.47881456672039346,0.9999799645956415,0.00029583995132291107
-0.47869010491413067,-0.47869010491413067,1.0000495766283466,0.0003258310257652571
-0.47859411358367654,-0.47859411358367654,1.0000263583062448,0.00028122186424995416
-0.4784449708968168,-0.4784449708968168,0.9998185155359331,0.00033106388310621097
-0.47825973148283085,-0.47825973148283085,0.9995565688254118,0.00027776188522325197
-0.4780281283630757,-0.4780281283630757,1.0004342190697177,0.00028947979035836354
-0.47786053200252354,-0.47786053200252354,0.9999614869310168,0.0003089840056036265
-0.4777472741145175,-0.4777472741145175,0.9995079986683422,0.0003023815618410616
-0.4775889141194057,-0.4775889141194057,1.000334646116766,0.0002751511675999142
-0.4774819662387017,-0.4774819662387017,0.9997946597264408,0.0002984155227076531
-0.47733506524527913,-0.47733506524527913,1.0001718504403487,0.00030732303602151723
-0.4772585829021409,-0.4772585829021409,1.000276970652693,0.00030723651900192614
-0.4771484595607035,-0.4771484595607035,1.0003284651940212,0.00030265168297073316
-0.47704672969994133,-0.47704672969994133,0.9999099583434689,0.00029618255669504095
-0.4769447282043984,-0.4769447282043984,1.00016685541354,0.00028341894996420297
-0.4767702649580315,-0.4767702649580315,0.9998781897080207,0.0003195984914394336
-0.47660088623815683,-0.47660088623815683,0.99994511246213,0.00028643551735983003
-0.4764932398858946,-0.4764932398858946,1.0003324774482152,0.0002795447872908409
-0.4763822212378727,-0.4763822212378727,1.0002685590487865,0.000285411096758308
-0.4763161132665118,-0.4763161132665118,1.0005871404030289,0.00029615706082113704
-0.47615529437316584,-0.47615529437316584,1.0000443362685274,0.00027766505616403904
-0.4759809312730795,-0.4759809312730795,1.0001437713269195,0.00028427332073133334
-0.4758509770676028,-0.4758509770676028,1.0000984563742839,0.00029323288288982927
-0.4757079152070219,-0.4757079152070219,1.0000436201907565,0.0002867977157310436
-0.47562745611940044,-0.47562745611940044,1.000096424306702,0.0002984892433788299
-0.4754311081225751,-0.4754311081225751,1.0002601678998784,0.00029051671086312503
-0.4753684699709993,-0.4753684699709993,0.999883386057947,0.00029432824604091535
-0.4752767976809992,-0.4752767976809992,1.0000001980734758,0.0002803799872891818
-0.47512522885226643,-0.47512522885226643,0.9996948013930467,0.000295863808226517
-0.4750272324105026,-0.4750272324105026,0.9999143857763656,0.0002892452617408832
-0.4749133842240553,-0.4749133842240553,0.9998802019258537,0.00030905905253454126
-0.47475627007079313,-0.47475627007079313,0.9999249747340107,0.00031058653556919984
-0.47460403793375006,-0.47460403793375006,0.9997002757187264,0.00027566505209359883
-0.4744765563402325,-0.4744765563402325,0.9998605656959481,0.00028132548116811937
-0.47436441148165615,-0.47436441148165615,1.0002127972594272,0.00032852359989248004
-0.47422480302047915,-0.47422480302047915,1.0001279712099207,0.0003350744471032513
-0.474060546621331,-0.474060546621331,0.9999739891744686,0.0002555384591236558
-0.4738728641299531,-0.4738728641299531,1.0000095694280844,0.0003077486459002301
-0.473718635973637,-0.473718635973637,0.9999200586707424,0.0002743698810435956
-0.4735611150797922,-0.4735611150797922,0.9999999768668426,0.0002776990921241666
-0.4733717431226978,-0.4733717431226978,1.0001959907766886,0.0003139082819217474
-0.4732790213194676,-0.4732790213194676,0.9999936507658507,0.00031317352927646356
-0.4731745705765206,-0.4731745705765206,0.9997970148494735,0.00031383265203854794
-0.47308293336536733,-0.47308293336536733,1.00036224880287,0.0002769468194507653
-0.47301762382267043,-0.47301762382267043,1.000045686352474,0.00029707691912993797
-0.4729344340303214,-0.4729344340303214,1.000227432414207,0.0002846635942930963
-0.47282787577423735,-0.47282787577423735,1.000030783452602,0.0002968391742721718
-0.47266841591335834,-0.47266841591335834,0.9997012410265633,0.00030992137551443335
-0.47247197266551666,-0.47247197266551666,1.0000421469480572,0.00029935701181738977
-0.4722750535438536,-0.4722750535438536,1.000336961665073,0.00027952642429979126
-0.47216988881409633,-0.47216988881409633,0.9999727008999892,0.0003091510096855749
-0.47204808759270234,-0.47204808759270234,0.9998820559589016,0.00029715889971819714
-0.4718794698361307,-0.4718794698361307,1.0000667863413681,0.00032107039248091015
-0.47179615787172224,-0.47179615787172224,1.0001217028565115,0.0003148314045199132
-0.471619941823883,-0.471619941823883,1.0001270760183596,0.00027408346755875793
-0.471445366894477,-0.471445366894477,1.0003166916708999,0.0003282275484451743
-0.4713253185793292,-0.4713253185793292,0.999596593008067,0.00030088157803857536
-0.4711946255643852,-0.4711946255643852,0.9995085522081453,0.0003343346255355982
-0.47113759304047564,-0.47113759304047564,1.0000886799693192,0.00028749403328480786
-0.4710562209045747,-0.4710562209045747,1.0002168706975083,0.0002913517801514674
-0.4709368410200113,-0.4709368410200113,0.999859414313273,0.00027598065999790333
-0.4708547855698271,-0.4708547855698271,0.9999284259132162,0.00027931096402850444
-0.4707525192265166,-0.4707525192265166,0.9998038797784728,0.0002782693537684481
-0.4706201820372371,-0.4706201820372371,1.0001239998334035,0.00029290826285976703
-0.4705204507918097,-0.4705204507918097,0.9999203639978477,0.0002739805691250808
-0.4703386591427261,-0.4703386591427261,0.9998788482382703,0.00029720265707269074
-0.4701918212376768,-0.4701918212376768,1.0001602960253007,0.00029159315202520475
-0.47013320472324266,-0.47013320472324266,0.9999661075153734,0.0002919138805994574
-0.4700568038941128,-0.4700568038941128,0.9997064574663066,0.00028251103695359014
-0.4699544214119669,-0.4699544214119669,0.999847437272885,0.00028707854270096573
-0.4698221324768383,-0.4698221324768383,0.9994391664241068,0.0003042606667918946
-0.4697352946852334,-0.4697352946852334,0.9999538334750703,0.00030759915207296856
-0.46956385603698436,-0.46956385603698436,1.0000925429995444,0.0002761902281910131
-0.4694147060625255,-0.4694147060625255,0.9999782469786063,0.0003003737184800509
-0.46934097839402966,-0.46934097839402966,1.000142670539268,0.00029342661631998523
-0.46919318873842714,-0.46919318873842714,0.9999630081077472,0.0002723909540923221
-0.4690554833447095,-0.4690554833447095,1.0002121094172154,0.00029795210028907553
-0.46888714328815695,-0.46888714328815695,1.0003029641095003,0.00029917936031150806
-0.46864515861379913,-0.46864515861379913,1.000484527608457,0.00028428673972574124
-0.46848820825689474,-0.46848820825689474,1.000108519778977,0.00031238499013573406
