time,time,flux,flux_err
-0.4998850483825663,-0.4998850483825663,1.0000194808720517,0.00015454286453723585
-0.49972770177555503,-0.49972770177555503,1.000019188031098,0.00016058717398902874
-0.4994726223812904,-0.4994726223812904,1.0000772643396478,0.00015215332026169315
-0.4992717168439412,-0.4992717168439412,1.000159345598572,0.00014235026705057346
-0.4991443577397149,-0.4991443577397149,0.9999472955306089,0.00015103217711295156
-0.49896892021642997,-0.49896892021642997,0.9999134435911214,0.0001404996647999056
-0.49882030816806944,-0.49882030816806944,1.0000030174131873,0.00014670536647019464
-0.49867510465846865,-0.49867510465846865,1.0001668638560308,0.00014305679202236097
-0.4985242503025802,-0.4985242503025802,1.0000560110640153,0.0001453838910386187
-0.49833972385677044,-0.49833972385677044,1.000089346457166,0.0001377994865814582
-0.4982373367180116,-0.4982373367180116,1.0001468595410627,0.00014460840574745317
-0.4981190367398085,-0.4981190367398085,0.9999426391018202,0.00014207093671178133
-0.49798509844986255,-0.49798509844986255,1.0002236576294508,0.000136442866431429
-0.49784192569786684,-0.49784192569786684,0.9997235864123288,0.00014385889041725915
-0.49775259813759476,-0.49775259813759476,1.000078503956778,0.00014473196170563824
-0.49763456112705173,-0.49763456112705173,1.0000526642269953,0.0001422686513197409
-0.49746622949314767,-0.49746622949314767,1.0000397213472756,0.00014223457066725621
-0.49735910459421573,-0.49735910459421573,1.0000802589997817,0.00014198217429821458
-0.49727370104228613,-0.49727370104228613,1.0000213592313372,0.00014466746633866033
-0.4972086682537338,-0.4972086682537338,1.0000988149931431,0.00014230820237418827
-0.4971077323803911,-0.4971077323803911,1.0000269902543897,0.0001430742208810255
-0.49700100436457434,-0.49700100436457434,0.9999649229894118,0.0001454030092043935
-0.4968991214118432,-0.4968991214118432,1.0000073096988555,0.00014169662999386623
-0.4967973872378934,-0.4967973872378934,0.9998263380234252,0.00014487283129463235
-0.4967361408984289,-0.4967361408984289,1.000046090757869,0.00014263241394037355
-0.4966478148358874,-0.4966478148358874,1.0001410654419005,0.0001493487284724263
-0.4965042010328034,-0.4965042010328034,0.9998735363177775,0.00014903129089521326
-0.49639601793605836,-0.49639601793605836,1.000104755596377,0.00014327169751119018
-0.4963293834676733,-0.4963293834676733,0.9999838329073404,0.0001428622465014326
-0.49627152747416403,-0.49627152747416403,1.0000334441765326,0.0001565703279787781
-0.4961842280084966,-0.4961842280084966,0.9999862927304932,0.00014279975985729385
-0.49609588203020394,-0.49609588203020394,1.0000708929785385,0.0001522410847754002
-0.49601169568486514,-0.49601169568486514,0.9999189138874396,0.0001416130226978381
-0.4959667632472701,-0.4959667632472701,1.0000015155808493,0.00015085751620405144
-0.49588120625994636,-0.49588120625994636,1.0001593640734996,0.00015553869742094973
-0.495772758271778,-0.495772758271778,1.0000093962980958,0.0001452722895493198
-0.49569533791509457,-0.49569533791509457,1.0000281189109155,0.00014921028522329565
-0.49558156745042653,-0.49558156745042653,0.9999606191856948,0.0001495637767381822
-0.495508333251928,-0.495508333251928,0.9997990001899192,0.00015013482516552985
-0.4954442158807069,-0.4954442158807069,1.000149567665305,0.00014819254237850334
-0.49536513717030173,-0.49536513717030173,0.9999255273601791,0.0001470540499923402
-0.495272287222906,-0.495272287222906,1.000028043131637,0.00014476679089790403
-0.49519104458449875,-0.49519104458449875,0.9998673423781892,0.0001520845773202906
-0.4950998341693776,-0.4950998341693776,1.0002363244651837,0.00015238617759784416
-0.49503506226756144,-0.49503506226756144,1.0000895080162073,0.0001442174359050665
-0.4949188163882354,-0.4949188163882354,1.000099367587937,0.00014743383610684073
-0.49479039456055035,-0.49479039456055035,1.0000977903109345,0.00015141254125706772
-0.49464660928642845,-0.49464660928642845,0.9998892765099232,0.00015005386537413957
-0.4945033257972682,-0.4945033257972682,0.9999854971442927,0.0001471835189794581
-0.4943490811419906,-0.4943490811419906,0.999870571238995,0.00014860880102652812
-0.49421013224928173,-0.49421013224928173,0.9999592823798622,0.00014325378932646544
-0.4940521412121598,-0.4940521412121598,1.000180092326643,0.00015350528873836703
-0.49390426304598806,-0.49390426304598806,0.9999144679475984,0.00014745404363931757
-0.4938411672337679,-0.4938411672337679,0.9999725021156831,0.00014958328656023342
-0.4937461565103149,-0.4937461565103149,0.999973958525992,0.0001477966926975547
-0.49363453772093635,-0.49363453772093635,0.9999040276596098,0.00015192767324759377
-0.4935316523304209,-0.4935316523304209,1.0000847190547417,0.0001572809451453671
-0.4934572370373644,-0.4934572370373644,1.0000071639859054,0.00014417507415746635
-0.4933658331341576,-0.4933658331341576,1.0000325641061394,0.00016072444237461218
-0.49331138864217794,-0.49331138864217794,1.0001253769936593,0.00014305559486791906
-0.49322698057803793,-0.49322698057803793,0.9999028418983229,0.00015656688658587822
-0.4931057746638544,-0.4931057746638544,1.0000173646883208,0.00014870791710140996
-0.49301467441546265,-0.49301467441546265,0.9999542148043442,0.0001470034216179793
-0.492931709237746,-0.492931709237746,1.0000640822593205,0.00015719654044610285
-0.49281034916057254,-0.49281034916057254,0.9999743299988684,0.00014682501729103398
-0.4927333820349304,-0.4927333820349304,1.0000331860689369,0.00015465313878886374
-0.492582478406257,-0.492582478406257,1.000052301365582,0.00015491419587522617
-0.4924866723944433,-0.4924866723944433,0.9999299968722445,0.00015280770227238418
-0.49236793346644847,-0.49236793346644847,1.0001918018147329,0.00015850276536000357
-0.49223338486626744,-0.49223338486626744,1.0001791905255202,0.00015324475727143794
-0.4921341159730218,-0.4921341159730218,1.0000314311416294,0.00015627534485338613
-0.49198940755450166,-0.49198940755450166,1.0001730770702348,0.00015330605558473872
-0.4919095016637584,-0.4919095016637584,1.0000098348938056,0.0001524903449652019
-0.4918226701905951,-0.4918226701905951,0.9998359830087228,0.00015316671052513256
-0.4917243770760251,-0.4917243770760251,0.9999991287778904,0.00015029727056535812
-0.49155966631369663,-0.49155966631369663,1.0001162914287711,0.00015009446170088247
-0.4914289406995522,-0.4914289406995522,0.9999556154752336,0.0001531716566123726
-0.49130360668350476,-0.49130360668350476,1.0000680021403199,0.00015232557118310096
-0.49116681019659153,-0.49116681019659153,1.0001847882660084,0.00015288731666497372
-0.4910241388250142,-0.4910241388250142,0.9998852120595924,0.00015439307847396952
-0.4908787141379435,-0.4908787141379435,0.9999353844579201,0.00015527613982251807
-0.4907398379757069,-0.4907398379757069,0.9999585842097447,0.0001455343916540086
-0.4905977448244812,-0.4905977448244812,0.9999283384676447,0.00015030770714266
-0.49045241680869367,-0.49045241680869367,1.0001345593110496,0.00014797357513934538
-0.4902704832085874,-0.4902704832085874,1.0000157748657734,0.00014726215602024853
-0.4901625630183844,-0.4901625630183844,1.0001131722460703,0.00014163905516594046
-0.49006620644649956,-0.49006620644649956,1.0000119257098945,0.00014431071424304706
-0.489936941707856,-0.489936941707856,1.0000168803955847,0.00014465823729294217
-0.48985296622267926,-0.48985296622267926,0.999993879784385,0.0001361019494710961
-0.4897293893794995,-0.4897293893794995,1.0002873291519594,0.00015116280241076429
-0.48961334590567274,-0.48961334590567274,0.9998204423026108,0.0001401855080269788
-0.4894639423728222,-0.4894639423728222,1.0001749696322162,0.00014754707602444029
-0.4893543135054642,-0.4893543135054642,1.0000601988361315,0.00014908451670306565
-0.48921887801843694,-0.48921887801843694,0.9999145966519443,0.00014635385346247466
-0.4891004381119274,-0.4891004381119274,1.0002810219406073,0.00014519269255797786
-0.4890077695134096,-0.4890077695134096,0.9999167028074357,0.0001411800943561502
-0.4888772825826891,-0.4888772825826891,1.0001014050102555,0.000152234452529928
-0.4887782673584297,-0.4887782673584297,1.000099560799676,0.00014050845979728766
-0.4887116430880269,-0.4887116430880269,1.000113105281459,0.00015056265752298715
-0.48861070827697406,-0.48861070827697406,1.0000299008759688,0.00014673184267867883
-0.488488942704862,-0.488488942704862,1.0000867107764377,0.0001437636362659315
-0.4883239092567237,-0.4883239092567237,0.9998398945247186,0.00014374285963559188
-0.48817173823481425,-0.48817173823481425,1.0000744021010763,0.00015047357990122652
-0.4880344364908524,-0.4880344364908524,1.0000392137766765,0.00014957016225456226
-0.4878320052288473,-0.4878320052288473,1.0000260767278606,0.0001464895796481806
-0.4876178704638733,-0.4876178704638733,1.0000677804686204,0.00014839203421201168
-0.4874779864854645,-0.4874779864854645,1.000018427212198,0.00015209146916936078
-0.487330301295151,-0.487330301295151,1.0000895053141075,0.00014960559219637676
-0.48715309623221403,-0.48715309623221403,0.9995445499150909,0.00014859486764927176
-0.48704027656058313,-0.48704027656058313,1.000028697194535,0.0001484716777027211
-0.4868032902944833,-0.4868032902944833,0.9998620455426881,0.00015190624933377102
-0.4867088537925156,-0.4867088537925156,0.9996863779138551,0.00014774105867350289
-0.48653311732050497,-0.48653311732050497,0.9999074930881677,0.00015364893743695834
-0.48629873794852757,-0.48629873794852757,1.000110955364151,0.00014627953901226483
-0.4862112490227446,-0.4862112490227446,0.9999344660384603,0.00015479278147074158
-0.4860586600174429,-0.4860586600174429,0.9998700182542706,0.00015366879189559335
-0.4859005084494129,-0.4859005084494129,1.0002123460434802,0.0001463779536881573
-0.4857668699638452,-0.4857668699638452,1.0001927389634804,0.00014343977516388385
-0.4856263204681454,-0.4856263204681454,0.9998186731527502,0.0001462982881390607
-0.48544486571918244,-0.48544486571918244,0.9998665496920296,0.00014430723028757063
-0.4853185994725209,-0.4853185994725209,0.9997843914729223,0.00014974395267569436
-0.4852147067867918,-0.4852147067867918,1.000154712053937,0.0001516765273218618
-0.485068678544485,-0.485068678544485,1.0001730690518071,0.00014852983227418333
-0.4848937545029912,-0.4848937545029912,0.9997720662918997,0.00014870294660329235
-0.4847834713233169,-0.4847834713233169,1.0000456840263907,0.000144321557981864
-0.4845837058441248,-0.4845837058441248,0.9997746469967621,0.00014244465143060649
-0.48438983723463025,-0.48438983723463025,1.0001562306238747,0.0001426279699175881
-0.4842570675362367,-0.4842570675362367,1.0000122841480537,0.00014707393191022478
-0.48409796685446055,-0.48409796685446055,1.0000263951381907,0.0001435532283106894
-0.48393251752422656,-0.48393251752422656,1.0000855913801552,0.00014509481719993176
-0.4838071569916792,-0.4838071569916792,1.0000995023638402,0.00015452959551379684
-0.483680338220438,-0.483680338220438,0.9998396128887059,0.00015365677368354912
-0.48347751929832156,-0.48347751929832156,0.9997886317500042,0.00014611195284318167
-0.4833644129743334,-0.4833644129743334,0.9999679984526605,0.00014742376385446692
-0.4832262854964938,-0.4832262854964938,1.0001177621121067,0.00015462753405063226
-0.4830677612044383,-0.4830677612044383,1.00009758905956,0.00014618529182572188
-0.48287454378732947,-0.48287454378732947,0.9998509463581031,0.00014112879773180753
-0.48269666225824037,-0.48269666225824037,0.9999683075024439,0.0001495735132631271
-0.48254750500200316,-0.48254750500200316,0.9997590884251301,0.00014188561826755875
-0.48238783281703945,-0.48238783281703945,1.0000823345167278,0.00014847650175284254
-0.48228427121648565,-0.48228427121648565,0.999921239270412,0.0001423660590473059
-0.4822027326445095,-0.4822027326445095,1.0001381600150527,0.00014906950254121425
-0.48212143347482195,-0.48212143347482195,1.0000991746336885,0.00014204089916727245
-0.48202652782492805,-0.48202652782492805,1.000110850352844,0.00014324908147892243
-0.4819204927771352,-0.4819204927771352,0.9999957678573482,0.00015380207664636588
-0.48180458580027336,-0.48180458580027336,0.9999601555240156,0.00014214603863870923
-0.4817317071283469,-0.4817317071283469,0.9999801541565896,0.00014211396721665028
-0.4816599551588297,-0.4816599551588297,1.000011854274231,0.00014433804569657555
-0.4815548838087125,-0.4815548838087125,1.000079424660012,0.00014386767221321895
-0.4814931666798657,-0.4814931666798657,1.0000089956724842,0.0001489675947737075
-0.4814088971033925,-0.4814088971033925,0.9999191852533638,0.00014185038926809812
-0.4813267231627833,-0.4813267231627833,0.9999052688882095,0.00014562677474690768
-0.4812252454867121,-0.4812252454867121,0.9999159485220094,0.00014428466053564482
-0.4811556920030853,-0.4811556920030853,1.000195195920258,0.00014200695319575133
-0.48107750576455144,-0.48107750576455144,0.9999724683168687,0.00014681304394634302
-0.4809991585148964,-0.4809991585148964,0.999952691408253,0.00014569390535158652
-0.48091580146865454,-0.48091580146865454,1.00019685431772,0.00014680695344657753
-0.4807773318403633,-0.4807773318403633,0.9997715455142211,0.0001443992878014226
-0.4806775420001941,-0.4806775420001941,0.9997722713668875,0.00014763341847906397
-0.48058829964429606,-0.48058829964429606,0.9999217592559155,0.00014467234305064506
-0.4804972126003122,-0.4804972126003122,0.9997356807806737,0.00015145573573300484
-0.4803857477090787,-0.4803857477090787,1.0001202331831796,0.00014760361184368474
-0.48020135042897893,-0.48020135042897893,1.0000337571108406,0.00014008152589103053
-0.4801002422173042,-0.4801002422173042,1.0000908941779563,0.00014862881255710882
-0.47997337314591276,-0.47997337314591276,1.0001846480686738,0.0001483621287362211
-0.47973846935201436,-0.47973846935201436,0.9999953328766127,0.00014613678389767073
-0.4796111576230032,-0.4796111576230032,0.9999977781411685,0.000144615053043018
-0.4795228369592223,-0.4795228369592223,0.9999643688962501,0.0001453616536527797
-0.47931765352841466,-0.47931765352841466,1.000018339121024,0.0001431083885465039
-0.4791831993352389,-0.4791831993352389,0.9999326472001027,0.00014817826043449477
-0.4790737712493865,-0.4790737712493865,1.0001078051029189,0.00015296623368540356
-0.47893988294817974,-0.47893988294817974,0.999963093491934,0.00015248390198078474
-0.47881045469548555,-0.47881045469548555,0.9999024193159336,0.00015334885296511863
-0.4787004041922046,-0.4787004041922046,1.0000213762932644,0.00014306879089773052
-0.47860935958160555,-0.47860935958160555,1.0000426486229967,0.00015562522172265781
-0.4784455942484783,-0.4784455942484783,0.9999228342579706,0.0001513581500949589
-0.47826775479770733,-0.47826775479770733,1.0000670775775489,0.00014771891006683176
-0.478110956173623,-0.478110956173623,0.9999346854530324,0.00014520196050458824
-0.4779100597545039,-0.4779100597545039,0.9999266474846852,0.00014461423707220239
-0.4778113138803747,-0.4778113138803747,0.9998333967838775,0.00014327780853325313
-0.4776566312793875,-0.4776566312793875,0.9997084608412283,0.00014958319090562495
-0.4775364571833052,-0.4775364571833052,0.9998947236019642,0.00014744482916272456
-0.47741884825809394,-0.47741884825809394,0.9998962149301709,0.00014226813241330482
-0.47731512192112857,-0.47731512192112857,0.9999878686117954,0.0001540877538109123
-0.4771763792959973,-0.4771763792959973,1.0000176043745546,0.00015102252754298036
-0.4770597181544872,-0.4770597181544872,0.9999335547702799,0.00015313811063344534
-0.4769189914426534,-0.4769189914426534,0.9999065455499003,0.00015019724310296907
-0.4767802733986173,-0.4767802733986173,1.0000430957439297,0.00015458278397577596
-0.4766363375587389,-0.4766363375587389,1.0000567412383015,0.0001492955544667522
-0.476527488976717,-0.476527488976717,1.0000563729492797,0.0001531720105418219
-0.4764097583363764,-0.4764097583363764,0.9998094541625872,0.00015274778504400052
-0.4762575360480696,-0.4762575360480696,0.9999289840864864,0.00015256255456472636
-0.4761507069808431,-0.4761507069808431,0.9998347592266358,0.0001464864247933387
-0.476077145015006,-0.476077145015006,1.0000690542007749,0.00015174381041112563
-0.47596310991211793,-0.47596310991211793,0.9999588804912228,0.00015132718880562135
-0.4758253613981651,-0.4758253613981651,1.000036348880967,0.00015444922665049094
-0.47567289474536667,-0.47567289474536667,1.0001718664993793,0.00015008003812680106
-0.4756099444872234,-0.4756099444872234,0.9997998875199237,0.00014472404079482573
-0.47548378837527705,-0.47548378837527705,0.999857049858389,0.00014745974211497018
-0.47530916821269786,-0.47530916821269786,0.9997929908174152,0.00014965971004539988
-0.4751609613769688,-0.4751609613769688,1.0001578083838065,0.00014635538020202522
-0.4750744304095861,-0.4750744304095861,1.000201648708492,0.00014476109493091155
-0.4749840753880562,-0.4749840753880562,1.0001856067497303,0.00014750360422926482
-0.4747987312992336,-0.4747987312992336,1.0002844675757607,0.00014414974667149925
-0.47464990183070765,-0.47464990183070765,1.0001486639009907,0.0001439812125018407
-0.47458196589141155,-0.47458196589141155,1.0000980833826234,0.0001421967055531066
-0.4744313044910086,-0.4744313044910086,1.000137667418492,0.00014711065680677395
-0.4742892664478859,-0.4742892664478859,0.9999509085807057,0.00014439431028477002
-0.47418871700647286,-0.47418871700647286,1.0000219702076947,0.00013883770992436235
-0.4740270702459384,-0.4740270702459384,0.9998111588072627,0.00014028959992817887
-0.4738714421982877,-0.4738714421982877,0.9999687719721239,0.00014264043043157268
-0.47375621368701104,-0.47375621368701104,0.9999476465800416,0.00014855319894640498
-0.47360391188121864,-0.47360391188121864,1.0002485870587656,0.00014018433255616773
-0.47350561968341937,-0.47350561968341937,1.0001155292854413,0.00013838873393730685
-0.4733863095723791,-0.4733863095723791,0.9998935702027116,0.00014418015436220587
-0.4732974881597329,-0.4732974881597329,0.9999739694848729,0.0001469029187164234
-0.47316624369705096,-0.47316624369705096,1.000178145521388,0.00014237325125077832
-0.473030553245917,-0.473030553245917,0.999877912472481,0.0001458514175413367
-0.47290335309226067,-0.47290335309226067,1.000233952945776,0.00015196262525992384
-0.47276834697986486,-0.47276834697986486,1.000055673654605,0.0001475653067895447
-0.47257758387131615,-0.47257758387131615,1.0001131975298725,0.00014906665635146867
-0.4724461270496249,-0.4724461270496249,1.0001496171264859,0.000143039060959646
-0.47231577201746405,-0.47231577201746405,1.000184477598708,0.0001476699340213904
-0.47219208934984636,-0.47219208934984636,1.0000819261092828,0.0001550360688126857
-0.472116592261591,-0.472116592261591,0.999992189523419,0.0001509706012812593
-0.4720100624661427,-0.4720100624661427,1.0001473114361192,0.0001437344714377812
-0.4719099222304067,-0.4719099222304067,1.000011533053811,0.00015366452064662377
-0.47179651535698214,-0.47179651535698214,0.9999228724055168,0.00015548339069396952
-0.47170239067345393,-0.47170239067345393,1.0000616693650772,0.00014240049355320508
-0.4716258168802597,-0.4716258168802597,1.0000637322548322,0.00016043212956895876
-0.4715078018780332,-0.4715078018780332,0.9999887246179687,0.0001582650458066003
-0.47141519643191715,-0.47141519643191715,0.9999105171611007,0.00014226324752806353
-0.471337185066659,-0.471337185066659,0.9998492802987261,0.0001575750696697837
-0.4712513688631589,-0.4712513688631589,1.0000554406582254,0.00014555510036025132
-0.4711331271799281,-0.4711331271799281,1.0000007795840937,0.00015435784401021733
-0.4710358524287585,-0.4710358524287585,1.000173086303136,0.00015182483499488
-0.4709436720586382,-0.4709436720586382,0.9998260084791852,0.0001557794614042146
-0.47081362757307943,-0.47081362757307943,0.9999566017233301,0.0001536093657874322
-0.4706832985539222,-0.4706832985539222,0.9999911518933862,0.0001522576323203863
-0.47051768891979007,-0.47051768891979007,1.0002844246756672,0.0001564729273874771
-0.4703510616061976,-0.4703510616061976,1.0000416153739633,0.00015838266196217948
-0.47025228636630345,-0.47025228636630345,1.0000124442067784,0.00015531211952105587
-0.47014017976180184,-0.47014017976180184,0.9999012810231568,0.00015184704433881247
