time,time,flux,flux_err
-0.4998549796273437,-0.4998549796273437,0.9999737362071981,0.0001501490757074791
-0.49973298094967805,-0.49973298094967805,1.0001466051019168,0.00014144530744838397
-0.4995564290669184,-0.4995564290669184,0.9999456649157743,0.0001491082874328479
-0.49940851790306623,-0.49940851790306623,0.9999660673701104,0.00014963110698505743
-0.4992014638584806,-0.4992014638584806,0.9999214646982075,0.00012984229832593467
-0.4990898437616124,-0.4990898437616124,0.9999582552244378,0.00012788687874853576
-0.4989226888072153,-0.4989226888072153,0.9998659814687023,0.00014153194521909955
-0.498782128039602,-0.498782128039602,0.9998943304179632,0.00014076814707286622
-0.4986939817368693,-0.4986939817368693,0.9999141841339968,0.00013002056388574984
-0.49858694087233746,-0.49858694087233746,0.9999167058458724,0.0001339108089964086
-0.49841915508513923,-0.49841915508513923,1.0001400759544905,0.00013224414469887712
-0.49827009730652205,-0.49827009730652205,1.0000489875132184,0.00014329769564887772
-0.49815347394251147,-0.49815347394251147,1.0001209427480686,0.00014045879980002869
-0.49800534436726596,-0.49800534436726596,0.9999889877430664,0.0001367620090339837
-0.4978054573672125,-0.4978054573672125,1.0001237489276795,0.00013861961520759318
-0.4976026047603227,-0.4976026047603227,0.9999649666393611,0.00014238413975257313
-0.49740887451262095,-0.49740887451262095,0.9999341636599034,0.00013450633066182635
-0.4970990241432446,-0.4970990241432446,0.999813741507998,0.0001460288454290397
-0.49696437318925746,-0.49696437318925746,1.0001190119154262,0.00013871138597638705
-0.4968338535676594,-0.4968338535676594,0.9999952909693542,0.00013379507434402646
-0.496603120083455,-0.496603120083455,0.9998236580959459,0.00014473989989350413
-0.4964358628501941,-0.4964358628501941,1.0001244200923818,0.0001398201856951347
-0.49629814182771953,-0.49629814182771953,0.9999063015086286,0.00013067227896902152
-0.49603725395791115,-0.49603725395791115,1.000015437380988,0.00014779699795971132
-0.49582474856797487,-0.49582474856797487,0.9999300937470939,0.00013848649596031026
-0.4956587044005573,-0.4956587044005573,1.0003399951511756,0.0001301350670741417
-0.49542351456620964,-0.49542351456620964,1.0000383622100906,0.00015023205053967827
-0.4952018143310852,-0.4952018143310852,1.000036808626076,0.00013935320399326216
-0.4950486254652787,-0.4950486254652787,0.9997758825053662,0.00013078199854629438
-0.4948468977403536,-0.4948468977403536,1.0000842910965446,0.0001404504612958955
-0.49461446649729623,-0.49461446649729623,0.9999422476045867,0.0001386732381991031
-0.494414275696181,-0.494414275696181,1.0000487719855349,0.0001307062660668045
-0.49421684061453564,-0.49421684061453564,0.9998316615581023,0.00014143776840806014
-0.4940822820513858,-0.4940822820513858,0.9998608317042379,0.00014368801750059505
-0.49394354238320376,-0.49394354238320376,1.0000606766015596,0.00012947090913776262
-0.4937582128317445,-0.4937582128317445,1.0000632634153632,0.00013212852019065514
-0.49369452456739965,-0.49369452456739965,1.0001103570904157,0.0001341741398777059
-0.4935879862292495,-0.4935879862292495,0.9999060780634588,0.00014282122289224457
-0.4934374451302574,-0.4934374451302574,1.000017249400011,0.00014329207157577352
-0.4932776254194323,-0.4932776254194323,0.9998090314386762,0.00013080744808143872
-0.49312045611732175,-0.49312045611732175,0.9999128652442707,0.00013186131375160926
-0.49293341143566066,-0.49293341143566066,1.0001729395387169,0.0001517295123413218
-0.4927660547487903,-0.4927660547487903,1.0000007743762782,0.0001332641497050917
-0.49255434250444524,-0.49255434250444524,1.0000193512889655,0.00013369338403440174
-0.4924692109147145,-0.4924692109147145,1.0000352244642758,0.00013640980953579863
-0.49230338516354094,-0.49230338516354094,0.9998614055139141,0.00015531254586671734
-0.492184897041443,-0.492184897041443,0.9997830918362368,0.00013109247707767806
-0.49196844351681646,-0.49196844351681646,1.0001664245090653,0.0001324741586166516
-0.4918577588301559,-0.4918577588301559,1.0000718012137315,0.00014226923365123783
-0.49166856761657984,-0.49166856761657984,1.0002242711194715,0.00014042353890845191
-0.49154280622606167,-0.49154280622606167,1.0000197306632743,0.00013105254515708445
-0.4913619323342573,-0.4913619323342573,0.999994055935313,0.00013244340606382616
-0.491212508634635,-0.491212508634635,0.999921382226826,0.00014966761928970348
-0.4910450112474791,-0.4910450112474791,1.0001778040825633,0.00013090356488279443
-0.4908070532088459,-0.4908070532088459,1.000070395562591,0.00013247789121289042
-0.49067475220217605,-0.49067475220217605,0.9998963964901503,0.00014511087857113804
-0.49049738692046957,-0.49049738692046957,1.0000930723277015,0.00014149789231857778
-0.49031184753184787,-0.49031184753184787,0.9996695056832537,0.0001323512569849615
-0.4900957238773117,-0.4900957238773117,1.0000091914990143,0.00014601919575790378
-0.4899281484002131,-0.4899281484002131,1.0000793652599727,0.00013993727438430475
-0.4897645368386293,-0.4897645368386293,0.9998717474018802,0.00013223256969591886
-0.48950972052189173,-0.48950972052189173,0.99985434796654,0.00014508842164806003
-0.48934493984124855,-0.48934493984124855,1.0001164013629347,0.00013169199296199596
-0.4891676685409038,-0.4891676685409038,1.0000721179951186,0.00013145840720238727
-0.4889633135266195,-0.4889633135266195,1.0000855972766995,0.0001318517731735361
-0.48884253892319973,-0.48884253892319973,0.9999960536949783,0.00014365636708576918
-0.48868152778813967,-0.48868152778813967,0.9998316532764516,0.00013300957724555383
-0.4884700427130156,-0.4884700427130156,0.9998271718804446,0.00013572480653291835
-0.48834777376105193,-0.48834777376105193,0.9999818044446396,0.00013202828494484923
-0.48821625456257606,-0.48821625456257606,1.0000564645798105,0.00014108513756925075
-0.4880207688780501,-0.4880207688780501,0.9999745861497141,0.00013465964410434123
-0.48780294660682555,-0.48780294660682555,1.0000067226592317,0.00013079332051775695
-0.4876281039098103,-0.4876281039098103,0.9999299808416209,0.00014135111758656774
-0.48742215621095963,-0.48742215621095963,0.9998595300605025,0.00013341274340607304
-0.48722003865404984,-0.48722003865404984,0.9999204847612265,0.00013515326430495715
-0.4871374312337139,-0.4871374312337139,0.9999422079227243,0.00014188719250150185
-0.48692686572248933,-0.48692686572248933,1.0000216323660638,0.00013218756966516546
-0.4867594135655963,-0.4867594135655963,0.9999113942077147,0.00013165137552312168
-0.4866243160417071,-0.4866243160417071,1.0001064182884167,0.00013537486398001666
-0.4863478694511286,-0.4863478694511286,0.9999285511953465,0.0001416799599586958
-0.48616525642501074,-0.48616525642501074,1.0000304051397786,0.0001337326921818651
-0.4860235995933181,-0.4860235995933181,0.9999840159399316,0.0001345891275221799
-0.4858238831468043,-0.4858238831468043,0.9998462868301919,0.00013993255117297141
-0.48565220240998314,-0.48565220240998314,0.9998863144103544,0.00013543901972735932
-0.4854972065106267,-0.4854972065106267,1.0000751753955706,0.00013935157898218735
-0.4853606408396445,-0.4853606408396445,1.0001954095206074,0.00014193511378078407
-0.48515831421027544,-0.48515831421027544,0.9998497509886775,0.00013195952662900938
-0.48499602672745823,-0.48499602672745823,0.9999680123055837,0.00013811298000110205
-0.48486652797073476,-0.48486652797073476,0.9998907514881175,0.00014174109903827842
-0.48471678069763585,-0.48471678069763585,0.9998537596559143,0.00014160739668190765
-0.48450076295630423,-0.48450076295630423,0.9997494227136257,0.0001324357537015692
-0.48443712691878316,-0.48443712691878316,0.9999890916171724,0.00013870004830013365
-0.4843068224246963,-0.4843068224246963,1.000093499445018,0.00013962087850777092
-0.4841153197827225,-0.4841153197827225,0.9999515448415673,0.00014188519704185588
-0.4838947369818925,-0.4838947369818925,0.9999495158795554,0.0001345794361225656
-0.4837878377220477,-0.4837878377220477,0.9994780795029218,0.00014603030524543481
-0.4836595533386571,-0.4836595533386571,1.0000775184795474,0.0001410138426606813
-0.4834040646273934,-0.4834040646273934,1.0000026508486504,0.00013170714424649263
-0.48326509957114466,-0.48326509957114466,0.9999473774582673,0.00013499802245102265
-0.4831212228971708,-0.4831212228971708,1.000003997948197,0.00013934178818410134
-0.4829289357388916,-0.4829289357388916,1.0000493829103614,0.0001423200032870204
-0.4827740092216118,-0.4827740092216118,1.0000653907491723,0.00013382338625922383
-0.4826304838672513,-0.4826304838672513,0.9998718585693551,0.0001329063388887599
-0.482509930186643,-0.482509930186643,1.0000397187961618,0.00014133511591315394
-0.48239975627293463,-0.48239975627293463,1.0000643003895948,0.0001407726673423355
-0.4822133345573093,-0.4822133345573093,1.0000065832279372,0.00013331216666434683
-0.4821252607172937,-0.4821252607172937,1.0000833924606956,0.0001370088083829821
-0.4819638166532968,-0.4819638166532968,0.9998179171726204,0.00014020602711300054
-0.48186448385677066,-0.48186448385677066,0.9999990839599284,0.00014335417907469016
-0.4816218414234754,-0.4816218414234754,1.0000855896257712,0.0001370818797030225
-0.4815232835288043,-0.4815232835288043,1.0000911910294128,0.0001376808466833681
-0.4813673942073365,-0.4813673942073365,1.000115202785613,0.00014120091662178684
-0.4812593213377113,-0.4812593213377113,1.0001341650239703,0.00014248417483076018
-0.48102875650147325,-0.48102875650147325,1.0003852307020442,0.0001315891619226037
-0.48090101161578785,-0.48090101161578785,0.9998892496563707,0.00013704656343715532
-0.4807710596229299,-0.4807710596229299,1.0000078844949678,0.00014137868199886054
-0.4806777418933052,-0.4806777418933052,0.9999230605983671,0.00014240573417176412
-0.4805032595679222,-0.4805032595679222,1.0000357154557602,0.0001304829651293716
-0.48030461583839495,-0.48030461583839495,0.9999890904391788,0.00013709922631943074
-0.4801726276156842,-0.4801726276156842,0.9998262940669793,0.00014127796834771954
-0.48000202712646567,-0.48000202712646567,1.0001527841656432,0.00014230251232780322
-0.47981769874531893,-0.47981769874531893,1.0000305386400956,0.00013550321294083964
-0.4796393153446843,-0.4796393153446843,0.9998744475695268,0.00013998363174076183
-0.4795486607035855,-0.4795486607035855,0.9998910077546614,0.00014110629623139963
-0.4793181182409171,-0.4793181182409171,0.9999121102738837,0.0001332440280993503
-0.4791858705422783,-0.4791858705422783,1.0000360436652032,0.0001379124658085487
-0.47901603296559186,-0.47901603296559186,0.9999808067912156,0.00014895864821707705
-0.47887079017527867,-0.47887079017527867,0.9999221163887922,0.0001328231999274626
-0.47872023680392883,-0.47872023680392883,0.9999725893422579,0.00013408653075063317
-0.4785533416659746,-0.4785533416659746,1.0000078580009706,0.00013335097974106035
-0.4784319108031923,-0.4784319108031923,1.0000092185706624,0.00013714802221736496
-0.4783369843156834,-0.4783369843156834,0.9999892831939823,0.00013934063695263718
-0.4781436135941476,-0.4781436135941476,1.0000371242270196,0.00013301528592727196
-0.4779833988039172,-0.4779833988039172,1.0000101335969203,0.00013275823091791968
-0.47783480672951556,-0.47783480672951556,1.0002153812494385,0.0001454867121395276
-0.47761986500700004,-0.47761986500700004,0.9999719349968179,0.00013156527243121929
-0.4774801744919387,-0.4774801744919387,1.0000963563657355,0.00013603428462254102
-0.4772738973624655,-0.4772738973624655,1.0001106023324229,0.00013175891708987298
-0.4771351313371269,-0.4771351313371269,1.0000624224248182,0.00014131037125726534
-0.4769638445250166,-0.4769638445250166,0.9999454223045487,0.00013364439841971184
-0.4768188034388004,-0.4768188034388004,1.0001603276679671,0.00013978155325349386
-0.47667455940973014,-0.47667455940973014,0.9998986297684136,0.00014126669965499168
-0.4765398752417241,-0.4765398752417241,1.0000614298530883,0.00013289733869786393
-0.47634546471817885,-0.47634546471817885,0.9999346949088432,0.0001351696090588842
-0.47618180058634607,-0.47618180058634607,1.000007781133838,0.00013694235152561475
-0.47606977576870124,-0.47606977576870124,0.9999875699579587,0.00015005868325054239
-0.47598344181969876,-0.47598344181969876,1.0000798800902428,0.00013244789255380094
-0.47582813533590523,-0.47582813533590523,1.0001379448772032,0.00013137555593451078
-0.4757335959497141,-0.4757335959497141,1.0000094176178111,0.00013355618470447774
-0.47556193177879325,-0.47556193177879325,0.9998494145916631,0.000135421365929491
-0.4754357945515949,-0.4754357945515949,1.0001112143106368,0.0001413073893139265
-0.475326973949268,-0.475326973949268,1.0000204775616708,0.0001349290053272688
-0.4752041687599558,-0.4752041687599558,0.9998451426033143,0.0001312889948006206
-0.475089431838569,-0.475089431838569,1.000074591949757,0.00013704672995179057
-0.4749351952879806,-0.4749351952879806,0.9998683271372049,0.0001326319604051791
-0.4748517500644084,-0.4748517500644084,1.0000439764284497,0.00013977853000361238
-0.47473152458842377,-0.47473152458842377,1.0000201536851372,0.00013178093546929286
-0.4746304889609746,-0.4746304889609746,1.0001412145788147,0.0001404494937084358
-0.474531423690496,-0.474531423690496,0.9999539090440868,0.00013355741213322235
-0.47438940498468585,-0.47438940498468585,1.0002497327656108,0.00013261206018407395
-0.47424797675776065,-0.47424797675776065,1.0001217333911396,0.00013969429568116786
-0.4741504023790185,-0.4741504023790185,1.0000275885103542,0.00013235545397831554
-0.47404275460794454,-0.47404275460794454,1.0000279808022146,0.00013730022867407073
-0.4738762295128254,-0.4738762295128254,1.0000299209969319,0.00013442765931985363
-0.4736747135597398,-0.4736747135597398,1.0000800275022674,0.00013936837926125533
-0.47355820431766915,-0.47355820431766915,0.9999186987615772,0.00013231600590112526
-0.473452481780987,-0.473452481780987,1.0001144392377272,0.0001376468681899274
-0.47325589367901555,-0.47325589367901555,0.9999000432572374,0.0001383295614046354
-0.47309669193127774,-0.47309669193127774,0.99997365759014,0.0001389395265153272
-0.47295407390411126,-0.47295407390411126,0.9999630468597319,0.00013208076403219403
-0.47286048467358344,-0.47286048467358344,1.000011540297729,0.000138754894911807
-0.4726653903861006,-0.4726653903861006,0.999956762288161,0.0001332124825024477
-0.47251337505003904,-0.47251337505003904,0.9998974356626785,0.00014423124181107204
-0.47241575159714555,-0.47241575159714555,1.0000313083486578,0.00013145662690124997
-0.4722753024761914,-0.4722753024761914,0.9999767801761233,0.00013371965672710938
-0.47203631477314045,-0.47203631477314045,1.0001584087471835,0.00013381042331302514
-0.47190926512121223,-0.47190926512121223,0.9999009323633714,0.00013981943869700836
-0.4717827854234201,-0.4717827854234201,0.9997165354040953,0.00013207284990738268
-0.47164170773103253,-0.47164170773103253,0.9999753866049298,0.0001346421172973628
-0.4713987469476706,-0.4713987469476706,0.9998832503507009,0.00013212307444597604
-0.4712922375045309,-0.4712922375045309,0.9998367153986383,0.0001436226216025914
-0.4711791514841025,-0.4711791514841025,1.00010600257183,0.00013315016121984678
-0.47104354472539856,-0.47104354472539856,1.000113836234986,0.00013462151337824524
-0.4708283592015505,-0.4708283592015505,0.999890825290974,0.0001338987663028627
-0.4706854980249773,-0.4706854980249773,0.9999787486269991,0.00013944524280854343
-0.4705612574231054,-0.4705612574231054,1.0001948229247308,0.00013677870606582687
-0.47043432955542813,-0.47043432955542813,1.0001440236391104,0.00013424760523612927
-0.47022514129057524,-0.47022514129057524,0.9999168832682109,0.00013394195974661082
-0.47008556712098654,-0.47008556712098654,1.0001039122253172,0.00013976653309315983
-0.46996250913871335,-0.46996250913871335,1.0002797179381253,0.00013263255866850706
-0.46985648233239774,-0.46985648233239774,0.999911476132819,0.00014570443090430963
-0.4697142875083955,-0.4697142875083955,1.0001347750878158,0.0001378071028065993
-0.4695507510230527,-0.4695507510230527,0.9999488098530774,0.00014231454028564494
-0.4693922911959817,-0.4693922911959817,1.0001324999792043,0.00013418162192944258
-0.4693176011678588,-0.4693176011678588,1.0000660385362932,0.00014370349250652164
-0.4691526343980513,-0.4691526343980513,1.0001141822872621,0.00013340117369336493
-0.4689570485141303,-0.4689570485141303,1.0000296298744353,0.00014274477256855239
-0.46880685451615134,-0.46880685451615134,1.000145245485522,0.00013414238330178023
-0.4686951580966706,-0.4686951580966706,0.9998488916907172,0.00013603744168290966
-0.4685516982928675,-0.4685516982928675,1.0000655716033882,0.00013633725573847499
-0.4684421499732707,-0.4684421499732707,0.999909143599013,0.00014377863219190368
-0.4683063204502105,-0.4683063204502105,1.0001684097109886,0.00014283049932476994
-0.4681771300114633,-0.4681771300114633,0.9998298732852012,0.00013417040377008534
-0.4680349007510813,-0.4680349007510813,0.9998446818276416,0.00013526893831953976
-0.4678967399413523,-0.4678967399413523,0.9998935403828139,0.00013816742724034601
-0.4677809577435255,-0.4677809577435255,1.0002158638020084,0.00015024335498767095
-0.4676248319403385,-0.4676248319403385,0.9997071661214498,0.00013411893414341948
-0.46751934790154337,-0.46751934790154337,0.9999919404681,0.00013634195140599246
-0.467384181968373,-0.467384181968373,0.9997670274907395,0.0001305298303667773
-0.46726603374263503,-0.46726603374263503,1.000058156391449,0.00013385358311486935
-0.4671539834278519,-0.4671539834278519,0.9999900452953657,0.00015160287078733208
-0.4670333855719946,-0.4670333855719946,1.0000560693992835,0.000131931132575331
-0.46692962011147754,-0.46692962011147754,1.0000108295916346,0.00013732098095082956
-0.466777231778542,-0.466777231778542,1.0001188317068705,0.00013692542171439171
-0.46666031101485717,-0.46666031101485717,1.0000270768405577,0.00013389967459270175
-0.46656420032595636,-0.46656420032595636,1.0000996942424523,0.0001516598664112347
-0.4664363971540297,-0.4664363971540297,0.9999382023377695,0.0001323313357593089
-0.4663345193155692,-0.4663345193155692,1.0000730543722534,0.00013794732301117304
-0.4662272070090694,-0.4662272070090694,1.0000588648466389,0.00013960510091564978
-0.466097802164586,-0.466097802164586,0.9999939211318859,0.0001339688867474164
-0.4660331001621671,-0.4660331001621671,0.9999945568298625,0.0001407448384845826
-0.4659110980566766,-0.4659110980566766,1.0000736460101631,0.0001336655261148867
-0.4658078328051488,-0.4658078328051488,1.0001202588241842,0.00013309736446262652
-0.46566827672504585,-0.46566827672504585,1.0001866755335183,0.00013222278738725515
-0.46554814812916445,-0.46554814812916445,1.0002383255473704,0.00013636759752310806
-0.4654640286804351,-0.4654640286804351,0.9999932701838349,0.00014120259450577948
-0.46534746173201713,-0.46534746173201713,0.9997943729920287,0.0001341880129872082
-0.4652145285610459,-0.4652145285610459,0.9999222551540065,0.00013405663030451067
-0.4650656798607088,-0.4650656798607088,1.0002404907392646,0.00013219420115173365
-0.46494536875397896,-0.46494536875397896,0.9999057586008144,0.00013487305403233444
-0.4648824394404073,-0.4648824394404073,1.0001262920892788,0.00014148499797454625
-0.4647605773956457,-0.4647605773956457,1.0002088605767085,0.00013411949322599453
-0.46463968008974915,-0.46463968008974915,1.0000003539906774,0.00013438460514695374
-0.4644461425370537,-0.4644461425370537,0.9999115060860113,0.00013752611133604123
-0.46432509003934685,-0.46432509003934685,0.9999468251838174,0.00013484826970378127
-0.4642196978304128,-0.4642196978304128,1.0000399030439522,0.0001430434453963584
-0.46410061071946984,-0.46410061071946984,1.0000032117456406,0.0001327248974409978
-0.4639594113883504,-0.4639594113883504,0.9998590193871353,0.00013297375994631686
-0.46378247475004175,-0.46378247475004175,0.9999378699297973,0.00013395429157756872
-0.46369951123997455,-0.46369951123997455,0.9998508211355441,0.00014409132344834957
-0.4635562009898422,-0.4635562009898422,0.9998001449787504,0.0001349732574066731
-0.46343984204504524,-0.46343984204504524,1.0000589816117997,0.00013481337535382846
