time,time,flux,flux_err
-0.4999020014743583,-0.4999020014743583,0.9999397157095218,0.0003148184997720853
-0.49976232816742794,-0.49976232816742794,1.0000147355865523,0.0004061922612300618
-0.4996115563439659,-0.4996115563439659,1.0006701679399326,0.0003500462157447234
-0.4994980960733457,-0.4994980960733457,1.0001291018982765,0.00027059758316348313
-0.49938761848320323,-0.49938761848320323,0.9999278031482628,0.0004279857422782572
-0.49925009502705675,-0.49925009502705675,1.0000144741127481,0.0002921320446996322
-0.49912938152901776,-0.49912938152901776,1.0000239467117944,0.0003299308481799697
-0.49899850244010224,-0.49899850244010224,0.9999261489099324,0.0004018424918213934
-0.4988816335104431,-0.4988816335104431,0.9999331802264976,0.00027848112299980567
-0.49877313089003794,-0.49877313089003794,0.9993655831619922,0.00042710384307481414
-0.49862697144531865,-0.49862697144531865,0.9994846614547367,0.00029391572231430717
-0.4985081162518824,-0.4985081162518824,1.0002138869888628,0.00027893521186500927
-0.49839263991881066,-0.49839263991881066,1.000174439321993,0.00043035440151015724
-0.4982629776905,-0.4982629776905,1.0001053118842838,0.00027862423853238606
-0.49815142429648346,-0.49815142429648346,1.0000483430108977,0.0003895797156874016
-0.4980069935951704,-0.4980069935951704,1.0002938840943498,0.0003501851904613403
-0.49789354384126766,-0.49789354384126766,1.0001431991764176,0.00027066183556212226
-0.497783047827059,-0.497783047827059,0.9999628853819011,0.0004280952339894376
-0.49764554129138217,-0.49764554129138217,0.9999947612041883,0.00029214393286457424
-0.4975248258755173,-0.4975248258755173,0.9999290718221754,0.00033000850265161083
-0.4973939383529554,-0.4973939383529554,1.000086542242172,0.00040215765587075576
-0.4972770777668217,-0.4972770777668217,1.0001527420398213,0.00027852059363706527
-0.4971685637653863,-0.4971685637653863,0.9998155759347085,0.00042702764761806824
-0.4970224114223825,-0.4970224114223825,1.0001753853124509,0.00029404983103911643
-0.49690356801771574,-0.49690356801771574,1.000105015323552,0.000279111813959155
-0.4967880672628908,-0.4967880672628908,1.0002507081476053,0.00042999832660721915
-0.496658422544732,-0.496658422544732,1.0001192983114704,0.0002784978923721424
-0.4965468641592423,-0.4965468641592423,0.9995731505153703,0.0003894724103676316
-0.4964024308624403,-0.4964024308624403,1.0002110043707457,0.00034979580556833916
-0.49628899162782575,-0.49628899162782575,0.9996585308748838,0.0002705546349064299
-0.4961784771849295,-0.4961784771849295,0.9998174541550595,0.0004277766166585021
-0.496040987567531,-0.496040987567531,1.0004257337174107,0.00029226772663215416
-0.495920270239813,-0.495920270239813,1.000344121130565,0.00032991138645502586
-0.49578937428243963,-0.49578937428243963,0.9997766351643405,0.0004022263951237587
-0.4956725220381557,-0.4956725220381557,0.9998001517611883,0.0002784634478578521
-0.4955639966549583,-0.4955639966549583,0.999775993382328,0.00042659010012629985
-0.49541785141112343,-0.49541785141112343,1.0001235728009608,0.0002940003435229049
-0.4952990198030321,-0.4952990198030321,1.0003765707685026,0.0002790358666520451
-0.49518349462206,-0.49518349462206,0.9998597866620479,0.00042970746424565444
-0.4950538674238004,-0.4950538674238004,0.999932626310847,0.0002786138217686145
-0.4949423040266311,-0.4949423040266311,0.9997093868930189,0.00038939465364926166
-0.4947978681459745,-0.4947978681459745,1.0001887644925223,0.0003498077138852709
-0.4946844394331521,-0.4946844394331521,1.0002541057505403,0.00027059559966651576
-0.49457390655661015,-0.49457390655661015,1.0000515099974354,0.00042773169947974766
-0.49443643385580743,-0.49443643385580743,0.999857230147895,0.0002922831551005574
-0.49431571462186524,-0.49431571462186524,0.9997674574829191,0.000329827960139565
-0.49418481022852345,-0.49418481022852345,1.0004284575599358,0.0004015910877944921
-0.49406796632483746,-0.49406796632483746,1.0002085931271378,0.0002785318224070058
-0.49395942956004146,-0.49395942956004146,0.9996225911703187,0.0004266580374429919
-0.4938132914121695,-0.4938132914121695,1.0001845532150582,0.00029398860495948677
-0.4936944716081683,-0.4936944716081683,0.9999143985383274,0.0002789881983027322
-0.49357892199598014,-0.49357892199598014,0.9999657156194852,0.0004295105134560563
-0.49344931232758144,-0.49344931232758144,0.9998183528128729,0.0002786575552717637
-0.4933377439001333,-0.4933377439001333,1.0001232455763027,0.0003891595117779105
-0.4931933054459847,-0.4931933054459847,1.0000752543497184,0.00035020871659075073
-0.49307988725756074,-0.49307988725756074,0.9999653521539982,0.0002706056158395308
-0.49296933594265796,-0.49296933594265796,1.0002041589206812,0.0004277516348640851
-0.4928318801564899,-0.4928318801564899,1.0005650319301194,0.0002922712731705724
-0.4927111590222296,-0.4927111590222296,1.0000943679074437,0.0003298716574450097
-0.4925802461910493,-0.4925802461910493,0.9996834786687028,0.00040150063717985413
-0.49246341062701193,-0.49246341062701193,0.9997567527387158,0.0002785449448724555
-0.4923548624789021,-0.4923548624789021,0.9998493788849772,0.00042646855263337943
-0.4922087314246696,-0.4922087314246696,0.9998298350404333,0.00029396717454628786
-0.4920899234336531,-0.4920899234336531,0.9994799786673753,0.00027896636496335637
-0.4919743493844976,-0.4919743493844976,0.9998336957513028,0.00042974351467924574
-0.4918447572562684,-0.4918447572562684,0.9998028546515336,0.0002785308362408958
-0.4917331837800646,-0.4917331837800646,1.0001900109398776,0.0003890900426519812
-0.49158874276292863,-0.49158874276292863,1.000368804130222,0.0003499725698123009
-0.4914753351009821,-0.4914753351009821,0.9997493053803573,0.0002705066396277959
-0.4913647653429393,-0.4913647653429393,1.0001889961061101,0.00042793797287549965
-0.49122732646962675,-0.49122732646962675,0.9997466777526807,0.0002921223826122799
-0.4911066034406574,-0.4911066034406574,0.9997838672126486,0.00032996366335061783
-0.4909756821705969,-0.4909756821705969,1.000129174373369,0.0004013115591670037
-0.4908588549444076,-0.4908588549444076,0.999763616813163,0.00027855690262816796
-0.4907502954133463,-0.4907502954133463,0.9999950317130202,0.0004264983779079945
-0.4906041714500432,-0.4906041714500432,1.0000117328220928,0.00029384613233313306
-0.49048280798459276,-0.49048280798459276,1.0000357007500777,0.00027911100880188686
-0.4903697767883742,-0.4903697767883742,0.9999264032908265,0.0004295251318326804
-0.49023769177666165,-0.49023769177666165,1.0005298040854584,0.0002906352153278244
-0.4901182976295601,-0.4901182976295601,0.9999293182941006,0.0003798288499620287
-0.4899841800962122,-0.4899841800962122,1.00011664582005,0.00034980436595664997
-0.48986324022457667,-0.48986324022457667,1.0003244282402979,0.0002813211133350119
-0.48975490102798747,-0.48975490102798747,1.0000005937353549,0.00042062732678316403
-0.4896227727950759,-0.4896227727950759,1.0001286011648558,0.0002921099287678931
-0.48948921140888757,-0.48948921140888757,1.0000164454852212,0.00033015220726009744
-0.48937111816759116,-0.48937111816759116,1.0000593690314716,0.00040093406527075715
-0.4892491330664456,-0.4892491330664456,1.0001722129457182,0.00027743094192009396
-0.4891380581052758,-0.4891380581052758,1.0002140226243235,0.000427184316044846
-0.4889996114875004,-0.4889996114875004,0.9999079115320859,0.0002938056803888074
-0.4888732197935667,-0.4888732197935667,0.9997471608702861,0.00032883538671044804
-0.4887599750886139,-0.4887599750886139,1.0000029939070172,0.0003919701095065426
-0.4886331403682306,-0.4886331403682306,0.9996478902824265,0.0002905703049519416
-0.4885137339073665,-0.4885137339073665,1.000153313626472,0.00037944970613745257
-0.48837961744601727,-0.48837961744601727,0.9999443912226894,0.0003497230469675601
-0.48825869146454154,-0.48825869146454154,1.0000079724513857,0.00028128370495791
-0.488150327098306,-0.488150327098306,1.000047713543885,0.00042007378931152486
-0.48801821913340576,-0.48801821913340576,0.9993655501614249,0.00029213532803710557
-0.4878846558633526,-0.4878846558633526,0.9996203596960778,0.00032991796411153225
-0.48776655418141956,-0.48776655418141956,1.000010093718483,0.0004009268760550713
-0.4876445777364566,-0.4876445777364566,0.9998614210129411,0.00027746273553084713
-0.48753349074732455,-0.48753349074732455,0.9995725654107066,0.0004264331804054498
-0.48739505153687473,-0.48739505153687473,1.000224112748062,0.000293988498883307
-0.4872686673396956,-0.4872686673396956,1.0002970211528677,0.00032911976651037715
-0.48715540686128234,-0.48715540686128234,1.0003665636551582,0.00039208822365853415
-0.4870285889679593,-0.4870285889679593,1.0000387505560249,0.00029057613270880615
-0.48690917020812063,-0.48690917020812063,1.000288130174931,0.00037921125700709563
-0.48677505481315253,-0.48677505481315253,0.9999203092502175,0.0003496635045602772
-0.4866541427119245,-0.4866541427119245,0.9998558909649192,0.0002813528769375878
-0.4865457531946831,-0.4865457531946831,1.0003267957967783,0.00041960140695326717
-0.4864136654845311,-0.4864136654845311,1.0002337658843468,0.00029222453601235624
-0.48628010033554575,-0.48628010033554575,0.9999220021186774,0.00032986999859061883
-0.48616199021276285,-0.48616199021276285,0.9994260426662438,0.00040061277684592006
-0.48604002241477673,-0.48604002241477673,1.0001320173748014,0.0002774315924225049
-0.4859289234115778,-0.4859289234115778,0.9999269116615785,0.0004261874906141898
-0.4857904915994098,-0.4857904915994098,1.000251189646541,0.00029399599185574453
-0.4856641148961117,-0.4856641148961117,0.9999853707827207,0.00032900242546659783
-0.48555083865818033,-0.48555083865818033,0.999648076312129,0.0003917092601667764
-0.48542403757538183,-0.48542403757538183,1.000028643124854,0.0002906065964429161
-0.4853046065312256,-0.4853046065312256,0.9996570917510257,0.0003791837220078197
-0.4851704921972285,-0.4851704921972285,1.000225760437704,0.0003499761379333507
-0.48504959396702674,-0.48504959396702674,1.000148364821202,0.0002813501883069499
-0.4849411793159632,-0.4849411793159632,0.9998782437363154,0.000419822988610876
-0.4848091118485002,-0.4848091118485002,0.999991620792312,0.000292105225223311
-0.4846755448246768,-0.4846755448246768,0.9999735753358013,0.0003298318695787564
-0.48455742626201614,-0.48455742626201614,1.0005112549329707,0.00040038025609887907
-0.48443546710143154,-0.48443546710143154,1.000322893374737,0.0002774368779314725
-0.48432435609718,-0.48432435609718,1.0003425838901447,0.0004260701647487094
-0.4841859316743481,-0.4841859316743481,0.9999830639635554,0.00029386103208009463
-0.4840595624634204,-0.4840595624634204,0.9999206033039627,0.0003289756190764983
-0.483943703159224,-0.483943703159224,1.0000234543199518,0.0003918241667110406
-0.4838194861914872,-0.4838194861914872,0.9998902160075838,0.00029061220880141153
-0.4837000428758273,-0.4837000428758273,0.9997902548369622,0.00037912828898753963
-0.4835539678466517,-0.4835539678466517,0.9998748853920911,0.0003510022033949954
-0.4834441703865139,-0.4834441703865139,0.9999631443676993,0.0002796478529737827
-0.48332936070274146,-0.48332936070274146,1.0000511747844611,0.0004280208058042214
-0.48319896638879384,-0.48319896638879384,0.999654317046728,0.0002792686588251492
-0.4830709893301005,-0.4830709893301005,1.0001072198430678,0.00032983656451114054
-0.4829413782875179,-0.4829413782875179,0.999841991403952,0.000404219236953513
-0.48282955924251925,-0.48282955924251925,0.9998916364367482,0.00027132614978820854
-0.48271978880333677,-0.48271978880333677,1.0000449768852075,0.00042611670444533755
-0.48256853516663795,-0.48256853516663795,1.0000654786075744,0.000293884897870492
-0.4824550100419088,-0.4824550100419088,0.9999616262792947,0.00032887498396065774
-0.4823307418518311,-0.4823307418518311,1.0003430103919464,0.00039996193569027786
-0.4822104913710987,-0.4822104913710987,0.999970223983374,0.00027910810875069375
-0.4820954792413616,-0.4820954792413616,0.9998280292849226,0.0003793002447151451
-0.48194940781986306,-0.48194940781986306,1.000263261403901,0.00035110232137337854
-0.48182678250786354,-0.48182678250786354,0.9997790175950406,0.00027968802470131374
-0.48172479141941127,-0.48172479141941127,1.000294353834094,0.0004282813137897404
-0.48158157163586424,-0.48158157163586424,0.9999907166060391,0.0002792394996768727
-0.481466433851044,-0.481466433851044,0.9997401421315187,0.00033010701249838747
-0.4813368143508086,-0.4813368143508086,1.000051063181735,0.00040422197787005627
-0.48121216737345945,-0.48121216737345945,0.9998575250933971,0.0002712680703392352
-0.48111522152901787,-0.48111522152901787,1.0002243878791803,0.00042551766819101894
-0.48095818317580663,-0.48095818317580663,1.0006292071424845,0.00029225161831534857
-0.48084341312836615,-0.48084341312836615,1.0002965107334065,0.0003305754739216749
-0.4807542561159309,-0.4807542561159309,1.000357832522054,0.00040336347695346604
-0.48061883674912736,-0.48061883674912736,0.9999796388284107,0.0002792428191086967
-0.4805037005708101,-0.4805037005708101,0.9997877627396029,0.000329820405644643
-0.48037407599604476,-0.48037407599604476,1.0001020984170894,0.0004042779705806966
-0.4802494342148435,-0.4802494342148435,0.9998307015841414,0.0002712937217979561
-0.4801524811736783,-0.4801524811736783,0.999638692768616,0.00042557075682767
-0.47999545101974944,-0.47999545101974944,0.9996036724380252,0.0002921211034470756
-0.47988067791091427,-0.47988067791091427,0.9999536989951829,0.00033070100576079763
-0.47976344478002203,-0.47976344478002203,0.9999235518153924,0.00039968645126289983
-0.4796329279784345,-0.4796329279784345,0.9997430950903535,0.0002791608124488764
-0.47952817746654547,-0.47952817746654547,1.0001238389328393,0.0003785295177772791
-0.47938211180437806,-0.47938211180437806,1.0000732508772223,0.00035097793687932015
-0.479259500482074,-0.479259500482074,1.0001854157465422,0.0002796201626119569
-0.4791574806075175,-0.4791574806075175,1.0006447569696257,0.0004276656611885819
-0.4790142786174286,-0.4790142786174286,1.0003090445047111,0.0002792118413618928
-0.47889914511501674,-0.47889914511501674,0.9994520828575834,0.0003298423610805449
-0.4787695120839743,-0.4787695120839743,0.9999886456574663,0.0004038815041252569
-0.47864487896027724,-0.47864487896027724,1.0002593891557914,0.0002713266404746836
-0.47854791392847884,-0.47854791392847884,0.9999417712061269,0.0004254333552942373
-0.4783908974368245,-0.4783908974368245,0.9999513758206413,0.00029218340485352305
-0.4782761192246511,-0.4782761192246511,1.0000268618959853,0.000330444520354021
-0.47815888413753244,-0.47815888413753244,0.9996968022617846,0.0003989810088571723
-0.47802836916738156,-0.47802836916738156,1.0001950236679689,0.0002791013911114571
-0.47792361388095655,-0.47792361388095655,1.0002042833389004,0.0003782928930094907
-0.4777775518116954,-0.4777775518116954,0.9998287887693655,0.00035099266417647695
-0.4776549492331924,-0.4776549492331924,0.9996494022779308,0.00027962449762893694
-0.47755291137371075,-0.47755291137371075,0.999818993112585,0.0004277183372819934
-0.47740201854517894,-0.47740201854517894,1.0000107082324252,0.0002792444036078238
-0.4772945896720543,-0.4772945896720543,0.9998128564411178,0.00032964681987393443
-0.47716494818730554,-0.47716494818730554,1.0003934645841839,0.00040348740187990783
-0.4770274871237021,-0.4770274871237021,0.9998500766686483,0.0002712825691894137
-0.47694334669996297,-0.47694334669996297,1.0003330339713243,0.00042549143729705757
-0.4767863438677068,-0.4767863438677068,1.0004786536043173,0.00029209428588699275
-0.4766587239550958,-0.4766587239550958,1.000137804862742,0.00033065096750092203
-0.4765543235144577,-0.4765543235144577,1.0000078398486165,0.0003992596672843904
-0.476412690667253,-0.476412690667253,0.9998662321409679,0.0002774898948957272
-0.4763173334145975,-0.4763173334145975,1.0002412825550244,0.0003794114142206971
-0.4761729918325585,-0.4761729918325585,0.999861691103742,0.0003508090980168366
-0.4760375614031972,-0.4760375614031972,0.9999608837316449,0.0002795912439363233
-0.47594834215657755,-0.47594834215657755,0.9999127441299087,0.00042695858576576593
-0.47579672940839546,-0.47579672940839546,1.0001506099964774,0.00029058860757739843
-0.4756772248884701,-0.4756772248884701,0.9996982721026557,0.0003774888978277255
-0.4755482515073467,-0.4755482515073467,0.9998862482456392,0.0003494459383932031
-0.47542230167234295,-0.47542230167234295,1.0000968899073073,0.0002814175443429153
-0.4753137365191492,-0.4753137365191492,1.000114695864401,0.00041808606736638886
-0.4751817903120951,-0.4751817903120951,0.9999139903228874,0.00029209900050211385
-0.4750482120716512,-0.4750482120716512,1.0004937463026629,0.00033026934434728843
-0.4749479076399794,-0.4749479076399794,0.9998083322999991,0.00040300282142403346
-0.47483399861090164,-0.47483399861090164,1.0003896915465942,0.0002906262939401314
-0.4747144867578683,-0.4747144867578683,0.9998673951712105,0.0003777908617832559
-0.47459880184827624,-0.47459880184827624,1.0000711266608104,0.0003588680599789308
-0.47448722435840124,-0.47448722435840124,0.9996358479243446,0.00027743524005721795
-0.47437603916464466,-0.47437603916464466,0.9996957429733513,0.00042466261899956164
-0.4742565454547673,-0.4742565454547673,1.0000624819919743,0.00030849318078201616
-0.4741386627242008,-0.4741386627242008,0.9997431531549555,0.00028139666269564646
-0.47401210440607,-0.47401210440607,1.0002537990787794,0.0003933823058682075
-0.4738981474776665,-0.4738981474776665,0.9999980963026802,0.00029217913290631475
-0.47375692286639437,-0.47375692286639437,0.9998036173554967,0.0003451069889475036
-0.4736462211525662,-0.4736462211525662,1.0002709653619424,0.0003898695840029181
-0.4735503575535148,-0.4735503575535148,1.0000516625073654,0.00029069433686928884
-0.47341578486442015,-0.47341578486442015,1.0000371391046996,0.0003867271186491946
-0.47330452862114925,-0.47330452862114925,0.9999227355429774,0.00034902520877403396
-0.47320358016066705,-0.47320358016066705,0.9997894495728588,0.000277498803801732
-0.47307441218059976,-0.47307441218059976,1.000166255120174,0.00040048549007277453
-0.472965194465489,-0.472965194465489,1.0000540688847255,0.0003396411771229209
-0.47285502378213806,-0.47285502378213806,1.0002354095629087,0.00028139668080283923
-0.47272844529266533,-0.47272844529266533,0.9998473629907296,0.000392647938733359
-0.4726169333282428,-0.4726169333282428,0.999982555118016,0.0003413552020223742
-0.47250160068460045,-0.47250160068460045,1.0001528562894613,0.0002792132295168608
-0.4723805914930139,-0.4723805914930139,0.9997278285895405,0.0004023766744748017
-0.47227437101715,-0.47227437101715,0.9999295446282959,0.00032858847359623877
-0.47215236722375237,-0.47215236722375237,1.0003504256371756,0.00034484948428288435
-0.4720314998463081,-0.4720314998463081,1.0000549625786364,0.0003582262604655836
-0.4719302819142769,-0.4719302819142769,1.0005501243474442,0.0003286267984379275
-0.4718112223566564,-0.4718112223566564,0.9998529033131482,0.00038629708755624705
-0.47168924358758346,-0.47168924358758346,1.0003594784085685,0.00030798276463008884
-0.4715840719097685,-0.4715840719097685,0.9999252049974586,0.00032217435699550623
-0.4714698448225946,-0.4714698448225946,0.9999017211202297,0.00039952512941310834
-0.47134945274770246,-0.47134945274770246,0.9995515952362706,0.00029362980300780153
-0.4712359800642744,-0.4712359800642744,0.9996364983895644,0.0003288222970132595
-0.47112387140989964,-0.47112387140989964,1.0006012495802266,0.00039264993151940877
-0.47100995113360683,-0.47100995113360683,1.0000333782850042,0.00029220533631033556
-0.4708892046427479,-0.4708892046427479,1.0000114977637558,0.0003302037555280077
-0.4707760189184242,-0.4707760189184242,0.9995601316003869,0.00040193172030886687
-0.470669811826869,-0.470669811826869,1.000115758688744,0.0003287821593097511
-0.47054781158705195,-0.47054781158705195,0.999962467008537,0.00034477097661299327
-0.4704269361168315,-0.4704269361168315,0.9998657295049893,0.000357887998942652
-0.47032572200411665,-0.47032572200411665,1.000007708293473,0.00032863196087219617
