time,time,flux,flux_err
-0.49990514943298575,-0.49990514943298575,0.9999863214788599,6.475251375178782e-05
-0.4997830767679261,-0.4997830767679261,0.9999765446540795,6.595925509930508e-05
-0.4997291442239657,-0.4997291442239657,0.9999169708782792,5.992074601220967e-05
-0.49959288476384245,-0.49959288476384245,1.000066301488326,6.009708595783039e-05
-0.49953216494468505,-0.49953216494468505,0.9999756369636532,6.118259509132532e-05
-0.49945679300581103,-0.49945679300581103,0.999979976276769,6.021930668084417e-05
-0.49934745442296846,-0.49934745442296846,1.0000218564039345,6.193706085573432e-05
-0.4992400305665797,-0.4992400305665797,0.9999808440432257,6.048237709386213e-05
-0.4991631426732056,-0.4991631426732056,1.0000769195347259,6.0668445625928664e-05
-0.4990349054947728,-0.4990349054947728,1.0000944451965608,5.984392060183908e-05
-0.49885001676739193,-0.49885001676739193,0.999914227217252,6.0607199412983675e-05
-0.4987718670628965,-0.4987718670628965,0.9999823795767743,5.975473770346005e-05
-0.4986699714936549,-0.4986699714936549,0.9999494440915155,6.011678214327697e-05
-0.49855302764917725,-0.49855302764917725,0.9999564224115007,5.987310333727681e-05
-0.49841566193790643,-0.49841566193790643,0.9999395825324333,5.986504143379115e-05
-0.49823643246490973,-0.49823643246490973,1.000035347378502,5.9618533658856184e-05
-0.49806704160291704,-0.49806704160291704,1.0000311948367338,5.984100593018005e-05
-0.4980089820426656,-0.4980089820426656,1.0000027069526631,6.088770136401119e-05
-0.49790347696107345,-0.49790347696107345,0.9999256004943993,6.1002739167019005e-05
-0.4977814452984603,-0.4977814452984603,1.000078964635456,6.021842740134158e-05
-0.4976404982677195,-0.4976404982677195,0.9999244308202708,6.0051623513711804e-05
-0.4975958804687252,-0.4975958804687252,1.0000742203699002,5.995460332387057e-05
-0.4975305181898875,-0.4975305181898875,0.9999901139927461,5.9818927343779446e-05
-0.4974167014384875,-0.4974167014384875,0.9999813950800742,5.956274642366154e-05
-0.4972436373209348,-0.4972436373209348,0.9999977819574019,6.057344141291203e-05
-0.49705912127974444,-0.49705912127974444,0.9999086245414149,6.024111920538906e-05
-0.4969426336698234,-0.4969426336698234,0.999953014627691,6.003461710581011e-05
-0.49690480502031276,-0.49690480502031276,0.9999988939249131,5.9509901975446876e-05
-0.4968468291248428,-0.4968468291248428,0.9999758659323887,5.9783874382000154e-05
-0.49670638266252354,-0.49670638266252354,1.0000586652679524,6.143969497833955e-05
-0.49661544284026604,-0.49661544284026604,1.0000151293170367,5.954571493404327e-05
-0.4964863263186999,-0.4964863263186999,1.000010074173198,6.0916827430162274e-05
-0.4964059854217339,-0.4964059854217339,1.0000070969072392,6.0113567784166056e-05
-0.4962748400488636,-0.4962748400488636,0.9999530170417337,5.953990408920431e-05
-0.49617469738295766,-0.49617469738295766,1.0000475926900765,6.0563728808384597e-05
-0.49604470991762356,-0.49604470991762356,0.9999287813821484,5.989415567833361e-05
-0.4959003044845304,-0.4959003044845304,1.0000557426387258,6.0829980790508234e-05
-0.49575445596710777,-0.49575445596710777,0.9999895785378268,6.0281767863040575e-05
-0.49568044792395083,-0.49568044792395083,1.000027384284618,6.007173797425243e-05
-0.4955461056699278,-0.4955461056699278,0.9999539520205667,6.0402474101971076e-05
-0.4954146212694468,-0.4954146212694468,1.0000749130617583,5.96320467401214e-05
-0.49528074272093364,-0.49528074272093364,0.9999265742727322,6.050092960618559e-05
-0.49519383991137145,-0.49519383991137145,0.9999915239627206,6.092202265028003e-05
-0.4950941087648971,-0.4950941087648971,1.0000419202349506,6.067433782509496e-05
-0.4949740418145666,-0.4949740418145666,1.000068747155168,6.041628412367264e-05
-0.494866986310808,-0.494866986310808,0.9999582711278789,5.983548806866354e-05
-0.49477276321849784,-0.49477276321849784,1.0000925707613395,6.042543998562573e-05
-0.4946609017177252,-0.4946609017177252,0.999980127870163,6.2738496704913e-05
-0.4945425326062832,-0.4945425326062832,0.9999741689057885,5.961475591990103e-05
-0.49442967006471006,-0.49442967006471006,0.9999285647300458,6.0731834548363336e-05
-0.49428045470558574,-0.49428045470558574,0.9999535354227467,5.960365883566542e-05
-0.49416613748762755,-0.49416613748762755,0.9999734232833737,5.995998042411648e-05
-0.4941210633609444,-0.4941210633609444,1.0001684978846876,5.980469507023088e-05
-0.49404238412389534,-0.49404238412389534,1.0000372956815977,6.0138662624797004e-05
-0.4938863266695989,-0.4938863266695989,1.0000433530361845,6.136126644148739e-05
-0.4937848125118762,-0.4937848125118762,1.0000112152365155,6.0582267419476175e-05
-0.49365517318365165,-0.49365517318365165,1.000005354089895,5.9989678903391625e-05
-0.49357734677614645,-0.49357734677614645,0.9999937639094261,6.097579585957542e-05
-0.4934727698331699,-0.4934727698331699,0.9998957331457667,6.0128448648310144e-05
-0.4933377940353239,-0.4933377940353239,1.0000557970341268,6.0001079367470004e-05
-0.4931664249714231,-0.4931664249714231,1.0000179649861463,6.007615185098208e-05
-0.4930689051281661,-0.4930689051281661,0.9998219878089112,6.0326024201001424e-05
-0.49291644682816693,-0.49291644682816693,0.9999876832053675,5.958507285121914e-05
-0.4927791085210629,-0.4927791085210629,1.0000380865186962,6.0256325664828574e-05
-0.4926689221872948,-0.4926689221872948,1.0000065923023143,5.997120553627364e-05
-0.4925386177143082,-0.4925386177143082,1.000014272482994,6.0385637301694516e-05
-0.4923953365680063,-0.4923953365680063,0.9999450591519533,6.119611321829474e-05
-0.4923299205198418,-0.4923299205198418,1.0000350863707212,5.9907061053328335e-05
-0.49223889187851455,-0.49223889187851455,0.9999076784560014,6.011716178517813e-05
-0.4921451180358417,-0.4921451180358417,1.0000006840114368,5.984102994550318e-05
-0.49199326533125715,-0.49199326533125715,1.0000682877040972,6.030379933715005e-05
-0.49188054979313167,-0.49188054979313167,1.0000500902700513,6.147878511159379e-05
-0.49177630610065537,-0.49177630610065537,0.9999654643959518,5.983063329208112e-05
-0.4915991322224727,-0.4915991322224727,0.9999889479796422,6.0287725234789324e-05
-0.49146384303458035,-0.49146384303458035,0.9999565859226227,5.9987655844483905e-05
-0.49139016165281646,-0.49139016165281646,1.0000192671484633,6.0099706523403166e-05
-0.4912992005673004,-0.4912992005673004,1.0000798265297854,6.024928453432797e-05
-0.49123265434172936,-0.49123265434172936,0.9999894842701493,5.9712705483928526e-05
-0.4911301599961007,-0.4911301599961007,1.0001417781262334,5.9761762925944526e-05
-0.4910448955051834,-0.4910448955051834,1.0000436729467792,6.073654006843931e-05
-0.49095407272689046,-0.49095407272689046,0.9999384640703692,6.124944161428364e-05
-0.4908488944172859,-0.4908488944172859,1.0000563953839865,6.0121445181445225e-05
-0.4907267559552565,-0.4907267559552565,1.0000353735113139,6.14727522752775e-05
-0.49063277389795984,-0.49063277389795984,0.9999704573595093,5.9517184738391176e-05
-0.4904888538294472,-0.4904888538294472,0.9999529352399735,6.0570437862994355e-05
-0.4903581361286342,-0.4903581361286342,0.9999723660694346,6.0104769483863854e-05
-0.4902438194636488,-0.4902438194636488,0.9999901927083469,6.052936376550099e-05
-0.49007351270120125,-0.49007351270120125,0.9998870827535393,5.983995152678e-05
-0.4900016386498464,-0.4900016386498464,0.9999623669365458,6.07242812525999e-05
-0.48985382945393213,-0.48985382945393213,0.999944964507305,6.004202823584887e-05
-0.4897351055493345,-0.4897351055493345,1.000101031522135,6.081459740516096e-05
-0.4895993982820073,-0.4895993982820073,1.0000659717175828,6.0510924373141685e-05
-0.4895558919728501,-0.4895558919728501,1.0000344429808763,5.9633968367898675e-05
-0.48948498542013114,-0.48948498542013114,1.0000298978119828,6.033167630345591e-05
-0.4893809650966432,-0.4893809650966432,1.0000912226755303,5.979040522203825e-05
-0.48924262600194196,-0.48924262600194196,0.9999026199747059,5.9962317993321866e-05
-0.4890650087560061,-0.4890650087560061,0.9999293374452224,6.014205936661074e-05
-0.4889315698354039,-0.4889315698354039,0.9999010431416216,6.0622189253250925e-05
-0.48880350608960726,-0.48880350608960726,1.0000458982315348,6.001114768519869e-05
-0.48869109073129946,-0.48869109073129946,0.9999882785368254,6.039776850300716e-05
-0.48859832260350233,-0.48859832260350233,0.9999956152034972,5.958478569828738e-05
-0.4885414935648441,-0.4885414935648441,0.9999617597480694,5.9926902218951806e-05
-0.4884432728169486,-0.4884432728169486,1.0000010374951611,5.987726310092286e-05
-0.48836817210540173,-0.48836817210540173,1.0001149775139289,5.9683573538820506e-05
-0.48824522918730506,-0.48824522918730506,1.0000567875323318,6.0486335412794805e-05
-0.48813872881582937,-0.48813872881582937,1.0000972405045365,6.10114695473412e-05
-0.48797720912843945,-0.48797720912843945,1.0000729615937243,6.011990496914692e-05
-0.4878588684980059,-0.4878588684980059,0.9999618865349404,6.034097796864704e-05
-0.48769737742841246,-0.48769737742841246,0.9999876040399803,6.0272782530953225e-05
-0.48760360116139057,-0.48760360116139057,1.0000671057458046,6.062866840711692e-05
-0.48741753077483735,-0.48741753077483735,1.000059303497856,6.009593844284064e-05
-0.48731223747017793,-0.48731223747017793,1.000053245539858,6.0131828427264136e-05
-0.4872372265555896,-0.4872372265555896,0.99988325636743,5.987406143927061e-05
-0.48714802621689157,-0.48714802621689157,1.000014687925497,6.104960904110358e-05
-0.48701943158812355,-0.48701943158812355,0.9999234729452453,5.978202096399249e-05
-0.4868714422860648,-0.4868714422860648,0.9998988477920652,6.105987704928794e-05
-0.486777494213311,-0.486777494213311,0.9999901721648573,6.000155284904995e-05
-0.4866834859276423,-0.4866834859276423,0.999941311180749,5.981336084185803e-05
-0.4865659117116593,-0.4865659117116593,0.9999323891292582,6.022726802453344e-05
-0.486413980985526,-0.486413980985526,0.9999868731696582,6.0231953742385727e-05
-0.48628126030089336,-0.48628126030089336,0.9999652709816843,5.988966106132097e-05
-0.4861433330894215,-0.4861433330894215,0.9999189828569927,6.040982174893855e-05
-0.486026263324311,-0.486026263324311,1.000081700241081,6.067709898895221e-05
-0.48591455183923243,-0.48591455183923243,1.0000415164043397,5.969601832885511e-05
-0.4858484400145244,-0.4858484400145244,1.0000180009452204,6.0004943085648316e-05
-0.48575427806354127,-0.48575427806354127,0.9999987786004716,6.022918931451815e-05
-0.4856908397981897,-0.4856908397981897,0.999978363244909,5.939607609979292e-05
-0.48561737607815303,-0.48561737607815303,1.0000734554090294,5.957529379578857e-05
-0.48553903379361146,-0.48553903379361146,1.0000422584644713,5.9602187176041135e-05
-0.48538786331773737,-0.48538786331773737,1.000012013236581,6.179727372447214e-05
-0.48522341921634504,-0.48522341921634504,1.0000253941258466,6.034062576341813e-05
-0.4850650628446601,-0.4850650628446601,1.0000903234689773,6.094964627335042e-05
-0.48497696887061464,-0.48497696887061464,0.9999276888696403,6.021965544969729e-05
-0.4848673434986267,-0.4848673434986267,0.9999545697961111,5.99770146426469e-05
-0.48472062865039334,-0.48472062865039334,0.9999489274843768,6.0492584659354245e-05
-0.48461128256749364,-0.48461128256749364,0.9999978114904848,6.027065418449394e-05
-0.4845090476301266,-0.4845090476301266,1.0000081792471534,6.077002479740973e-05
-0.48444194851326755,-0.48444194851326755,0.9999390777504604,5.965464084025536e-05
-0.4842967242671875,-0.4842967242671875,1.0000461522308477,6.0283441383570615e-05
-0.4842208582937019,-0.4842208582937019,0.9999943697124591,5.9780892260271385e-05
-0.4840837169525912,-0.4840837169525912,1.000032286712543,6.00941367657621e-05
-0.48389218300872017,-0.48389218300872017,1.0000177136399375,6.0592945140620585e-05
-0.4837721429561498,-0.4837721429561498,1.0000436936334265,6.073138922647588e-05
-0.4836564803583315,-0.4836564803583315,0.9999208690897057,6.0037046094608004e-05
-0.48353418280312327,-0.48353418280312327,0.9999966793918137,5.9557711382150235e-05
-0.48343099300691394,-0.48343099300691394,1.0000232346035365,5.9235820537376005e-05
-0.4833327757049119,-0.4833327757049119,0.9999987819735253,6.040209540958119e-05
-0.4832097224949393,-0.4832097224949393,1.0000382830246564,5.9147889233197684e-05
-0.48309644907712934,-0.48309644907712934,1.0000935646073992,6.056473706240874e-05
-0.4829981929244241,-0.4829981929244241,0.9999849815320078,5.9956394386028657e-05
-0.48294025975628757,-0.48294025975628757,1.0001186540247649,6.040078752994921e-05
-0.48280461609829217,-0.48280461609829217,0.9999486462297735,6.004951129467502e-05
-0.4826703685888788,-0.4826703685888788,1.0000507101168101,6.067550925210346e-05
-0.4825008801213698,-0.4825008801213698,0.9999489748603121,6.022114279655222e-05
-0.48238165232469327,-0.48238165232469327,1.0000668519996967,6.07680801428497e-05
-0.4822178299160441,-0.4822178299160441,0.9999392422365918,6.0487426716886204e-05
-0.48211150771239775,-0.48211150771239775,1.0000142262559688,5.9920679688620025e-05
-0.4819878706737654,-0.4819878706737654,1.0000961773137167,6.058211838304933e-05
-0.48186868712946307,-0.48186868712946307,1.0000459471296246,6.070153351359237e-05
-0.48177917131688447,-0.48177917131688447,0.9999592346962352,6.057878086948692e-05
-0.4817038554203464,-0.4817038554203464,0.999994981235171,5.944743317675405e-05
-0.4816075742302928,-0.4816075742302928,0.9999307149097048,6.009618425244698e-05
-0.4815223475859966,-0.4815223475859966,1.0001310886982782,6.00006291616749e-05
-0.48138345386832954,-0.48138345386832954,0.9999745187909139,6.0119526163123133e-05
-0.4811553298815852,-0.4811553298815852,1.0000064132459694,6.156633334130015e-05
-0.4810581934056245,-0.4810581934056245,1.0001086666195174,6.044925238382828e-05
-0.4809578264830634,-0.4809578264830634,1.0000415578621715,6.050773018914868e-05
-0.48083852320851295,-0.48083852320851295,0.999937263866092,6.042519794715502e-05
-0.48071582966658755,-0.48071582966658755,0.9999165274854246,6.016818787708966e-05
-0.48064166426775046,-0.48064166426775046,0.999934469508457,5.935084745637248e-05
-0.4805679712910205,-0.4805679712910205,0.9999582479693181,5.975450307758825e-05
-0.4804388278484112,-0.4804388278484112,1.0000080274999164,5.925138918125087e-05
-0.48033367008902134,-0.48033367008902134,0.9999521999575738,6.043610449241542e-05
-0.4802439965686062,-0.4802439965686062,0.9999259866475064,6.05684335153096e-05
-0.48018869826919397,-0.48018869826919397,1.0000334424836717,5.982567153486254e-05
-0.4800062552647432,-0.4800062552647432,1.000034920173504,6.049065325619935e-05
-0.47984508075169285,-0.47984508075169285,1.000027666054865,5.98229754924994e-05
-0.4797209590644343,-0.4797209590644343,1.000009543609822,6.022403151813145e-05
-0.4795961355121108,-0.4795961355121108,1.000007155125297,6.07985458627289e-05
-0.47946021249808835,-0.47946021249808835,1.0000019974780012,5.987301389209921e-05
-0.4793772953824373,-0.4793772953824373,0.9999946768105268,6.030521844092999e-05
-0.47925904882722536,-0.47925904882722536,1.0000431500834943,6.0344101153448346e-05
-0.479118748838664,-0.479118748838664,0.9999655271475199,6.0827760911860707e-05
-0.4790530016529374,-0.4790530016529374,0.9999117945517184,5.994075930267738e-05
-0.47897001753735824,-0.47897001753735824,1.0000816296046486,6.0338516738591136e-05
-0.47883977990131826,-0.47883977990131826,1.0000574928001793,5.953784087214615e-05
-0.478714228462195,-0.478714228462195,0.9999143331674908,5.962454510703923e-05
-0.4785776424163487,-0.4785776424163487,0.9999468113368832,5.984492889388023e-05
-0.4783828473009635,-0.4783828473009635,0.9999841143782341,6.071220352117097e-05
-0.4782768046570709,-0.4782768046570709,1.0000952269695726,6.121307341158398e-05
-0.47820816473977173,-0.47820816473977173,1.0000625476649065,6.000565337100218e-05
-0.47810914591536857,-0.47810914591536857,0.9999348306834023,6.0838768300141934e-05
-0.47796056284278166,-0.47796056284278166,0.9999987610230058,5.944440609098201e-05
-0.47782407234190033,-0.47782407234190033,1.0000346047790987,6.0330226885134215e-05
-0.4776733911916381,-0.4776733911916381,1.0000327051988027,5.967059960046558e-05
-0.4775787782826228,-0.4775787782826228,1.0000368803752817,6.0327987335582006e-05
-0.47747585553734095,-0.47747585553734095,0.999915168000307,5.96549985287086e-05
-0.477376981251291,-0.477376981251291,0.9999560758164325,6.04193510098695e-05
-0.47722913378675,-0.47722913378675,0.9999654432444232,6.0347293533672436e-05
-0.4771029225346865,-0.4771029225346865,0.9999776743403077,5.96569865787593e-05
-0.4770138122345088,-0.4770138122345088,1.0000903306052134,6.006211512256581e-05
-0.47693723621196116,-0.47693723621196116,1.0000922169608315,6.106096498681898e-05
-0.476811725369771,-0.476811725369771,0.9999654171957502,6.038689461764537e-05
-0.4767220701323822,-0.4767220701323822,0.999980997567298,5.959015427963644e-05
-0.47662587321829053,-0.47662587321829053,1.0000659255443776,5.992539061888823e-05
-0.47651940999785436,-0.47651940999785436,1.0000149283474389,6.125991322688116e-05
-0.4764023173775058,-0.4764023173775058,1.0000430641372118,6.031271576264983e-05
-0.4763131796556991,-0.4763131796556991,1.0000259898186674,6.0091532755388055e-05
-0.47626875471905805,-0.47626875471905805,1.0000347030741454,5.9473563321674814e-05
-0.47614879268803634,-0.47614879268803634,1.0000436116164841,6.066643931665358e-05
-0.47601193338632586,-0.47601193338632586,1.000055991072006,5.949792741557156e-05
-0.4758412289142143,-0.4758412289142143,0.9999760041609747,5.959560550175872e-05
-0.4757082661788445,-0.4757082661788445,1.0001435778999561,6.019178633289098e-05
-0.4755708701210096,-0.4755708701210096,1.0000409302576807,5.972645928652622e-05
-0.47546386113681366,-0.47546386113681366,1.0000269530590251,6.0954173656719775e-05
-0.47537522404454646,-0.47537522404454646,0.9999894223697623,6.044621214272858e-05
-0.4752698450814933,-0.4752698450814933,1.0000272893170044,6.056885807219078e-05
-0.4751813052716898,-0.4751813052716898,0.9999900164824199,6.050845428960573e-05
-0.4750649167632218,-0.4750649167632218,0.9999784832663454,5.942269523039662e-05
-0.4749407435068861,-0.4749407435068861,1.0000169502131913,6.018572182684039e-05
-0.47486782776832115,-0.47486782776832115,0.999962982949403,6.033866720985746e-05
-0.47473240821273066,-0.47473240821273066,1.0000739393437093,6.063397461459652e-05
-0.4746121766831493,-0.4746121766831493,0.9998529008609204,6.04337057101371e-05
-0.4744636006915243,-0.4744636006915243,1.0000867735076937,6.151070729635365e-05
-0.4743490621389356,-0.4743490621389356,1.0000503115439954,5.9595425474359115e-05
-0.47429077431443145,-0.47429077431443145,1.0000232852956499,6.016013884193728e-05
-0.4741780665208353,-0.4741780665208353,1.0000496163317452,5.9652285983616485e-05
-0.4740681883791694,-0.4740681883791694,1.0000172199006079,6.103007677189879e-05
-0.47397364355274474,-0.47397364355274474,1.0000883851054478,6.086118058608372e-05
-0.47392482596624175,-0.47392482596624175,1.0000186108249287,5.989714481465074e-05
-0.4738004740269389,-0.4738004740269389,1.000077132707497,6.043250097400003e-05
-0.4736430109478533,-0.4736430109478533,1.0001009781675887,6.0050380673771954e-05
-0.47358550849894526,-0.47358550849894526,1.000010680494393,6.0168996584580705e-05
-0.47345814753498416,-0.47345814753498416,1.0000838524739248,6.020646361968358e-05
-0.4733023576583946,-0.4733023576583946,1.000019707543182,6.034988697826045e-05
-0.4731423266697675,-0.4731423266697675,0.9999651163985751,5.9233455673959686e-05
-0.4729438764799852,-0.4729438764799852,0.9999881309964598,5.9737099960053704e-05
-0.47280600351514296,-0.47280600351514296,0.9999894242539027,5.994292379574281e-05
-0.47263092520588545,-0.47263092520588545,1.0001008520901804,6.133655224480328e-05
-0.4725706544093555,-0.4725706544093555,0.9999954232701469,5.995523689489607e-05
-0.47246177474735307,-0.47246177474735307,1.0000044727677062,6.006345404514767e-05
-0.47234808350040114,-0.47234808350040114,1.0000331673087584,6.0593492392184433e-05
-0.47226790672866625,-0.47226790672866625,0.9999719344072808,5.9568285587637675e-05
