time,time,flux,flux_err
-0.4999420485225225,-0.4999420485225225,1.0000757556187172,0.0002483511022211916
-0.49983608697802995,-0.49983608697802995,1.0002656368044747,0.00024027254502178414
-0.4996334597133682,-0.4996334597133682,0.9997778864225454,0.00023513734706812742
-0.4995187497057486,-0.4995187497057486,0.999765769084125,0.00023168472694352346
-0.4993523484590696,-0.4993523484590696,1.0001531696005272,0.00021972045999998002
-0.4991744015293079,-0.4991744015293079,1.0001833338227637,0.00023059332696769762
-0.4990744941409503,-0.4990744941409503,1.000155141632043,0.00022855616539962437
-0.49889257750910476,-0.49889257750910476,0.9998202920771018,0.0002235444392220114
-0.49876141917557104,-0.49876141917557104,1.0002191533435891,0.00024295843228768418
-0.4986761987900536,-0.4986761987900536,0.9997898629106763,0.00022772885996064112
-0.4984786239438108,-0.4984786239438108,1.0000503268058238,0.00022126845828501312
-0.498334496433381,-0.498334496433381,0.9999978028558567,0.0002282722356611667
-0.4982431483847904,-0.4982431483847904,1.000074990344488,0.00022853306968124575
-0.49803717234026407,-0.49803717234026407,0.9999062055373329,0.00022554683628835
-0.49790450442014844,-0.49790450442014844,0.9999200420197198,0.0002267486606098617
-0.49779883690061977,-0.49779883690061977,1.000312917181212,0.0002298955920658507
-0.49763959106203404,-0.49763959106203404,0.9998579685169938,0.00022423221371974862
-0.4974843307158153,-0.4974843307158153,0.99983625470827,0.0002281229077819879
-0.49740811706578825,-0.49740811706578825,1.0000307006096558,0.00022864598462846495
-0.4972324488364393,-0.4972324488364393,0.9998641428765651,0.0002267350582913214
-0.4970980292411696,-0.4970980292411696,0.9999556413816224,0.00023320901966609014
-0.49700075959190143,-0.49700075959190143,0.9997125923092275,0.00022698528484073094
-0.4968076217199268,-0.4968076217199268,0.9999093132205564,0.00022793616143512393
-0.49665745651509496,-0.49665745651509496,0.9999074666001893,0.00022806902605077088
-0.49657674372865585,-0.49657674372865585,1.0002811532727578,0.00022871553750086057
-0.49640485705895115,-0.49640485705895115,1.0002560185758238,0.00022683511732726
-0.4962707551370841,-0.4962707551370841,1.0000718607535375,0.00023322580936468795
-0.49613812255774975,-0.49613812255774975,1.0001117460717015,0.0002267731584671051
-0.4959546344616683,-0.4959546344616683,0.9999183956195509,0.000223539419863485
-0.4958042605161609,-0.4958042605161609,0.9996114667902878,0.00022938052292949422
-0.49569047286131535,-0.49569047286131535,0.9998001555847045,0.00023613693330078877
-0.4955396776749694,-0.4955396776749694,0.9995809526877967,0.0002284372926727425
-0.4953933286735264,-0.4953933286735264,0.9998770605892213,0.00023493208746121083
-0.49523274276943996,-0.49523274276943996,0.9999777198837203,0.00022560393720369112
-0.49506269753255766,-0.49506269753255766,1.0000919078672608,0.00022753804535695726
-0.4949314855497505,-0.4949314855497505,1.0000778652123707,0.00023174645035706245
-0.4947798819201125,-0.4947798819201125,0.9997653503209847,0.0002334361149023757
-0.4946156157231599,-0.4946156157231599,1.0000893291407293,0.00022677129156218554
-0.49448431369601165,-0.49448431369601165,1.0001268757406545,0.00023242229122921607
-0.49433782796841114,-0.49433782796841114,1.0002557254053028,0.00022943199583169162
-0.49420283619692784,-0.49420283619692784,0.9998256409553647,0.00022582367231406864
-0.4940796624512586,-0.4940796624512586,0.9997208171847785,0.00022849261233332004
-0.49395643917596316,-0.49395643917596316,1.0005204819019096,0.0002336292421613363
-0.49378767933667406,-0.49378767933667406,1.0004625751239498,0.00022675380000210842
-0.4936881289977464,-0.4936881289977464,0.9994519379418871,0.00023473644969974373
-0.49353077251653305,-0.49353077251653305,1.0001443897149218,0.00022766093430086435
-0.49340619470676755,-0.49340619470676755,1.0001445590222058,0.0002275992731204302
-0.49326904161571294,-0.49326904161571294,1.000087081904801,0.0002317593651119249
-0.4931785477834637,-0.4931785477834637,1.0002155932581214,0.00022932342404550251
-0.49303118180396266,-0.49303118180396266,1.0001824678667615,0.00022853142380039625
-0.49291053408160224,-0.49291053408160224,0.9999502023576374,0.00023151231393405566
-0.4928214208637655,-0.4928214208637655,1.0000090727085913,0.00023217959772213045
-0.4927013413151144,-0.4927013413151144,1.0002238631257943,0.00022389428306595645
-0.4925444409811462,-0.4925444409811462,0.9997049822138451,0.00023225922394375667
-0.4924167193887115,-0.4924167193887115,0.9997829579549313,0.00022853626612865204
-0.4923096295569849,-0.4923096295569849,0.9998643342474439,0.00023367708809341918
-0.4921474800183205,-0.4921474800183205,1.0000730929957147,0.00022263383251964943
-0.4920642105091247,-0.4920642105091247,0.999776616503406,0.00023556506409604013
-0.49196720711624947,-0.49196720711624947,1.000134512813677,0.00022396445502814954
-0.49183693344093626,-0.49183693344093626,0.9996553284129502,0.00023133075033485197
-0.4916603929013945,-0.4916603929013945,1.0001078018386986,0.00022943952608458536
-0.49153634140384383,-0.49153634140384383,1.000102021773617,0.00023581704212926913
-0.491413939341146,-0.491413939341146,1.0001583313514752,0.00022310889622340234
-0.4913163362602063,-0.4913163362602063,1.0004010064634845,0.00022273481136838043
-0.49122432789663434,-0.49122432789663434,1.0004192057176042,0.0002353014259855517
-0.4911116601557296,-0.4911116601557296,1.0002581013520286,0.0002243605919231929
-0.4909822175875888,-0.4909822175875888,0.9998618033481883,0.0002322450887470529
-0.49079826711385977,-0.49079826711385977,0.9999350705440915,0.00023350956058781048
-0.4906891604936391,-0.4906891604936391,0.9998709386985434,0.0002340976000521836
-0.4905590309594118,-0.4905590309594118,1.0003940108072769,0.00021908640351512082
-0.4904844240816601,-0.4904844240816601,1.0001880078370253,0.00022289126151220319
-0.49039668022232946,-0.49039668022232946,1.0000539844134473,0.00023519012735087906
-0.4903039956254361,-0.4903039956254361,1.0001896547843858,0.00022041469078035967
-0.49022121157977383,-0.49022121157977383,1.0002249600258915,0.0002274262431230084
-0.49003352435829584,-0.49003352435829584,1.0001739967890486,0.0002351039924246785
-0.48990258803896725,-0.48990258803896725,1.0004817506241614,0.00023245185419302762
-0.4897919388684386,-0.4897919388684386,0.9997643559492525,0.00022753369848994024
-0.4896741754266259,-0.4896741754266259,0.9998910285097884,0.0002261176683595344
-0.4896185162113397,-0.4896185162113397,1.0003480553147,0.0002206401145973042
-0.48955069841395016,-0.48955069841395016,1.0001864045862907,0.00023566598939234176
-0.48945221589747234,-0.48945221589747234,0.999939983161488,0.00022300873083764728
-0.48929726385395045,-0.48929726385395045,1.000413169155306,0.0002327751166894876
-0.48913540117209775,-0.48913540117209775,0.9998018750463313,0.00023614214987670518
-0.4890365844978078,-0.4890365844978078,1.0002227971973998,0.00023423622832003166
-0.48890985121979613,-0.48890985121979613,0.9996507168019984,0.00022700132905756985
-0.4888387477236392,-0.4888387477236392,0.9999102640411589,0.0002227399594147382
-0.4887568458834721,-0.4887568458834721,1.0001490734245118,0.00023536065203807688
-0.48865425278345354,-0.48865425278345354,1.0000941912128214,0.0002249151485121771
-0.4885737749398686,-0.4885737749398686,1.0002311209326318,0.00022398483515918645
-0.488392847221985,-0.488392847221985,1.0004687509706502,0.00023738135181167996
-0.4882908011051768,-0.4882908011051768,1.0000153377778247,0.0002277465890645113
-0.48818802341484113,-0.48818802341484113,1.000102723789722,0.00022967657581645433
-0.4880618847069854,-0.4880618847069854,1.0002421697023738,0.00022715495036151442
-0.48800870634804594,-0.48800870634804594,1.0003414662822676,0.00022283115935612264
-0.4879066762041475,-0.4879066762041475,1.0000088947834356,0.00023215142187239525
-0.48779357791063377,-0.48779357791063377,0.9998599990570701,0.00022404675293087681
-0.4877068922025501,-0.4877068922025501,1.000396228370636,0.00021882872348389076
-0.48759607553874956,-0.48759607553874956,1.000372189466201,0.0002309971068685481
-0.4874617939945892,-0.4874617939945892,1.000112875759044,0.0002276684035109213
-0.48737149815424347,-0.48737149815424347,1.0001112478767364,0.0002287285941555868
-0.4872608320110885,-0.4872608320110885,0.9997169332230502,0.00022618903754432316
-0.48716883211163803,-0.48716883211163803,1.0005299223223172,0.00022366412625167978
-0.48707945861751795,-0.48707945861751795,1.00005081025839,0.00023917512986237254
-0.48698244047773187,-0.48698244047773187,0.9999892940924309,0.00022467705694771827
-0.4868713297990325,-0.4868713297990325,0.9997667416059267,0.00022117583630884753
-0.486700583655329,-0.486700583655329,1.000193218743042,0.00023510112483526548
-0.48659443355500115,-0.48659443355500115,1.0002122702234335,0.00022259278618033608
-0.486520405090414,-0.486520405090414,0.9999849133107241,0.00022941501058551368
-0.48640273410346707,-0.48640273410346707,1.0001926543863149,0.00023177525698445602
-0.48634557224650055,-0.48634557224650055,1.0004779568343332,0.00022905406075190475
-0.4862530474652885,-0.4862530474652885,0.9996864933099969,0.00023604518689515928
-0.48615996273510975,-0.48615996273510975,0.999960953051184,0.0002261107379834162
-0.48604462314906416,-0.48604462314906416,1.0002788027814544,0.00021718611656630426
-0.4858925489686953,-0.4858925489686953,1.0001443382417872,0.00023568344488240716
-0.4857670285739005,-0.4857670285739005,1.0001220159372282,0.00022701170763315417
-0.4856927656539483,-0.4856927656539483,1.0003954420317336,0.00022457510041352054
-0.48559263495408234,-0.48559263495408234,1.000002285598513,0.00022978792000441598
-0.485541308842221,-0.485541308842221,0.9999095023600157,0.00022689186244707142
-0.48542275112704375,-0.48542275112704375,1.0000014393314784,0.00023163934902948195
-0.48533833971305285,-0.48533833971305285,0.9997988310080738,0.0002260778344162407
-0.4851713725554873,-0.4851713725554873,1.000460868902731,0.0002281437675192085
-0.4849978655460291,-0.4849978655460291,0.9998479466061593,0.0002356394684003186
-0.4849042333873513,-0.4849042333873513,1.0000134191624124,0.00022499388732657907
-0.4848163680500875,-0.4848163680500875,1.0000624238158056,0.00022842548885393648
-0.4847426773078041,-0.4847426773078041,1.0001336036524096,0.00022782998412088236
-0.4846723717106215,-0.4846723717106215,0.9996981798699587,0.00022352857305986797
-0.48459459724181214,-0.48459459724181214,1.0000604328466967,0.00023168316966115996
-0.484500524631585,-0.484500524631585,0.9998927067746948,0.00022557257692734767
-0.4843082970633986,-0.4843082970633986,1.0003158042484426,0.00023203934529732157
-0.48414239366175027,-0.48414239366175027,1.0000078351395563,0.00023276013354542113
-0.48406207145017105,-0.48406207145017105,0.9998715105990579,0.00022083079924399164
-0.4839665462204721,-0.4839665462204721,0.9999036945766274,0.00022350262120370072
-0.4839127728206222,-0.4839127728206222,0.9999330480532851,0.00022857843167408765
-0.4838197026954731,-0.4838197026954731,1.0001023761439343,0.00022519868866447535
-0.4837439726630691,-0.4837439726630691,1.0000920110615552,0.00023030654618907753
-0.48362159535099636,-0.48362159535099636,1.0001006761321776,0.00022640515956098796
-0.4834393603661738,-0.4834393603661738,0.9997881324027439,0.00023359490648577295
-0.48328085576576996,-0.48328085576576996,1.000257012991642,0.00022781453439993924
-0.48318539338288247,-0.48318539338288247,1.0001160903111763,0.0002259038353966215
-0.48309691063768695,-0.48309691063768695,0.9998951522123007,0.0002251977887121436
-0.4830437972996151,-0.4830437972996151,0.9999964165188395,0.0002236035351682006
-0.4829376352048712,-0.4829376352048712,1.0000002044615588,0.00023097646285038807
-0.4828548363984737,-0.4828548363984737,1.0001407146301915,0.00022575258376729797
-0.4826877303399669,-0.4826877303399669,1.0002294500823194,0.00022716803572921113
-0.48252456783666275,-0.48252456783666275,1.0005387682376232,0.0002404643532646907
-0.4824097729033383,-0.4824097729033383,0.9999534764647586,0.00022303501412163215
-0.4822963812723174,-0.4822963812723174,0.9996206612344751,0.00022680866177791301
-0.48225764696326223,-0.48225764696326223,0.9998080382660888,0.00022529834508793942
-0.48215227187174603,-0.48215227187174603,1.0003308193404288,0.00022551368809880474
-0.48209064141628916,-0.48209064141628916,1.0000918048823735,0.0002304015040241544
-0.48196028391685103,-0.48196028391685103,0.99997754445066,0.0002226459328255155
-0.4818056260330195,-0.4818056260330195,1.0003377823845836,0.0002329585649276079
-0.4816433331609005,-0.4816433331609005,1.0001112949995132,0.00022792707367857824
-0.48154688094437004,-0.48154688094437004,1.0001394456113681,0.0002339858305944009
-0.48145224617474014,-0.48145224617474014,1.0000197124837236,0.00022410959511361665
-0.4813971572031733,-0.4813971572031733,0.9998109623253539,0.00022789944236630962
-0.4812903515237849,-0.4812903515237849,1.0001048595271294,0.00022794114420003676
-0.48122644081449834,-0.48122644081449834,1.0000776974284586,0.00023153263755383943
-0.4810519344886416,-0.4810519344886416,1.0000570359596745,0.00022475249410187104
-0.48087961365672527,-0.48087961365672527,1.0000920995653164,0.00023928891194843668
-0.4807723556070414,-0.4807723556070414,1.0003741348209956,0.0002323002610348195
-0.48068254073441496,-0.48068254073441496,1.0002918530004805,0.00022557271382064422
-0.48061625170666955,-0.48061625170666955,0.9998857838650339,0.00022451756081052517
-0.48052805491315664,-0.48052805491315664,1.0000564618983314,0.0002272507781216329
-0.48044546737364724,-0.48044546737364724,0.9999181465243101,0.00023471075935274708
-0.4803630454327504,-0.4803630454327504,0.999848523001568,0.00022912610242713634
-0.4801683339617739,-0.4801683339617739,1.0001433853278296,0.00023401010118444818
-0.4800059665889421,-0.4800059665889421,0.999949174645096,0.00023330762992008428
-0.47992590861322243,-0.47992590861322243,0.999931792362929,0.00022819680543796527
-0.47982520789446426,-0.47982520789446426,1.0002128717149845,0.00022834930780343634
-0.479783440878964,-0.479783440878964,0.9998537202455852,0.00022529631026563888
-0.47968798168658394,-0.47968798168658394,1.0002368387466931,0.000231365430663863
-0.4796108165894111,-0.4796108165894111,0.9998139197381738,0.00023054853883049077
-0.47950617520182276,-0.47950617520182276,0.9997184874082372,0.00022427066973221429
-0.47926824175810906,-0.47926824175810906,0.9997470134001036,0.00023709150989439064
-0.47913635328950477,-0.47913635328950477,1.0004634135233064,0.00022902905221431277
-0.47905610616653577,-0.47905610616653577,1.0003674146585813,0.00023446196992674972
-0.4789857329902588,-0.4789857329902588,1.0000938616060402,0.00022422471667814725
-0.4789445002592402,-0.4789445002592402,1.0002831441391935,0.00023096994537721342
-0.478835432210326,-0.478835432210326,0.9997908049470571,0.00022478787142967885
-0.47876851795444963,-0.47876851795444963,0.9999327904507286,0.00022833793081092902
-0.4785912380335503,-0.4785912380335503,1.000100562615701,0.0002280222832470077
-0.47840684042312204,-0.47840684042312204,0.9997913097223661,0.00023987727989264576
-0.4782827501243446,-0.4782827501243446,1.0002066567789272,0.00022698687924414132
-0.47819245286300427,-0.47819245286300427,0.9997590759610284,0.00022439437810402356
-0.4781467022134166,-0.4781467022134166,1.0000427924205546,0.0002252084186206705
-0.47806298122377483,-0.47806298122377483,1.000405714051834,0.0002259677441940508
-0.4779577087967482,-0.4779577087967482,0.9999417707936289,0.00023045925609353545
-0.47783729794682583,-0.47783729794682583,0.9999087082386909,0.0002267699430477675
-0.47762429084032193,-0.47762429084032193,0.999810777311297,0.00023978848025152724
-0.4774801195555483,-0.4774801195555483,1.0003060303321516,0.00022890213615935152
-0.47738461046974406,-0.47738461046974406,1.0000052265790624,0.00022338334760560246
-0.4773375691533147,-0.4773375691533147,0.9999710462094098,0.00022596598238753862
-0.4773178262672445,-0.4773178262672445,1.0000936694091156,0.00022728870480586048
-0.47726108973220105,-0.47726108973220105,1.0000534877640377,0.00023043593080264552
-0.47716744977151393,-0.47716744977151393,1.0000177076022738,0.00022879388108928284
-0.47707850335063995,-0.47707850335063995,1.0001168232269926,0.0002285565162976777
-0.47679350129837983,-0.47679350129837983,1.0004517493040512,0.00023563922879909853
-0.47662384841096356,-0.47662384841096356,1.0004310332120416,0.00022478709920459796
-0.47655301898194014,-0.47655301898194014,1.0000313396700249,0.00022243302091902998
-0.4765040395235701,-0.4765040395235701,1.0004553304724477,0.00022462089344677904
-0.47645539251461744,-0.47645539251461744,1.0003504081861707,0.00023192818397767425
-0.476358388132212,-0.476358388132212,1.0001495293258695,0.00022534286094758887
-0.4762306084579905,-0.4762306084579905,1.0000971194414845,0.00023069407477301676
-0.47591040409170093,-0.47591040409170093,1.0000863639835778,0.00023312010493845497
-0.47576608861782005,-0.47576608861782005,1.0000279267531273,0.00022675776828851363
-0.4757061844880809,-0.4757061844880809,1.0001283296350276,0.00022452188111703108
-0.47567617523745864,-0.47567617523745864,1.0000203906850245,0.00022728775018144171
-0.4756007764466631,-0.4756007764466631,0.9998950909461168,0.00023026393872831332
-0.4755146457500814,-0.4755146457500814,0.9995988834152449,0.0002264542863507915
-0.47533977726270676,-0.47533977726270676,0.9996932781130081,0.00023441207878594416
-0.4750404569182137,-0.4750404569182137,0.9999253174572426,0.00023095025846737202
-0.47493594801126165,-0.47493594801126165,0.9997040774402308,0.0002254749468952251
-0.4748829698524787,-0.4748829698524787,1.0001569751542942,0.0002235246425558075
-0.4748458805581322,-0.4748458805581322,0.999974202512288,0.0002250192458143776
-0.474774186842842,-0.474774186842842,0.999898649717732,0.0002302810351511256
-0.4746734725391434,-0.4746734725391434,1.0000185763245892,0.0002281378641951377
-0.4744103599412483,-0.4744103599412483,1.0000905784026322,0.00023235623658366994
-0.47417520789967965,-0.47417520789967965,0.9997106341829032,0.00022873131562993498
-0.47410601071460406,-0.47410601071460406,0.9996503355192623,0.00022084732914433636
-0.47405154505831887,-0.47405154505831887,1.0004109302588706,0.0002234420938172442
-0.4740125268355769,-0.4740125268355769,1.000049388363061,0.0002292293295681
-0.47392817260042647,-0.47392817260042647,1.0000588859261357,0.00022638162369982697
-0.4738460685817699,-0.4738460685817699,0.9999821532525168,0.00022725109132581983
-0.47352793259269677,-0.47352793259269677,1.00019221762259,0.00023710950713249512
-0.47333425781689586,-0.47333425781689586,0.9999447059558847,0.00022900264007170843
-0.4732772199553438,-0.4732772199553438,1.0001315417144645,0.00022073447175273078
-0.4732323201453255,-0.4732323201453255,0.9999434099614083,0.00022365872398832416
-0.47319841853386607,-0.47319841853386607,1.0002079105123418,0.00022514799616983296
-0.47312109358026644,-0.47312109358026644,0.9998920826578083,0.0002302612973187279
-0.47300617092987524,-0.47300617092987524,1.000058528593063,0.00022782038313607684
-0.4727416099070979,-0.4727416099070979,0.9998180261251477,0.00024066661773177044
-0.472519889177056,-0.472519889177056,1.0001824018075574,0.00022861480798676243
-0.4724427585992089,-0.4724427585992089,0.9998603863988018,0.00022171512439935772
-0.47240148379132735,-0.47240148379132735,0.9999080409088623,0.0002233103965334699
-0.4723651123153104,-0.4723651123153104,0.9999793083906983,0.00022922206001201379
-0.472272391361912,-0.472272391361912,0.9997488100421208,0.00022542306967683498
-0.4721455402592255,-0.4721455402592255,1.0000822463296752,0.00022970332605510543
-0.4718105825544626,-0.4718105825544626,0.9999462683277347,0.00023497934890130174
-0.4716311361240514,-0.4716311361240514,1.0000259209359323,0.0002241166486039327
-0.4715885532023094,-0.4715885532023094,1.000350016722248,0.00022190819826738568
-0.47156084433809153,-0.47156084433809153,1.0003514160353202,0.00022583285092035916
