time,time,flux,flux_err
-0.4999486750457436,-0.4999486750457436,1.0000250832571393,0.00018600506227086532
-0.49984792702222575,-0.49984792702222575,1.0000537872067419,0.0001941384487128852
-0.4996954156522406,-0.4996954156522406,0.9998954074215016,0.00017773312666808454
-0.4996407694023219,-0.4996407694023219,1.0001762397350695,0.00016692978363139915
-0.49956970007769996,-0.49956970007769996,0.9999235979582209,0.00020587084381939292
-0.49943522349058184,-0.49943522349058184,0.999833959568005,0.0001909809545197201
-0.4993301352049457,-0.4993301352049457,1.0002913804069558,0.00020343555702212807
-0.4992587687112973,-0.4992587687112973,1.0000629997391237,0.0001669773625887346
-0.49912326160265363,-0.49912326160265363,1.000062919319736,0.00016810085460800686
-0.4989588966986048,-0.4989588966986048,1.0000103676722234,0.00018528394448562896
-0.49878556087933246,-0.49878556087933246,0.999944859872498,0.00018542251225140864
-0.49864596703337155,-0.49864596703337155,0.999896485176745,0.00019325636954498304
-0.4985143194659031,-0.4985143194659031,0.9998232537477507,0.00016712184124834567
-0.4983987548868754,-0.4983987548868754,0.9999564792053072,0.00017026020453122414
-0.49833294666532313,-0.49833294666532313,0.9997539003737401,0.00019450135343464288
-0.4981723346922081,-0.4981723346922081,0.9999004761649178,0.0001705633000948396
-0.4980993309720361,-0.4980993309720361,0.9998560410643984,0.0002016688890031719
-0.4980055078412988,-0.4980055078412988,1.0000716110511887,0.0001714470641176851
-0.4979186879718327,-0.4979186879718327,1.0001161282536901,0.00019773819124435532
-0.4978027616663894,-0.4978027616663894,1.0000129951733916,0.00019325080342919642
-0.4976410278308322,-0.4976410278308322,1.000108899886951,0.0001839002929504005
-0.4975715907399717,-0.4975715907399717,1.0000265966903907,0.00018034685352047455
-0.4974752049180097,-0.4974752049180097,0.9999203727933373,0.0001745042524720937
-0.49737847610231256,-0.49737847610231256,1.0000176241501921,0.0001937058520014449
-0.4972721678132075,-0.4972721678132075,0.9998543894826287,0.00018823776123769284
-0.49719436249433785,-0.49719436249433785,0.9999270350063304,0.00019404615967370846
-0.49707821071278885,-0.49707821071278885,0.9999793090746039,0.00021316172275353575
-0.4970097613098915,-0.4970097613098915,1.0000275805315655,0.00019414089719473334
-0.49687828546448143,-0.49687828546448143,0.9998395445162119,0.00017532645725929418
-0.4967511919167009,-0.4967511919167009,1.0001429263737118,0.00018065116065741352
-0.4965873916866258,-0.4965873916866258,0.9998981857517165,0.00017392575909438643
-0.49643746800793453,-0.49643746800793453,1.0001127844883846,0.00017969244442998504
-0.4963692436736892,-0.4963692436736892,1.000020146600757,0.00017274826878095904
-0.49627469368497257,-0.49627469368497257,1.0001930680221645,0.00017623047673395476
-0.4961512056252104,-0.4961512056252104,0.9999718845275509,0.0001774508132232597
-0.4960756007996679,-0.4960756007996679,0.9998146304320985,0.00016790057286613307
-0.4958696790054091,-0.4958696790054091,0.9998296037647305,0.00020684782744975972
-0.49574838351254585,-0.49574838351254585,0.9999089553103762,0.00020561238076603687
-0.495630281407648,-0.495630281407648,1.0000018890124738,0.00017953950619978786
-0.4954734901773918,-0.4954734901773918,0.9999282728795386,0.00019434731534420917
-0.49535711773351065,-0.49535711773351065,0.9997205624478138,0.00016884162048626627
-0.4952847269174526,-0.4952847269174526,0.9998877752943447,0.00017290141878530728
-0.4951836698492116,-0.4951836698492116,0.9999487379194708,0.00018990896714185832
-0.49511402027346774,-0.49511402027346774,0.9998716135935464,0.00017419929024612712
-0.4950174697631155,-0.4950174697631155,0.9999599057117068,0.0001725920835260014
-0.49489703535000446,-0.49489703535000446,1.0000612367638413,0.00017782982308816396
-0.4947450219893653,-0.4947450219893653,0.9998499364524973,0.00017372409542099233
-0.4946125792252133,-0.4946125792252133,1.0000969023402984,0.00017994941684914157
-0.49449466518562984,-0.49449466518562984,1.0004481414376252,0.00016935992463285677
-0.4943526990929968,-0.4943526990929968,0.9998982712677353,0.0001860129312981061
-0.4941007620502205,-0.4941007620502205,0.9999399327689005,0.0001641834292291928
-0.4940013433493732,-0.4940013433493732,0.9999368684543818,0.00017724244046690683
-0.49389103559296926,-0.49389103559296926,1.0001417895613607,0.00020677838965157147
-0.49379447200335563,-0.49379447200335563,1.0001353663562829,0.00019068859606263737
-0.4936913310768432,-0.4936913310768432,0.9998292514659626,0.00018272657019304762
-0.4935992145285127,-0.4935992145285127,1.000202353320764,0.00018295585991279331
-0.4934367207730247,-0.4934367207730247,1.0001310243888504,0.00019216323060092827
-0.4932514492589689,-0.4932514492589689,1.0000359139333728,0.00018775583336772428
-0.49315828964899994,-0.49315828964899994,0.9996537790886485,0.0001896711339079615
-0.49296049179029067,-0.49296049179029067,1.0000642297988263,0.0001752616902697676
-0.49284435086592565,-0.49284435086592565,0.9997922321351286,0.00017755000584396665
-0.4927717433005455,-0.4927717433005455,1.0000529044075164,0.0001917787305604296
-0.49263496190615114,-0.49263496190615114,0.9998740992639524,0.00017748628287243823
-0.4925309294543695,-0.4925309294543695,1.00004490638995,0.00019188228765924402
-0.492398764812242,-0.492398764812242,1.0000069068539514,0.00019031887886261073
-0.492324235614069,-0.492324235614069,1.000056636485262,0.0001809623062120868
-0.49222890475939496,-0.49222890475939496,1.0001562554145742,0.0001903656446310803
-0.4921195555456507,-0.4921195555456507,0.9997051296873847,0.00017614561917246433
-0.49201751073633204,-0.49201751073633204,1.0000732163903026,0.00020953651905416455
-0.4918330981308827,-0.4918330981308827,1.000219855446817,0.0001854107525103944
-0.4917381123043015,-0.4917381123043015,0.9999560509490093,0.00018985474246804905
-0.4915988504464622,-0.4915988504464622,1.0001514204018345,0.00017258727868549022
-0.4915129590757715,-0.4915129590757715,0.9999829758306233,0.00018998682854494178
-0.49142953032787773,-0.49142953032787773,0.9999890523788405,0.00018171193275378278
-0.4912732381708338,-0.4912732381708338,0.9999493893100275,0.0001717453302341846
-0.4911552833233145,-0.4911552833233145,1.0001801674458923,0.0002010063815464991
-0.4910246882529464,-0.4910246882529464,0.999910134741158,0.00017635551069503536
-0.4909179214744654,-0.4909179214744654,1.0001325989203642,0.00017485740571799373
-0.49076714330221877,-0.49076714330221877,1.0000930119405236,0.00016824483791160074
-0.4907095373280754,-0.4907095373280754,1.0000669244985354,0.00018489557103185968
-0.49058881023811407,-0.49058881023811407,0.9996180415777142,0.0001766250180715449
-0.4904690230207052,-0.4904690230207052,1.0001250305781824,0.00017787718860864883
-0.49035694617195985,-0.49035694617195985,1.0001153346413933,0.00016876263855351414
-0.4902913728292333,-0.4902913728292333,0.9999984026737094,0.00017827404096714644
-0.49016566351638174,-0.49016566351638174,0.9999647869431822,0.00017434445287732266
-0.4900100040802499,-0.4900100040802499,0.9998676154123901,0.00019621718381086255
-0.4899163951915398,-0.4899163951915398,1.0001558171797647,0.00019261704166792455
-0.4897552608548722,-0.4897552608548722,0.9999620751972671,0.00017268749534150144
-0.4896494240274478,-0.4896494240274478,0.9999807473927322,0.00019107938128852487
-0.4895463576358452,-0.4895463576358452,1.000069329396334,0.00019493507069874244
-0.4893679216002056,-0.4893679216002056,0.9998687708639183,0.00018137059907877496
-0.48927933988306904,-0.48927933988306904,0.9997986798683145,0.00017043035611042192
-0.48915491170992026,-0.48915491170992026,0.9999980488018483,0.00017769087292703875
-0.48904565231714514,-0.48904565231714514,1.0001285192226916,0.00017299602212939995
-0.4889081672874454,-0.4889081672874454,0.9999968271519946,0.00017767229678506655
-0.48873925050647815,-0.48873925050647815,1.0001431343451848,0.0001862535034338671
-0.48862619820647524,-0.48862619820647524,1.00014015262866,0.00018998845027675974
-0.48856591641306296,-0.48856591641306296,1.0000593098068984,0.00019354454461746221
-0.4884930478518072,-0.4884930478518072,0.9999521044379233,0.0001752944875694354
-0.48837403594734496,-0.48837403594734496,1.0002164521239993,0.0001828103923899845
-0.4882219921280921,-0.4882219921280921,0.9997132673850148,0.00017745065420120542
-0.4881184422913066,-0.4881184422913066,1.000248074824508,0.00016790015800468699
-0.48801025704524365,-0.48801025704524365,0.9999647751780643,0.00018605528116964333
-0.48790962620987555,-0.48790962620987555,1.0000596944678224,0.0001943697929135579
-0.4878191268326191,-0.4878191268326191,1.0000882329136729,0.00017341087109477529
-0.48770910506209475,-0.48770910506209475,1.000129561609668,0.00017388895530249295
-0.48760869699326576,-0.48760869699326576,0.9997983378592344,0.0001842338661529592
-0.4874827494502824,-0.4874827494502824,1.0000754324180094,0.0001673679133290123
-0.48734589160521863,-0.48734589160521863,1.0000062377211871,0.00019287939363257935
-0.487087099620112,-0.487087099620112,1.0003815219445102,0.00017746481897472206
-0.4869264458407997,-0.4869264458407997,1.0002592550719078,0.00019058007014191835
-0.4867984284341219,-0.4867984284341219,1.0001826320677698,0.00017886476334718872
-0.48672314669092887,-0.48672314669092887,0.9998917548097734,0.0001935062702798151
-0.486663230277918,-0.486663230277918,1.0000960122990763,0.00019022168888534332
-0.4866043924361293,-0.4866043924361293,0.9999508510896067,0.0001774950674411998
-0.48653743368195135,-0.48653743368195135,1.0000190837123744,0.00018746332747261247
-0.4864048106217524,-0.4864048106217524,0.9998903213310616,0.0001926736830253373
-0.48629327032685976,-0.48629327032685976,0.9999124392633035,0.00016874223421035434
-0.486166567516193,-0.486166567516193,1.0000590165744567,0.00016990771118771634
-0.48603892717947017,-0.48603892717947017,1.0003883971194463,0.00018276830707611845
-0.4858770862643723,-0.4858770862643723,1.0002379733359081,0.00017954195708649027
-0.48571976802049904,-0.48571976802049904,0.9998916856675564,0.0001743853554678925
-0.4856624021580501,-0.4856624021580501,1.0000927054417157,0.0002127864763790815
-0.48560009042193997,-0.48560009042193997,0.9997335512603025,0.00017189596956126117
-0.4853857295544003,-0.4853857295544003,0.9999144497640575,0.00019090205077072772
-0.48532285005858283,-0.48532285005858283,1.0000653299972324,0.00017080009752670864
-0.4852305056905607,-0.4852305056905607,0.9997891443099718,0.00017552043543764167
-0.4850905517974752,-0.4850905517974752,0.9997014952473119,0.00020756732965109093
-0.4849861954644439,-0.4849861954644439,1.000211700325958,0.00017930874833719737
-0.4848714395593561,-0.4848714395593561,0.999894480003751,0.000196194195039647
-0.4847793734581501,-0.4847793734581501,1.0000414946003038,0.0002061887432436676
-0.48463086794145055,-0.48463086794145055,0.9999917768543829,0.00018806536200292667
-0.4845117167038552,-0.4845117167038552,1.0001024445244586,0.0001778053832142279
-0.48443348889486515,-0.48443348889486515,0.9999207504606691,0.00016420753247349667
-0.48422676566624434,-0.48422676566624434,0.9998781175298737,0.00020047804132767736
-0.4841171319305431,-0.4841171319305431,0.9996985983862133,0.0001891311997309123
-0.48404973841534227,-0.48404973841534227,0.9999313000727282,0.0001776971916270698
-0.483873923644569,-0.483873923644569,0.9999683945694369,0.00017684180802062207
-0.4837470994993055,-0.4837470994993055,1.0000143620927273,0.00017109864035658564
-0.48363752022996775,-0.48363752022996775,1.0001135100528047,0.00017887472135401692
-0.4835503900751064,-0.4835503900751064,0.9996715560359787,0.00020893738395510656
-0.4834493937698426,-0.4834493937698426,0.9999787372526752,0.00018014458953445904
-0.48330632424913345,-0.48330632424913345,1.0003414493928537,0.0001868002148767913
-0.48320387636413215,-0.48320387636413215,1.0002659960981188,0.00017300050210624333
-0.4831142663162609,-0.4831142663162609,0.999793733301391,0.00017684665556489198
-0.4829562581733626,-0.4829562581733626,0.999679383376279,0.00019357608781668615
-0.48279874561631003,-0.48279874561631003,0.9999224651209472,0.00021174513535273084
-0.48266640887522955,-0.48266640887522955,0.9998695228374889,0.00018999751402188242
-0.4824788438920223,-0.4824788438920223,0.9995933720377886,0.0001762010720709061
-0.48234554896189363,-0.48234554896189363,1.0001333853017755,0.0001803137693972959
-0.482240821482992,-0.482240821482992,1.0003587407734842,0.00018658819217434136
-0.48217980780027575,-0.48217980780027575,1.0000078983679241,0.000173474767013432
-0.48205896230065265,-0.48205896230065265,1.0000278339111763,0.00017456783140907137
-0.4819257435468899,-0.4819257435468899,1.0000184998690007,0.0001856461888649756
-0.4817873689447879,-0.4817873689447879,1.0000721632096279,0.0001868760841946642
-0.4816498680782388,-0.4816498680782388,1.0000990658911413,0.00019329543845070184
-0.481536018189945,-0.481536018189945,1.000120201863663,0.00017934930004137993
-0.4814278402620403,-0.4814278402620403,0.9999278059279353,0.00018814466175598799
-0.48124643789124094,-0.48124643789124094,0.9998318534914254,0.00019485457786784667
-0.48110659868325456,-0.48110659868325456,1.0000406815750442,0.00016998054514120135
-0.4810410514182877,-0.4810410514182877,1.0001816424173464,0.00017066344205303962
-0.4809642154832545,-0.4809642154832545,0.9999110182698956,0.0001837609859324285
-0.48085526421054964,-0.48085526421054964,0.9999657145127179,0.00019535199246293084
-0.4807277112704469,-0.4807277112704469,1.000087345653854,0.0001807552980464554
-0.48059331354379536,-0.48059331354379536,1.000030747322123,0.00019020459264750214
-0.4804775849159341,-0.4804775849159341,0.9999553671647827,0.00016935107731967983
-0.4802751231502043,-0.4802751231502043,0.9998971264289439,0.00017407553183969597
-0.48012196185954964,-0.48012196185954964,0.999998286606289,0.00018369024202421027
-0.47999740835803095,-0.47999740835803095,0.9997109737896983,0.00017363744325491634
-0.47986865173952536,-0.47986865173952536,0.9998732774845156,0.00017220304853550713
-0.47978133389988215,-0.47978133389988215,1.0002080053443667,0.00017510810804461258
-0.4796618969136034,-0.4796618969136034,0.9999947913273088,0.000178230739608602
-0.47958609869674546,-0.47958609869674546,0.9999363337369516,0.00018146828726457094
-0.47952100660913854,-0.47952100660913854,1.000143042584145,0.00018399020581696688
-0.4794104591186624,-0.4794104591186624,0.9998549851515117,0.00019271053523935665
-0.4793202675478824,-0.4793202675478824,0.9998679322408467,0.00020501550038045852
-0.47924521198656295,-0.47924521198656295,0.9999119561003692,0.00018920728308300384
-0.4791861397854518,-0.4791861397854518,1.0001801699142112,0.00016129819802855586
-0.47905930120905393,-0.47905930120905393,0.9999876220108419,0.00017301119185980177
-0.47892291856769587,-0.47892291856769587,0.9998952871154456,0.00018173364172080627
-0.4787761936131574,-0.4787761936131574,1.0003902832128726,0.00019458603632233426
-0.4786524043171084,-0.4786524043171084,1.0000724200066924,0.00018349540718870101
-0.4785367152209801,-0.4785367152209801,1.0003747779399226,0.0001933605738211101
-0.4783904119809449,-0.4783904119809449,1.0001255737162147,0.00016210404500521304
-0.4782836783451785,-0.4782836783451785,0.9998094942294127,0.0001814025005833239
-0.47813492205459623,-0.47813492205459623,1.0001222780880261,0.00019203023971362307
-0.47802452442338106,-0.47802452442338106,0.9999634899133476,0.000174921959023964
-0.47795198422754764,-0.47795198422754764,1.0000230999066544,0.00017717119910832813
-0.47776775220045237,-0.47776775220045237,0.9998490209314672,0.00018422376257770225
-0.4776112920299056,-0.4776112920299056,1.0001590289888405,0.00016416336816238577
-0.47752271424251375,-0.47752271424251375,0.999921339217896,0.0001951076064385191
-0.47742529354218277,-0.47742529354218277,0.9998035073175784,0.0001745783217869185
-0.4773192519962322,-0.4773192519962322,0.9999677168298596,0.00017420233372159063
-0.4771982264188409,-0.4771982264188409,0.9998879032733458,0.00019314160240620177
-0.47708644117446963,-0.47708644117446963,0.9999064923891187,0.00019371707373324227
-0.47697801574031473,-0.47697801574031473,0.9999168431016011,0.00020765273015905744
-0.4768820591722033,-0.4768820591722033,1.000113548835836,0.00017351344370988484
-0.4767609457929211,-0.4767609457929211,0.9999412924659259,0.00017731495251565964
-0.4766440085397335,-0.4766440085397335,1.0000059132795753,0.00017326608267797535
-0.4764800546778133,-0.4764800546778133,0.9999715944436662,0.00018067883956459494
-0.4763641483041283,-0.4763641483041283,1.0000772575266574,0.00017796010245525848
-0.4762674433506618,-0.4762674433506618,1.0001219871972515,0.0001693651550502934
-0.47616749245280515,-0.47616749245280515,1.0000454727829102,0.00017983388553906488
-0.47605954316532006,-0.47605954316532006,0.9999611172118655,0.00016968539506670058
-0.4758451718080323,-0.4758451718080323,1.0002088934412685,0.00020102563449947826
-0.4757093957232428,-0.4757093957232428,0.9997645448623572,0.0001921053083266454
-0.47558544439962136,-0.47558544439962136,1.0001142460762695,0.00019556532367044502
-0.4754912745440379,-0.4754912745440379,1.0001783562854158,0.00017473327482253313
-0.47540004944676184,-0.47540004944676184,0.9998651703536675,0.0002013024241704269
-0.47523955428550835,-0.47523955428550835,1.0001249872862967,0.00017248376952394085
-0.4751314222266956,-0.4751314222266956,0.999987038254082,0.0001899700112299284
-0.4750566711256397,-0.4750566711256397,1.0001717128954484,0.0001774710134819287
-0.4749586429956253,-0.4749586429956253,1.0000893299517377,0.00017446297602755905
-0.47481564003101084,-0.47481564003101084,0.9998740339560657,0.00020326004217282242
-0.4747135814912326,-0.4747135814912326,0.9998008604690746,0.00017193688718872312
-0.47460691757441964,-0.47460691757441964,1.0001403022039996,0.00017974742429677557
-0.47446825285078376,-0.47446825285078376,1.00014610047239,0.0001747711980665456
-0.47432973191389466,-0.47432973191389466,0.9999287488020847,0.00018792247163771394
-0.47410235474453655,-0.47410235474453655,1.0000214623574561,0.00016388630785655914
-0.4739917456441617,-0.4739917456441617,1.0000889290615722,0.00016879283909729107
-0.47389934946841095,-0.47389934946841095,1.0000801827858967,0.00021152065864775394
-0.4737906579379342,-0.4737906579379342,0.9999953270937116,0.0001924895703968754
-0.4737182861441397,-0.4737182861441397,1.0002828061729112,0.0001948901963410279
-0.47364109475456645,-0.47364109475456645,1.0001308058344782,0.00019821998056712069
-0.47359285118582195,-0.47359285118582195,1.0000268826370737,0.00020757569577323646
-0.47348214274898054,-0.47348214274898054,0.9998977600277869,0.00021209419136994137
-0.4732889047343633,-0.4732889047343633,0.9997945948163078,0.00019864516072389468
-0.47311890043492894,-0.47311890043492894,0.9998838219245354,0.00018645025153167172
-0.47299392055210776,-0.47299392055210776,0.9999806067840172,0.0001884191592075932
-0.47284314233475017,-0.47284314233475017,1.0001349568171087,0.00017715483212112171
-0.4727651189205062,-0.4727651189205062,1.000030705959864,0.00017511752535037656
-0.4726679990111734,-0.4726679990111734,0.9999315950604913,0.00019612778247862306
-0.47250499652873257,-0.47250499652873257,0.9999670577368974,0.0001937867469672591
-0.4723880091223691,-0.4723880091223691,0.9998567243852424,0.00019328971686293864
-0.4722789894753078,-0.4722789894753078,1.0000723561232778,0.00016376814773083918
-0.47219797683210346,-0.47219797683210346,1.0001636202343263,0.00020471859373490326
-0.4720680461759912,-0.4720680461759912,1.000058147002972,0.00017175046587689842
-0.4719788554488332,-0.4719788554488332,1.0000850266148034,0.00019471636177984162
-0.4718343522967189,-0.4718343522967189,1.000047507906437,0.00019644991395342237
-0.47173210039254626,-0.47173210039254626,0.9999011442309275,0.0001882483285398953
-0.471596126507211,-0.471596126507211,0.9999475785496692,0.0001739461422482629
-0.4714812067664752,-0.4714812067664752,1.0000515965421388,0.00020208237465508508
