time,time,flux,flux_err
-0.4990694606458419,-0.4990694606458419,0.999982820261728,0.002867528427200668
-0.4975049284446868,-0.4975049284446868,1.0043553293836571,0.0025986695441784094
-0.4962518832355272,-0.4962518832355272,1.002950547933511,0.0026050755892636146
-0.4952998907661822,-0.4952998907661822,0.9992875654662517,0.002551181700647079
-0.49442864067896153,-0.49442864067896153,1.0025888904231808,0.0026028156670188075
-0.49322752039079204,-0.49322752039079204,0.999928786415358,0.0026370498126275176
-0.4921543546413886,-0.4921543546413886,1.000214545247825,0.0025534984203694246
-0.4897642094278126,-0.4897642094278126,0.9986138096482119,0.002644389404347277
-0.4878196743724402,-0.4878196743724402,0.9985871811278699,0.0026678856882139503
-0.4863455357917701,-0.4863455357917701,1.0007000723823167,0.0026522655258947687
-0.48506909893912964,-0.48506909893912964,1.0000662999493626,0.0025301911909590006
-0.48356802257621895,-0.48356802257621895,1.0015712937592476,0.002657579631497726
-0.48259074608431546,-0.48259074608431546,1.0031699284467173,0.0025897927972024187
-0.48192153928102927,-0.48192153928102927,1.0021473835741663,0.002588682303254986
-0.48102876261109484,-0.48102876261109484,1.0011421291691645,0.0025208295314285327
-0.4803425284466357,-0.4803425284466357,0.9995020436469417,0.0026209507734919137
-0.4792453381458472,-0.4792453381458472,1.0018113887534086,0.0025499728085736093
-0.47773818517234756,-0.47773818517234756,0.9999356502318981,0.0025354651332793556
-0.4758195514586987,-0.4758195514586987,0.9999964476913237,0.002665428427779438
-0.4737297086183389,-0.4737297086183389,0.9980841552826798,0.002652900234946281
-0.4718868785930681,-0.4718868785930681,1.0012089100489476,0.0025852439608906553
-0.47087387671417674,-0.47087387671417674,1.0034822898959326,0.00261625575913125
-0.46950260621888446,-0.46950260621888446,0.9958547914949338,0.002655669412995371
-0.46871121351068723,-0.46871121351068723,0.9983113414361091,0.002566564738584875
-0.4677884266064211,-0.4677884266064211,0.9990124119676981,0.002581331044038155
-0.46661663918930574,-0.46661663918930574,1.0027853830323388,0.002641995166108023
-0.46577113730600106,-0.46577113730600106,0.9952998689782084,0.0025841053034713415
-0.46465323841621287,-0.46465323841621287,1.001312570332208,0.0026062117165416196
-0.46291275301991847,-0.46291275301991847,1.0003469249063879,0.0025997199485632526
-0.46104116862334193,-0.46104116862334193,1.003899867029788,0.0026650685754239256
-0.45950129688280866,-0.45950129688280866,1.0014858799399586,0.002579190920172877
-0.45824988022213803,-0.45824988022213803,0.9992922958999436,0.0025939510575879415
-0.4569955447412212,-0.4569955447412212,0.9985894319901861,0.0025739387826638157
-0.45617630489505245,-0.45617630489505245,1.0028952347484021,0.002586487565550937
-0.45555595972473384,-0.45555595972473384,0.9961294437008485,0.002553352769552959
-0.4548098899496836,-0.4548098899496836,0.9982366472612398,0.0025513212849484104
-0.4540326736794668,-0.4540326736794668,1.0003126329205512,0.002648379189702794
-0.453636710291903,-0.453636710291903,0.9999966856639722,0.0025415427280712634
-0.45224105412489735,-0.45224105412489735,1.0018422675165382,0.0025841676712350433
-0.4507020647812169,-0.4507020647812169,1.0034591788367,0.0025743725183397454
-0.4489970971524599,-0.4489970971524599,0.9990417607894961,0.0026374751937510116
-0.44769377396150956,-0.44769377396150956,1.0046518033194907,0.0026355013737639084
-0.44581796521742945,-0.44581796521742945,1.000509138480449,0.0026320191519636485
-0.4444959076550731,-0.4444959076550731,0.9991716243321773,0.0025335889694748713
-0.44294387912668753,-0.44294387912668753,0.9982778084183737,0.00259484602195825
-0.4420649646759557,-0.4420649646759557,1.0001104529713705,0.002618423150402808
-0.4409551010889118,-0.4409551010889118,1.000650254483856,0.0025410936716050146
-0.4399105004973535,-0.4399105004973535,0.9984920774767388,0.002599595243874201
-0.4391485148247739,-0.4391485148247739,0.9956059111451472,0.0025443648241587078
-0.4374644731018634,-0.4374644731018634,0.9982161597465348,0.0026078185677097755
-0.43539540484562167,-0.43539540484562167,0.9970482473135895,0.002668950067562308
-0.4335064195212908,-0.4335064195212908,0.9996340117105064,0.0025948308186469135
-0.43193192580292816,-0.43193192580292816,0.9988717594165133,0.0026037042873809473
-0.4304024254612159,-0.4304024254612159,1.0000124887518866,0.002530297330677934
-0.4291571574445697,-0.4291571574445697,0.9985231915256575,0.002608912705800071
-0.42839985188256835,-0.42839985188256835,1.0016976071805574,0.0025542843223682297
-0.42761001694598233,-0.42761001694598233,1.002710590885065,0.0026446069713437666
-0.42674357096475435,-0.42674357096475435,1.001170148357795,0.00258916556295866
-0.4253852502217342,-0.4253852502217342,1.00059609239427,0.0025970897599576445
-0.42449593151468434,-0.42449593151468434,0.9998819204552959,0.002567539557664946
-0.423296110197407,-0.423296110197407,0.9990334277939977,0.002617962937492006
-0.42184316352722817,-0.42184316352722817,0.9963565569131111,0.0027059258286947696
-0.42024691103506484,-0.42024691103506484,1.0024679823453368,0.002664053487295498
-0.4187780361797195,-0.4187780361797195,0.9971426426549177,0.0025822616008863747
-0.4168660861825629,-0.4168660861825629,1.001716963476388,0.0025917873280383178
-0.41601575259628587,-0.41601575259628587,1.000540223331584,0.002561566323251156
-0.41520754506345836,-0.41520754506345836,0.9996127077391688,0.002616794940633346
-0.4143997054990905,-0.4143997054990905,0.9993421690008759,0.0025550502424736394
-0.413427220662561,-0.413427220662561,0.9993528364910302,0.0025961757833541893
-0.4120696977610351,-0.4120696977610351,1.000310570307499,0.0025875826638881564
-0.4104793386584788,-0.4104793386584788,0.9984468555314298,0.0025223194125739328
-0.40871094072426783,-0.40871094072426783,0.9987844104580772,0.0026304805449119664
-0.40701270477002255,-0.40701270477002255,1.0009223880627873,0.0026046912629875294
-0.4052516028212267,-0.4052516028212267,0.9988867663849555,0.002587256904729595
-0.40416865551960657,-0.40416865551960657,0.9999159599922136,0.0026481144125569817
-0.4027841812101542,-0.4027841812101542,1.0031220513270358,0.0026167887047420712
-0.4018521579324442,-0.4018521579324442,1.001602091252494,0.0025528615353158134
-0.4008786537080596,-0.4008786537080596,0.9996640733555633,0.002586783686869861
-0.39971505184439593,-0.39971505184439593,1.0023704565433196,0.002641181636298039
-0.3987274138642533,-0.3987274138642533,1.0020324740752913,0.0025417587479185386
-0.3964550707656599,-0.3964550707656599,0.9998739810345281,0.002642369100448531
-0.39486678742614456,-0.39486678742614456,0.9979104294815933,0.002630320115886236
-0.39335184623560054,-0.39335184623560054,1.0015855858066933,0.0026791233929501315
-0.39223335341157506,-0.39223335341157506,1.0026517837104294,0.002575259278279211
-0.3908202391328814,-0.3908202391328814,0.9975603198504585,0.002637925997578105
-0.38966092606206076,-0.38966092606206076,1.0000061213300115,0.0025380517494488605
-0.38897339190225466,-0.38897339190225466,1.002032684443686,0.0026603874487479027
-0.3883015474617423,-0.3883015474617423,0.999710167219493,0.002560186507776299
-0.3872661931811308,-0.3872661931811308,1.0014436159666666,0.002580547458277873
-0.38651986543409295,-0.38651986543409295,0.9998468836488442,0.0025664510825576265
-0.3847368194707087,-0.3847368194707087,1.0020354106511988,0.0025597028259540583
-0.3830027493473608,-0.3830027493473608,1.0017187932953209,0.0026458552210633117
-0.3811631337812287,-0.3811631337812287,1.0000949859202577,0.002637480763005456
-0.37923247839862595,-0.37923247839862595,0.9961496218498487,0.0025900659141751647
-0.37787472989075466,-0.37787472989075466,0.9980012646410223,0.0025687533757005818
-0.37626976925021155,-0.37626976925021155,0.9993774547716076,0.002607191682523327
-0.3754011430690298,-0.3754011430690298,0.9982546767454288,0.002566259744109505
-0.37451336410231306,-0.37451336410231306,0.995816738816773,0.0026517224826158427
-0.37351410575793126,-0.37351410575793126,0.9993156652613884,0.0026291547548700058
-0.37262565532364533,-0.37262565532364533,0.9991449617529155,0.0025882995473175074
-0.3715671042715257,-0.3715671042715257,1.0010399817545046,0.002595165987903024
-0.36996905225969384,-0.36996905225969384,1.0004181769205245,0.002624044194522565
-0.3681061366231006,-0.3681061366231006,0.998721882683587,0.002664085670109057
-0.36649866806110365,-0.36649866806110365,1.0019195742003935,0.0025885057042961197
-0.36506268360899413,-0.36506268360899413,0.9979498132296083,0.0025706858136756903
-0.36368622012305424,-0.36368622012305424,0.9971661263540572,0.002573087413361383
-0.3628659055910248,-0.3628659055910248,0.9997175780715869,0.002586064502896044
-0.3622466323504341,-0.3622466323504341,1.0008295750995888,0.0025522377335357826
-0.36159414632929837,-0.36159414632929837,1.003816790697141,0.0025939384147091395
-0.3608084432620672,-0.3608084432620672,1.0014446962923027,0.0026175422171415097
-0.36032792727128254,-0.36032792727128254,0.9978884010388462,0.0025433392392763816
-0.35893171224088294,-0.35893171224088294,1.0026016267893365,0.002585190351111162
-0.357483829370176,-0.357483829370176,1.001094346981693,0.0025309718976796246
-0.3562816430407111,-0.3562816430407111,1.000069476104666,0.0026913778168372172
-0.35473320447199513,-0.35473320447199513,1.000734596678152,0.0026718034344914003
-0.3528338832344161,-0.3528338832344161,0.9954498801030004,0.002581140164536988
-0.3514683250890812,-0.3514683250890812,0.9976980956435932,0.002572317475377205
-0.3498624451822252,-0.3498624451822252,0.9993182255094208,0.0026015275142192034
-0.34893975279701406,-0.34893975279701406,1.0010886763755131,0.002603983918811711
-0.3479042900260538,-0.3479042900260538,1.0012550537792195,0.002562505280793042
-0.3466357483586762,-0.3466357483586762,0.9967604624906132,0.002567245353058162
-0.345839009253541,-0.345839009253541,0.9973069799861152,0.0025445478434569235
-0.34415505062279406,-0.34415505062279406,0.9997886416752644,0.0026080180098137905
-0.34208585823289467,-0.34208585823289467,1.0029563705604019,0.002670611254965948
-0.34019707838087926,-0.34019707838087926,1.0006879054715037,0.002594812854481008
-0.3388592841598438,-0.3388592841598438,1.0014165644341317,0.002572578438264343
-0.33737806270946746,-0.33737806270946746,0.9974422457949059,0.002575087437393832
-0.33629377897668744,-0.33629377897668744,0.9987755903977961,0.0026186140575788983
-0.33527252480344033,-0.33527252480344033,1.002814344845126,0.002536601023629828
-0.33440652215940647,-0.33440652215940647,0.9989775910061075,0.00263998992887432
-0.33370826023165134,-0.33370826023165134,1.0002271535506952,0.0025233189267046185
-0.3323147259754478,-0.3323147259754478,0.9989141931700015,0.0026611461828283467
-0.3313303470153187,-0.3313303470153187,0.9980093990837083,0.002502926971773245
-0.3299873782329087,-0.3299873782329087,1.0011315008070445,0.0026182442070318774
-0.3285335173044587,-0.3285335173044587,1.001784150809675,0.0027047824155745537
-0.3271369590802351,-0.3271369590802351,1.0003146178914422,0.002651620839880011
-0.3258295130304759,-0.3258295130304759,1.0010618214599813,0.002645903422243323
-0.3239291633391986,-0.3239291633391986,0.9990566989135301,0.002586751818520969
-0.32284601778737854,-0.32284601778737854,1.0027828517878912,0.0025634148035678867
-0.3220723792241188,-0.3220723792241188,0.9997206730049673,0.002628264433572036
-0.3212423259850766,-0.3212423259850766,1.0036823576385132,0.0025629471628254843
-0.320341035178717,-0.320341035178717,0.9998895162967992,0.00258736409181364
-0.31902861825874423,-0.31902861825874423,1.000277718623975,0.002551101550641035
-0.3175858843816968,-0.3175858843816968,1.0001532184523803,0.0025649620877887373
-0.31603595371998383,-0.31603595371998383,0.9976451118391008,0.0026150975706209895
-0.3140274344747013,-0.3140274344747013,1.0014218259697294,0.0026477907317877416
-0.3125635633208731,-0.3125635633208731,0.9992066852674419,0.0025466041274912962
-0.3112406680571439,-0.3112406680571439,0.9988623849752962,0.002676009717112679
-0.3104147027763247,-0.3104147027763247,1.0000574989443447,0.0026005950900713235
-0.3090820965488092,-0.3090820965488092,0.9990811960552046,0.002557644309583582
-0.30812533459902625,-0.30812533459902625,0.9980052897512222,0.0025856912193238427
-0.3071404489543056,-0.3071404489543056,0.9985286373364641,0.002550349467455414
-0.3060018423886504,-0.3060018423886504,0.998737079035229,0.0026479161824444113
-0.3047825281202677,-0.3047825281202677,1.0007212712705749,0.0025831551499668074
-0.30228126584042914,-0.30228126584042914,0.9994745508925131,0.0026532440650545454
-0.3005332056018233,-0.3005332056018233,1.0009725113839656,0.0026599120673132634
-0.29912080624708326,-0.29912080624708326,0.9966101925921919,0.002591299501895324
-0.29782130013627467,-0.29782130013627467,0.9961610106449592,0.0026489187943584363
-0.2965574355817807,-0.2965574355817807,0.9966461190783157,0.002526484897979451
-0.2956831137365953,-0.2956831137365953,1.000634932865187,0.0026350720313340842
-0.2949918571895978,-0.2949918571895978,0.9981439880687987,0.0025589645834363417
-0.29395603989323715,-0.29395603989323715,0.9999946766448492,0.002582320147164807
-0.2932108639193757,-0.2932108639193757,0.9989185558665165,0.0025654810593482534
-0.2914820544538088,-0.2914820544538088,1.0039442184782648,0.002582073515733525
-0.2901013685441285,-0.2901013685441285,0.9983412979633804,0.002624308418049402
-0.28785404792870395,-0.28785404792870395,0.9969958603608251,0.0026354818097477075
-0.2859235124255065,-0.2859235124255065,1.0028290100019093,0.0025893847692848287
-0.2846351599226182,-0.2846351599226182,1.001125351326476,0.002574317897188887
-0.28330112175463,-0.28330112175463,1.0007833525904863,0.0026147716882556644
-0.2822236794650962,-0.2822236794650962,0.9970327056896682,0.0025655530402955698
-0.28126430433840144,-0.28126430433840144,0.9996639389288104,0.0025621701738483982
-0.27999696231490817,-0.27999696231490817,0.9969087810419573,0.002640599172218623
-0.27915254012332297,-0.27915254012332297,1.0016627445172448,0.0025832984968239487
-0.277987633356679,-0.277987633356679,0.9974273327226519,0.0026081949043701993
-0.27623628488145185,-0.27623628488145185,0.998798158366499,0.002598346134912662
-0.2744222320689005,-0.2744222320689005,1.0011960335998784,0.00266378213505496
-0.2731572978431359,-0.2731572978431359,1.0009243743956489,0.0025980885141757295
-0.2717529092406039,-0.2717529092406039,0.9997723868849657,0.0025726538788132356
-0.27038728555780833,-0.27038728555780833,1.0027685908029584,0.0025783697590001865
-0.2695706540922401,-0.2695706540922401,1.0017325394117287,0.002609759375929775
-0.2689373059773061,-0.2689373059773061,1.00241022250534,0.002549914162860337
-0.26818987695587565,-0.26818987695587565,1.000161359682248,0.002551172869914594
-0.26739325351154547,-0.26739325351154547,1.0004198942903186,0.0026362897929730926
-0.2667934552198858,-0.2667934552198858,0.99682683471388,0.0025038921122468925
-0.2655750986712519,-0.2655750986712519,0.9985792390222119,0.0026735501670538727
-0.2643444151995936,-0.2643444151995936,1.0004917835942,0.0025619655202783935
-0.26298238435847454,-0.26298238435847454,1.0032132597791386,0.0026735159719995668
-0.2610755829809932,-0.2610755829809932,1.0005112686297593,0.0026351667768027393
-0.2591305979760364,-0.2591305979760364,1.0004281683410245,0.0026054138971281096
-0.2575920552990283,-0.2575920552990283,1.0025627578866738,0.002595530899922132
-0.25612121375161223,-0.25612121375161223,0.9982373334515048,0.0025668232558720833
-0.2552516361363814,-0.2552516361363814,1.000177458598962,0.0026073654152989336
-0.25400488919840425,-0.25400488919840425,1.0005612863423887,0.0025419392071838087
-0.25300788529857526,-0.25300788529857526,1.000600590715146,0.0025816355093152893
-0.2521212139807176,-0.2521212139807176,0.9985392707499308,0.002553814429943047
-0.250167572175269,-0.250167572175269,1.0009862568969097,0.0026067607180588776
-0.24823934189480495,-0.24823934189480495,0.998634016268667,0.0026899982182974173
-0.24675178874967968,-0.24675178874967968,1.0015793449814667,0.0025865837372056584
-0.24575492940857657,-0.24575492940857657,0.9992066068760461,0.0026047639662292125
-0.24430225400428754,-0.24430225400428754,1.0004099736105005,0.0025490399215230618
-0.2434542078866798,-0.2434542078866798,1.0032996857937184,0.0026096806736819337
-0.24217882759330678,-0.24217882759330678,1.001618752199959,0.0025618399498788533
-0.24121925703730085,-0.24121925703730085,0.9980882635259929,0.0025905256233051963
-0.24045286515101907,-0.24045286515101907,0.9961526071933834,0.0025521051311300108
-0.23921960539300927,-0.23921960539300927,0.9983009792140415,0.002660661199827728
-0.2379828626733797,-0.2379828626733797,0.9980024175060198,0.002527252818845529
-0.2363256230353727,-0.2363256230353727,0.9965887123369488,0.0026347040622170474
-0.23516766487300628,-0.23516766487300628,0.9964834637130163,0.002686962569579508
-0.23362795570792513,-0.23362795570792513,0.9992855176962878,0.002662594374267597
-0.23215858405164908,-0.23215858405164908,1.0004724010484745,0.0025849879762541075
-0.23014544035249856,-0.23014544035249856,0.9984338614699156,0.0025939353213572354
-0.22938972762858612,-0.22938972762858612,1.0008184379478104,0.0025838385167314478
-0.2285879502815078,-0.2285879502815078,1.0003308920371095,0.0026172459746428207
-0.2277803227007098,-0.2277803227007098,0.9974879838123373,0.002556903736670058
-0.22680836744912086,-0.22680836744912086,0.9992587248303106,0.002596285905715775
-0.22545091036809026,-0.22545091036809026,0.999263206106539,0.002586392218998764
-0.22394466314071906,-0.22394466314071906,1.0018323839011245,0.0024987863801001937
-0.22229298312449827,-0.22229298312449827,0.9998659516839412,0.002660222449170843
-0.22039403175585903,-0.22039403175585903,0.9982966183841201,0.0026010893779826716
-0.2189700428098149,-0.2189700428098149,1.0011921496556444,0.0026499169038607133
-0.21763938426593085,-0.21763938426593085,1.0045495631389385,0.0026249480535138693
-0.2165844146584277,-0.2165844146584277,1.000160863182603,0.0026401477690202947
-0.21559891603174036,-0.21559891603174036,0.999732930314401,0.002557965829984088
-0.21481594565702836,-0.21481594565702836,0.9999582262028905,0.002585863617623345
-0.2138311748909473,-0.2138311748909473,0.9978263738805545,0.002550891904317142
-0.2126920212220284,-0.2126920212220284,0.9988554106858881,0.0026479906293753797
-0.21147355839493684,-0.21147355839493684,1.0010572511796405,0.0025841238227967533
-0.20897183135093655,-0.20897183135093655,1.0023620746207995,0.002654368893163148
-0.20722373306634836,-0.20722373306634836,1.0006073056730636,0.002659321551735007
-0.2057516386543284,-0.2057516386543284,0.994922632187146,0.0025877578289950844
-0.20419965675610002,-0.20419965675610002,1.002351943714118,0.0026371780513412615
-0.20321875269073644,-0.20321875269073644,1.0010232778022434,0.0025254591733076003
-0.2023732242421829,-0.2023732242421829,1.0047636157308377,0.002635798814206148
-0.20168216716483583,-0.20168216716483583,1.0000583558889242,0.0025590807416664544
-0.20064588660898153,-0.20064588660898153,0.9996093331507406,0.002583892468817201
-0.19990186365976115,-0.19990186365976115,1.0012433823361888,0.0025682068434575945
-0.1981727035563381,-0.1981727035563381,1.0007081107357805,0.0025802469536915945
-0.1969988659773662,-0.1969988659773662,0.9994890485991302,0.0025790608719709744
-0.19504461421456654,-0.19504461421456654,0.9977257488856139,0.002655945841476797
-0.19340184109896655,-0.19340184109896655,1.0002381197241434,0.002618558930155218
-0.19162405467504867,-0.19162405467504867,0.9966195811401916,0.0026030060856589935
-0.1906932250029058,-0.1906932250029058,1.001518794855858,0.002593296337949775
-0.1892182724106533,-0.1892182724106533,1.0005641954226216,0.0025672898263681644
-0.18839981499113492,-0.18839981499113492,0.9981344399193126,0.0025684843219582277
-0.1871539765117632,-0.1871539765117632,1.0019644505267693,0.002607174145244856
