time,time,flux,flux_err
-0.4988288309238366,-0.4988288309238366,1.0020934449918388,0.003558150920016428
-0.49610714375072956,-0.49610714375072956,0.99987968202374,0.0035635996599909653
-0.49368185578714474,-0.49368185578714474,1.0019483005578909,0.003560064867208235
-0.4910424403903259,-0.4910424403903259,0.9953534444893783,0.003556021333684629
-0.48884925551319613,-0.48884925551319613,0.9982370517639225,0.003255221496512298
-0.48730852363441957,-0.48730852363441957,0.9973196815827234,0.003249713114813059
-0.4854824370399001,-0.4854824370399001,0.9983265109451562,0.003307993536591683
-0.48422732197650475,-0.48422732197650475,1.0010309286539358,0.0032558943896194652
-0.4826957613120612,-0.4826957613120612,1.0028019779578856,0.004093736352994028
-0.48109599328236075,-0.48109599328236075,0.9980805713311834,0.003258091722769912
-0.47956672569271175,-0.47956672569271175,0.9999276838961564,0.0035947133699348287
-0.47771246021584374,-0.47771246021584374,0.9994944823918803,0.0032786005685685135
-0.47626742280699547,-0.47626742280699547,1.0006521084193174,0.003411099831414512
-0.47446448096525273,-0.47446448096525273,1.006532240023903,0.004703026077019616
-0.4735003675203188,-0.4735003675203188,0.9996963717893415,0.0032751314390511398
-0.4713658330576436,-0.4713658330576436,1.0006189967566315,0.0032549492288029926
-0.469829515220772,-0.469829515220772,1.0021803771414644,0.0032613212397540766
-0.46687583833772806,-0.46687583833772806,1.003951610314867,0.0032374942799762454
-0.4639767352884519,-0.4639767352884519,0.996941966018024,0.003255080183279908
-0.4619089889580209,-0.4619089889580209,1.0052792895068883,0.0032799677384159113
-0.4598385952420358,-0.4598385952420358,1.0025567923611345,0.003256451451975049
-0.4578949471550004,-0.4578949471550004,1.0010945388429295,0.003250131904110512
-0.45590865305493933,-0.45590865305493933,1.0063902259993498,0.0032529081650798305
-0.4537304755242076,-0.4537304755242076,0.9952291904007975,0.0032577626101604725
-0.45237717655036247,-0.45237717655036247,0.9998444894043704,0.0032511191126548974
-0.45042440128454475,-0.45042440128454475,1.0022196761256958,0.003324126299530072
-0.4491262151990668,-0.4491262151990668,1.000569879227165,0.0032447044056063746
-0.44714575519392386,-0.44714575519392386,1.000903279831141,0.0032763060653643655
-0.44613244674619634,-0.44613244674619634,0.9975203622028342,0.003273934854017664
-0.4438973647222156,-0.4438973647222156,1.0023768271605085,0.0036754660756408673
-0.44269930886730435,-0.44269930886730435,1.0022506557838327,0.0032901730621503395
-0.44062935647161794,-0.44062935647161794,1.0011366372794057,0.003446415727599776
-0.4391547587736568,-0.4391547587736568,0.9977262184066259,0.003273990892320909
-0.43670221361826406,-0.43670221361826406,0.9972824565615219,0.0032522884678804626
-0.43515821347536987,-0.43515821347536987,1.0010812939572227,0.003260069359137474
-0.43270419904656593,-0.43270419904656593,0.9986576110569111,0.003231249924094361
-0.429823912964639,-0.429823912964639,0.9983133443488648,0.003238496769021242
-0.42757047541526844,-0.42757047541526844,0.9989403622461259,0.0032576394523746535
-0.4251749211332935,-0.4251749211332935,1.0004454661076734,0.003253837615867068
-0.4237340039726405,-0.4237340039726405,0.9981210604000992,0.0032390321486962326
-0.42146631976866045,-0.42146631976866045,0.9985153596518476,0.003253792559289855
-0.4195197852757701,-0.4195197852757701,0.9978067629743237,0.003254327814414802
-0.417975882137398,-0.417975882137398,0.9977632377094192,0.0032507965250340824
-0.41616084876077364,-0.41616084876077364,1.0016663200359024,0.0033384293916547806
-0.4147158120991662,-0.4147158120991662,0.9959739254887339,0.0032476996072365234
-0.41288355015203704,-0.41288355015203704,1.0006720014859203,0.003291666811481811
-0.4116494663467165,-0.4116494663467165,0.998680147204569,0.0032692865579068107
-0.4102136326386244,-0.4102136326386244,1.0022438800256215,0.0038069819772422408
-0.4083870363967435,-0.4083870363967435,0.9956685203963846,0.0032660492055554837
-0.4069243624566298,-0.4069243624566298,0.9976547601757826,0.0035109668741874827
-0.40511164376075615,-0.40511164376075615,0.9990896177618177,0.0032715357644807755
-0.40371436549612555,-0.40371436549612555,0.9982230937408987,0.0033724794591597123
-0.401875737215596,-0.401875737215596,0.9974924877164579,0.003258476992503342
-0.40042428135857333,-0.40042428135857333,1.0034741097106452,0.0032660170684372476
-0.39824028631846886,-0.39824028631846886,1.0002786263340422,0.0032473540120992483
-0.39569572499312927,-0.39569572499312927,1.002849753869174,0.003248815572712115
-0.3933001345845696,-0.3933001345845696,1.0046221829409365,0.003244994384373792
-0.3909508010990976,-0.3909508010990976,0.9977832518527421,0.0032537673058642197
-0.38896256737862134,-0.38896256737862134,0.9997370186513619,0.003262760575422749
-0.3868029566590849,-0.3868029566590849,1.0003244053147493,0.0032532695900872855
-0.38485529067038443,-0.38485529067038443,0.9981902863620036,0.0032569609409174817
-0.3830393237600219,-0.3830393237600219,1.0029494410218838,0.0032512053541098513
-0.3807310688083817,-0.3807310688083817,1.0008992674586863,0.00325711448857952
-0.3795003004554019,-0.3795003004554019,1.0048398471711428,0.0032974600834726983
-0.3774531346425647,-0.3774531346425647,0.9979030417330119,0.003260804704922187
-0.37653697009736786,-0.37653697009736786,0.9967709806284988,0.003243859105540556
-0.3745687426016957,-0.3745687426016957,0.9968739763507684,0.00405209872953457
-0.37353379950291127,-0.37353379950291127,1.0001591514471118,0.0032804782826844764
-0.37130230042967016,-0.37130230042967016,0.9980052220666537,0.0035678468646752706
-0.3701061197614763,-0.3701061197614763,1.004115518550788,0.003290286745639521
-0.36811337082617684,-0.36811337082617684,1.0025811136578162,0.0034021666957832555
-0.36702470168384027,-0.36702470168384027,0.9977266434151222,0.0032881662061016816
-0.36529550478589956,-0.36529550478589956,0.9980178929716995,0.0032426218310287495
-0.3637589807563927,-0.3637589807563927,0.9972214910133588,0.0032722624888968737
-0.3619095418114739,-0.3619095418114739,1.0005893058551478,0.004581726684868424
-0.35897351945823175,-0.35897351945823175,0.9997352573151286,0.0032351685082069397
-0.3562902277612011,-0.3562902277612011,1.0016230843933374,0.00326617744915192
-0.354229637523531,-0.354229637523531,0.9970166551979233,0.0032700098482832374
-0.35213972445126274,-0.35213972445126274,0.9972333606067618,0.0032557244206604433
-0.35019095458264926,-0.35019095458264926,0.9970564859065159,0.003255295881004129
-0.3483706331331632,-0.3483706331331632,0.9987974181173511,0.003250545290240396
-0.3460718487847771,-0.3460718487847771,0.99848857545475,0.0032578417935651034
-0.34483251289930195,-0.34483251289930195,0.9984602392479438,0.0033162297960834856
-0.3427898846384778,-0.3427898846384778,0.995163427630448,0.0032544185660283408
-0.3415772263535473,-0.3415772263535473,0.9977382911333266,0.003274328909464974
-0.3395218464887876,-0.3395218464887876,1.0010315905633846,0.003250266345306085
-0.3385912503465079,-0.3385912503465079,1.0002554905912215,0.003676596650767501
-0.336259780311957,-0.336259780311957,0.9962689626096661,0.0032514197675493467
-0.3351537030997861,-0.3351537030997861,1.0001395345233441,0.0034793960675600435
-0.3329916656555724,-0.3329916656555724,0.9970787639187788,0.0032511462265561674
-0.33132515466713813,-0.33132515466713813,1.0014179379475068,0.0032694016953689594
-0.3292820187554753,-0.3292820187554753,0.9983748811377066,0.003254989638293583
-0.3273855931904109,-0.3273855931904109,1.0020141312631792,0.0032533903995731438
-0.32430349709611617,-0.32430349709611617,0.9983115475612454,0.003234821635559177
-0.3217415211453044,-0.3217415211453044,1.0066582999893388,0.003248587332502901
-0.3192207988642622,-0.3192207988642622,1.0005212041612208,0.003245321715185468
-0.31723949136503504,-0.31723949136503504,1.0010038406772914,0.0032500673106888728
-0.3150747418963874,-0.3150747418963874,1.0013517178642206,0.00325656636176987
-0.3133161738573108,-0.3133161738573108,0.9982654384975909,0.0032481234635346836
-0.3111164026900951,-0.3111164026900951,1.000776844884006,0.003260373503464058
-0.3098210945681785,-0.3098210945681785,0.9996807744885301,0.003329688859395965
-0.3078289481898537,-0.3078289481898537,0.9975726664958149,0.0032581833706101177
-0.30657077851792564,-0.30657077851792564,0.9968567770173333,0.0032816474199683504
-0.30454672248888526,-0.30454672248888526,0.9986263710487702,0.0032605468520911104
-0.3037948970995785,-0.3037948970995785,0.9988557705667154,0.0038066086883981054
-0.3015935382449243,-0.3015935382449243,1.0032861809093185,0.003246136382260906
-0.3005105280528369,-0.3005105280528369,1.0030671522199381,0.0032807295686330513
-0.2987073575408431,-0.2987073575408431,1.001237323253854,0.0034933562619495805
-0.29751312715234235,-0.29751312715234235,0.9986751657596324,0.0032928745540193294
-0.295521995890158,-0.295521995890158,0.9940978305670564,0.003342232223252925
-0.29425380339307594,-0.29425380339307594,0.9997550734080658,0.0032756164330926692
-0.2922286944754887,-0.2922286944754887,1.0027806738525356,0.0032423296502979994
-0.2899835533455189,-0.2899835533455189,0.9969278309458798,0.0032561579344072824
-0.2874903597374214,-0.2874903597374214,0.9987934145478837,0.003241434067179169
-0.28518391989855446,-0.28518391989855446,0.9926753230588048,0.0032407526620150825
-0.282658652192913,-0.282658652192913,1.0013923063945651,0.003258798203208852
-0.28041358367700014,-0.28041358367700014,0.9994340488322898,0.003255487147601014
-0.2786413323206943,-0.2786413323206943,1.0020836545495801,0.003246992571635128
-0.276274266220571,-0.276274266220571,0.9996064211009266,0.0032477116022111806
-0.2743460138583032,-0.2743460138583032,0.999495187567554,0.003264712576290795
-0.2729934881615918,-0.2729934881615918,1.0010727397333015,0.003254664039868252
-0.27142220336390893,-0.27142220336390893,0.998182821367285,0.0032984886966491585
-0.2698630779297673,-0.2698630779297673,1.000953751239962,0.003259841815735686
-0.2686703034079983,-0.2686703034079983,1.0038833187262948,0.0040170130436025
-0.26660396664738073,-0.26660396664738073,0.9994492962390258,0.003254633766523194
-0.26567592774808874,-0.26567592774808874,0.9950847035247052,0.0035769315405327373
-0.26331855757161976,-0.26331855757161976,0.9995944657658121,0.003263909971050928
-0.2622679798936588,-0.2622679798936588,0.997202161638753,0.0034103166989638777
-0.26015073853996,-0.26015073853996,1.0039886552886519,0.0032748999888021907
-0.2593106910753704,-0.2593106910753704,0.9967577691568265,0.003275113766858965
-0.25717796066237497,-0.25717796066237497,1.0040011290288582,0.003256480842200464
-0.2559296281193383,-0.2559296281193383,1.00142976652616,0.004512196684837284
-0.2536715479014674,-0.2536715479014674,0.99366750980604,0.0032382901797978077
-0.2505149985387106,-0.2505149985387106,0.9944205241836835,0.0032450862553808544
-0.24799765048228437,-0.24799765048228437,1.0010794387837236,0.0032615256229293157
-0.2461205722858722,-0.2461205722858722,0.9995172792898657,0.003280139036961794
-0.24436548819357995,-0.24436548819357995,0.9974822722029902,0.003249021002923154
-0.24205182694349786,-0.24205182694349786,1.0006531052528673,0.003252525997520904
-0.24012534326902824,-0.24012534326902824,1.0016958778692526,0.003250793176785282
-0.2383307778771268,-0.2383307778771268,0.998671493312999,0.0032536782960031806
-0.23680983948506765,-0.23680983948506765,0.997058584244406,0.0033164727460865415
-0.23522658825386317,-0.23522658825386317,1.0000838062988087,0.0032583754735410553
-0.2339817575266352,-0.2339817575266352,1.0001050025410243,0.0032686339065870255
-0.23194519945463982,-0.23194519945463982,0.9962666846971551,0.0032593847691180207
-0.23100924263417255,-0.23100924263417255,0.9986088247564698,0.0036585911166322643
-0.2286586908128811,-0.2286586908128811,0.9978918012653913,0.0032667974407112727
-0.227597139608406,-0.227597139608406,0.9994879373819554,0.0034543241925485196
-0.22528543933658512,-0.22528543933658512,1.004402538527396,0.0032697443571449844
-0.22355054094587104,-0.22355054094587104,1.001685824502389,0.003259380515993532
-0.22183477044745814,-0.22183477044745814,1.0018738162610075,0.003275279868779861
-0.21963915189116962,-0.21963915189116962,0.9981095542100645,0.0032354883608238863
-0.21638955852686195,-0.21638955852686195,0.9986244217822499,0.003238166365346692
-0.2138862352767319,-0.2138862352767319,1.0006784524444898,0.003242453143404918
-0.21153142362527433,-0.21153142362527433,1.000846073051224,0.0032471997545122596
-0.20969741121662083,-0.20969741121662083,1.001252902375847,0.0032492838105971575
-0.2073876971298887,-0.2073876971298887,1.003998387242175,0.003255432386941876
-0.20545603611317348,-0.20545603611317348,0.998376654911238,0.0032463975994317324
-0.20366650623036547,-0.20366650623036547,0.9964051911385553,0.003251452739798584
-0.2020925219563651,-0.2020925219563651,0.9989790532853255,0.0033325609313356484
-0.2003962302020227,-0.2003962302020227,1.0012979170949547,0.0032500296685533158
-0.19882784995570546,-0.19882784995570546,0.9969055019740851,0.003285227921631546
-0.19726022575050592,-0.19726022575050592,0.9995463804416062,0.003258019299433733
-0.1962112451743451,-0.1962112451743451,0.9989367336777534,0.003778269766104881
-0.19399895668102546,-0.19399895668102546,0.9962065012850617,0.003254294273940373
-0.19292644374945667,-0.19292644374945667,0.9952907700526173,0.003507290806597326
-0.19071856420559924,-0.19071856420559924,0.9969004465445179,0.0032661791825251995
-0.18968020318206982,-0.18968020318206982,0.9989877003967322,0.003368842097121319
-0.1877220305344963,-0.1877220305344963,1.0024147248251234,0.0032539724333892706
-0.18672541586638544,-0.18672541586638544,1.0011014882175067,0.003261018629372162
-0.1845092158066109,-0.1845092158066109,0.9991638472104378,0.003248764057986914
-0.18221277200136682,-0.18221277200136682,0.999285623190622,0.003252620058315313
-0.17981522562913596,-0.17981522562913596,0.9975134252793444,0.0032498285432134726
-0.17729354532784783,-0.17729354532784783,1.0010637622556602,0.003243479139925233
-0.17509755780847627,-0.17509755780847627,1.0053845733221864,0.0032549093135858533
-0.1727237059873005,-0.1727237059873005,0.9981518404207013,0.0032533540422723687
-0.17078688948386117,-0.17078688948386117,0.9981731924136232,0.0032493352070031337
-0.1687989074845973,-0.1687989074845973,0.9960916195801499,0.0032453280102152974
-0.16663899572668014,-0.16663899572668014,0.9968331093426844,0.0032670011286259778
-0.16553068928551512,-0.16553068928551512,0.9975719004693471,0.0032473370817148865
-0.16370275339504586,-0.16370275339504586,1.0020154681945816,0.0033018905352451043
-0.16244871315793716,-0.16244871315793716,1.0005006724327579,0.0032516611418138266
-0.16091762488431413,-0.16091762488431413,1.002015452396026,0.003988491465701731
-0.15931524488405557,-0.15931524488405557,0.9973053273067638,0.0032516306235993823
-0.15779059535780107,-0.15779059535780107,1.002178579863486,0.0035632563302572377
-0.15593219830698218,-0.15593219830698218,0.9988419455845369,0.003274964234535524
-0.1545274466050614,-0.1545274466050614,1.0009276217076528,0.003400161853029731
-0.15280658222472993,-0.15280658222472993,1.0033164683935052,0.0032708599104018326
-0.15172447337899939,-0.15172447337899939,0.9962563340109319,0.0032696690597767927
-0.14951940914615988,-0.14951940914615988,1.0020198502856679,0.003252371436645777
-0.14784569077964987,-0.14784569077964987,1.0006801290311145,0.004441293124037823
-0.1450991823883669,-0.1450991823883669,0.999594151730579,0.003235997195328974
-0.14219878759031418,-0.14219878759031418,1.0025655369459598,0.0032514942288742223
-0.14012959127940122,-0.14012959127940122,0.9960311392517358,0.0032776141538825793
-0.13805985034487095,-0.13805985034487095,1.0004654646847198,0.0032544058011022533
-0.13649299110256835,-0.13649299110256835,1.0020937165845942,0.0032496917125942456
-0.13435100961869467,-0.13435100961869467,0.9997851686164486,0.0032507585922551124
-0.13240602693986148,-0.13240602693986148,0.9961897116323899,0.003251563698897684
-0.13086424152133985,-0.13086424152133985,0.9989442086602638,0.0032513418326196716
-0.1290418492120807,-0.1290418492120807,1.002587828671742,0.0033173413911810274
-0.12760481016957784,-0.12760481016957784,0.9981408069557599,0.0032511541091620614
-0.1257651090149011,-0.1257651090149011,0.9982257374060431,0.0032786739727752056
-0.12453302728172275,-0.12453302728172275,0.9995585492904537,0.0032740411284104915
-0.12260024444694864,-0.12260024444694864,0.9954005584498065,0.0036296968498309066
-0.12108926396176685,-0.12108926396176685,0.9987302977244011,0.0032931868328336263
-0.11934757275666925,-0.11934757275666925,0.9982463156404824,0.003423226970218273
-0.11766106299037346,-0.11766106299037346,0.9992019623105624,0.003289943009398444
-0.11530696442423505,-0.11530696442423505,0.9976458989713628,0.0032427152851066962
-0.11394630397990113,-0.11394630397990113,1.0030005666769344,0.003261815935689314
-0.11108158020069822,-0.11108158020069822,1.000709399189422,0.0032347186703748114
-0.10804944435294601,-0.10804944435294601,0.9993929234690888,0.0032332451958057688
-0.10579106277582469,-0.10579106277582469,1.001124379659515,0.003255426414713012
-0.10339613078031107,-0.10339613078031107,0.9989929871792101,0.003255461458267616
-0.10144908186266548,-0.10144908186266548,0.999651508338237,0.0032429103305159474
-0.09946362725240761,-0.09946362725240761,0.9990209360363733,0.003248811097306815
-0.09728976427504676,-0.09728976427504676,0.9951635290233719,0.0032577839112686246
-0.09593115503885201,-0.09593115503885201,1.000301181078631,0.003251105480868848
-0.09398568922551931,-0.09398568922551931,0.9978199955405682,0.003332879787955249
-0.0926798608248646,-0.0926798608248646,1.0009802670497236,0.0032423233668789934
-0.09070312876210665,-0.09070312876210665,0.9987878034322211,0.003286135504834438
-0.08973072201915784,-0.08973072201915784,1.0008238863157055,0.003270122923851989
-0.08793171924698981,-0.08793171924698981,0.9977042370818132,0.0037490999962685534
-0.08642756027111317,-0.08642756027111317,0.9966202902018839,0.0032884344606728027
-0.08467864477861439,-0.08467864477861439,1.0030028312866253,0.003478319908566246
-0.08315328332319041,-0.08315328332319041,1.0007864570629026,0.00329531034611091
-0.081476877033856,-0.081476877033856,1.0004432748412662,0.0033343796310505076
-0.0799106645732536,-0.0799106645732536,1.0007615926632596,0.0032848572803952335
-0.07819084737275261,-0.07819084737275261,1.000255206251317,0.003235305988157372
-0.07606607346606324,-0.07606607346606324,1.0019654671114657,0.003257325367949663
-0.07337291031653877,-0.07337291031653877,0.999260152565042,0.003236718565226534
-0.0711293472966645,-0.0711293472966645,0.9998326024741381,0.003256238349077486
-0.06873254614620236,-0.06873254614620236,0.9966800679148952,0.0032522627470839235
-0.06678041539926198,-0.06678041539926198,1.0017206572128088,0.0032504536931774095
-0.06479621312100789,-0.06479621312100789,1.000930899412189,0.003250185012755486
-0.06261799524072557,-0.06261799524072557,1.0017402079066993,0.0032640596371682497
-0.06089144988072803,-0.06089144988072803,0.9986260513081999,0.003238731590280338
-0.05869704421129427,-0.05869704421129427,0.9982522679932998,0.0032752823693858422
-0.057722929301235126,-0.057722929301235126,0.9961908243602151,0.003291606193694431
-0.05567351074059843,-0.05567351074059843,1.0025564884321934,0.0032478736594474026
-0.05475989305705298,-0.05475989305705298,0.9986641937135513,0.003251912274843724
-0.052790159676078474,-0.052790159676078474,0.9995490356182852,0.003953731960722803
-0.05158945530856727,-0.05158945530856727,0.9990776382715078,0.0032928575639318614
-0.049523802948533556,-0.049523802948533556,1.0027781645255618,0.0035467521827437483
-0.04832820169540355,-0.04832820169540355,1.002755223901477,0.0032918222761571464
-0.046335868447931715,-0.046335868447931715,0.9963912694265774,0.003370252834612151
-0.04524535841119359,-0.04524535841119359,0.9986202356889887,0.0032999806741769245
