time,time,flux,flux_err
-0.49986732179968385,-0.49986732179968385,1.0000903701802613,0.0004015012688288388
-0.49920916180708447,-0.49920916180708447,1.0002221753173963,0.0004056303004864689
-0.4984909936436452,-0.4984909936436452,1.0000599806922303,0.0004134686813957898
-0.4979580705810804,-0.4979580705810804,1.0001359662772644,0.0004189597583430138
-0.49759522024105535,-0.49759522024105535,1.0003895098795546,0.0004051947723631206
-0.4970284963739687,-0.4970284963739687,0.9999693702812209,0.00041070112717662326
-0.49664758821745636,-0.49664758821745636,1.0002710196336104,0.0004059323480042717
-0.49621693686931395,-0.49621693686931395,0.9999033052468095,0.0004198960948866092
-0.49579995217354733,-0.49579995217354733,1.0001857308443889,0.0004058030100987568
-0.49526099937356777,-0.49526099937356777,1.00006627456603,0.00040372503351334375
-0.49514810658147324,-0.49514810658147324,0.9995961237315388,0.00040811016146278134
-0.494688950687123,-0.494688950687123,1.0000372529641943,0.0004128948360191262
-0.49423719004407757,-0.49423719004407757,1.0002656175291675,0.00040528881765062924
-0.4935100643429905,-0.4935100643429905,1.0000604769788695,0.00040782204403093104
-0.49308867796935374,-0.49308867796935374,0.9997032826472921,0.00040694693510668847
-0.4921267243626062,-0.4921267243626062,0.9997872322258715,0.0004176564744429705
-0.4914880772703327,-0.4914880772703327,0.9993988934273424,0.0003993678256030521
-0.4909697446739301,-0.4909697446739301,0.9998433019974791,0.00040932874961007934
-0.4905906824700651,-0.4905906824700651,0.9997063932602878,0.0004084297258990074
-0.49020013235567605,-0.49020013235567605,1.0008800586062396,0.00042160608211871226
-0.48980068272794597,-0.48980068272794597,1.0001821376167206,0.0004083662839645596
-0.48939013280323707,-0.48939013280323707,1.0002605924746109,0.00040566560182078655
-0.4891709753661416,-0.4891709753661416,1.0002405134309622,0.0004071678631312737
-0.48875223665381784,-0.48875223665381784,1.000063654324563,0.00040929608971966813
-0.48837574917561144,-0.48837574917561144,1.0001355748303697,0.0004083923120815661
-0.48775942432403097,-0.48775942432403097,0.9996286627733444,0.00040781649691531453
-0.48741983673680805,-0.48741983673680805,0.9998763551918488,0.0004117409470667877
-0.48637490005785367,-0.48637490005785367,1.0004119916442082,0.00040420362543711183
-0.48573358843568715,-0.48573358843568715,0.9999057687681748,0.00040648761348740955
-0.48511550930707015,-0.48511550930707015,0.9997101236858947,0.000403953599504157
-0.48473608575441174,-0.48473608575441174,1.0002630600691496,0.0004147272967115291
-0.48439979400136507,-0.48439979400136507,0.9994595106898698,0.0004144960331914231
-0.4839330923263333,-0.4839330923263333,0.9998820738282141,0.0004057567013352755
-0.4835231404256774,-0.4835231404256774,0.9997261427380801,0.0004037138691804028
-0.4830668148089899,-0.4830668148089899,0.9997205967485403,0.0004075262734533659
-0.4825148315023398,-0.4825148315023398,1.0000278450541245,0.000408314457440155
-0.4822045890672598,-0.4822045890672598,1.0000545128481,0.000410391807749132
-0.4816393350600265,-0.4816393350600265,0.9998535381913067,0.000416416854415273
-0.481389081008092,-0.481389081008092,0.999813063498053,0.0004062456583389821
-0.4807936948913266,-0.4807936948913266,0.9998920371508093,0.00040510787079920936
-0.48017613287665883,-0.48017613287665883,0.9997819603278344,0.000425592587350872
-0.4796607579875854,-0.4796607579875854,1.0003657974774591,0.00041407666692919913
-0.4790473305300111,-0.4790473305300111,1.0001728601980844,0.00040404016106870193
-0.47873414463101654,-0.47873414463101654,0.9995930283627843,0.0004109491934066501
-0.47850825931091095,-0.47850825931091095,1.0003543149755345,0.0004184047372314136
-0.4781103034329135,-0.4781103034329135,0.9996576761274534,0.0004075689933214986
-0.4776826637506019,-0.4776826637506019,1.0002000506037672,0.00040237107996655166
-0.47731830478151094,-0.47731830478151094,1.0001849472351445,0.0004176834584624739
-0.47696115530270616,-0.47696115530270616,0.9997211431427333,0.00041329352373667313
-0.4764786757834372,-0.4764786757834372,0.9996244241731291,0.0004104210304378017
-0.47599869963014496,-0.47599869963014496,0.9999115884284272,0.00042710238323952096
-0.47569837612245464,-0.47569837612245464,0.9996869314809084,0.0004142427887844826
-0.4754213775871904,-0.4754213775871904,0.9996461863387172,0.00040344740080407187
-0.47507831245166016,-0.47507831245166016,0.9992052727233395,0.00040859908537698076
-0.4744734479987528,-0.4744734479987528,0.999913372175507,0.00041105307232147496
-0.47404627500654895,-0.47404627500654895,0.99972166438376,0.0004052636165198468
-0.4733513083250728,-0.4733513083250728,1.0004668109257318,0.00040247047121223036
-0.47292684496642323,-0.47292684496642323,1.000308094374392,0.00040442699174047863
-0.47260809290019096,-0.47260809290019096,0.999693023528442,0.0004134577243211547
-0.472318356546748,-0.472318356546748,1.0000215614635073,0.0004295924356792675
-0.47196530290530064,-0.47196530290530064,0.9999863307779593,0.00040153565613112487
-0.4714131193803041,-0.4714131193803041,1.0001388765557302,0.00040384761292856276
-0.4708669348998228,-0.4708669348998228,0.9995359607982216,0.00040337126127999506
-0.4702345580866677,-0.4702345580866677,1.0002712853438218,0.00042273402291709197
-0.4698344276039279,-0.4698344276039279,1.0000818510729155,0.0004138881578215612
-0.4693510701399646,-0.4693510701399646,0.9999092005639957,0.0004063964758229153
-0.4689576468197629,-0.4689576468197629,1.000296174460875,0.0004051278401807557
-0.46846416860207685,-0.46846416860207685,1.0000559048833966,0.000421624593026685
-0.46812232594093073,-0.46812232594093073,0.9999228481550023,0.00040684591657993784
-0.4675343421549769,-0.4675343421549769,1.000268701726052,0.00040172365249317775
-0.4673032849037554,-0.4673032849037554,0.9996993678497438,0.00040955457252646554
-0.46691916719573784,-0.46691916719573784,0.9999206895768114,0.0004076394717632468
-0.4664324451397988,-0.4664324451397988,0.9998463957515973,0.0004093802576849116
-0.4658522279278259,-0.4658522279278259,1.0002544993773792,0.0004076569662868947
-0.46536915091710396,-0.46536915091710396,0.9997860273014025,0.0004072995281780551
-0.4647303625330096,-0.4647303625330096,0.9994630715790903,0.0004177606871363917
-0.46403218573250343,-0.46403218573250343,1.0006570001649915,0.00041560458534869137
-0.46358840350585523,-0.46358840350585523,0.999862537342062,0.00040093488157878716
-0.46309016937739217,-0.46309016937739217,1.0003189534141168,0.00041201098793844024
-0.46282079429220174,-0.46282079429220174,1.0002502986580015,0.00040969162458172077
-0.4623078399017686,-0.4623078399017686,1.000153545253974,0.0004208505430294125
-0.4618630102078896,-0.4618630102078896,1.0001948847925182,0.00040837539555513703
-0.46148561908485136,-0.46148561908485136,0.9999486610890311,0.00040413076353202287
-0.4613218403654173,-0.4613218403654173,0.9995231821075281,0.0004067932770108645
-0.46107137302751655,-0.46107137302751655,1.0003598055562306,0.00041140832561279106
-0.46055123981495855,-0.46055123981495855,1.0002670455402025,0.000401098600247422
-0.46005318401003026,-0.46005318401003026,0.9997946652534585,0.00040836258004608257
-0.4596505935624009,-0.4596505935624009,1.0004125348174746,0.0004133384372310104
-0.45893388064432655,-0.45893388064432655,1.0002265365072716,0.0004043161787990208
-0.45796337779902385,-0.45796337779902385,1.0001221669185238,0.0004182103014114179
-0.45754485740035306,-0.45754485740035306,1.0005254909959713,0.0004062828181440162
-0.45704508116323267,-0.45704508116323267,0.9998015875291196,0.00041104197821281474
-0.45670637252624147,-0.45670637252624147,1.0006532609964727,0.0004068443320979189
-0.45636361838551237,-0.45636361838551237,1.000156839362032,0.00041684398106437375
-0.4558248957429896,-0.4558248957429896,0.999874871543855,0.00040547684898523665
-0.45549834635021397,-0.45549834635021397,1.000061388572281,0.00040134649976017873
-0.45492756925377764,-0.45492756925377764,1.0001645182968075,0.00040747053146557646
-0.45448163292312527,-0.45448163292312527,1.0000083451273576,0.00041505732377586184
-0.4539811541326344,-0.4539811541326344,0.9998664481370071,0.0004173825361047438
-0.4535951385070803,-0.4535951385070803,0.9996443384949621,0.0004050089472704384
-0.4527925162459724,-0.4527925162459724,0.9996254173394054,0.00040051901065111053
-0.45224663029657675,-0.45224663029657675,1.0000399024438063,0.0004340435326089933
-0.4516648312666803,-0.4516648312666803,0.999848023023182,0.0004036775088643959
-0.4510372490927693,-0.4510372490927693,0.9998531182710032,0.00040542785895480657
-0.450814246381924,-0.450814246381924,0.999887229055101,0.0004090664790164453
-0.4505744738329668,-0.4505744738329668,1.0001137456288833,0.0004448468983493997
-0.4502165135549149,-0.4502165135549149,0.9998962264891587,0.0004075438427663666
-0.4497181067432393,-0.4497181067432393,1.0000221387355832,0.0004018062206983952
-0.44937347365485036,-0.44937347365485036,0.9996935476059775,0.00041677597775118165
-0.44898608318471817,-0.44898608318471817,1.0001839818919287,0.00041207956093873636
-0.4484892414213391,-0.4484892414213391,0.9997526756935569,0.0004100567321208482
-0.44795512244454583,-0.44795512244454583,0.9990402610405358,0.0004280186525140861
-0.4476569858728908,-0.4476569858728908,0.9998761009426375,0.00040416262085033226
-0.4473864290805068,-0.4473864290805068,0.9998146590855186,0.00041027038575830726
-0.4467738317573094,-0.4467738317573094,1.0006385683562018,0.00040356316966334903
-0.4463786654698197,-0.4463786654698197,0.9996426379024099,0.00041034997620741315
-0.4457169154207804,-0.4457169154207804,1.0002412014561397,0.0004032894495450084
-0.44518491756462025,-0.44518491756462025,1.000061522699613,0.0004035222551125262
-0.44488840296980925,-0.44488840296980925,1.000006068688248,0.0004123088850369964
-0.4445601926272502,-0.4445601926272502,0.9996284337942513,0.0004208584458874693
-0.4442329644210986,-0.4442329644210986,1.0001038685810486,0.0004079775574144095
-0.4437772110875812,-0.4437772110875812,0.9996568822686187,0.00041978983688577173
-0.44336695929814596,-0.44336695929814596,1.0001906176233182,0.000404703100276633
-0.44271464576595465,-0.44271464576595465,1.000450924005385,0.0004125007988679012
-0.44213060016336386,-0.44213060016336386,0.9995549783591651,0.00041891178829502355
-0.44180164254648846,-0.44180164254648846,1.0004564614339302,0.0004052245306551891
-0.4412692150246585,-0.4412692150246585,0.9998138477522003,0.0004105630632409334
-0.4409063027589582,-0.4409063027589582,1.0001179863410419,0.0004165359415652625
-0.44053454366512595,-0.44053454366512595,0.9998727419390914,0.0004115489052867379
-0.44013000686245507,-0.44013000686245507,0.9996841670897851,0.00040552326702633125
-0.4395625980774639,-0.4395625980774639,1.0003729693176333,0.0004025160619503244
-0.4393910098107881,-0.4393910098107881,0.9998401837014643,0.0004073814295702576
-0.43902071773336504,-0.43902071773336504,0.9998798654660401,0.0004074740322975238
-0.4386045929742977,-0.4386045929742977,1.0002728453278755,0.0004102409660504045
-0.43800623378920134,-0.43800623378920134,0.999885158754404,0.0004066414349742353
-0.4373998755778302,-0.4373998755778302,0.9998739885534974,0.0004048889168538246
-0.4365860380115919,-0.4365860380115919,1.0001890701181135,0.0004243746093595288
-0.4359250315435929,-0.4359250315435929,1.000403957969167,0.0004057457828833399
-0.4353185526342713,-0.4353185526342713,1.000294283038035,0.00040742557516973085
-0.4351152150411508,-0.4351152150411508,0.9999096339061199,0.00040898104262068703
-0.4345944272121415,-0.4345944272121415,0.9997773172515758,0.0004146713402387969
-0.434049907172448,-0.434049907172448,1.000578466754765,0.00041270551793674923
-0.43358294117060725,-0.43358294117060725,0.9998397209667431,0.0004019148214444419
-0.433395341951109,-0.433395341951109,0.9997921011862273,0.00040875051510037353
-0.4328224403274362,-0.4328224403274362,1.0001399254526488,0.0004092655078496811
-0.43246396309550617,-0.43246396309550617,1.0001200175196892,0.00040879848692477045
-0.43176174315740357,-0.43176174315740357,0.9996840131869918,0.00041087386927511334
-0.4312241181789432,-0.4312241181789432,1.0002386783219845,0.00040509348613862185
-0.43006436115101676,-0.43006436115101676,1.000207682878677,0.0004121312109801625
-0.429660450128722,-0.429660450128722,1.000199462825349,0.0004063118704400184
-0.42916516358964146,-0.42916516358964146,0.9997952837451027,0.0004106976723746017
-0.42878780385217397,-0.42878780385217397,0.9999477628239802,0.0003999742303295368
-0.428463793163246,-0.428463793163246,0.9998941156123518,0.0004177517044936101
-0.4279878834611736,-0.4279878834611736,1.0000936312819675,0.00040628060824848345
-0.4276764777023345,-0.4276764777023345,0.9996917433119277,0.0004013868716942582
-0.42726881391281496,-0.42726881391281496,1.0002735467934656,0.00040828934147871807
-0.42673267160280376,-0.42673267160280376,1.0000185010197065,0.00040809849323877054
-0.42637507255130913,-0.42637507255130913,0.999394227509564,0.0004130493451698961
-0.42585310452705016,-0.42585310452705016,0.9998900384119569,0.0004136842489700352
-0.4254197907008347,-0.4254197907008347,0.9998685408990514,0.00040655349881755273
-0.42452508060378025,-0.42452508060378025,1.0001084893015662,0.0004251653639560333
-0.4240222290623933,-0.4240222290623933,1.0003017525550946,0.00040557746849446356
-0.423479670220695,-0.423479670220695,1.0001947336165167,0.0004061354865794723
-0.42301774248917356,-0.42301774248917356,0.9992083081492165,0.0004104839145467699
-0.42285638964094685,-0.42285638964094685,0.9998135507332189,0.0004023412795138271
-0.4225579302059487,-0.4225579302059487,0.9996028366353984,0.00042022228145526105
-0.42215058309811865,-0.42215058309811865,0.9998889658688753,0.0004054798797687562
-0.42162923166761174,-0.42162923166761174,0.9995292153510021,0.0004014013706542842
-0.42126604243967447,-0.42126604243967447,1.0000449731973715,0.00042426610933897084
-0.42080649970448575,-0.42080649970448575,1.000321851443174,0.0004102255599114521
-0.42028818383987526,-0.42028818383987526,0.9999778366583417,0.00042309389725888995
-0.4198568669220549,-0.4198568669220549,0.9998172796659641,0.0004064069774096349
-0.4195582400730927,-0.4195582400730927,1.0004960326496544,0.0004089852943280157
-0.41902122092724314,-0.41902122092724314,0.9997967732651418,0.0004056354152729226
-0.4185732769474271,-0.4185732769474271,1.0002592038124356,0.00040920462952536536
-0.4179537629432161,-0.4179537629432161,0.999703089741278,0.00040428335140177613
-0.4173601584858261,-0.4173601584858261,0.9996645364495175,0.00040061990890082776
-0.41699859306245346,-0.41699859306245346,1.0005163142953042,0.0004122957791751227
-0.41663371560716767,-0.41663371560716767,0.9995326315147762,0.0004220298368662047
-0.4162758090038551,-0.4162758090038551,0.999608580816175,0.0004037732621459432
-0.41579575832147386,-0.41579575832147386,1.0002036376160266,0.0004125362865722763
-0.41533357877196975,-0.41533357877196975,0.9995307862027651,0.0004015895187995384
-0.4147079857153585,-0.4147079857153585,0.9999058136466255,0.00041184590479269355
-0.41417832995648496,-0.41417832995648496,0.9997349149054673,0.0004244805999582465
-0.4137896720014396,-0.4137896720014396,0.9996648336444031,0.00040159229561068517
-0.41331051595916507,-0.41331051595916507,1.0001155286654044,0.0004091164107792671
-0.41279149337642596,-0.41279149337642596,0.9999891685997098,0.0004049858249793513
-0.4125292247525067,-0.4125292247525067,1.0001810479806434,0.0004122620021644773
-0.4120249412255362,-0.4120249412255362,0.9998644590741286,0.00040852163997057823
-0.41160494152863975,-0.41160494152863975,1.0006085213353513,0.0004070326486441618
-0.4114122459679493,-0.4114122459679493,0.9997611971295786,0.00040359383510194847
-0.4109122454348835,-0.4109122454348835,0.999735434558778,0.0004137334414972841
-0.41055585189897104,-0.41055585189897104,0.9997416930992505,0.00040546836295841053
-0.40980068344069875,-0.40980068344069875,1.000505227132163,0.0004059658353496332
-0.409211342872004,-0.409211342872004,1.000612202181038,0.0004051372931826327
-0.40836475757096197,-0.40836475757096197,0.999336173620773,0.00042585088217556385
-0.4076845570773003,-0.4076845570773003,1.0001664231981344,0.00040384834114504727
-0.4072966791849467,-0.4072966791849467,1.0003282869800487,0.0004087519803709867
-0.4068757714223466,-0.4068757714223466,0.9997463720957954,0.0004075343224515085
-0.4064834033153602,-0.4064834033153602,1.0001130908150029,0.00041389178935387653
-0.4058151242963504,-0.4058151242963504,0.9996431983378102,0.00040445701764735536
-0.4055756125453627,-0.4055756125453627,1.0001195468827608,0.00040705059643845397
-0.40521321796404663,-0.40521321796404663,1.000051852550343,0.0004086730800896596
-0.4047093444460188,-0.4047093444460188,0.9994257306039399,0.00040880229687529463
-0.40395575852162435,-0.40395575852162435,0.9996353343178551,0.0004132412351530589
-0.4033571469190065,-0.4033571469190065,1.0004083064232334,0.0004031117232680792
-0.40225864760723196,-0.40225864760723196,1.0004139225411646,0.00041550863499112585
-0.4016725812063669,-0.4016725812063669,1.0001140071698071,0.0004042014369915503
-0.4012189686094644,-0.4012189686094644,1.0004073489142435,0.00041096317968628796
-0.40074036506557603,-0.40074036506557603,1.0002692751242581,0.0004124756482534824
-0.4004640367769753,-0.4004640367769753,0.999754844680346,0.0004139720256214217
-0.3999412574907183,-0.3999412574907183,1.0000149209918856,0.0004067539088319284
-0.39965866188140353,-0.39965866188140353,0.9999713917275302,0.00040580851751584107
-0.39920469871140085,-0.39920469871140085,1.0000669024835158,0.00040412639953525355
-0.3987777973015909,-0.3987777973015909,1.0000106236928772,0.0004151009874770161
-0.398292184152524,-0.398292184152524,1.0000587462859694,0.00041772792167883883
-0.39785545082122553,-0.39785545082122553,0.9997926908297101,0.0004042269667150789
-0.397089165430225,-0.397089165430225,0.9998302637186278,0.00041051839418657635
-0.39647909363848155,-0.39647909363848155,0.9996685938527164,0.0004270366485462652
-0.39587851479300296,-0.39587851479300296,1.0001017290064058,0.0004036417873682078
-0.39525832295330476,-0.39525832295330476,1.0000857023819936,0.0004090916380423785
-0.3950264472543495,-0.3950264472543495,1.0005817738909102,0.0004079386335237844
-0.3948178204591386,-0.3948178204591386,0.9999781552402931,0.0004303380554106331
-0.3944289816980017,-0.3944289816980017,1.0000739594471586,0.0004069909105052775
-0.3939517814345891,-0.3939517814345891,0.9996600234749751,0.00040313876642831685
-0.39362382465187695,-0.39362382465187695,0.9999450465991746,0.00040837844625908495
-0.3931978317705216,-0.3931978317705216,0.9999039241951977,0.00040254950457400734
-0.392714417159732,-0.392714417159732,0.999956193245757,0.0004093583311318998
-0.3921590668571298,-0.3921590668571298,0.999804291127905,0.0004219871203422816
-0.39188222880620743,-0.39188222880620743,1.0006627759063305,0.00040841124991995394
-0.39141960171546086,-0.39141960171546086,0.9997039893676526,0.0004065137201211577
-0.39080982145096643,-0.39080982145096643,1.0003565972908481,0.00041005834153521063
-0.39022900490817847,-0.39022900490817847,1.000504881092691,0.00040428228458119385
-0.3895629826933146,-0.3895629826933146,0.9991739379530173,0.00040142498397945255
-0.3891617315632175,-0.3891617315632175,1.0001661352194806,0.0004098048686591145
-0.38884300666541094,-0.38884300666541094,0.9997688654001562,0.00041874139640197877
-0.38856190261285517,-0.38856190261285517,1.000420079355775,0.00041104252125923567
-0.38819301110343074,-0.38819301110343074,1.0008045370795229,0.00041020223814469605
-0.3876470448638429,-0.3876470448638429,1.0003062766366053,0.0004113107857600808
-0.38706064658472317,-0.38706064658472317,0.9999587673381629,0.0004128272475848029
-0.3864739837736124,-0.3864739837736124,0.9999308654812774,0.0004171689650132505
-0.3860619708008016,-0.3860619708008016,1.000084780663495,0.00040625731256130804
-0.3857030692364788,-0.3857030692364788,0.9998470784148715,0.0004091699624539062
