time,time,flux,flux_err
-0.49980030764466693,-0.49980030764466693,1.000046432891155,0.00019085037978531588
-0.49955825206270676,-0.49955825206270676,1.0000642524362848,0.0001670654215783727
-0.49933500292536337,-0.49933500292536337,1.0000567395094586,0.0001667851763520806
-0.4991221094853245,-0.4991221094853245,1.000041466684328,0.0001717621044738655
-0.4988966033808538,-0.4988966033808538,1.000127710575492,0.0001765084602178527
-0.49855459036916727,-0.49855459036916727,1.0001038274068892,0.00016637156814871125
-0.49830301289912315,-0.49830301289912315,1.0000768942754428,0.00017597928840232605
-0.49813009257777596,-0.49813009257777596,1.000019361073242,0.0001634009553561382
-0.49786627552093704,-0.49786627552093704,0.9999086330354536,0.0001794912917941407
-0.497626351256622,-0.497626351256622,1.0000868375939493,0.0001693182360388729
-0.4972657765101758,-0.4972657765101758,0.999851611952345,0.00017686979860438088
-0.4970109414658509,-0.4970109414658509,1.0001626591793833,0.00016616369317731637
-0.49679467347450557,-0.49679467347450557,0.9998996110415638,0.00018054537699530563
-0.4965476740020677,-0.4965476740020677,1.0000105258019973,0.0001664859315387241
-0.49616725532687267,-0.49616725532687267,0.9999360195358633,0.00016993682294363333
-0.4958779576030793,-0.4958779576030793,0.9999303145565787,0.00017417647680765638
-0.4955743760932819,-0.4955743760932819,0.9998222866203456,0.00019511892314926418
-0.4953298301421455,-0.4953298301421455,0.9999811426447917,0.00018546265723125857
-0.49494787176081445,-0.49494787176081445,0.9998648583982336,0.00018182367347080902
-0.4947944055136759,-0.4947944055136759,0.999813257427905,0.0001702151140692963
-0.49443399082229006,-0.49443399082229006,0.9999619986460407,0.00016697828725359661
-0.49414006553706713,-0.49414006553706713,1.0001743259955598,0.00016930166131617414
-0.4938253441156121,-0.4938253441156121,1.0000913869898025,0.00018424324042955455
-0.49340428107825574,-0.49340428107825574,0.9999646634773741,0.00017580947128361196
-0.49308503262727754,-0.49308503262727754,1.0000522196083685,0.00017267441351964408
-0.49289490325172663,-0.49289490325172663,1.00019264485635,0.00017979636179459065
-0.49264717717887835,-0.49264717717887835,1.0001904909609673,0.0001638681219537098
-0.49237747179431607,-0.49237747179431607,0.999974167134361,0.00016610829577374639
-0.4921580211186665,-0.4921580211186665,1.000031930391133,0.00017193550070979485
-0.49196863868273794,-0.49196863868273794,0.9999500612380778,0.00016859680987860577
-0.4916580359116779,-0.4916580359116779,1.0001171124945354,0.000170447517446764
-0.49127689093729715,-0.49127689093729715,1.0001058412080426,0.00017262566967637998
-0.49095957988029115,-0.49095957988029115,1.0000388558747688,0.0001785998157316546
-0.49072964329971,-0.49072964329971,1.0002305021187468,0.00016725932024614065
-0.49044628626143094,-0.49044628626143094,1.0002510818218417,0.0001661810524837076
-0.4902960609571892,-0.4902960609571892,1.0001091355131795,0.00017029890047836425
-0.4901038863885333,-0.4901038863885333,0.9999435520030808,0.00017917275664267724
-0.4899174387246603,-0.4899174387246603,0.9997525365753465,0.0001743702255212097
-0.4895028492392157,-0.4895028492392157,1.0002066152223923,0.00016192404790768946
-0.4893532687186962,-0.4893532687186962,1.000029332819504,0.00016935434888939058
-0.4891710373296519,-0.4891710373296519,0.999787997984634,0.00016883100614935371
-0.489016154257115,-0.489016154257115,1.00007301205241,0.00018237326651539688
-0.4887650515025598,-0.4887650515025598,1.0001379919629714,0.0001694260124971338
-0.48852831870754015,-0.48852831870754015,1.0001983766890414,0.00016860111288425115
-0.4883963941130787,-0.4883963941130787,1.0001874393194286,0.00016878161321080327
-0.48819897631910864,-0.48819897631910864,1.0001428014867408,0.0001612208285686044
-0.4880415924533736,-0.4880415924533736,0.9999873980910051,0.00016701284439937631
-0.48781089096301,-0.48781089096301,1.0000843936872064,0.00017968166253694136
-0.48750881249143274,-0.48750881249143274,1.0001075566510327,0.00017287789806735956
-0.4873612368843169,-0.4873612368843169,1.000114228473668,0.00016933473557269378
-0.4870762881357223,-0.4870762881357223,0.9998881404085422,0.00017400159172578726
-0.48691345809784253,-0.48691345809784253,0.9998650363422289,0.00016673171956008135
-0.4867351832173881,-0.4867351832173881,1.0001405530087042,0.00017443302754931042
-0.4864907663606573,-0.4864907663606573,1.000186930903577,0.00017932786178611893
-0.48623831562726993,-0.48623831562726993,0.9998072397974986,0.00019125766057759096
-0.48598275611439024,-0.48598275611439024,0.9999069876259716,0.0001794286467633248
-0.48574058931990294,-0.48574058931990294,0.9997190326396153,0.0001734938037262874
-0.4852266587797203,-0.4852266587797203,0.99992577145557,0.00016927703027231275
-0.4851133163756458,-0.4851133163756458,0.9999513232314049,0.00016375477999190936
-0.4848332552923239,-0.4848332552923239,1.0002740931169476,0.00016569184496039317
-0.4845277192347567,-0.4845277192347567,1.0001909876002255,0.0001703413087365195
-0.48424708936800015,-0.48424708936800015,1.000121643148622,0.00017002449664956133
-0.48406225952785464,-0.48406225952785464,1.0001634373688788,0.0001745485641887908
-0.48386550154100405,-0.48386550154100405,0.9999656412229028,0.00016890794953983043
-0.48359073920873924,-0.48359073920873924,1.0000383778895399,0.0001661850229651886
-0.4833073570436682,-0.4833073570436682,1.000023270317479,0.000174401538040242
-0.48317725833912845,-0.48317725833912845,0.9998904596050908,0.00016429462194216186
-0.48297418484144145,-0.48297418484144145,1.0001056445044572,0.00017967250746356157
-0.48256609870149986,-0.48256609870149986,0.9999977798427274,0.00016752540776925274
-0.4822844351772801,-0.4822844351772801,1.0001648400521104,0.00017323985977858334
-0.4820386858162237,-0.4820386858162237,1.00011202898649,0.00018443611750224926
-0.4818894619194907,-0.4818894619194907,0.9998358395377036,0.00016034876033719787
-0.4816465200914536,-0.4816465200914536,1.0000189690227317,0.00017194675783128836
-0.481387982526212,-0.481387982526212,0.9998418403724845,0.000173701335358882
-0.4811530163016869,-0.4811530163016869,0.9998691443958287,0.0001731310402619927
-0.4810021317505743,-0.4810021317505743,1.00002698535571,0.000173040177022281
-0.48076429914654,-0.48076429914654,0.9998062081618555,0.00016156512047990564
-0.4805836071172962,-0.4805836071172962,1.0000706174303353,0.00016416849934780124
-0.48028034034068695,-0.48028034034068695,1.0002258550883139,0.00017716665825002388
-0.479939993818698,-0.479939993818698,0.9998530936594818,0.00017288233252731798
-0.47979315139818934,-0.47979315139818934,0.9999943286802366,0.00016785207836586706
-0.4795764761263854,-0.4795764761263854,0.9999791273812846,0.00017167984252105457
-0.4793948907579761,-0.4793948907579761,1.0002804709321746,0.00016234281359039162
-0.47928114131500477,-0.47928114131500477,1.000258212677703,0.00019504931481493728
-0.47905488215910735,-0.47905488215910735,0.9998059646078277,0.0001791733605169475
-0.4788025643574656,-0.4788025643574656,0.9999589677454479,0.00017587772502644013
-0.4785521425350453,-0.4785521425350453,1.0001036469315168,0.00016946853980799324
-0.478240790021664,-0.478240790021664,0.9999907859385001,0.00016707319001685956
-0.47804915978340434,-0.47804915978340434,1.0002937374960164,0.0001720246799267956
-0.4776807772912434,-0.4776807772912434,1.0001830843783401,0.0001838381030467097
-0.4773908952542115,-0.4773908952542115,1.0000564379155472,0.0001705491831079887
-0.4771080978840473,-0.4771080978840473,1.000018785544766,0.00016923695432125523
-0.47699975283903767,-0.47699975283903767,0.9999413852370251,0.00017008571200998124
-0.4764741848601261,-0.4764741848601261,1.0002367972197632,0.00016102963901275155
-0.4763167581739253,-0.4763167581739253,0.9998997867093562,0.0001708050888545635
-0.47623337758850537,-0.47623337758850537,0.9998594501554011,0.0001697752866253706
-0.47596231912466463,-0.47596231912466463,1.0001526390784394,0.00016579001246905798
-0.47567918470158477,-0.47567918470158477,1.0000826264120146,0.0001699753657725403
-0.4754942199506331,-0.4754942199506331,1.0000340994820567,0.000172689510297299
-0.4751536007737741,-0.4751536007737741,1.0000637702524091,0.0001741091656285563
-0.4749199745900114,-0.4749199745900114,1.0000576481955032,0.00017400954476526177
-0.4745704861765262,-0.4745704861765262,1.000088390388268,0.00016989247577721834
-0.4744075233320473,-0.4744075233320473,0.9999641756189058,0.00016912746996407849
-0.47406767638312886,-0.47406767638312886,0.9999471412285852,0.00017175438901869598
-0.47362522453331624,-0.47362522453331624,1.0000334036342475,0.00017054006861650376
-0.47334298304485856,-0.47334298304485856,1.0000389118889323,0.00017312743285224463
-0.47319142312626356,-0.47319142312626356,1.0003287278443036,0.00016169048897700988
-0.4730598639042,-0.4730598639042,0.999874506025417,0.0001839704228392358
-0.472808018415526,-0.472808018415526,0.9995321794671183,0.0001688331075025161
-0.47254264076327673,-0.47254264076327673,1.000098427785737,0.0001745090019904183
-0.47230563966004413,-0.47230563966004413,0.9998886078617508,0.00017241831537442883
-0.47212251770251895,-0.47212251770251895,0.9998942938912349,0.00017691975503696125
-0.4719162459965446,-0.4719162459965446,1.000047105669198,0.00016426848831974978
-0.47160396096733165,-0.47160396096733165,1.000232448764692,0.00017274037092458573
-0.471161217604822,-0.471161217604822,1.0001007513892932,0.00017632555683960992
-0.47090097866457653,-0.47090097866457653,1.0001206318764817,0.00016777872535394845
-0.47066310550872004,-0.47066310550872004,0.9999693242967332,0.00016886656663749134
-0.47045785283262376,-0.47045785283262376,0.9999802092571113,0.00017846510844570724
-0.4701257597087533,-0.4701257597087533,0.9997139023160567,0.00018670265855827626
-0.47001156971819,-0.47001156971819,0.9997863928417005,0.00017866227265016496
-0.469783498212928,-0.469783498212928,1.0000735290870897,0.00016045614455172398
-0.46945223530783553,-0.46945223530783553,0.9998825774036154,0.00017261099091877224
-0.4691801417633542,-0.4691801417633542,0.9999152246007361,0.00017515602544211786
-0.4688324187722174,-0.4688324187722174,0.9999873957920045,0.00017821635532952348
-0.46855190530623075,-0.46855190530623075,0.9998862886950752,0.00016800693807421098
-0.46825691047270085,-0.46825691047270085,0.9999086928090805,0.00019568895568850114
-0.46812633324298075,-0.46812633324298075,1.0001974605823625,0.0001824690570082073
-0.46783402785949874,-0.46783402785949874,0.9996837474271969,0.0001695045497710204
-0.46759589107241484,-0.46759589107241484,0.999484502592432,0.00016653088617847687
-0.4674060075340094,-0.4674060075340094,1.0001027501331283,0.00016975070018225753
-0.4672596663614968,-0.4672596663614968,1.0001688288086963,0.0001661235139984882
-0.46700875144015297,-0.46700875144015297,0.9999447389264139,0.0001712812860741034
-0.4666636250040028,-0.4666636250040028,1.0001222283061637,0.00016699096621491664
-0.4664241694670636,-0.4664241694670636,1.0000379820532979,0.00018054032764964757
-0.46624482773622733,-0.46624482773622733,1.0001843494225973,0.0001722810643656995
-0.466037118883105,-0.466037118883105,1.0004287119129007,0.00017315611792975417
-0.46581065689388196,-0.46581065689388196,1.0001930697818335,0.000166757028887421
-0.4655272832183982,-0.4655272832183982,0.9999567840017611,0.00016928297746192467
-0.4653326344821835,-0.4653326344821835,1.0000687995554816,0.00017180711685031133
-0.4650467400060734,-0.4650467400060734,0.9999173522312998,0.00017651923675686849
-0.46476648863317677,-0.46476648863317677,1.000161191163782,0.0001702843677686187
-0.46446124764624985,-0.46446124764624985,0.9999395504136315,0.000166224257388732
-0.4643936407024739,-0.4643936407024739,1.0002498407980884,0.00016644212290217345
-0.4641408939409303,-0.4641408939409303,0.9998193650441791,0.00018201542193195096
-0.4638204916671384,-0.4638204916671384,0.9999077454861751,0.00017458858576460586
-0.46348926697828574,-0.46348926697828574,0.9999630975434135,0.000171696907749974
-0.463294885896903,-0.463294885896903,1.0002589727350164,0.00016320290871969795
-0.463144161447417,-0.463144161447417,0.9998702163023342,0.0001767593463638035
-0.46296781026176176,-0.46296781026176176,0.9998021537551907,0.00017073550908971384
-0.46266924806695897,-0.46266924806695897,1.0002534904066802,0.00017358921960574703
-0.46239978366502327,-0.46239978366502327,1.0000452654519392,0.0001751637877781857
-0.46210821033018873,-0.46210821033018873,1.0001484308577793,0.0001687338793639093
-0.4618444402716705,-0.4618444402716705,1.0001259174016084,0.00018842197467869298
-0.4615924256271683,-0.4615924256271683,1.0001251311024568,0.00018836513999500253
-0.4612321092718048,-0.4612321092718048,1.0000004451414906,0.0001894919663361675
-0.46110489437851354,-0.46110489437851354,0.9999799392883864,0.00017196089457756047
-0.460670352341549,-0.460670352341549,1.0000749682276246,0.0001697077820351536
-0.4603185408297577,-0.4603185408297577,1.000121142716279,0.00016974102847099675
-0.4601362693909323,-0.4601362693909323,1.0000639726258584,0.00016873707328457976
-0.4598573959243367,-0.4598573959243367,1.000243738082823,0.00017509964429435288
-0.4594802458785125,-0.4594802458785125,1.000445050241998,0.00016536390741368325
-0.45924574842792937,-0.45924574842792937,1.000120946125975,0.00018000173245111837
-0.4589771407554508,-0.4589771407554508,0.9998662802735756,0.0001692244715570017
-0.4586458818419487,-0.4586458818419487,1.0001827320665053,0.0001661624855665601
-0.45840936862368836,-0.45840936862368836,0.9998707760870008,0.00016897050650127723
-0.4582385038753273,-0.4582385038753273,1.0001369462704233,0.00017176015579728438
-0.45796321512461874,-0.45796321512461874,0.9998184492934502,0.00016966819910279633
-0.4574619729013648,-0.4574619729013648,1.0003594918334626,0.00017217471589598153
-0.457304077243316,-0.457304077243316,1.0001097014773177,0.00017487790126311369
-0.4571041461225832,-0.4571041461225832,1.0000862746958987,0.0001797989663592965
-0.4568664572638227,-0.4568664572638227,1.0000550478404158,0.00016684336837077075
-0.4566404675206286,-0.4566404675206286,0.9999851465699798,0.00016625875300952503
-0.4564598242388456,-0.4564598242388456,1.000196137913403,0.00018340507755588268
-0.4562859869023669,-0.4562859869023669,0.9997406238682439,0.00017002572901632325
-0.4561097610261641,-0.4561097610261641,0.9998803047985672,0.00017159526814707467
-0.45570092072011903,-0.45570092072011903,1.0003314220044703,0.00016603820966543144
-0.4555508059303975,-0.4555508059303975,0.9999478384110411,0.00016966753709103216
-0.4553085802210262,-0.4553085802210262,1.0002385908637657,0.00017726447668059046
-0.4550009600439807,-0.4550009600439807,1.0002910645981369,0.00017157013729880046
-0.45475110227271215,-0.45475110227271215,1.0000346401109643,0.00016624145776017056
-0.45459579097805547,-0.45459579097805547,1.0001389402217065,0.0001631127686047145
-0.4544506870064652,-0.4544506870064652,0.9999058037580933,0.00016689067691024565
-0.4543315075978171,-0.4543315075978171,0.9999790818502785,0.00019380657367126404
-0.4541517272562487,-0.4541517272562487,0.999893491686022,0.0001767871861836476
-0.4538241065281909,-0.4538241065281909,1.000159671478198,0.00017503083659881855
-0.45365565253596285,-0.45365565253596285,0.9998686804538206,0.0001664331645417579
-0.45348923531419133,-0.45348923531419133,1.0001747949120716,0.00016983404718594444
-0.4532164580756216,-0.4532164580756216,0.999975422505155,0.00017448476465173625
-0.45302384087990505,-0.45302384087990505,0.9999953746723627,0.0001729825108364721
-0.4527417904464528,-0.4527417904464528,0.9999313311991085,0.0001855177488109935
-0.4524324390818947,-0.4524324390818947,1.0000427430007004,0.00016888745638671992
-0.4521960973463138,-0.4521960973463138,1.0002055590016607,0.0001767920835156924
-0.451906911158585,-0.451906911158585,1.0002133802142628,0.00016397449749140278
-0.4514809616724961,-0.4514809616724961,1.0000392922501353,0.00016655375754677352
-0.45137003222480415,-0.45137003222480415,0.99994874221854,0.00016688332234539733
-0.4510791063381475,-0.4510791063381475,1.0000936367310949,0.0001693242429577313
-0.4508411610557232,-0.4508411610557232,1.0002832000355906,0.0001703128854863139
-0.4504928210866638,-0.4504928210866638,1.0000816342082612,0.00018104691211277355
-0.4503297933508293,-0.4503297933508293,1.0000946894970895,0.0001718772192976866
-0.4501746503257891,-0.4501746503257891,1.0000566340438153,0.00017409726188314154
-0.44998824995127507,-0.44998824995127507,0.9998179930759837,0.0001689508480555224
-0.44964858773892047,-0.44964858773892047,0.9999954885476459,0.00016886092566459161
-0.44948317825765116,-0.44948317825765116,0.9998292895965661,0.00016734233766000858
-0.44936928858223835,-0.44936928858223835,1.000033695525998,0.00017993689885679914
-0.44899294185306643,-0.44899294185306643,1.0001984952937444,0.00016611513985603001
-0.4486559323544498,-0.4486559323544498,1.0002290321587524,0.00017341941526036948
-0.44843983343307625,-0.44843983343307625,1.0000234455262098,0.00017193288660192525
-0.44823184585984566,-0.44823184585984566,1.0000192383715225,0.00017143186167746153
-0.44792499066097663,-0.44792499066097663,1.0002473744427658,0.00016913292730423327
-0.44766125966998516,-0.44766125966998516,0.9999998817896166,0.00017665308965966823
-0.4474293976527406,-0.4474293976527406,1.0001883549549047,0.00016980328946009955
-0.44720695577125297,-0.44720695577125297,0.9997999171215193,0.00017263911090761066
-0.44699341248197016,-0.44699341248197016,0.9997190132697481,0.00016193559465076704
-0.44684511733066756,-0.44684511733066756,0.9999067429415701,0.0001664885684160721
-0.4465471125091426,-0.4465471125091426,1.000215696182643,0.00017725352962154626
-0.4461452569317771,-0.4461452569317771,0.9998486247060099,0.00016895133490290934
-0.4458843619737308,-0.4458843619737308,0.9996170073754509,0.00017224704625086609
-0.44567075755767294,-0.44567075755767294,0.9997916372890489,0.00017566877216958446
-0.44537622561183526,-0.44537622561183526,1.0001552656677883,0.00017701707679269025
-0.4450761370128021,-0.4450761370128021,1.0000456321775812,0.00017638975744231972
-0.4448234772848082,-0.4448234772848082,0.999832538203673,0.0001659386906631698
-0.44454277506301876,-0.44454277506301876,0.9999643283503694,0.00019570799508719373
-0.44434062075888503,-0.44434062075888503,1.0000338451178323,0.00017233790737971377
-0.44409952801070174,-0.44409952801070174,1.0000145733653778,0.00018430843247584295
-0.44378261209640185,-0.44378261209640185,1.000164651259066,0.00017261898022341088
-0.4434348485636292,-0.4434348485636292,1.0002718165734126,0.00016434089143986362
-0.4433532020091661,-0.4433532020091661,0.9999982989536337,0.00017250939203089985
-0.4432024015681236,-0.4432024015681236,0.9997761411350183,0.00018731407653379309
-0.44269498576177285,-0.44269498576177285,0.9999609717710504,0.00016075532790271543
-0.4425454161304515,-0.4425454161304515,1.0000871366602455,0.00016705239497186524
-0.4424677516843076,-0.4424677516843076,1.0001487908936748,0.00017145789603748834
-0.4421825090917991,-0.4421825090917991,0.9998708798957459,0.00016597692023842967
-0.44191586372617164,-0.44191586372617164,1.0003135432007906,0.0001706216660386516
-0.4415451311680954,-0.4415451311680954,0.9999100991960205,0.00017756006151817827
-0.4412538784134085,-0.4412538784134085,1.0001179413410322,0.00017726823929274253
-0.44101630770019257,-0.44101630770019257,1.0000537560826395,0.0001662169368527686
-0.44073864992242306,-0.44073864992242306,0.9998462496919132,0.0001674286605495943
-0.4405986209807452,-0.4405986209807452,0.9998882955392328,0.0001698966908553387
-0.440330412016192,-0.440330412016192,0.9999047441053717,0.00017206057812732566
-0.43993280036811483,-0.43993280036811483,1.0000112034685629,0.00017079927347547899
-0.4396508714853553,-0.4396508714853553,0.9999189566709485,0.00017299021699259846
-0.4394989640510175,-0.4394989640510175,0.9999181839939085,0.00016048739560439192
-0.4394157366608852,-0.4394157366608852,0.9997406328790255,0.00016996316566033725
